0.01,-111.81,81.73,178.38,0.25,0.31,-0.16,0.96,0.21,1.57,-99.23,75.61,160.24,0.05,1.21,0.13,1.92,0.4,0.18,-164.72,5.04,10.74,-0.09,0.17,0.08,-0.05,0.02,0.16,-127.48,3.08,10.69,0.17,0.04,0.15,-0.01,0.26,0.09
0.02,-111.45,81.19,178.46,0.41,0.27,0.13,1.27,0.19,1.5,-99.25,74.12,162.07,0.22,1.24,0.24,1.74,0.33,0.22,-164.69,4.84,10.67,0.06,-0.11,0.11,0.25,-0.11,0.16,-127.48,3.04,10.59,0.0,-0.07,0.09,0.34,0.18,0.04
0.03,-111.14,80.24,178.73,0.15,0.53,0.15,1.25,0.32,1.2,-99.31,72.6,163.46,0.1,1.21,0.01,1.85,0.39,0.33,-164.72,5.0,10.77,0.08,0.08,-0.01,-0.09,-0.11,0.15,-127.22,2.94,10.64,0.08,-0.05,-0.11,0.5,0.26,0.15
0.04,-111.12,79.66,178.73,0.04,0.75,0.16,1.33,0.21,0.96,-99.23,71.01,165.39,0.25,1.41,0.11,2.0,0.34,0.3,-164.81,5.05,10.73,0.12,-0.11,0.08,0.04,0.12,-0.16,-127.16,2.87,10.48,0.06,0.08,0.19,0.67,0.24,0.05
0.05,-110.5,78.88,178.94,0.19,0.63,0.05,1.47,0.32,0.83,-99.39,69.47,166.75,0.23,1.75,0.29,1.83,0.14,0.31,-164.68,5.01,10.75,0.21,-0.1,-0.01,-0.02,0.06,0.15,-127.36,2.92,10.76,0.19,0.0,0.17,0.71,0.44,0.03
0.06,-110.38,78.02,178.78,0.02,0.86,0.18,1.32,0.33,0.72,-99.43,67.87,168.31,0.2,1.64,0.05,1.8,0.2,0.44,-164.92,4.74,10.75,0.18,-0.02,0.02,-0.03,-0.01,-0.07,-127.0,2.88,10.71,-0.16,0.06,0.27,0.71,0.5,0.19
0.07,-110.35,76.89,178.88,0.27,1.02,0.1,1.2,0.29,0.68,-99.7,65.69,169.78,0.18,1.74,0.16,1.66,0.24,0.4,-164.88,4.9,10.84,-0.01,0.15,0.1,0.06,0.11,-0.08,-126.76,2.82,10.84,-0.0,-0.12,0.22,0.82,0.59,0.27
0.08,-110.37,75.86,178.72,0.25,1.3,0.1,1.36,0.27,0.46,-99.94,63.67,171.0,0.31,1.91,-0.09,1.82,0.14,0.39,-164.88,4.91,10.57,-0.02,-0.0,0.1,-0.03,0.08,-0.04,-126.6,2.93,10.61,-0.02,-0.09,0.04,1.1,0.51,0.36
0.09,-110.69,74.61,178.48,0.07,1.31,-0.02,1.31,0.21,0.42,-100.45,61.62,172.33,0.36,1.8,0.18,1.64,0.13,0.61,-165.06,4.63,10.7,-0.06,0.05,0.02,0.07,0.09,-0.05,-126.19,2.89,10.93,0.3,-0.02,0.44,1.32,0.81,0.29
0.1,-110.49,73.33,178.38,0.26,1.31,0.22,1.0,0.25,0.5,-101.06,59.36,173.38,0.45,1.91,0.16,1.58,0.23,0.53,-164.95,5.03,10.6,0.01,0.18,0.22,0.27,0.27,-0.02,-126.1,3.17,11.04,0.38,-0.08,0.19,1.18,0.59,0.48
0.11,-110.79,72.18,178.11,0.18,1.2,0.22,1.2,0.36,0.63,-101.53,57.25,174.46,0.13,2.16,0.22,1.5,0.28,0.64,-164.99,4.72,10.71,-0.1,-0.02,0.13,0.36,0.23,-0.0,-125.72,2.94,11.18,0.33,0.08,0.24,1.34,0.36,0.77
0.12,-110.96,70.58,177.74,0.06,1.42,0.06,1.12,0.23,0.51,-102.48,54.7,175.62,0.42,1.89,0.1,1.26,0.07,0.6,-164.91,4.82,10.47,0.14,0.04,0.01,0.16,0.28,-0.03,-125.25,3.29,11.41,0.19,0.15,0.33,1.56,0.52,0.92
0.13,-111.32,69.16,177.37,0.33,1.33,0.11,0.75,0.3,0.59,-103.22,52.46,176.43,0.17,1.94,0.17,1.16,0.11,0.73,-165.07,4.74,10.41,0.13,-0.02,0.13,0.07,0.41,0.03,-124.8,3.35,11.67,0.13,0.07,0.45,1.46,0.45,1.12
0.14,-111.78,67.6,176.9,0.2,1.4,0.2,0.78,0.22,0.74,-103.9,50.12,177.12,0.38,1.94,0.2,0.89,0.2,0.54,-165.26,4.61,10.27,0.15,-0.01,0.15,0.29,0.68,0.1,-124.62,3.78,11.9,0.1,0.1,0.35,1.45,0.55,1.53
0.15,-112.08,66.39,176.61,0.15,1.23,0.3,0.88,0.14,0.84,-104.56,47.65,177.83,0.49,1.94,0.11,0.73,0.3,0.6,-165.02,4.7,10.13,0.09,-0.13,0.12,0.57,0.76,0.11,-124.33,3.82,12.16,0.16,0.24,0.16,1.42,0.5,1.74
0.16,-112.67,64.85,176.37,0.19,1.47,0.33,0.6,0.15,0.7,-105.36,45.44,178.52,0.38,1.96,0.03,0.79,0.26,0.84,-164.95,4.82,10.06,0.05,0.07,0.17,0.48,0.98,0.46,-123.78,3.98,12.33,0.37,0.14,0.4,1.24,0.58,1.96
0.17,-112.93,63.59,176.06,0.21,1.31,0.29,0.64,0.2,1.07,-105.99,43.38,178.92,0.28,1.62,0.24,0.62,0.36,0.64,-164.94,4.62,9.98,0.08,0.14,0.12,0.58,1.0,0.36,-123.81,4.12,12.28,0.26,0.07,0.21,1.1,0.47,1.91
0.18,-113.17,62.0,175.49,0.18,1.21,0.38,0.46,0.17,1.08,-106.51,41.34,179.27,0.2,1.5,0.32,0.58,0.39,0.72,-164.8,4.52,9.87,-0.01,0.1,0.3,0.34,1.09,0.73,-123.51,4.59,12.42,0.23,0.27,0.27,1.15,0.37,2.44
0.19,-113.44,60.44,175.44,0.22,1.22,0.15,0.67,0.44,1.06,-107.05,39.38,179.57,0.13,1.38,0.12,0.72,0.13,0.59,-164.52,4.66,9.55,0.04,0.1,0.17,0.57,1.21,0.99,-123.57,4.74,12.69,0.21,0.37,0.31,0.95,0.28,2.49
0.2,-113.96,59.35,175.08,0.14,1.06,0.18,0.68,0.21,0.91,-107.47,37.69,179.73,0.17,1.38,0.03,0.57,0.49,0.55,-164.23,4.59,9.54,0.14,0.22,0.27,0.61,1.23,1.05,-123.51,5.23,12.82,0.0,0.3,0.04,0.65,0.41,2.52
0.21,-114.02,58.75,175.32,0.16,1.07,0.04,0.48,0.17,1.03,-107.47,36.99,179.83,0.24,1.37,-0.04,0.46,0.32,0.65,-164.05,4.42,9.48,-0.04,-0.02,0.3,0.7,1.12,1.2,-123.65,5.35,12.64,0.13,0.39,0.05,0.8,0.32,2.48
0.22,-113.91,58.13,175.19,0.19,1.24,-0.02,0.58,0.24,0.83,-107.54,36.14,180.01,0.07,1.15,0.04,0.66,0.19,0.87,-163.92,4.53,9.3,0.09,0.06,0.29,0.59,1.16,1.24,-123.5,5.73,12.93,0.05,0.34,0.04,0.65,0.56,2.83
0.23,-114.3,57.18,175.15,0.12,1.05,0.05,0.72,0.11,0.88,-107.5,34.72,179.97,0.01,1.12,0.1,0.73,0.24,0.93,-163.67,4.32,9.07,0.25,0.06,0.24,0.55,1.04,1.58,-123.55,5.91,12.91,0.18,0.44,0.08,0.75,0.65,2.54
0.24,-114.66,55.74,174.99,0.0,1.23,0.12,0.69,0.35,0.79,-107.6,33.35,180.12,0.03,0.96,0.2,0.68,0.31,0.63,-163.47,4.38,9.19,0.07,-0.05,0.25,0.72,0.92,1.82,-123.82,6.22,13.04,0.1,0.56,0.12,0.4,0.46,2.55
0.25,-114.86,54.78,175.18,0.34,1.09,0.06,0.79,0.28,0.82,-107.48,32.19,180.06,0.11,0.87,0.1,0.71,0.3,0.8,-163.07,4.37,9.11,0.05,0.03,0.28,0.54,0.87,2.26,-123.94,6.5,12.96,-0.07,0.33,0.2,0.44,0.56,2.31
0.26,-114.96,53.94,175.23,0.16,0.99,0.03,0.69,0.42,0.66,-107.16,31.17,179.79,0.22,0.92,0.19,0.69,0.45,0.73,-162.79,4.28,8.95,0.28,0.17,0.29,0.38,1.0,2.19,-124.15,6.9,13.04,0.14,0.21,-0.05,0.57,0.45,2.17
0.27,-115.14,52.79,175.33,0.13,0.8,0.24,0.83,0.5,0.56,-106.83,30.21,179.84,0.15,0.85,0.32,0.56,0.53,0.96,-162.34,4.28,8.97,0.06,-0.1,0.26,0.35,0.89,2.72,-124.29,7.15,12.86,0.11,0.33,-0.07,0.5,0.48,1.86
0.28,-115.22,51.73,175.39,0.27,0.98,0.16,0.67,0.41,0.41,-106.72,29.15,179.66,0.22,0.7,0.1,0.62,0.35,0.63,-162.21,4.29,9.23,0.02,-0.02,0.26,0.25,0.85,2.53,-124.48,7.51,12.9,0.04,0.23,0.03,0.7,0.68,1.59
0.29,-115.23,50.81,175.21,0.28,0.86,-0.02,0.74,0.77,0.31,-106.51,28.61,179.56,0.16,0.66,0.16,0.63,0.31,0.59,-162.05,4.27,9.1,0.18,-0.05,0.21,0.25,0.82,2.52,-124.78,7.99,12.86,0.02,0.37,0.22,0.78,0.59,1.42
0.3,-115.5,49.91,175.37,0.28,0.73,0.12,0.5,0.38,0.2,-106.01,27.78,179.35,0.15,0.57,0.31,0.46,0.2,0.54,-161.91,4.01,9.25,0.15,-0.12,0.22,0.18,0.64,2.44,-125.16,7.97,13.14,0.07,0.32,0.12,0.88,0.67,1.55
0.31,-115.53,49.02,175.23,0.25,0.75,0.03,0.73,0.54,0.29,-105.74,27.04,179.0,0.02,0.6,0.09,0.48,0.3,0.78,-161.7,3.92,9.77,0.2,0.22,0.04,0.32,0.51,2.35,-125.23,8.26,13.12,0.04,0.04,0.32,0.88,0.59,1.28
0.32,-115.79,48.18,175.19,-0.08,0.59,0.28,0.62,0.46,0.29,-105.36,26.58,178.67,0.05,0.57,0.07,0.32,0.31,0.49,-161.48,3.7,9.65,0.3,0.13,0.17,0.14,0.62,2.13,-125.57,8.5,13.25,0.11,0.33,0.12,0.93,0.5,0.94
0.33,-116.0,47.34,175.23,0.05,0.63,-0.01,0.46,0.47,0.07,-105.15,25.89,178.38,0.12,0.49,0.36,0.37,0.32,0.63,-161.57,3.76,10.02,0.08,0.04,0.05,0.19,0.6,2.13,-125.72,8.48,13.52,0.19,0.25,0.16,1.23,0.45,0.98
0.34,-116.26,46.54,175.04,0.14,0.51,0.16,0.42,0.49,0.27,-105.17,25.27,178.21,0.09,0.31,0.0,0.25,0.28,0.65,-161.62,3.75,10.21,-0.04,0.18,0.12,0.21,0.47,1.64,-126.12,8.92,13.58,0.32,0.21,0.08,1.03,0.47,1.05
0.35,-116.51,45.93,174.76,0.43,0.51,-0.08,0.47,0.19,0.13,-104.88,24.9,177.92,0.23,0.29,0.05,0.52,0.37,0.61,-161.43,3.44,10.41,0.03,0.37,0.05,0.36,0.77,1.73,-126.36,9.13,13.84,0.17,0.34,0.25,0.9,0.5,0.98
0.36,-116.79,44.98,174.66,-0.07,0.4,0.08,0.43,0.6,0.43,-104.81,24.39,177.55,0.16,0.29,0.04,0.36,0.1,0.75,-161.72,3.2,11.03,0.05,0.06,0.08,0.26,0.84,1.31,-126.42,9.5,14.29,0.38,0.09,0.31,0.89,0.43,1.2
0.37,-117.34,44.35,174.3,0.13,0.31,0.08,0.4,0.34,0.31,-104.84,24.24,177.75,0.26,0.29,0.17,0.36,0.23,0.64,-161.53,3.23,11.24,0.19,0.2,0.02,0.55,0.77,1.25,-126.95,9.65,14.6,0.1,0.26,0.28,1.05,0.37,1.31
0.38,-117.44,43.66,173.94,0.25,0.34,-0.01,0.37,0.47,0.26,-104.86,23.49,177.34,0.08,0.12,-0.03,0.18,0.25,0.85,-161.78,2.93,11.45,0.18,0.02,0.16,0.51,0.87,1.05,-127.21,10.03,15.02,0.2,0.24,0.32,1.16,0.5,1.45
0.39,-117.8,43.25,173.89,0.15,0.57,0.14,0.46,0.48,0.31,-104.63,23.23,177.26,0.17,0.3,-0.14,0.3,0.29,1.21,-161.81,2.96,11.76,0.2,0.18,0.33,0.51,0.91,1.03,-127.78,10.46,15.61,0.61,0.59,0.22,1.05,0.41,1.61
0.4,-118.18,42.7,173.49,0.16,0.47,0.02,0.36,0.44,0.57,-104.66,22.82,177.12,0.05,0.28,0.11,0.19,0.27,0.85,-162.13,2.79,12.11,0.08,0.21,0.12,0.4,0.68,0.77,-128.02,10.67,16.17,0.33,0.39,0.32,0.8,0.61,1.65
0.41,-118.23,42.2,173.48,0.22,0.43,-0.1,0.53,0.27,0.59,-104.84,22.63,177.07,0.13,0.05,0.19,0.48,0.21,1.11,-162.3,2.74,11.85,0.24,0.12,0.18,0.78,1.03,0.62,-128.53,11.08,16.82,0.5,0.57,0.46,0.94,0.43,1.84
0.42,-118.55,42.14,173.62,0.21,0.51,0.15,0.64,0.34,0.54,-104.74,22.56,177.07,0.16,0.21,0.0,0.44,0.13,0.96,-162.25,2.79,12.22,-0.02,0.02,0.35,0.76,0.82,0.87,-128.52,11.22,17.27,0.41,0.72,0.12,0.75,0.6,1.7
0.43,-118.71,42.03,173.31,0.1,0.29,0.07,0.53,0.48,0.38,-104.81,22.35,176.85,0.17,0.26,0.08,0.51,0.32,1.15,-162.58,2.77,12.12,0.02,0.02,0.24,0.58,0.91,0.73,-128.89,11.6,17.4,0.3,0.52,0.14,0.86,0.52,1.79
0.44,-118.76,42.08,173.07,0.2,0.23,0.08,0.55,0.38,0.32,-104.8,22.3,176.87,0.15,0.33,-0.01,0.71,0.25,1.17,-162.8,2.71,12.22,0.25,0.0,0.14,0.84,0.87,0.84,-129.5,12.03,17.84,0.37,0.69,0.21,0.64,0.63,1.64
0.45,-118.99,41.81,173.11,0.14,0.4,-0.08,0.75,0.65,0.65,-105.02,21.96,176.82,0.23,0.06,0.03,0.64,0.2,1.36,-163.04,2.76,12.1,0.17,0.12,0.42,0.63,1.18,0.92,-129.86,12.77,18.61,0.32,0.66,0.21,0.67,0.76,1.75
0.46,-119.06,41.97,173.23,0.37,0.39,0.14,0.91,0.33,0.47,-104.92,21.98,176.99,0.04,0.33,0.18,0.95,0.32,1.28,-163.72,3.05,11.8,0.28,0.15,0.34,0.77,1.08,1.17,-130.38,13.25,19.14,0.38,0.6,0.38,0.62,0.7,1.65
0.47,-119.25,42.4,173.23,0.21,0.27,0.18,0.88,0.32,0.83,-105.0,21.59,176.97,0.12,0.03,0.18,0.9,0.27,1.5,-164.27,3.01,11.8,0.19,-0.09,0.49,0.57,0.92,1.1,-130.52,13.83,19.99,0.41,0.68,0.47,0.73,0.76,1.75
0.48,-119.04,42.29,173.34,0.43,0.44,-0.09,0.94,0.28,0.48,-105.13,21.75,177.02,0.14,0.16,0.14,0.84,0.6,1.58,-164.76,3.07,11.34,0.39,0.13,0.66,0.71,1.03,1.22,-130.72,14.63,20.24,0.49,0.64,0.3,0.54,0.83,1.7
0.49,-119.23,42.68,173.56,0.23,0.36,0.22,1.05,0.39,0.79,-105.16,21.82,177.04,0.13,0.35,0.17,0.85,0.31,1.7,-165.42,3.16,11.12,0.42,-0.06,0.55,0.58,1.15,1.29,-130.94,15.28,21.0,0.32,0.71,0.42,0.6,0.78,1.68
0.5,-119.0,43.26,173.63,0.25,0.42,0.25,1.0,0.5,0.47,-105.2,21.93,176.98,0.04,0.37,0.08,0.94,0.37,1.53,-165.97,3.41,10.47,0.25,0.07,0.51,0.68,1.2,1.49,-130.91,15.95,21.5,0.31,0.56,0.36,0.66,0.92,1.41
0.51,-118.59,43.54,173.9,0.22,0.37,0.07,1.0,0.67,0.64,-105.24,22.07,177.0,0.3,0.12,0.15,0.83,0.31,1.59,-166.89,3.55,10.07,0.3,-0.01,0.69,0.52,1.08,1.49,-130.89,16.51,21.8,0.25,0.51,0.36,0.46,0.76,1.4
0.52,-118.59,44.26,174.24,0.24,0.36,0.01,0.82,0.49,0.57,-105.29,22.37,177.04,0.2,0.23,0.27,0.86,0.23,1.47,-167.6,3.51,9.49,0.37,0.07,0.67,0.58,0.99,1.42,-131.02,16.94,22.28,0.41,0.65,0.53,0.66,1.04,1.21
0.53,-118.4,44.78,174.22,0.19,0.69,0.18,0.95,0.53,0.47,-105.32,22.47,177.3,0.03,0.4,0.07,0.97,0.38,1.57,-168.42,3.64,9.15,0.39,0.14,0.77,0.4,1.06,1.34,-130.91,17.5,22.61,0.46,0.46,0.48,0.75,0.99,1.37
0.54,-117.86,45.5,174.64,0.28,0.49,0.19,0.84,0.41,0.68,-105.34,22.74,177.29,0.18,0.5,0.11,0.63,0.44,1.37,-169.41,3.74,8.34,0.35,0.27,0.85,0.45,1.33,1.3,-130.63,18.03,23.2,0.42,0.35,0.45,0.62,0.84,1.25
0.55,-117.42,45.71,174.81,0.15,0.48,0.17,1.08,0.52,0.66,-105.14,23.31,177.41,0.23,0.48,0.12,0.78,0.41,1.33,-169.92,3.8,7.85,0.4,0.11,0.72,0.58,1.12,1.24,-130.42,18.23,23.88,0.43,0.27,0.41,0.56,1.07,1.2
0.56,-117.23,46.45,175.18,0.04,0.33,0.05,1.04,0.43,0.47,-105.59,23.72,177.69,0.18,0.33,-0.03,0.66,0.49,1.08,-170.67,3.91,7.29,0.68,0.22,0.55,0.54,1.09,1.06,-130.04,18.64,24.1,0.38,0.38,0.62,0.69,0.93,1.27
0.57,-116.81,47.06,175.28,-0.01,0.29,-0.11,0.67,0.47,0.48,-105.45,24.28,177.68,0.1,0.67,0.03,0.64,0.43,1.12,-171.25,3.79,6.74,0.39,0.21,0.61,0.64,1.23,0.87,-130.02,19.19,24.52,0.41,0.26,0.44,0.72,0.68,1.31
0.58,-116.32,47.53,175.43,0.33,0.41,0.13,0.81,0.39,0.42,-105.39,24.75,177.97,-0.02,0.43,0.21,0.75,0.35,0.83,-171.63,3.77,6.11,0.28,0.23,0.7,0.49,1.4,0.8,-129.8,19.22,24.98,0.33,0.09,0.14,0.51,0.88,1.48
0.59,-116.06,47.9,175.76,0.27,0.32,0.27,0.69,0.58,0.47,-105.5,25.53,178.21,0.12,0.45,-0.03,0.63,0.33,1.02,-172.27,3.68,5.71,0.4,0.2,0.45,0.63,1.26,0.81,-129.9,19.19,25.27,0.5,0.09,0.23,0.73,0.78,1.48
0.6,-115.85,48.2,175.69,0.13,0.26,0.02,0.81,0.38,0.62,-105.43,26.24,178.28,0.14,0.74,0.08,0.54,0.5,0.67,-172.25,3.82,5.41,0.3,0.09,0.43,0.48,1.15,0.89,-129.99,19.49,25.86,0.33,0.18,0.28,0.71,1.09,1.69
0.61,-115.78,48.63,175.84,0.03,0.26,0.19,0.73,0.57,0.41,-105.54,27.2,178.49,0.17,0.58,0.13,0.49,0.31,0.76,-172.56,3.67,4.97,0.4,0.12,0.31,0.4,1.12,0.9,-129.9,19.16,26.02,0.27,0.22,0.33,0.68,0.69,1.7
0.62,-115.5,49.18,175.82,0.2,0.46,0.07,0.79,0.66,0.53,-105.5,27.74,178.68,0.09,0.61,-0.11,0.52,0.24,0.71,-172.68,3.73,4.62,0.17,0.18,0.44,0.65,1.37,0.81,-130.06,19.25,26.31,0.18,0.34,0.29,0.74,0.59,1.76
0.63,-115.44,49.4,175.7,0.26,0.56,0.01,0.67,0.56,0.35,-105.65,28.25,178.73,0.18,0.73,0.22,0.68,0.26,0.72,-172.64,3.87,4.53,0.27,0.15,0.23,0.67,1.3,0.86,-130.08,19.67,26.73,0.36,0.13,0.31,0.57,0.75,1.94
0.64,-115.69,49.49,175.72,0.24,0.47,0.0,0.6,0.47,0.5,-105.52,28.81,178.89,0.04,0.65,0.16,0.59,0.47,0.45,-172.5,3.62,4.43,0.24,0.29,0.32,0.81,1.47,0.76,-130.16,19.4,26.67,0.15,0.22,0.37,0.8,0.92,1.8
0.65,-115.4,50.23,175.66,0.09,0.38,0.21,0.57,0.59,0.33,-105.61,29.67,179.0,-0.26,0.82,0.19,0.55,0.24,0.6,-172.45,3.54,4.08,0.2,0.4,0.17,0.66,1.18,1.09,-130.46,19.35,26.74,0.17,-0.05,0.14,0.5,0.67,1.92
0.66,-115.33,50.98,175.54,0.09,0.66,0.01,0.62,0.29,0.56,-105.88,30.57,179.2,0.18,0.99,0.23,0.56,0.37,0.34,-172.45,3.87,4.06,0.22,0.1,-0.09,0.59,1.32,1.27,-130.68,19.46,27.22,0.18,0.11,0.1,0.44,0.82,2.03
0.67,-115.04,51.44,175.65,0.07,0.75,0.13,0.6,0.43,0.49,-105.92,31.48,179.22,0.18,0.77,0.12,0.37,0.12,0.38,-172.21,3.85,3.71,0.1,0.07,0.27,0.51,0.98,1.26,-131.12,19.27,27.37,0.17,0.06,0.1,0.64,0.68,1.93
0.68,-115.0,52.16,175.57,-0.03,0.56,0.08,0.3,0.5,0.64,-106.32,32.35,179.49,0.01,0.89,0.15,0.42,0.17,0.67,-171.93,3.8,3.73,0.1,0.16,0.26,0.67,1.11,1.54,-131.22,19.25,27.61,0.22,-0.01,0.3,0.43,0.82,2.03
0.69,-115.07,53.13,175.82,0.05,0.69,0.31,0.58,0.47,0.48,-106.48,33.55,179.51,0.04,0.99,0.13,0.56,0.48,0.52,-171.68,3.83,3.53,-0.04,0.04,0.15,0.52,1.15,1.64,-131.51,19.12,27.96,0.37,0.2,0.39,0.51,0.76,2.0
0.7,-115.02,54.03,175.86,0.11,0.85,0.07,0.38,0.43,0.47,-106.69,34.56,179.55,-0.06,0.95,0.29,0.44,0.24,0.54,-171.47,3.92,3.35,0.1,0.08,0.09,0.36,0.88,1.64,-131.75,19.1,28.0,0.2,0.14,0.07,0.6,1.14,2.03
0.71,-114.8,55.05,175.94,0.13,0.7,0.1,0.39,0.59,0.51,-106.96,35.55,179.47,0.15,1.08,0.12,0.33,0.42,0.47,-171.41,3.77,3.19,0.04,0.06,0.12,0.4,0.87,1.81,-131.93,19.02,28.41,0.12,0.13,0.14,0.58,0.94,2.15
0.72,-114.65,56.05,176.12,-0.0,0.82,0.15,0.31,0.55,0.42,-106.95,36.65,179.48,0.11,1.05,0.24,0.31,0.35,0.5,-171.17,4.16,3.22,-0.01,0.07,0.23,0.26,0.84,1.84,-132.28,18.99,28.62,0.21,0.47,0.04,0.74,1.07,2.04
0.73,-114.53,57.23,176.11,0.21,0.76,0.24,0.34,0.27,0.57,-107.05,37.7,179.29,0.04,0.98,0.35,0.66,0.33,0.44,-171.29,3.8,3.03,-0.04,0.14,-0.07,0.29,0.88,1.79,-132.54,19.08,28.83,0.33,0.44,0.02,0.53,1.3,1.94
0.74,-114.13,58.19,176.41,0.07,0.84,0.1,0.37,0.44,0.46,-107.16,39.05,178.93,0.18,1.03,0.11,0.54,0.41,0.56,-171.19,4.29,2.95,0.2,0.06,0.27,0.25,0.87,2.08,-132.86,19.28,29.47,0.27,0.52,0.07,0.69,1.23,1.92
0.75,-114.01,59.39,176.61,-0.02,0.95,0.11,0.34,0.15,0.24,-107.11,40.04,178.8,0.14,1.24,0.15,0.38,0.59,0.54,-171.08,4.25,3.07,0.08,0.22,0.25,0.21,0.65,1.92,-132.92,19.59,30.02,0.37,0.33,-0.07,0.87,1.37,1.92
0.76,-113.65,60.29,177.04,-0.16,0.95,0.12,0.08,0.31,0.4,-107.15,41.31,178.3,0.19,1.26,0.08,0.41,0.2,0.5,-171.27,4.29,2.72,0.35,0.02,0.26,0.41,0.77,1.86,-133.24,19.78,30.79,0.68,0.47,0.09,0.71,1.16,1.69
0.77,-113.51,61.76,177.23,0.15,1.07,0.22,0.26,0.3,0.21,-106.88,42.47,177.86,0.28,1.25,0.16,0.53,0.24,0.32,-171.7,4.4,2.62,0.11,0.06,0.4,0.35,0.69,1.97,-133.12,20.4,31.81,0.49,0.37,0.07,0.53,1.23,1.68
0.78,-113.0,62.66,177.8,0.1,1.14,0.17,0.2,0.19,0.25,-106.82,43.94,177.27,0.52,1.11,-0.11,0.6,0.28,0.41,-171.94,4.49,2.68,0.05,-0.02,0.37,0.28,0.73,1.46,-133.32,21.01,32.77,0.57,0.59,-0.03,0.77,1.32,1.51
0.79,-112.7,64.03,177.99,0.26,1.01,0.06,0.31,0.24,0.3,-106.76,45.0,176.88,0.21,1.26,0.05,0.48,0.23,0.5,-172.3,4.63,2.37,-0.01,0.18,0.36,0.55,0.56,1.92,-133.45,21.91,33.99,0.78,0.78,0.28,0.75,1.12,1.23
0.8,-112.35,65.16,178.39,0.16,0.92,0.24,0.68,0.1,0.21,-106.14,46.61,176.25,0.35,1.21,0.12,0.69,0.33,0.46,-172.65,4.57,2.08,-0.03,0.06,0.34,0.53,0.56,1.61,-133.29,22.55,35.21,0.93,0.98,0.34,0.85,1.34,1.1
0.81,-112.11,66.05,178.63,-0.04,0.89,0.17,0.18,0.13,0.09,-105.66,47.94,175.41,0.3,1.21,0.43,0.58,0.31,0.48,-173.16,4.84,2.09,-0.07,-0.03,0.4,0.52,0.62,1.45,-133.44,24.05,36.66,0.8,0.96,0.36,0.79,1.03,1.14
0.82,-111.85,67.34,178.58,0.12,1.1,0.05,0.49,0.02,0.14,-105.17,49.24,174.73,0.27,1.18,0.19,0.71,0.26,0.38,-173.33,5.1,2.13,0.1,0.02,0.44,0.42,0.49,1.25,-133.03,25.36,38.08,0.99,1.02,0.48,0.91,1.02,1.01
0.83,-111.35,68.31,178.91,0.21,0.89,0.1,0.23,0.07,0.1,-104.7,50.77,174.02,0.22,1.13,0.2,0.53,0.39,0.47,-173.87,4.87,2.06,0.04,0.23,0.47,0.49,0.33,1.13,-132.99,26.67,39.84,0.94,1.11,0.35,0.78,1.07,0.9
0.84,-111.28,68.85,178.83,0.18,1.0,0.28,0.5,0.16,0.04,-104.46,51.15,173.54,0.23,1.28,0.09,0.87,0.1,0.21,-174.18,5.1,1.9,-0.1,0.22,0.42,0.49,0.37,1.16,-132.83,27.25,40.56,1.17,1.1,0.61,0.64,1.06,0.91
0.85,-111.13,69.39,178.91,0.15,0.93,-0.01,0.46,0.19,0.13,-104.17,52.11,173.18,0.56,1.36,0.2,0.98,0.27,0.14,-174.34,5.02,1.94,0.01,0.03,0.33,0.54,0.47,0.94,-132.58,28.18,41.61,1.09,1.26,0.51,0.62,1.01,0.51
0.86,-110.79,70.46,178.78,0.15,0.83,-0.06,0.7,0.3,0.38,-103.58,53.19,172.24,0.33,1.35,0.25,0.69,0.12,0.45,-174.74,5.32,1.95,0.03,0.0,0.4,0.5,0.68,0.85,-132.27,29.85,43.3,1.14,1.32,0.56,0.55,0.94,0.77
0.87,-110.42,71.32,178.27,0.2,0.89,0.2,0.64,0.27,0.26,-102.98,54.87,171.45,0.2,1.26,-0.02,0.85,0.18,0.43,-175.13,5.23,1.94,0.11,0.16,0.47,0.66,0.41,0.73,-131.68,31.43,45.2,1.0,1.39,0.38,0.66,0.93,0.67
0.88,-109.98,72.29,177.86,0.1,0.69,0.11,0.7,0.18,0.02,-102.47,55.87,170.56,0.38,1.3,0.03,0.95,0.46,0.45,-175.6,5.31,2.15,0.03,0.13,0.58,0.47,0.45,0.77,-131.1,33.25,47.33,0.96,1.3,0.76,0.54,0.88,0.67
0.89,-109.67,73.44,177.39,-0.01,0.98,-0.01,0.74,0.45,0.17,-101.94,57.21,169.52,0.28,1.11,0.27,0.9,0.23,0.49,-176.23,5.36,2.02,0.35,0.04,0.44,0.48,0.51,0.64,-130.57,35.18,49.37,0.98,1.52,0.6,0.6,0.73,0.89
0.9,-109.33,74.16,176.86,0.06,0.81,0.03,0.73,0.17,0.3,-101.27,58.53,168.6,0.28,1.2,-0.13,1.04,0.32,0.35,-176.63,5.55,2.17,0.37,0.1,0.44,0.36,0.53,0.73,-130.14,37.05,51.19,0.97,1.44,0.53,0.65,0.8,1.13
0.91,-109.1,74.92,176.09,0.21,0.9,0.05,0.77,0.33,0.03,-100.96,59.55,167.79,0.39,1.16,0.23,0.9,0.43,0.32,-177.04,5.3,2.4,0.29,0.27,0.46,0.42,0.53,0.58,-129.39,38.75,53.47,1.28,1.48,0.56,0.87,0.96,1.1
0.92,-108.91,75.72,175.22,0.07,0.67,-0.07,0.85,0.53,0.24,-100.72,60.87,166.84,0.17,1.1,0.31,1.09,0.29,0.38,-177.47,5.1,2.78,0.3,0.18,0.28,0.5,0.64,0.6,-128.87,40.46,55.71,1.07,1.59,0.6,0.87,0.8,1.29
0.93,-108.63,76.77,174.26,0.34,0.65,0.05,0.94,0.4,0.19,-100.43,62.04,165.99,0.27,0.91,-0.05,0.92,0.24,0.39,-177.84,5.22,3.17,0.45,0.05,0.45,0.32,0.73,0.7,-128.22,41.99,57.76,1.15,1.53,0.81,1.08,0.88,1.14
0.94,-108.53,77.35,173.21,0.26,0.81,0.04,0.79,0.34,0.39,-100.25,62.79,165.19,0.21,0.89,0.06,0.91,0.35,0.42,-178.47,4.73,3.61,0.63,0.34,0.33,0.43,0.81,0.86,-127.43,43.58,60.06,1.05,1.51,0.78,0.93,0.98,1.43
0.95,-108.18,78.02,172.53,0.03,0.74,0.17,0.78,0.62,0.38,-100.08,63.9,164.42,0.26,0.75,0.11,1.0,0.48,0.61,-178.54,4.41,3.92,0.43,0.27,0.41,0.44,0.86,1.03,-126.83,44.86,62.64,1.14,1.53,0.67,1.11,1.13,1.65
0.96,-108.03,78.82,171.54,0.08,0.65,-0.01,0.85,0.34,0.42,-100.04,65.08,163.57,0.12,0.93,0.07,0.8,0.53,0.4,-179.09,4.1,4.56,0.53,0.3,0.22,0.24,0.72,0.99,-126.12,46.55,65.09,1.21,1.51,0.56,1.26,0.98,1.64
0.97,-107.77,79.45,170.34,0.32,0.57,0.04,0.79,0.45,0.42,-100.01,66.15,162.87,0.1,0.73,0.02,0.74,0.44,0.53,-179.46,3.81,5.08,0.59,0.06,0.18,0.45,1.01,1.02,-125.52,47.72,67.55,1.24,1.39,0.59,1.21,1.08,1.61
0.98,-107.66,80.04,169.68,0.12,0.51,-0.04,0.86,0.38,0.6,-100.07,66.9,162.12,0.15,0.75,0.08,0.77,0.48,0.37,-179.62,3.49,5.65,0.7,0.38,-0.04,0.28,0.96,1.35,-124.91,48.85,70.4,1.42,1.4,0.66,1.29,1.15,1.63
0.99,-107.62,80.42,168.71,-0.09,0.38,0.01,0.7,0.42,0.61,-99.95,67.79,161.56,0.34,0.73,0.05,0.75,0.52,0.37,-180.32,2.98,6.6,0.79,0.42,0.25,0.34,1.25,1.52,-124.16,50.02,73.26,1.46,1.5,0.76,1.16,1.1,1.45
1.0,-107.45,80.86,167.84,0.08,0.49,-0.1,0.54,0.28,0.62,-100.3,68.69,160.9,0.07,0.7,-0.01,0.73,0.45,0.27,-180.43,2.48,7.47,0.72,0.4,0.44,0.23,0.89,1.57,-123.54,50.97,76.15,1.48,1.26,0.52,1.27,1.09,1.48
1.01,-107.4,81.36,167.2,0.14,0.48,-0.07,0.49,0.14,0.52,-100.35,69.55,160.34,0.21,0.57,0.19,0.7,0.53,0.4,-180.42,2.08,8.24,1.05,0.35,0.24,0.54,1.25,1.43,-122.62,51.77,79.09,1.42,1.27,0.64,1.13,1.15,1.4
1.02,-107.22,81.86,166.53,0.2,0.57,0.17,0.49,0.41,0.48,-100.48,70.42,159.92,0.24,0.43,0.15,0.55,0.32,0.41,-180.65,1.97,9.23,0.91,0.27,0.19,0.57,1.25,1.65,-121.87,52.63,82.1,1.19,1.11,0.43,1.17,0.96,1.36
1.03,-106.83,82.08,165.99,0.2,0.36,0.07,0.43,0.18,0.6,-100.47,71.38,159.2,0.09,0.41,0.13,0.42,0.5,0.32,-180.8,1.51,10.58,0.97,0.39,0.17,0.66,1.37,1.68,-121.06,53.15,85.33,1.26,1.25,0.51,1.03,1.09,1.29
1.04,-106.97,82.56,165.61,0.03,0.13,-0.04,0.43,0.32,0.7,-100.73,72.17,158.56,0.13,0.16,0.22,0.34,0.39,0.18,-180.8,1.02,11.95,1.1,0.21,0.36,0.86,1.19,1.49,-120.26,53.97,88.71,1.22,1.16,0.34,0.98,0.91,1.0
1.05,-106.8,82.64,165.36,0.14,0.23,0.02,0.53,0.29,0.59,-100.87,72.35,158.42,0.1,0.5,0.18,0.43,0.44,0.38,-180.93,0.89,12.44,1.01,0.33,0.23,0.93,1.51,1.69,-119.79,54.04,90.02,1.11,1.17,0.67,0.9,0.9,0.84
1.06,-106.73,82.94,165.17,-0.01,0.2,0.08,0.33,0.35,0.52,-100.92,72.81,158.24,0.25,0.54,0.02,0.66,0.4,0.45,-180.91,0.82,13.25,1.2,0.32,0.25,0.8,1.18,1.54,-119.4,54.42,91.66,1.29,1.1,0.7,0.67,1.08,0.83
1.07,-106.55,82.93,164.88,0.23,0.09,0.15,0.17,0.25,0.69,-100.87,73.68,157.65,0.1,0.41,0.05,0.42,0.19,0.4,-180.79,0.65,14.69,1.15,0.34,0.21,1.03,1.39,1.4,-118.28,54.92,94.93,1.24,1.0,0.62,0.78,0.91,0.83
1.08,-106.4,83.23,164.79,-0.02,0.16,0.16,0.62,0.22,0.44,-101.06,74.26,157.11,-0.06,0.45,-0.0,0.58,0.36,0.22,-180.62,0.77,16.32,1.29,0.29,0.46,0.9,1.11,1.11,-117.34,55.39,97.98,1.27,1.03,0.64,0.79,0.99,0.69
1.09,-106.53,83.56,164.5,0.16,0.18,0.01,0.24,0.29,0.35,-100.93,74.97,156.41,-0.06,0.45,0.14,0.4,0.41,0.26,-180.35,0.8,18.13,1.27,0.28,0.32,0.95,1.08,1.24,-116.22,55.83,101.0,1.04,1.06,0.61,0.73,0.93,0.52
1.1,-106.42,83.45,164.49,0.32,0.15,0.12,0.4,0.24,0.57,-101.28,75.6,156.06,0.21,0.51,0.11,0.51,0.38,0.19,-180.12,1.25,19.88,1.2,0.53,0.31,1.02,1.28,0.95,-115.11,56.43,104.18,1.28,1.12,0.79,0.6,0.72,0.55
1.11,-106.21,83.73,164.5,0.03,-0.01,-0.08,0.37,0.43,0.62,-101.46,76.13,155.43,0.07,0.57,-0.11,0.5,0.25,0.29,-179.71,1.52,21.69,1.21,0.37,0.43,1.06,1.01,0.93,-114.14,56.82,107.17,0.91,1.0,0.78,0.36,0.74,0.42
1.12,-106.29,83.96,164.48,-0.02,0.06,0.03,0.25,0.25,0.73,-101.64,76.67,154.78,0.03,0.39,0.05,0.51,0.3,0.3,-179.44,2.04,23.39,1.31,0.34,0.37,1.11,0.81,0.72,-112.81,57.12,110.37,0.83,1.08,0.72,0.42,0.77,0.55
1.13,-106.11,84.1,164.69,-0.03,-0.07,-0.02,0.53,0.45,0.51,-101.71,77.0,154.18,0.19,0.47,0.07,0.48,0.33,0.14,-179.23,2.75,25.45,1.4,0.53,0.65,0.95,0.63,0.68,-111.53,57.49,113.36,0.9,0.89,0.8,0.34,0.87,0.37
1.14,-106.1,83.91,164.61,0.07,0.18,-0.05,0.46,0.33,0.39,-101.8,77.58,153.49,0.04,0.55,0.01,0.53,0.25,0.21,-178.84,3.17,27.08,1.42,0.35,0.53,0.9,0.63,0.47,-110.24,57.73,116.24,0.87,1.04,0.94,0.43,0.89,0.45
1.15,-105.85,83.99,164.78,0.04,0.11,0.14,0.34,0.4,0.62,-102.09,78.41,152.8,-0.02,0.28,-0.06,0.57,0.28,0.22,-178.61,4.06,29.0,1.4,0.46,0.33,0.58,0.56,0.55,-109.15,58.14,119.42,0.84,1.18,0.91,0.23,0.83,0.49
1.16,-106.09,84.28,164.73,0.06,-0.01,-0.08,0.52,0.32,0.41,-102.06,78.73,152.03,0.12,0.46,0.11,0.51,0.27,0.28,-178.23,4.64,30.9,1.68,0.6,0.52,0.86,0.48,0.57,-107.87,58.46,122.3,0.77,0.8,0.81,0.35,1.0,0.48
1.17,-106.01,84.17,164.6,0.08,-0.09,0.04,0.63,0.33,0.59,-102.25,79.07,151.25,0.05,0.35,0.27,0.45,0.46,0.31,-178.05,5.54,32.43,1.62,0.78,0.48,0.63,0.42,0.54,-106.67,58.67,125.12,0.81,1.04,0.8,0.08,1.02,0.61
1.18,-106.01,84.52,164.68,0.2,0.23,0.01,0.5,0.24,0.55,-102.1,79.45,150.69,0.12,0.18,0.17,0.39,0.22,0.22,-177.94,6.46,34.41,1.51,0.79,0.21,0.48,0.4,0.47,-105.33,58.81,128.36,0.65,1.19,0.91,0.07,1.09,0.63
1.19,-105.83,84.41,164.77,0.08,-0.08,-0.03,0.55,0.37,0.45,-102.17,80.07,149.75,-0.05,0.36,0.02,0.64,0.45,0.13,-177.59,7.14,36.29,1.55,0.69,0.24,0.61,0.39,0.71,-103.86,58.99,131.21,0.47,0.82,0.82,0.28,0.9,0.59
1.2,-105.87,84.19,164.72,0.02,-0.02,0.17,0.52,0.35,0.67,-102.17,80.19,149.07,-0.01,0.21,-0.03,0.43,0.55,0.27,-177.73,7.9,38.16,1.62,0.57,0.21,0.59,0.5,0.79,-102.64,58.69,134.45,0.83,0.83,0.8,0.38,1.02,0.51
1.21,-105.73,84.36,164.82,0.12,0.08,0.05,0.46,0.27,0.51,-102.23,80.36,148.39,-0.06,0.14,-0.02,0.42,0.39,0.31,-177.55,8.93,40.06,1.56,0.85,0.19,0.64,0.46,0.72,-101.23,58.8,137.33,0.71,0.92,0.74,0.4,1.07,0.72
1.22,-105.84,84.45,164.77,0.12,0.14,0.01,0.76,0.22,0.59,-102.33,80.53,147.95,0.16,0.26,0.05,0.52,0.44,0.42,-177.45,9.58,41.83,1.53,0.92,0.11,0.58,0.42,0.71,-99.97,58.5,140.37,0.72,1.03,0.81,0.44,1.03,0.72
1.23,-105.68,84.17,164.89,0.07,-0.1,0.11,0.31,0.19,0.67,-102.18,81.05,147.39,0.15,0.16,0.2,0.35,0.46,0.37,-177.09,10.41,43.74,1.65,0.76,0.28,0.55,0.62,0.81,-98.41,58.47,142.97,0.41,0.78,0.8,0.45,0.81,0.65
1.24,-105.64,84.39,164.83,-0.03,0.05,0.07,0.51,0.22,0.62,-102.27,81.23,147.34,-0.12,0.15,0.11,0.35,0.32,0.44,-177.36,11.14,45.98,1.66,0.65,0.15,0.71,0.41,0.91,-97.12,58.19,145.86,0.74,0.62,0.68,0.53,0.88,0.71
1.25,-105.53,84.33,164.65,0.12,0.06,0.14,0.49,0.1,0.64,-102.16,81.57,147.29,0.18,0.12,0.11,0.35,0.48,0.35,-177.1,12.0,47.99,1.39,0.65,0.18,0.73,0.55,0.72,-95.79,57.91,148.5,0.59,0.89,0.88,0.66,0.9,0.52
1.26,-105.61,84.51,164.65,0.11,0.2,0.1,0.49,0.3,0.83,-102.06,81.36,147.06,-0.04,-0.04,-0.07,0.28,0.36,0.29,-176.82,12.32,48.68,1.45,0.63,0.37,0.8,0.53,0.79,-94.86,57.73,149.76,0.59,0.78,0.76,0.55,0.87,0.58
1.27,-105.53,84.28,164.73,-0.08,0.06,-0.12,0.68,0.33,0.76,-102.2,81.43,147.2,-0.04,-0.01,0.06,0.13,0.48,0.43,-176.77,12.85,50.0,1.7,0.55,0.29,0.77,0.43,0.71,-94.14,57.9,150.89,0.31,0.63,0.77,0.68,0.83,0.39
1.28,-105.39,84.31,164.71,0.08,0.14,-0.06,0.49,0.13,0.61,-102.05,81.6,147.43,-0.12,0.08,0.12,0.34,0.44,0.44,-176.7,13.8,51.82,1.63,0.61,0.38,1.12,0.42,0.91,-92.7,57.36,153.29,0.51,0.72,0.71,0.8,0.55,0.73
1.29,-105.19,84.3,164.61,0.16,-0.09,0.1,0.53,0.28,0.68,-102.1,81.77,147.83,0.12,0.19,0.12,0.36,0.59,0.41,-176.56,14.27,53.89,1.62,0.66,0.21,1.0,0.68,0.85,-91.34,56.83,155.86,0.4,0.83,0.72,0.88,0.4,0.41
1.3,-105.22,84.36,164.99,0.09,0.19,0.03,0.4,0.34,0.82,-102.03,81.66,148.4,0.02,0.06,0.03,0.3,0.19,0.38,-176.16,15.11,55.85,1.6,0.52,0.27,1.1,0.58,0.79,-90.19,56.5,157.76,0.53,0.79,0.64,1.02,0.68,0.58
1.31,-105.01,84.36,164.85,-0.06,0.24,0.06,0.37,0.27,0.59,-102.01,81.6,149.18,-0.07,0.07,0.09,0.38,0.25,0.46,-175.83,15.69,58.06,1.56,0.7,0.2,1.0,0.73,0.77,-88.88,56.03,159.58,0.44,0.74,0.61,1.14,0.45,0.61
1.32,-104.91,84.51,164.88,0.04,0.09,0.09,0.36,0.23,0.67,-102.12,81.44,150.09,0.03,0.14,-0.04,0.26,0.39,0.36,-175.46,16.45,59.99,1.55,0.49,0.38,1.01,0.77,0.53,-87.26,55.4,161.43,0.43,0.7,0.58,1.19,0.48,0.37
1.33,-104.79,84.41,164.93,0.05,0.16,0.02,0.27,0.37,0.82,-102.15,81.59,151.11,-0.05,0.26,0.14,0.21,0.39,0.35,-175.22,17.16,61.71,1.31,0.51,0.37,0.93,0.61,0.58,-86.39,54.93,163.37,0.51,0.47,0.6,1.18,0.44,0.77
1.34,-104.9,84.4,164.78,-0.0,0.08,-0.15,0.25,0.43,0.52,-102.27,81.35,152.05,0.16,0.27,-0.06,0.21,0.29,0.34,-174.62,17.85,63.74,1.25,0.58,0.29,0.87,0.92,0.71,-85.26,54.25,164.85,0.37,0.44,0.53,1.32,0.47,0.79
1.35,-104.64,84.46,165.04,0.13,-0.12,-0.12,0.2,0.57,0.56,-102.32,81.28,153.25,-0.1,0.17,0.12,0.15,0.32,0.15,-174.14,18.59,65.63,1.42,0.45,0.39,0.81,0.93,0.62,-84.77,54.08,165.94,0.37,0.42,0.4,1.17,0.42,0.85
1.36,-104.65,84.4,165.06,0.24,-0.03,0.01,0.29,0.53,0.87,-102.34,81.0,154.64,-0.02,0.27,-0.09,0.4,0.21,0.56,-173.61,19.14,67.53,1.4,0.43,0.44,0.96,0.98,0.53,-83.62,53.6,166.9,0.14,0.57,0.59,1.13,0.56,0.73
1.37,-104.51,84.29,165.07,0.03,0.18,0.11,0.16,0.73,0.58,-102.47,80.95,155.65,0.14,0.23,0.18,0.43,0.2,0.23,-173.19,20.01,69.36,1.44,0.37,0.45,1.01,0.96,0.64,-83.06,53.16,168.06,0.21,0.61,0.46,1.17,0.47,0.61
1.38,-104.38,84.31,164.97,0.01,0.12,0.25,0.35,0.65,0.44,-102.41,80.84,156.52,0.01,0.3,0.0,0.43,0.21,0.35,-172.35,20.67,71.1,1.38,0.47,0.65,0.81,1.01,0.58,-82.65,52.87,169.06,0.13,0.46,0.45,1.04,0.35,0.56
1.39,-104.25,84.13,165.06,0.08,0.23,-0.07,0.2,0.6,0.59,-102.44,80.55,157.6,0.11,0.36,0.01,0.49,0.29,0.18,-171.82,21.56,72.66,1.3,0.31,0.63,0.77,1.05,0.61,-82.23,52.75,169.63,0.21,0.26,0.39,0.9,0.54,0.48
1.4,-104.33,84.18,164.92,0.03,0.1,-0.07,0.49,0.6,0.51,-102.67,80.11,158.57,0.01,0.36,0.04,0.37,0.21,0.42,-171.23,22.06,74.49,1.39,0.59,0.51,0.85,1.14,0.51,-82.0,52.7,170.39,0.13,0.41,0.52,0.93,0.52,0.47
1.41,-104.36,83.77,165.13,0.05,0.1,0.1,0.39,0.55,0.47,-102.68,79.81,159.47,0.06,0.13,0.01,0.4,0.4,0.27,-170.5,23.18,76.21,1.35,0.59,0.56,0.87,1.09,0.49,-81.74,52.73,170.93,0.21,0.31,0.42,0.89,0.51,0.33
1.42,-104.34,83.91,165.31,0.33,0.37,0.18,0.29,0.58,0.34,-102.79,79.57,160.33,0.08,0.24,0.13,0.28,0.35,0.44,-169.58,23.96,77.96,1.51,0.39,0.73,0.74,1.12,0.6,-81.66,52.73,171.24,0.18,0.22,0.26,0.72,0.48,0.39
1.43,-104.32,83.75,165.39,0.13,0.22,-0.05,0.34,0.63,0.3,-102.96,79.22,161.06,0.22,0.18,0.11,0.36,0.44,0.47,-168.94,24.69,79.61,1.4,0.58,0.7,0.69,1.11,0.43,-81.74,53.24,171.83,0.01,0.03,0.13,0.62,0.5,0.16
1.44,-104.47,83.49,165.54,0.08,0.18,0.06,0.42,0.51,0.43,-102.96,79.12,161.59,0.01,0.29,0.05,0.31,0.33,0.38,-167.99,25.55,81.22,1.31,0.4,0.73,0.98,1.31,0.6,-81.76,53.64,171.94,0.21,0.05,0.2,0.55,0.33,0.29
1.45,-104.32,83.16,165.71,-0.08,0.54,-0.17,0.4,0.46,0.11,-102.93,79.05,161.89,0.1,0.37,0.16,0.18,0.52,0.67,-167.03,26.51,82.63,1.24,0.38,0.78,0.77,0.85,0.61,-81.77,54.05,172.22,-0.12,-0.21,0.24,0.37,0.42,0.3
1.46,-104.55,82.91,165.9,0.41,0.16,-0.25,0.5,0.5,0.19,-102.88,78.56,162.34,0.29,0.14,0.08,0.23,0.72,0.73,-166.34,27.39,84.39,1.2,0.34,0.69,0.76,1.17,0.35,-81.82,54.54,172.19,0.1,-0.11,-0.05,0.49,0.41,0.05
1.47,-104.69,82.79,166.09,0.21,0.39,0.17,0.51,0.54,0.23,-102.93,78.57,162.44,-0.1,0.1,0.11,0.31,0.54,0.62,-165.84,27.81,85.04,1.3,0.6,0.71,0.85,1.08,0.57,-82.26,54.81,172.23,0.09,0.05,0.23,0.54,0.4,0.19
1.48,-104.38,82.75,166.18,0.06,0.42,-0.03,0.49,0.46,0.4,-103.02,78.31,162.62,0.14,0.25,0.01,0.3,0.36,0.45,-165.35,28.21,85.84,1.09,0.25,0.74,0.91,0.97,0.58,-82.19,55.27,172.23,-0.08,-0.24,0.07,0.54,0.37,0.24
1.49,-104.58,82.57,166.35,0.03,0.2,-0.16,0.58,0.28,0.25,-103.04,78.26,162.77,0.27,0.36,0.01,0.36,0.57,0.48,-164.28,29.1,87.2,0.98,0.47,0.83,0.98,1.21,0.48,-82.4,55.83,172.43,-0.05,0.01,0.2,0.47,0.34,0.33
1.5,-104.68,82.3,166.86,0.13,0.43,-0.08,0.37,0.48,0.24,-103.14,78.32,162.9,0.16,0.09,0.14,0.28,0.43,0.73,-163.63,29.89,88.57,1.02,0.39,0.57,1.06,0.92,0.42,-82.29,56.31,172.64,0.03,0.01,0.03,0.32,0.62,0.35
1.51,-104.56,81.79,166.78,0.18,0.26,-0.09,0.36,0.44,0.21,-102.97,78.18,163.02,0.27,0.01,0.18,0.38,0.39,0.64,-162.85,30.47,89.82,0.8,0.34,0.51,0.91,0.98,0.65,-82.29,56.66,172.67,0.14,0.13,0.03,0.57,0.5,0.82
1.52,-104.57,81.62,166.84,0.14,0.24,-0.02,0.63,0.28,0.27,-102.91,78.13,162.78,0.22,0.06,0.15,0.38,0.47,0.61,-162.04,31.31,91.06,0.99,0.28,0.59,1.15,1.02,0.63,-82.31,57.09,172.77,0.12,0.21,-0.06,0.51,0.48,0.98
1.53,-104.48,81.39,167.14,0.1,0.41,-0.09,0.55,0.44,0.24,-102.99,78.34,162.85,0.14,-0.01,0.07,0.26,0.61,0.62,-161.28,31.9,91.89,0.7,0.39,0.57,1.15,1.09,0.48,-82.21,57.54,173.09,0.23,0.09,0.03,0.97,0.47,1.27
1.54,-104.47,81.14,167.24,0.01,0.36,0.21,0.42,0.25,0.41,-102.96,78.5,162.97,0.08,0.13,0.01,0.13,0.32,0.63,-160.67,32.63,92.84,0.92,0.19,0.45,0.94,1.11,0.55,-81.94,57.47,172.86,0.15,0.26,0.09,1.11,0.34,1.64
1.55,-104.72,81.06,167.27,0.23,0.18,0.04,0.47,0.41,0.48,-102.91,78.58,162.83,0.02,0.14,0.18,0.09,0.28,0.5,-159.94,32.99,93.92,0.66,0.18,0.5,1.21,1.13,0.61,-81.72,57.51,172.93,0.27,0.21,0.18,1.48,0.58,1.93
1.56,-104.67,80.66,167.36,0.13,0.2,0.26,0.34,0.32,0.48,-102.85,78.66,162.78,0.08,0.15,0.18,0.26,0.47,0.73,-159.3,33.58,94.63,0.53,0.3,0.33,0.95,1.13,0.59,-81.62,57.44,172.81,0.37,0.52,0.23,1.68,0.41,2.09
1.57,-104.34,80.62,167.42,0.26,0.49,0.05,0.35,0.35,0.61,-103.1,78.9,162.6,0.16,0.14,0.02,0.31,0.14,0.62,-158.71,34.11,95.24,0.41,0.14,0.59,1.11,1.07,0.73,-81.0,57.08,172.92,0.46,0.47,0.16,2.09,0.66,2.41
1.58,-104.69,80.26,167.44,0.11,-0.07,0.08,0.18,0.39,0.58,-102.85,79.06,162.59,-0.03,0.2,0.13,0.41,0.35,0.61,-158.15,34.63,95.83,0.46,0.15,0.44,0.74,1.5,0.8,-80.63,56.66,172.93,0.65,0.51,0.48,2.45,0.45,2.84
1.59,-104.63,80.07,167.28,0.09,0.18,0.06,0.29,0.32,0.67,-103.02,79.48,162.3,0.03,0.27,0.09,0.17,0.11,0.53,-157.55,34.99,96.46,0.33,0.22,0.23,0.8,1.33,0.89,-80.34,55.92,172.61,0.57,0.71,0.72,2.69,0.59,3.03
1.6,-104.66,80.1,167.28,0.08,0.27,0.16,0.18,0.22,0.55,-102.88,79.59,162.38,0.08,0.25,0.02,0.28,0.19,0.47,-156.82,35.4,97.03,0.52,0.07,0.12,0.95,1.33,0.63,-79.72,55.11,172.56,0.66,0.72,0.65,2.98,0.68,3.12
1.61,-104.55,79.86,167.05,-0.05,0.12,0.12,0.19,0.41,0.67,-102.74,79.67,162.4,0.01,0.14,0.18,0.29,0.32,0.42,-156.22,35.8,97.52,0.37,0.11,0.19,0.54,1.37,0.79,-79.07,54.29,172.21,0.97,0.7,0.77,3.15,0.63,3.29
1.62,-104.5,79.73,166.88,-0.03,0.17,-0.05,0.09,0.27,0.69,-102.78,79.94,162.15,0.04,0.27,0.12,0.3,0.12,0.29,-155.38,36.05,97.93,0.29,-0.01,0.33,0.52,1.39,0.74,-78.41,52.94,171.77,0.8,0.86,0.65,3.51,0.69,3.26
1.63,-104.44,79.4,166.68,0.2,0.11,0.09,0.16,0.25,0.54,-102.8,79.88,162.27,-0.05,0.19,0.16,0.09,0.2,0.57,-154.76,36.27,98.35,0.38,0.2,0.26,0.47,1.11,0.75,-77.86,51.87,171.35,1.13,0.75,0.74,3.66,0.58,3.3
1.64,-104.45,79.33,166.54,-0.09,0.06,0.03,0.25,0.29,0.78,-102.5,79.93,162.02,0.29,0.08,0.11,0.28,0.23,0.26,-154.19,36.58,98.75,0.41,0.09,0.09,0.52,1.2,0.44,-77.15,50.53,171.01,1.02,0.78,0.66,3.74,0.63,3.09
1.65,-104.36,79.21,166.43,-0.04,-0.03,-0.09,0.05,0.29,0.95,-102.61,80.06,162.13,0.04,0.09,0.01,0.3,0.1,0.18,-153.38,37.07,99.24,0.36,0.22,0.3,0.26,0.97,0.61,-76.26,49.04,170.25,1.06,0.68,0.53,3.76,0.59,2.8
1.66,-104.22,78.87,166.07,0.15,0.04,0.15,0.15,0.27,0.98,-102.53,80.16,162.14,0.2,0.12,0.11,0.34,0.2,0.1,-152.6,37.15,99.44,0.28,0.05,0.34,0.19,0.95,0.53,-75.53,47.67,169.83,1.2,0.57,0.85,4.03,0.53,2.29
1.67,-104.34,78.72,165.72,0.07,0.05,-0.05,0.02,0.24,0.99,-102.31,80.32,161.89,0.07,0.26,-0.07,0.23,0.1,0.1,-151.86,37.57,100.16,0.28,0.27,0.27,-0.0,0.74,0.42,-74.9,46.43,168.92,1.15,0.44,0.74,3.88,0.57,2.24
1.68,-104.01,78.67,165.62,0.21,0.04,0.12,0.17,0.24,0.97,-102.21,80.33,162.06,0.23,0.02,0.07,0.34,0.02,0.13,-151.51,37.63,100.31,0.26,-0.08,0.28,-0.08,0.65,0.33,-74.54,45.59,168.75,1.12,0.47,0.81,4.14,0.56,2.05
1.69,-104.14,78.7,165.41,0.07,0.06,0.08,-0.07,0.24,1.01,-102.26,80.3,162.15,0.16,0.07,-0.09,0.21,-0.12,-0.05,-151.17,37.52,100.66,0.43,0.19,0.23,0.18,0.62,0.38,-74.29,45.18,168.34,1.31,0.44,0.68,4.15,0.42,1.89
