0.01,-130.94,82.62,177.56,0.15,0.65,0.06,0.71,0.1,1.83,0.3,0.69,0.26,0.61,-122.56,83.62,174.75,0.16,0.04,0.12,0.53,0.2,0.58,0.33,0.67,0.29,0.6,-159.0,3.62,4.69,0.34,0.09,0.61,1.03,0.11,2.71,-0.02,0.05,-0.98,0.18,-133.81,7.94,11.5,0.04,0.02,0.05,0.78,0.13,0.64,-0.02,0.12,-0.91,0.4
0.02,-131.12,81.94,179.93,0.06,0.72,0.08,1.23,0.06,1.85,0.31,0.69,0.27,0.6,-122.62,83.44,174.69,0.23,0.19,0.1,0.6,0.21,0.4,0.33,0.67,0.29,0.6,-158.25,3.69,4.31,0.39,0.11,0.69,1.07,0.04,3.15,-0.02,0.04,-0.98,0.19,-133.81,8.0,11.44,0.04,0.03,0.01,0.69,0.33,0.79,-0.02,0.12,-0.91,0.4
0.03,-131.19,81.12,181.99,0.14,0.84,0.07,1.9,0.06,1.8,0.32,0.69,0.28,0.59,-122.69,83.37,174.62,0.18,0.06,0.06,0.19,0.03,0.35,0.33,0.67,0.29,0.6,-157.5,3.75,3.94,0.41,0.08,0.61,1.01,0.16,3.28,-0.03,0.04,-0.98,0.2,-133.87,8.0,11.38,0.05,0.01,0.07,0.88,0.41,0.79,-0.03,0.12,-0.91,0.4
0.04,-131.0,80.25,183.68,0.2,0.91,0.06,2.66,0.09,1.53,0.34,0.69,0.29,0.58,-122.81,83.25,174.56,0.02,0.37,0.07,0.13,0.26,0.15,0.33,0.67,0.29,0.6,-156.75,3.69,3.5,0.41,0.02,0.5,0.44,0.29,4.18,-0.03,0.04,-0.98,0.2,-133.94,7.94,11.31,0.09,0.04,0.04,1.16,0.84,0.54,-0.02,0.12,-0.91,0.39
0.05,-130.69,79.12,185.12,0.28,1.12,0.09,2.98,0.04,1.38,0.35,0.69,0.3,0.56,-122.69,82.94,174.56,0.09,0.47,0.03,0.5,0.08,0.23,0.33,0.67,0.29,0.6,-156.25,3.62,3.12,0.38,0.07,0.43,0.37,0.29,4.34,-0.03,0.03,-0.98,0.21,-133.31,7.75,11.0,0.12,0.15,0.37,1.36,0.06,1.23,-0.02,0.11,-0.91,0.4
0.06,-130.37,77.94,186.55,0.32,1.2,0.15,3.54,0.48,0.39,0.36,0.69,0.3,0.55,-122.56,82.62,178.0,0.07,0.55,0.06,1.49,0.03,0.03,0.35,0.66,0.31,0.59,-155.81,3.5,2.75,0.32,0.1,0.45,0.35,0.31,4.35,-0.02,0.03,-0.98,0.21,-132.81,7.75,10.75,0.11,0.13,0.48,1.38,0.17,1.57,-0.02,0.11,-0.91,0.4
0.07,-130.06,76.62,188.05,0.32,1.27,0.2,3.47,0.47,0.04,0.37,0.69,0.31,0.54,-122.5,82.25,181.69,0.09,0.62,0.05,2.18,0.12,0.12,0.37,0.66,0.33,0.57,-155.31,3.31,2.5,0.27,0.12,0.45,0.19,0.06,4.45,-0.02,0.03,-0.98,0.21,-132.25,7.75,10.56,0.11,0.08,0.5,1.15,0.22,2.54,-0.02,0.11,-0.91,0.41
0.08,-129.81,75.06,189.62,0.3,1.54,0.23,3.18,0.16,0.24,0.38,0.69,0.32,0.52,-122.25,81.75,185.5,0.3,0.79,0.11,3.11,0.02,0.2,0.39,0.65,0.35,0.55,-154.81,3.12,2.25,0.26,0.15,0.4,0.3,0.01,4.37,-0.02,0.03,-0.98,0.22,-131.69,7.75,10.38,0.09,0.05,0.54,0.91,0.08,3.24,-0.02,0.11,-0.9,0.41
0.09,-129.56,73.37,190.8,0.3,1.6,0.21,3.15,0.06,0.39,0.39,0.7,0.32,0.51,-121.87,81.06,189.63,0.32,0.95,0.15,3.33,0.29,0.28,0.42,0.64,0.37,0.54,-154.38,2.94,1.94,0.27,0.17,0.38,0.5,0.07,4.3,-0.02,0.02,-0.97,0.22,-131.37,7.81,10.31,0.09,0.03,0.56,0.68,0.33,3.77,-0.02,0.11,-0.9,0.41
0.1,-129.19,71.56,191.62,0.38,1.64,0.17,3.26,0.05,0.1,0.4,0.7,0.32,0.49,-121.56,80.31,193.82,0.31,0.98,0.15,3.95,0.18,0.13,0.44,0.62,0.39,0.51,-154.0,2.75,1.69,0.26,0.18,0.31,0.55,0.18,4.31,-0.02,0.02,-0.97,0.23,-130.69,7.87,10.13,0.09,0.01,0.54,0.52,0.28,4.15,-0.03,0.11,-0.9,0.42
0.11,-128.69,69.81,192.12,0.36,1.6,0.09,3.15,0.04,0.1,0.41,0.71,0.32,0.48,-121.19,79.37,197.32,0.24,1.05,0.1,4.3,0.3,0.4,0.46,0.62,0.41,0.49,-153.75,2.5,1.44,0.25,0.2,0.25,0.56,0.11,4.22,-0.02,0.02,-0.97,0.23,-130.12,8.0,9.94,0.1,0.08,0.53,0.33,0.23,4.21,-0.03,0.11,-0.9,0.42
0.12,-128.19,68.06,192.37,0.27,1.52,0.07,2.77,0.41,0.04,0.41,0.71,0.32,0.46,-120.87,78.25,200.38,0.21,1.2,0.07,4.64,0.3,0.02,0.47,0.61,0.43,0.47,-153.5,2.25,1.12,0.26,0.23,0.18,0.24,0.61,3.29,-0.02,0.01,-0.97,0.23,-129.5,8.25,9.75,0.12,0.15,0.52,0.28,0.49,4.27,-0.03,0.11,-0.9,0.43
0.13,-128.12,66.5,192.8,0.1,1.37,0.13,2.45,0.51,0.36,0.42,0.72,0.32,0.45,-120.56,77.0,203.13,0.18,1.31,0.05,4.53,0.24,0.32,0.49,0.6,0.44,0.45,-153.31,1.94,0.88,0.25,0.29,0.22,0.14,0.66,3.18,-0.01,0.01,-0.97,0.23,-128.62,8.81,9.31,0.13,0.23,0.34,0.23,0.27,4.32,-0.03,0.11,-0.89,0.44
0.14,-128.38,65.0,193.43,0.06,1.33,0.15,2.34,0.52,0.76,0.42,0.73,0.32,0.44,-120.13,75.5,205.44,0.18,1.5,0.02,4.17,0.14,0.22,0.5,0.6,0.45,0.43,-152.81,1.56,0.62,0.22,0.31,0.49,0.18,0.83,2.83,-0.01,0.01,-0.97,0.24,-128.31,9.13,9.13,0.12,0.23,0.32,0.35,0.29,4.33,-0.04,0.11,-0.89,0.44
0.15,-128.25,63.56,193.74,0.14,1.3,0.1,1.62,0.51,1.56,0.42,0.73,0.32,0.43,-119.75,73.75,207.38,0.11,1.64,0.04,4.23,0.24,0.15,0.51,0.6,0.46,0.41,-152.12,1.25,0.5,0.07,0.32,0.65,0.36,0.07,2.56,-0.01,0.01,-0.97,0.24,-127.94,9.44,8.94,0.09,0.24,0.35,0.37,0.39,4.25,-0.04,0.11,-0.89,0.44
0.16,-127.87,62.06,193.8,0.15,1.33,0.01,1.39,0.7,1.13,0.43,0.74,0.32,0.41,-119.31,72.0,208.88,0.07,1.69,0.06,3.94,0.84,0.21,0.52,0.6,0.46,0.39,-151.44,0.81,0.56,0.08,0.43,0.6,0.36,0.86,2.48,-0.01,0.01,-0.97,0.25,-127.62,9.75,8.81,0.06,0.24,0.33,0.24,0.36,4.16,-0.04,0.11,-0.89,0.44
0.17,-127.56,60.69,193.74,0.09,1.2,0.01,2.23,0.58,0.71,0.43,0.74,0.31,0.4,-118.94,69.94,210.19,0.07,1.93,0.16,3.67,0.89,0.34,0.53,0.61,0.46,0.37,-150.87,0.25,0.81,0.23,0.52,0.43,0.33,0.79,1.36,-0.0,0.01,-0.97,0.25,-127.31,10.06,8.69,0.02,0.25,0.32,0.17,0.22,3.47,-0.04,0.11,-0.89,0.45
0.18,-127.38,59.5,193.74,0.1,1.11,0.04,1.97,0.04,1.18,0.44,0.75,0.31,0.4,-118.5,67.75,211.25,0.03,2.0,0.15,2.87,0.36,0.06,0.54,0.61,0.47,0.35,-150.62,0.37,1.19,0.37,0.62,0.19,0.34,0.39,0.85,-0.0,0.01,-0.97,0.25,-126.94,10.38,8.63,0.02,0.25,0.35,0.4,0.13,3.07,-0.05,0.11,-0.89,0.45
0.19,-127.38,58.25,193.87,0.1,1.18,0.05,0.94,0.58,1.65,0.44,0.75,0.31,0.39,-118.06,65.69,212.19,0.06,1.87,0.04,2.92,0.61,0.81,0.54,0.61,0.47,0.33,-150.5,1.12,1.62,0.46,0.69,0.04,0.6,0.1,0.77,-0.01,0.02,-0.97,0.25,-126.56,10.75,8.44,0.08,0.24,0.43,0.41,0.07,2.76,-0.05,0.11,-0.88,0.45
0.2,-127.75,56.81,194.18,0.25,1.28,0.01,0.34,0.73,1.44,0.44,0.76,0.31,0.38,-117.69,63.75,213.13,0.02,1.76,0.01,2.98,0.67,1.13,0.55,0.62,0.47,0.31,-150.5,1.94,2.19,0.51,0.77,0.04,0.78,0.21,1.23,-0.01,0.02,-0.97,0.25,-126.0,11.06,8.19,0.18,0.31,0.5,0.42,0.21,2.3,-0.05,0.11,-0.88,0.46
0.21,-128.44,55.5,194.74,0.41,1.01,0.14,0.26,0.29,0.99,0.44,0.76,0.3,0.37,-117.44,61.69,214.0,0.13,1.97,0.06,2.4,0.49,1.68,0.55,0.62,0.47,0.29,-150.56,2.75,2.81,0.54,0.72,0.07,0.59,0.44,2.06,-0.02,0.03,-0.97,0.25,-125.62,11.5,7.87,0.19,0.36,0.42,0.34,0.12,2.13,-0.06,0.11,-0.88,0.46
0.22,-129.38,54.44,195.43,0.34,0.88,0.19,0.78,0.1,1.43,0.43,0.77,0.3,0.36,-117.19,59.5,214.75,0.13,1.98,0.07,1.81,0.14,0.59,0.56,0.63,0.47,0.27,-150.69,3.5,3.5,0.62,0.69,0.13,0.62,0.32,1.89,-0.02,0.04,-0.97,0.25,-125.44,12.06,7.69,0.16,0.5,0.15,0.13,0.39,1.15,-0.06,0.11,-0.88,0.46
0.23,-130.12,53.44,196.06,0.21,0.92,0.2,4.11,0.71,0.71,0.43,0.78,0.3,0.35,-116.94,57.56,215.44,0.1,1.69,0.01,2.01,0.38,0.59,0.56,0.64,0.47,0.25,-150.87,4.25,4.19,0.64,0.66,0.14,0.73,0.73,0.76,-0.03,0.04,-0.97,0.25,-125.5,12.69,7.56,0.12,0.61,0.01,0.08,0.5,0.67,-0.07,0.11,-0.88,0.46
0.24,-130.31,52.5,196.18,0.04,0.77,0.04,3.61,0.98,0.56,0.43,0.78,0.3,0.34,-116.81,55.63,216.0,0.18,1.81,0.09,0.7,0.05,0.24,0.56,0.64,0.47,0.23,-150.75,4.62,4.56,0.6,0.64,0.02,0.59,0.41,0.51,-0.03,0.05,-0.97,0.25,-125.5,13.44,7.44,0.11,0.65,0.09,0.29,0.55,0.9,-0.07,0.11,-0.88,0.46
0.25,-130.0,52.19,195.87,0.1,0.15,0.21,1.73,0.72,2.62,0.43,0.78,0.3,0.34,-116.62,53.5,216.5,0.25,1.99,0.2,0.38,0.57,0.46,0.57,0.65,0.46,0.22,-150.62,5.31,5.19,0.53,0.59,0.27,0.25,0.05,1.33,-0.03,0.06,-0.96,0.26,-125.38,14.19,7.25,0.14,0.67,0.14,0.06,0.73,2.13,-0.08,0.11,-0.88,0.46
0.26,-129.06,52.13,195.3,0.37,0.06,0.16,0.55,0.44,2.25,0.44,0.78,0.3,0.34,-116.5,52.38,216.69,0.21,1.84,0.15,1.04,0.1,0.5,0.57,0.65,0.46,0.21,-150.31,6.0,5.75,0.51,0.55,0.32,0.27,0.76,1.95,-0.04,0.06,-0.96,0.26,-125.62,14.94,7.12,0.12,0.73,0.11,0.49,0.91,2.28,-0.09,0.11,-0.88,0.46
0.27,-127.94,51.63,194.68,0.47,0.58,0.06,1.45,0.94,0.56,0.44,0.78,0.29,0.34,-116.37,50.44,217.13,0.17,1.5,0.05,1.06,0.38,0.89,0.57,0.66,0.46,0.19,-149.87,6.69,6.25,0.43,0.64,0.29,0.23,0.87,1.74,-0.04,0.07,-0.96,0.26,-126.0,15.75,7.25,0.01,0.74,0.3,0.15,0.2,1.67,-0.09,0.12,-0.88,0.46
0.28,-126.87,50.81,194.18,0.35,0.73,0.09,2.95,1.03,0.08,0.45,0.78,0.29,0.33,-116.19,48.87,217.5,0.03,1.24,0.02,1.76,0.54,0.61,0.57,0.66,0.46,0.18,-149.62,7.44,6.62,0.4,0.63,0.07,0.28,0.95,1.98,-0.05,0.07,-0.96,0.26,-126.44,16.5,7.5,0.14,0.76,0.4,0.08,0.21,1.38,-0.1,0.12,-0.88,0.45
0.29,-126.25,50.31,193.8,0.14,0.35,0.15,2.71,0.08,0.1,0.45,0.78,0.29,0.33,-116.0,47.5,217.82,0.09,1.23,0.05,1.54,0.12,0.67,0.57,0.67,0.45,0.17,-149.75,8.13,7.06,0.4,0.58,0.03,0.34,0.05,2.45,-0.05,0.08,-0.96,0.26,-126.94,17.31,7.87,0.21,0.82,0.44,0.52,0.59,1.24,-0.1,0.13,-0.88,0.45
0.3,-125.94,50.25,193.55,0.03,0.03,0.16,1.75,0.76,0.52,0.45,0.78,0.29,0.33,-115.88,46.19,218.13,0.04,1.14,0.07,0.8,0.81,0.23,0.57,0.67,0.45,0.15,-149.87,8.75,7.56,0.31,0.54,0.01,0.09,0.29,2.43,-0.06,0.08,-0.96,0.26,-127.25,18.25,8.31,0.25,0.89,0.16,0.53,0.37,1.88,-0.11,0.13,-0.88,0.45
0.31,-125.75,50.44,193.31,0.06,0.24,0.09,1.58,0.09,0.21,0.45,0.78,0.29,0.33,-115.69,45.12,218.38,0.04,0.96,0.03,1.38,1.04,0.34,0.57,0.67,0.45,0.15,-149.62,9.94,8.19,0.27,0.5,0.17,0.36,0.34,2.4,-0.06,0.09,-0.96,0.27,-127.44,19.25,8.63,0.27,0.9,0.11,0.39,0.01,1.99,-0.12,0.14,-0.88,0.45
0.32,-125.62,50.81,193.18,0.05,0.33,0.05,1.55,0.01,0.28,0.45,0.78,0.29,0.33,-115.69,44.19,218.56,0.02,0.82,0.04,1.32,0.21,1.89,0.57,0.67,0.45,0.14,-149.44,10.5,8.44,0.26,0.45,0.17,0.07,0.33,2.97,-0.07,0.09,-0.96,0.27,-127.31,20.25,8.94,0.32,0.87,0.14,0.3,0.29,1.89,-0.12,0.15,-0.87,0.45
0.33,-124.44,51.19,192.18,0.16,0.16,0.27,1.56,0.24,0.84,0.46,0.77,0.28,0.34,-115.69,43.31,218.63,0.01,0.84,0.06,0.74,0.07,1.43,0.57,0.68,0.45,0.13,-149.31,11.06,8.69,0.26,0.44,0.15,0.02,1.26,2.54,-0.07,0.1,-0.96,0.27,-127.25,21.19,9.44,0.39,0.84,0.02,0.27,0.14,2.13,-0.13,0.15,-0.87,0.45
0.34,-123.94,51.44,191.68,0.08,0.29,0.26,2.17,0.01,0.24,0.46,0.77,0.28,0.34,-115.69,42.38,218.69,0.01,0.85,0.04,1.39,0.02,0.13,0.57,0.68,0.44,0.12,-149.19,11.5,8.94,0.19,0.39,0.11,0.14,2.0,2.19,-0.08,0.1,-0.95,0.27,-127.44,22.0,10.0,0.41,0.77,0.11,0.18,0.51,2.44,-0.13,0.16,-0.87,0.45
0.35,-123.62,51.94,191.24,0.03,0.54,0.27,0.96,0.52,0.28,0.46,0.77,0.28,0.34,-115.69,41.44,218.75,0.03,0.82,0.07,1.68,0.12,0.41,0.57,0.68,0.44,0.12,-149.12,11.94,9.0,0.17,0.36,0.02,0.2,1.82,2.36,-0.08,0.1,-0.95,0.27,-127.5,22.81,10.5,0.38,0.72,0.01,0.42,0.4,2.04,-0.14,0.17,-0.87,0.45
0.36,-123.44,52.56,190.8,0.06,0.62,0.18,2.12,0.09,0.02,0.46,0.77,0.28,0.35,-115.75,40.69,218.82,0.02,0.66,0.05,0.7,0.14,1.35,0.57,0.69,0.44,0.11,-149.38,12.25,8.94,0.15,0.3,0.22,0.51,0.82,2.32,-0.08,0.1,-0.95,0.27,-127.31,23.56,10.88,0.35,0.67,0.16,0.42,0.23,2.02,-0.14,0.17,-0.86,0.45
0.37,-123.31,52.94,190.55,0.06,0.64,0.23,2.08,0.63,0.82,0.46,0.77,0.28,0.35,-115.75,39.94,218.82,0.02,0.76,0.05,0.74,0.16,0.6,0.57,0.69,0.44,0.11,-149.81,12.37,8.69,0.33,0.11,0.35,0.47,0.1,1.9,-0.08,0.1,-0.95,0.27,-127.0,24.37,11.19,0.37,0.67,0.32,0.44,0.2,2.83,-0.15,0.18,-0.86,0.45
0.38,-123.19,53.56,190.12,0.26,0.53,0.17,1.51,0.39,1.31,0.46,0.76,0.28,0.36,-115.69,39.06,218.94,0.01,0.86,0.06,2.24,0.01,1.42,0.57,0.69,0.43,0.1,-150.25,12.44,8.44,0.34,0.03,0.32,0.66,0.19,2.21,-0.09,0.1,-0.96,0.26,-126.62,25.12,11.5,0.33,0.66,0.27,0.8,0.01,3.23,-0.15,0.18,-0.86,0.46
0.39,-123.75,54.13,190.18,0.27,0.51,0.12,1.8,0.26,1.31,0.45,0.76,0.28,0.36,-115.75,38.13,219.13,0.17,0.69,0.06,2.6,0.46,1.75,0.57,0.7,0.43,0.09,-150.62,12.25,8.06,0.37,0.12,0.31,0.57,1.06,1.91,-0.09,0.09,-0.96,0.26,-126.31,25.94,11.75,0.28,0.69,0.33,1.11,0.71,3.47,-0.15,0.19,-0.85,0.46
0.4,-124.19,54.69,190.12,0.11,0.62,0.17,1.44,0.33,0.43,0.45,0.76,0.28,0.37,-115.88,37.63,219.31,0.17,0.42,0.06,2.58,0.6,1.09,0.57,0.7,0.43,0.09,-151.12,11.94,7.81,0.33,0.26,0.5,0.87,0.86,2.07,-0.08,0.09,-0.96,0.25,-126.12,26.87,12.06,0.33,0.83,0.12,0.65,0.55,3.14,-0.16,0.2,-0.85,0.46
0.41,-124.31,55.88,189.62,0.05,0.34,0.17,2.11,0.18,0.09,0.45,0.76,0.28,0.38,-115.94,37.31,219.44,0.09,0.25,0.02,2.0,0.25,0.71,0.56,0.7,0.43,0.09,-151.81,11.5,7.37,0.54,0.35,0.67,0.65,1.24,1.99,-0.08,0.09,-0.96,0.25,-126.38,27.81,12.81,0.55,0.95,0.18,0.01,0.01,3.13,-0.16,0.2,-0.85,0.46
0.42,-124.06,56.25,189.18,0.18,0.43,0.17,1.82,0.36,0.28,0.45,0.76,0.28,0.38,-116.19,36.88,219.63,0.12,0.13,0.12,1.58,0.64,2.39,0.56,0.7,0.43,0.08,-152.75,10.94,6.81,0.66,0.44,0.92,1.24,0.56,2.79,-0.08,0.08,-0.96,0.24,-126.56,28.87,13.88,0.77,1.02,0.24,0.37,0.73,2.96,-0.17,0.22,-0.85,0.46
0.43,-123.56,56.75,188.62,0.22,0.52,0.15,1.79,0.13,0.87,0.45,0.76,0.28,0.39,-116.38,36.69,219.69,0.06,0.19,0.09,1.39,0.09,1.6,0.56,0.7,0.43,0.08,-153.81,10.38,6.37,0.56,0.41,1.08,0.54,0.4,3.02,-0.08,0.07,-0.97,0.23,-126.69,29.94,15.06,0.81,1.06,0.17,0.97,1.21,2.58,-0.17,0.23,-0.84,0.46
0.44,-123.19,57.38,187.99,0.11,0.61,0.14,1.25,0.74,0.09,0.45,0.75,0.28,0.39,-116.63,36.0,219.75,0.09,0.3,0.11,2.4,0.3,1.32,0.56,0.71,0.43,0.08,-155.37,10.06,6.12,0.47,0.07,1.52,0.99,1.14,2.53,-0.07,0.07,-0.97,0.22,-126.75,30.5,15.63,0.86,1.01,0.04,1.11,1.22,2.83,-0.17,0.23,-0.84,0.46
0.45,-122.87,58.0,187.43,0.14,0.48,0.15,1.64,0.87,0.06,0.44,0.75,0.28,0.4,-116.69,35.88,219.75,0.06,0.1,0.01,1.2,0.35,1.75,0.56,0.71,0.43,0.08,-157.25,9.88,5.94,0.33,0.02,1.68,0.62,3.11,2.54,-0.07,0.07,-0.97,0.2,-126.38,32.69,17.87,0.87,0.98,0.09,0.79,0.03,2.97,-0.18,0.26,-0.83,0.47
0.46,-122.31,58.38,186.87,0.27,0.34,0.11,3.17,0.92,2.12,0.45,0.75,0.28,0.4,-116.63,36.0,219.75,0.03,0.17,0.04,1.03,0.13,1.11,0.56,0.71,0.43,0.08,-158.94,9.75,6.37,0.27,0.03,1.41,0.62,5.31,2.58,-0.07,0.07,-0.98,0.19,-126.5,33.69,19.06,0.9,1.04,0.08,2.12,0.87,3.91,-0.18,0.27,-0.82,0.47
0.47,-122.0,58.81,186.37,0.06,0.55,0.12,2.66,0.37,1.18,0.45,0.75,0.28,0.41,-116.63,36.13,219.75,0.01,0.04,0.03,2.25,0.43,2.16,0.56,0.71,0.43,0.08,-159.81,9.06,7.0,0.36,0.58,0.66,0.6,1.55,2.31,-0.07,0.07,-0.98,0.18,-126.5,34.81,20.37,0.71,1.32,0.01,1.18,0.86,3.66,-0.19,0.28,-0.81,0.47
0.48,-122.13,59.38,186.05,0.13,0.52,0.12,1.89,0.09,0.57,0.44,0.75,0.28,0.41,-116.63,36.13,219.81,0.02,0.05,0.03,2.26,0.71,2.88,0.56,0.71,0.43,0.08,-160.69,8.38,7.37,0.21,0.45,0.93,1.45,0.39,2.14,-0.06,0.08,-0.98,0.17,-126.87,36.25,21.5,0.65,1.37,0.78,1.09,0.56,0.82,-0.19,0.3,-0.81,0.47
0.49,-122.25,59.81,185.87,0.03,0.3,0.13,3.13,1.17,3.68,0.44,0.75,0.28,0.41,-116.5,36.44,219.75,0.12,0.33,0.11,0.91,0.72,2.81,0.56,0.7,0.43,0.08,-161.69,8.0,7.87,0.34,0.14,0.86,1.86,1.28,2.87,-0.06,0.08,-0.98,0.16,-127.44,37.06,23.06,0.95,0.55,1.54,0.62,4.78,2.19,-0.2,0.31,-0.8,0.47
0.5,-122.56,59.88,186.24,0.11,0.02,0.14,3.33,0.92,3.78,0.44,0.75,0.28,0.41,-116.32,36.81,219.63,0.16,0.27,0.11,2.86,0.48,1.77,0.56,0.7,0.43,0.08,-162.19,7.75,8.19,0.15,0.24,0.36,0.81,1.69,1.69,-0.06,0.08,-0.98,0.16,-128.94,36.69,25.56,1.09,0.15,1.73,4.19,4.94,0.49,-0.19,0.32,-0.81,0.46
0.51,-122.69,60.12,186.24,0.07,0.3,0.04,2.69,1.53,3.2,0.44,0.75,0.28,0.42,-116.19,36.88,219.44,0.2,0.05,0.03,4.21,0.28,2.99,0.56,0.7,0.43,0.08,-162.19,7.25,8.25,0.02,0.49,0.05,0.44,1.3,0.48,-0.05,0.08,-0.98,0.16,-130.0,36.25,27.13,0.6,0.11,0.55,2.46,1.99,2.89,-0.18,0.33,-0.81,0.46
0.52,-122.31,60.5,185.93,0.32,0.26,0.05,1.38,0.5,3.07,0.44,0.74,0.28,0.42,-116.19,37.13,219.31,0.05,0.26,0.03,2.43,0.57,4.04,0.56,0.7,0.43,0.09,-162.0,6.62,8.19,0.01,0.59,0.12,0.2,2.04,1.69,-0.05,0.08,-0.98,0.16,-132.0,36.13,29.0,0.21,0.17,2.05,1.57,0.28,0.33,-0.18,0.34,-0.81,0.45
0.53,-121.87,60.63,185.74,0.22,0.1,0.1,1.54,1.02,2.85,0.44,0.74,0.28,0.42,-116.32,37.94,219.31,0.09,0.81,0.07,1.68,0.37,4.98,0.56,0.7,0.43,0.09,-162.0,6.0,8.13,0.09,0.56,0.06,0.28,2.73,1.48,-0.04,0.08,-0.98,0.16,-133.87,35.25,30.37,0.13,0.05,1.44,1.47,0.56,2.25,-0.17,0.34,-0.82,0.43
0.54,-121.87,60.69,185.93,0.01,0.08,0.12,1.77,0.62,2.52,0.44,0.74,0.28,0.42,-116.38,38.81,219.19,0.05,0.75,0.03,0.21,1.5,3.94,0.56,0.7,0.43,0.1,-162.19,5.37,7.81,0.37,0.53,0.25,0.15,2.13,2.6,-0.04,0.07,-0.98,0.16,-135.06,34.44,31.0,0.1,0.22,0.79,0.39,1.35,1.72,-0.17,0.34,-0.82,0.42
0.55,-122.13,60.44,186.24,0.12,0.23,0.06,1.66,0.76,2.31,0.44,0.74,0.28,0.42,-116.26,39.19,219.0,0.26,0.27,0.14,0.59,0.25,1.99,0.56,0.7,0.43,0.1,-162.62,4.81,7.25,0.52,0.47,0.42,0.55,1.56,2.93,-0.03,0.07,-0.99,0.15,-136.19,33.69,31.44,0.15,0.13,0.99,0.04,0.42,2.64,-0.16,0.34,-0.83,0.42
0.56,-122.19,60.06,186.43,0.03,0.4,0.02,0.97,0.15,2.31,0.44,0.74,0.28,0.41,-115.94,39.44,218.82,0.23,0.14,0.14,0.59,0.55,2.09,0.57,0.69,0.43,0.1,-162.94,4.31,6.62,0.62,0.38,0.43,0.96,1.28,3.61,-0.03,0.06,-0.99,0.15,-137.25,33.25,31.69,0.19,0.01,0.69,0.83,0.76,3.5,-0.16,0.34,-0.83,0.41
0.57,-122.06,59.44,186.62,0.02,0.61,0.04,0.84,0.16,1.6,0.44,0.74,0.28,0.41,-115.82,39.63,218.69,0.15,0.18,0.05,0.07,0.43,1.96,0.57,0.69,0.43,0.11,-163.31,3.94,5.87,0.73,0.25,0.26,1.06,0.23,3.88,-0.03,0.06,-0.99,0.15,-137.81,33.06,32.0,0.03,0.2,0.42,1.45,1.09,2.99,-0.16,0.34,-0.83,0.4
0.58,-122.06,58.63,187.06,0.07,0.83,0.09,1.14,0.03,1.36,0.45,0.75,0.28,0.4,-115.69,39.56,218.56,0.14,0.17,0.09,0.1,0.38,1.34,0.57,0.69,0.43,0.11,-163.5,3.75,5.0,0.82,0.13,0.02,1.14,0.58,3.39,-0.03,0.05,-0.99,0.14,-138.37,33.06,32.56,0.21,0.27,0.48,1.58,1.45,3.0,-0.16,0.35,-0.83,0.4
0.59,-122.56,57.56,187.93,0.29,1.05,0.19,1.5,0.01,1.74,0.45,0.75,0.28,0.39,-115.5,39.06,218.69,0.02,0.51,0.11,0.68,0.8,1.34,0.57,0.69,0.43,0.1,-163.5,3.5,4.12,0.76,0.31,0.06,0.73,0.19,1.25,-0.03,0.04,-0.99,0.14,-138.81,33.25,33.06,0.27,0.34,0.06,1.1,0.58,2.85,-0.16,0.35,-0.83,0.4
0.6,-122.87,56.37,188.74,0.09,1.11,0.24,1.61,0.05,1.36,0.45,0.75,0.28,0.38,-115.38,38.5,218.88,0.06,0.56,0.09,0.87,0.01,1.76,0.57,0.69,0.43,0.09,-163.44,3.06,3.25,0.78,0.44,0.1,1.23,1.01,0.76,-0.02,0.03,-0.99,0.14,-138.81,33.44,33.63,0.38,0.19,0.09,1.78,0.26,2.26,-0.16,0.36,-0.83,0.4
0.61,-122.94,55.12,189.3,0.02,1.13,0.14,1.91,0.29,1.57,0.45,0.76,0.28,0.37,-115.32,37.81,219.0,0.02,0.64,0.02,1.08,0.66,1.56,0.57,0.7,0.43,0.09,-163.31,2.81,2.87,0.66,0.41,0.01,0.65,0.61,1.15,-0.02,0.03,-0.99,0.15,-138.19,33.69,33.94,0.25,0.08,0.32,0.77,0.87,2.3,-0.16,0.36,-0.82,0.41
0.62,-122.87,54.06,189.68,0.02,0.94,0.07,1.72,0.47,1.22,0.46,0.76,0.28,0.36,-115.32,37.44,219.0,0.01,0.74,0.03,1.04,0.44,1.94,0.57,0.7,0.43,0.09,-163.44,2.37,2.19,0.56,0.34,0.37,0.14,0.87,1.73,-0.02,0.02,-0.99,0.14,-137.88,33.75,34.19,0.31,0.03,0.03,0.19,1.41,1.84,-0.16,0.36,-0.82,0.41
0.63,-123.0,53.19,190.06,0.08,0.8,0.18,0.57,0.15,0.03,0.46,0.76,0.28,0.35,-115.32,36.56,219.07,0.15,0.8,0.09,1.38,0.88,1.72,0.57,0.7,0.43,0.08,-163.94,2.0,1.56,0.62,0.28,0.58,0.36,0.45,1.89,-0.02,0.02,-0.99,0.14,-138.0,33.75,34.44,0.38,0.17,0.02,0.77,1.25,2.25,-0.16,0.36,-0.82,0.41
0.64,-123.56,52.13,190.87,0.18,1.05,0.31,1.09,0.79,1.12,0.46,0.77,0.28,0.35,-115.44,35.75,219.25,0.06,0.72,0.02,1.19,1.23,2.67,0.57,0.7,0.42,0.07,-164.56,1.69,0.88,0.68,0.26,0.61,0.18,0.46,1.87,-0.01,0.01,-0.99,0.13,-137.88,33.94,34.88,0.36,0.3,0.09,1.23,0.35,1.13,-0.16,0.37,-0.82,0.41
0.65,-123.75,51.0,191.37,0.03,1.01,0.2,1.49,0.19,1.97,0.46,0.77,0.28,0.34,-115.32,35.0,219.38,0.14,0.56,0.15,0.95,0.6,1.64,0.57,0.7,0.42,0.07,-165.94,1.06,0.5,0.63,0.25,0.59,0.37,0.82,0.95,-0.01,0.01,-0.99,0.12,-137.81,34.25,35.38,0.34,0.29,0.02,1.58,1.37,0.64,-0.16,0.37,-0.82,0.41
0.66,-123.75,50.56,191.49,0.05,0.74,0.08,0.16,0.56,0.86,0.46,0.77,0.28,0.33,-115.07,34.38,219.44,0.06,0.57,0.12,1.88,1.94,0.27,0.57,0.71,0.42,0.06,-166.37,0.81,1.19,0.65,0.26,0.34,0.86,0.24,0.47,-0.01,0.01,-0.99,0.12,-137.75,34.56,35.88,0.35,0.36,0.1,1.28,0.27,1.59,-0.16,0.38,-0.81,0.41
0.67,-123.56,49.75,191.68,0.05,0.74,0.23,0.56,0.32,1.38,0.46,0.78,0.28,0.33,-115.07,33.69,219.69,0.23,0.63,0.08,0.44,0.99,2.42,0.57,0.71,0.42,0.06,-167.06,0.25,2.69,0.64,0.24,0.32,0.3,0.96,1.33,0.0,0.02,-0.99,0.11,-137.62,34.94,36.44,0.34,0.4,0.09,1.17,0.96,1.46,-0.16,0.38,-0.81,0.42
0.68,-123.75,48.87,192.12,0.1,0.87,0.27,0.5,0.45,0.69,0.47,0.78,0.28,0.32,-115.13,33.13,219.94,0.1,0.4,0.05,0.63,1.87,2.26,0.57,0.71,0.42,0.05,-167.44,0.16,3.37,0.67,0.17,0.43,0.17,1.01,1.16,0.0,0.03,-0.99,0.11,-137.75,35.25,37.06,0.33,0.39,0.1,0.58,1.37,1.38,-0.16,0.39,-0.81,0.42
0.69,-124.56,47.81,192.8,0.18,0.83,0.23,0.74,0.45,0.13,0.46,0.78,0.28,0.31,-115.07,32.69,220.13,0.02,0.43,0.08,0.82,1.77,1.41,0.57,0.71,0.42,0.05,-167.75,0.06,4.12,0.7,0.13,0.38,0.61,0.31,0.68,0.0,0.04,-0.99,0.11,-137.62,35.56,37.69,0.49,0.36,0.1,0.36,0.5,1.35,-0.16,0.39,-0.8,0.42
0.7,-125.0,46.94,193.31,0.04,0.59,0.2,0.24,1.08,1.54,0.46,0.79,0.28,0.3,-115.01,31.87,220.25,0.07,0.8,0.08,1.91,1.37,0.2,0.56,0.71,0.42,0.04,-168.19,0.19,4.87,0.53,0.25,0.42,0.51,0.01,0.88,0.0,0.04,-0.99,0.1,-137.62,36.44,39.13,0.4,0.58,0.05,0.88,1.51,0.81,-0.16,0.4,-0.8,0.42
0.71,-125.25,45.88,193.87,0.17,0.32,0.19,1.37,1.01,0.23,0.46,0.79,0.28,0.29,-115.07,31.0,220.31,0.08,0.8,0.09,2.57,0.9,0.41,0.56,0.71,0.41,0.03,-168.62,0.44,5.44,0.52,0.27,0.31,0.43,0.14,1.18,0.0,0.05,-0.99,0.1,-137.56,36.94,39.88,0.48,0.49,0.26,0.86,0.16,0.78,-0.16,0.41,-0.79,0.42
0.72,-125.81,45.63,194.18,0.15,0.17,0.07,0.46,0.15,0.89,0.46,0.79,0.28,0.29,-115.13,30.62,220.5,0.15,0.13,0.02,0.17,1.12,0.52,0.56,0.71,0.41,0.03,-168.87,0.62,6.06,0.58,0.17,0.12,0.12,0.34,0.45,-0.0,0.05,-0.99,0.1,-137.12,37.94,41.37,0.55,0.45,0.04,0.32,1.18,0.65,-0.16,0.42,-0.78,0.43
0.73,-125.31,45.88,193.93,0.26,0.05,0.21,0.04,0.24,0.27,0.46,0.79,0.28,0.29,-115.01,30.75,220.69,0.11,0.06,0.13,0.77,0.08,1.28,0.56,0.71,0.42,0.03,-169.0,0.81,6.81,0.62,0.18,0.26,0.2,0.11,0.64,-0.0,0.06,-0.99,0.1,-137.06,38.31,42.25,0.56,0.49,0.06,0.13,0.82,1.13,-0.16,0.43,-0.78,0.43
0.74,-126.31,45.94,194.49,0.23,0.15,0.09,1.53,0.63,0.97,0.46,0.79,0.28,0.29,-114.94,30.56,220.75,0.03,0.23,0.07,0.88,0.53,0.64,0.56,0.71,0.42,0.03,-169.19,1.0,7.44,0.54,0.19,0.2,0.27,1.53,0.3,-0.0,0.07,-0.99,0.09,-136.94,38.75,43.13,0.58,0.45,0.11,0.27,0.96,0.57,-0.16,0.44,-0.77,0.44
0.75,-126.87,46.25,194.74,0.08,0.67,0.1,0.26,0.8,2.6,0.45,0.79,0.28,0.3,-114.88,30.37,220.75,0.05,0.1,0.03,0.41,0.82,0.96,0.56,0.71,0.42,0.03,-169.37,1.12,7.94,0.4,0.15,0.22,0.67,0.87,0.78,-0.0,0.07,-0.99,0.09,-136.75,39.25,44.0,0.57,0.48,0.22,0.49,0.91,0.47,-0.16,0.44,-0.77,0.44
0.76,-126.94,47.0,194.62,0.02,0.69,0.09,0.09,0.83,1.37,0.45,0.79,0.28,0.3,-114.75,30.5,220.75,0.01,0.13,0.13,0.39,0.61,0.21,0.56,0.71,0.42,0.03,-169.81,1.06,8.25,0.3,0.04,0.45,0.24,0.04,1.38,-0.0,0.07,-0.99,0.09,-136.44,39.75,44.81,0.61,0.5,0.18,0.82,0.86,1.06,-0.16,0.45,-0.76,0.44
0.77,-126.87,47.75,194.55,0.07,0.75,0.04,1.29,0.29,0.76,0.45,0.79,0.28,0.31,-114.63,30.5,220.88,0.06,0.1,0.08,1.3,0.28,1.56,0.57,0.71,0.42,0.03,-170.25,0.94,8.75,0.48,0.05,0.36,0.33,0.58,0.43,-0.0,0.08,-0.99,0.09,-136.19,40.31,45.81,0.57,0.56,0.11,0.54,1.22,1.47,-0.16,0.46,-0.75,0.45
0.78,-127.25,48.63,194.68,0.19,0.98,0.02,0.37,0.12,0.88,0.45,0.79,0.29,0.31,-114.63,30.56,220.94,0.11,0.13,0.02,1.99,1.16,0.4,0.57,0.71,0.42,0.03,-170.56,0.88,9.25,0.36,0.09,0.21,1.64,0.85,1.01,-0.0,0.08,-0.99,0.08,-136.06,40.81,46.69,0.51,0.52,0.07,0.14,1.69,0.97,-0.16,0.46,-0.75,0.45
0.79,-127.75,49.75,194.8,0.18,1.07,0.01,1.09,0.7,1.63,0.44,0.78,0.29,0.32,-114.75,31.12,221.13,0.19,0.64,0.03,0.06,0.01,1.9,0.57,0.71,0.42,0.03,-170.69,0.69,9.63,0.29,0.17,0.2,1.68,0.56,1.78,0.0,0.08,-0.99,0.08,-135.56,41.69,48.38,0.58,0.46,0.36,0.87,1.22,0.32,-0.16,0.48,-0.73,0.46
0.8,-127.87,50.88,194.8,0.2,0.93,0.06,0.14,1.09,0.26,0.44,0.78,0.29,0.33,-114.82,31.5,221.19,0.11,0.65,0.07,0.59,1.24,1.27,0.57,0.71,0.42,0.03,-170.94,0.19,9.94,0.32,0.45,0.29,0.65,0.1,1.26,0.01,0.09,-0.99,0.08,-135.06,42.31,49.13,0.58,0.38,0.35,1.2,0.27,0.82,-0.16,0.48,-0.73,0.46
0.81,-127.44,51.88,194.43,0.18,0.92,0.1,1.63,0.35,0.93,0.44,0.78,0.29,0.34,-114.69,32.31,221.44,0.13,0.33,0.13,0.93,0.08,0.26,0.57,0.7,0.43,0.04,-171.06,0.19,10.31,0.36,0.41,0.09,0.37,0.29,0.89,0.01,0.09,-0.99,0.08,-134.31,42.81,49.63,0.64,0.13,0.55,0.93,0.16,0.25,-0.15,0.49,-0.72,0.47
0.82,-127.38,53.13,194.24,0.03,1.19,0.09,0.5,0.24,0.06,0.44,0.77,0.3,0.35,-114.69,32.56,221.5,0.1,0.64,0.04,0.17,0.61,0.99,0.57,0.7,0.43,0.04,-170.94,0.69,10.69,0.26,0.5,0.16,0.8,0.48,0.3,0.0,0.09,-0.99,0.08,-133.37,43.38,50.0,0.63,0.05,0.52,0.1,0.77,0.45,-0.15,0.49,-0.71,0.48
0.83,-127.5,54.56,194.12,0.02,1.39,0.01,0.58,0.5,0.3,0.44,0.77,0.3,0.36,-114.75,33.38,221.63,0.17,0.79,0.03,0.11,0.36,0.16,0.57,0.7,0.43,0.04,-170.75,1.25,10.88,0.21,0.58,0.14,0.1,1.44,0.88,-0.0,0.1,-0.99,0.08,-132.63,43.75,50.5,0.75,0.03,0.49,0.61,0.94,0.17,-0.15,0.5,-0.7,0.48
0.84,-127.56,56.19,193.99,0.08,1.43,0.03,1.19,0.23,0.37,0.44,0.76,0.3,0.37,-114.82,34.19,221.75,0.15,0.62,0.02,1.14,0.95,0.1,0.57,0.7,0.43,0.05,-170.44,1.94,11.06,0.11,0.71,0.2,0.02,1.27,0.7,-0.01,0.1,-0.99,0.08,-131.25,44.44,50.75,0.76,0.03,0.91,0.38,0.55,0.81,-0.15,0.5,-0.69,0.49
0.85,-127.62,57.81,193.87,0.02,1.5,0.1,0.85,0.4,0.66,0.44,0.75,0.31,0.38,-114.88,34.94,221.88,0.01,0.84,0.07,0.98,0.22,1.2,0.57,0.69,0.44,0.05,-170.19,2.69,11.12,0.01,0.67,0.16,0.35,1.0,1.23,-0.01,0.1,-0.99,0.09,-130.06,45.12,51.06,0.73,0.03,0.7,0.5,0.17,0.25,-0.15,0.51,-0.69,0.5
0.86,-127.38,59.5,193.37,0.1,1.52,0.18,0.62,0.75,0.11,0.43,0.75,0.31,0.4,-114.82,35.94,221.81,0.15,1.16,0.03,0.05,0.21,0.67,0.57,0.69,0.44,0.06,-169.94,3.31,11.0,0.19,0.63,0.12,0.99,0.2,1.16,-0.02,0.1,-0.99,0.09,-128.94,45.69,51.37,0.75,0.02,0.69,1.26,0.68,0.67,-0.14,0.51,-0.68,0.51
0.87,-127.12,61.19,192.74,0.09,1.55,0.17,0.19,0.28,0.79,0.43,0.74,0.31,0.41,-114.75,37.31,221.63,0.1,1.24,0.03,0.38,0.06,0.38,0.57,0.68,0.44,0.07,-169.75,4.06,10.63,0.41,0.72,0.05,2.28,0.15,0.57,-0.03,0.1,-0.99,0.09,-127.94,46.25,51.94,0.79,0.15,0.46,1.28,1.86,0.19,-0.14,0.52,-0.67,0.52
0.88,-126.62,62.81,191.99,0.27,1.43,0.11,2.4,0.07,0.82,0.43,0.73,0.31,0.42,-114.75,38.5,221.69,0.11,0.98,0.07,0.6,0.05,0.46,0.57,0.68,0.45,0.08,-169.69,4.69,10.13,0.43,0.48,0.04,1.97,0.78,1.54,-0.03,0.09,-0.99,0.09,-126.06,47.88,53.44,0.63,0.6,0.54,1.33,0.94,0.36,-0.14,0.53,-0.64,0.53
0.89,-126.31,64.5,191.37,0.2,1.62,0.02,2.04,0.24,0.56,0.43,0.73,0.31,0.44,-114.75,39.63,221.75,0.09,1.0,0.05,0.56,0.63,2.19,0.58,0.68,0.45,0.09,-170.38,5.69,8.44,0.9,0.38,0.52,1.14,0.39,1.56,-0.04,0.08,-0.99,0.09,-125.94,48.38,54.81,0.65,0.76,0.01,0.99,0.91,0.7,-0.13,0.54,-0.64,0.54
0.9,-125.69,68.5,189.49,0.3,1.67,0.14,2.27,0.05,2.48,0.42,0.71,0.32,0.47,-114.75,40.94,221.69,0.06,1.26,0.04,0.05,0.17,0.93,0.58,0.67,0.46,0.1,-170.87,6.19,7.44,0.8,0.41,0.49,0.53,0.42,2.73,-0.05,0.07,-0.99,0.08,-125.69,49.13,56.37,0.67,0.97,0.24,0.65,0.12,0.22,-0.13,0.55,-0.62,0.54
0.91,-125.0,70.0,187.99,0.38,1.39,0.18,1.28,0.37,0.26,0.41,0.71,0.31,0.48,-114.69,42.38,221.69,0.01,1.25,0.09,0.52,0.7,0.48,0.58,0.66,0.46,0.11,-171.37,6.69,6.5,0.85,0.32,0.59,0.26,0.59,3.35,-0.05,0.06,-0.99,0.08,-125.5,50.0,58.19,0.72,1.11,0.21,1.64,1.21,0.8,-0.13,0.56,-0.61,0.55
0.92,-124.5,71.75,186.3,0.26,1.7,0.13,1.98,0.43,1.4,0.41,0.7,0.31,0.5,-114.63,43.75,221.69,0.02,1.21,0.09,1.16,0.09,0.18,0.58,0.66,0.47,0.11,-171.62,6.87,6.0,0.97,0.39,0.45,0.19,1.55,2.3,-0.06,0.06,-0.99,0.08,-125.44,50.38,59.25,0.82,1.25,0.09,1.34,1.11,0.42,-0.12,0.57,-0.6,0.55
0.93,-124.5,73.62,184.74,0.01,1.73,0.07,2.17,0.54,2.04,0.39,0.7,0.31,0.51,-114.63,45.25,221.75,0.04,1.39,0.08,0.19,0.25,1.65,0.58,0.65,0.47,0.12,-172.06,7.44,4.81,1.0,0.57,0.42,0.26,0.86,2.77,-0.06,0.05,-0.99,0.07,-125.31,51.19,61.63,0.95,1.35,0.21,1.18,0.3,0.71,-0.12,0.58,-0.59,0.55
0.94,-124.56,75.31,183.05,0.06,1.58,0.12,0.64,0.9,0.39,0.38,0.69,0.3,0.53,-115.07,47.0,221.75,0.05,1.64,0.05,0.06,0.19,1.29,0.58,0.65,0.48,0.14,-172.31,8.06,3.62,1.12,0.6,0.42,0.08,0.5,2.9,-0.07,0.04,-0.99,0.07,-125.0,52.13,64.25,1.03,1.38,0.32,1.64,2.33,0.36,-0.11,0.6,-0.57,0.56
0.95,-124.87,77.31,180.62,0.22,1.94,0.08,0.65,1.3,0.58,0.36,0.69,0.29,0.55,-115.32,50.19,221.44,0.08,1.3,0.04,1.2,0.1,0.54,0.58,0.64,0.48,0.16,-172.62,8.81,2.37,1.1,0.7,0.3,0.73,0.75,2.82,-0.08,0.03,-0.99,0.07,-124.81,53.13,67.19,1.16,1.41,0.24,1.54,1.98,0.72,-0.1,0.61,-0.55,0.56
0.96,-125.06,79.37,176.8,0.02,1.96,0.14,3.67,0.61,0.85,0.34,0.69,0.28,0.58,-115.69,52.0,221.44,0.01,1.81,0.15,0.73,0.37,1.23,0.58,0.63,0.49,0.18,-173.13,9.63,1.06,1.11,0.83,0.28,0.14,0.94,4.0,-0.08,0.01,-0.99,0.06,-124.56,53.63,70.56,1.38,1.36,0.21,1.98,0.4,0.1,-0.09,0.63,-0.52,0.57
0.97,-124.94,80.94,176.8,0.02,1.5,0.22,2.39,0.88,0.43,0.34,0.68,0.28,0.59,-116.32,56.31,221.19,0.03,1.86,0.05,1.19,0.32,0.9,0.58,0.61,0.5,0.21,-173.25,10.56,0.13,1.1,0.76,0.01,0.74,1.68,4.71,-0.09,0.01,-0.99,0.06,-124.06,54.63,73.94,1.34,1.49,0.69,2.81,2.71,0.38,-0.07,0.64,-0.5,0.58
0.98,-125.0,82.25,170.18,0.18,1.52,0.2,2.27,0.36,0.37,0.3,0.69,0.25,0.61,-116.57,58.44,221.07,0.02,1.98,0.07,1.82,0.78,0.22,0.58,0.61,0.5,0.23,-173.06,11.38,1.31,1.1,0.69,0.21,1.48,4.51,5.48,-0.1,0.02,-0.99,0.06,-122.87,55.81,77.62,1.47,1.53,0.68,3.23,0.48,1.42,-0.06,0.66,-0.46,0.59
0.99,-125.12,83.5,170.18,0.12,1.52,0.24,3.12,0.24,0.78,0.29,0.69,0.25,0.62,-116.88,60.88,220.75,0.04,2.21,0.01,1.21,0.01,0.37,0.57,0.6,0.5,0.25,-172.31,11.94,2.37,1.11,0.41,0.58,3.22,0.76,5.91,-0.1,0.03,-0.99,0.07,-121.69,56.94,81.87,1.59,1.71,0.84,5.0,1.43,0.37,-0.03,0.68,-0.43,0.6
1.0,-124.69,84.31,169.74,0.18,1.51,0.41,2.92,0.48,1.11,0.29,0.68,0.25,0.62,-117.25,63.19,220.44,0.17,2.07,0.07,1.29,0.26,0.19,0.57,0.59,0.51,0.27,-172.25,12.5,3.81,1.45,0.47,0.42,3.65,2.2,5.55,-0.11,0.04,-0.99,0.07,-120.69,58.19,81.87,1.13,2.01,0.05,5.68,2.79,0.35,-0.04,0.68,-0.42,0.6
1.01,-124.5,84.56,169.49,0.06,1.37,0.32,3.27,0.48,1.48,0.29,0.68,0.25,0.62,-117.63,65.56,220.07,0.14,2.22,0.05,3.13,1.16,0.6,0.57,0.58,0.51,0.29,-172.81,12.88,5.69,1.62,0.29,0.82,3.06,1.91,2.48,-0.11,0.06,-0.99,0.07,-121.06,57.81,86.49,1.09,1.9,0.16,5.12,1.49,0.86,-0.01,0.7,-0.39,0.6
1.02,-124.44,84.69,169.18,0.25,1.21,0.18,3.37,0.29,1.37,0.29,0.68,0.25,0.63,-118.13,68.19,219.63,0.22,2.47,0.02,4.11,1.2,1.17,0.56,0.57,0.51,0.31,-174.0,12.88,8.06,1.79,0.08,1.24,0.43,2.31,0.94,-0.11,0.08,-0.99,0.06,-121.81,57.19,90.55,0.74,1.88,0.4,3.31,1.26,0.72,0.01,0.71,-0.37,0.6
1.03,-124.62,84.56,169.18,0.18,1.07,0.15,3.13,0.49,1.53,0.29,0.68,0.25,0.63,-118.69,71.0,218.94,0.27,2.59,0.05,4.63,0.79,0.78,0.56,0.56,0.51,0.33,-175.19,12.75,10.31,1.67,0.03,1.33,0.43,2.84,0.84,-0.11,0.09,-0.99,0.05,-123.0,56.25,93.99,0.49,1.78,0.47,0.9,0.51,0.95,0.03,0.72,-0.36,0.59
1.04,-124.62,84.31,169.37,0.03,0.54,0.11,2.23,0.22,1.19,0.29,0.68,0.25,0.62,-119.07,73.56,217.94,0.17,2.11,0.05,4.46,1.37,0.78,0.55,0.55,0.51,0.36,-176.12,12.5,12.06,1.3,0.05,0.85,2.01,2.11,0.18,-0.1,0.11,-0.99,0.04,-123.87,55.88,97.24,0.47,1.66,0.32,0.84,0.58,3.17,0.04,0.73,-0.35,0.58
1.05,-124.56,84.06,169.49,0.16,0.42,0.09,0.75,0.57,1.55,0.29,0.68,0.25,0.62,-119.25,75.75,216.75,0.02,1.99,0.03,3.89,1.58,0.57,0.55,0.55,0.51,0.38,-176.63,12.37,13.69,1.34,0.09,0.52,3.0,0.84,2.87,-0.1,0.12,-0.99,0.04,-123.87,55.81,98.8,0.6,1.31,0.29,0.07,0.29,1.96,0.05,0.74,-0.34,0.58
1.06,-124.31,83.81,169.56,0.18,0.44,0.09,0.26,0.34,1.48,0.29,0.68,0.25,0.62,-119.32,78.37,214.38,0.05,2.43,0.11,4.1,0.75,2.53,0.54,0.54,0.5,0.41,-176.94,12.5,15.19,1.25,0.27,0.31,3.06,0.34,2.33,-0.1,0.13,-0.98,0.04,-123.69,55.69,101.49,0.73,0.71,0.37,0.73,4.8,2.08,0.06,0.74,-0.32,0.58
1.07,-124.12,83.56,169.68,0.15,0.49,0.09,0.43,0.44,0.29,0.3,0.68,0.25,0.62,-119.38,79.56,212.5,0.16,1.79,0.26,2.99,0.15,2.25,0.53,0.55,0.5,0.42,-177.12,13.38,17.62,1.0,0.52,0.1,1.39,1.11,1.43,-0.11,0.15,-0.98,0.04,-123.31,55.81,103.31,0.57,0.16,0.34,2.0,2.31,0.27,0.07,0.75,-0.31,0.58
1.08,-124.06,83.25,169.68,0.04,0.49,0.08,0.42,0.52,0.21,0.3,0.69,0.25,0.62,-118.63,81.63,212.5,0.15,2.61,0.29,2.14,0.5,1.61,0.53,0.53,0.5,0.43,-176.94,14.13,18.75,0.98,0.66,0.26,0.1,1.53,1.82,-0.12,0.16,-0.98,0.05,-121.31,56.37,105.49,0.94,0.02,0.33,1.3,3.16,0.62,0.09,0.75,-0.28,0.59
1.09,-124.06,83.06,169.68,0.1,0.4,0.07,0.21,0.1,0.43,0.3,0.69,0.25,0.61,-118.63,84.44,212.5,0.03,3.94,0.28,2.39,0.21,0.46,0.52,0.52,0.51,0.45,-176.44,15.06,19.62,0.74,0.73,0.44,0.68,0.09,0.35,-0.12,0.17,-0.98,0.05,-119.37,57.0,107.24,1.07,0.19,1.07,1.24,3.68,0.97,0.11,0.75,-0.26,0.59
1.1,-123.87,82.69,169.68,0.16,0.26,0.04,0.28,0.44,0.91,0.3,0.69,0.25,0.61,-118.5,86.75,212.25,0.12,4.23,0.25,1.48,1.37,3.48,0.52,0.5,0.51,0.46,-176.31,15.94,20.5,0.83,0.8,0.05,0.58,0.49,1.12,-0.13,0.18,-0.97,0.06,-117.06,57.94,109.56,0.97,0.26,1.08,0.5,4.67,1.46,0.13,0.76,-0.22,0.6
1.11,-123.62,82.62,168.24,0.32,0.13,0.01,0.05,0.06,0.71,0.29,0.69,0.24,0.62,-119.07,86.4,210.93,0.38,5.58,0.12,2.44,0.3,1.37,0.51,0.51,0.5,0.47,-176.44,16.75,21.75,1.01,0.88,0.08,0.76,1.35,0.36,-0.14,0.19,-0.97,0.06,-116.31,58.06,110.93,0.77,0.05,0.14,0.74,2.7,0.94,0.15,0.76,-0.21,0.6
1.12,-123.25,82.56,167.25,0.33,0.09,0.01,0.17,0.02,0.57,0.29,0.69,0.24,0.62,-118.82,86.06,209.62,0.36,4.02,0.17,1.09,0.69,2.36,0.51,0.52,0.5,0.47,-176.5,17.56,23.19,1.17,0.79,0.1,2.09,1.38,0.24,-0.14,0.2,-0.97,0.06,-115.25,58.13,111.74,0.56,0.24,0.94,1.81,0.23,1.76,0.16,0.76,-0.2,0.6
1.13,-122.94,82.37,165.93,0.33,0.21,0.05,0.05,0.91,0.31,0.29,0.69,0.23,0.62,-118.19,85.71,208.3,0.15,1.19,0.07,0.53,0.03,2.81,0.51,0.52,0.49,0.47,-176.75,18.31,24.5,1.12,0.78,0.14,0.18,0.49,1.64,-0.15,0.21,-0.96,0.06,-114.06,58.87,113.87,0.46,0.49,1.12,0.22,0.2,1.25,0.17,0.76,-0.17,0.6
1.14,-122.56,82.12,164.56,0.25,0.25,0.08,0.06,0.66,0.57,0.28,0.7,0.22,0.62,-117.07,85.37,206.98,0.02,1.35,0.16,1.09,1.12,0.33,0.51,0.53,0.49,0.47,-176.87,18.56,25.31,1.29,0.71,0.39,0.31,0.17,0.64,-0.15,0.22,-0.96,0.06,-113.19,58.81,116.05,0.97,0.55,0.04,1.99,2.47,1.98,0.19,0.76,-0.16,0.6
1.15,-122.5,81.94,163.81,0.01,0.15,0.04,0.11,0.59,0.52,0.28,0.7,0.22,0.62,-116.82,85.02,205.67,0.25,1.06,0.13,1.44,0.58,1.51,0.5,0.53,0.48,0.48,-177.25,19.06,27.0,1.24,0.46,0.01,1.56,2.1,0.44,-0.16,0.23,-0.96,0.06,-112.06,58.56,118.05,1.05,0.5,0.12,0.32,0.11,0.11,0.21,0.76,-0.14,0.6
1.16,-122.62,81.94,163.0,0.07,0.17,0.01,0.18,0.52,0.16,0.27,0.7,0.21,0.62,-116.88,84.67,204.35,0.12,1.55,0.05,0.68,0.24,0.38,0.5,0.54,0.48,0.48,-176.94,19.56,28.31,1.02,0.23,0.46,0.83,0.76,0.16,-0.16,0.25,-0.95,0.07,-110.88,58.44,120.62,1.01,0.7,0.43,0.22,1.11,1.61,0.23,0.76,-0.12,0.59
1.17,-122.69,81.75,162.25,0.07,0.19,0.04,0.47,0.39,0.14,0.27,0.7,0.21,0.62,-116.82,84.33,203.03,0.39,1.91,0.08,0.63,0.72,0.7,0.49,0.55,0.47,0.48,-176.31,19.94,29.25,1.03,0.04,0.18,0.71,0.13,0.28,-0.16,0.25,-0.95,0.07,-109.75,58.19,123.24,0.83,0.94,0.37,0.32,1.51,0.31,0.25,0.76,-0.09,0.59
1.18,-122.69,81.63,161.81,0.05,0.1,0.01,0.49,0.18,0.37,0.27,0.71,0.2,0.62,-116.88,83.98,201.72,0.13,0.19,0.11,1.16,0.07,1.03,0.49,0.56,0.46,0.49,-176.12,20.0,30.5,1.21,0.1,0.12,0.48,1.37,1.72,-0.16,0.26,-0.95,0.08,-109.5,57.44,125.55,0.86,1.02,0.06,0.42,1.22,0.87,0.27,0.76,-0.08,0.58
1.19,-122.75,81.56,161.18,0.03,0.13,0.02,0.49,0.22,0.95,0.26,0.71,0.2,0.62,-116.82,83.64,200.4,0.22,1.68,0.1,0.82,0.78,0.63,0.48,0.56,0.46,0.49,-176.25,20.0,32.13,1.15,0.15,0.09,0.19,0.69,0.6,-0.16,0.28,-0.94,0.08,-108.94,56.69,127.87,0.77,1.08,0.15,0.66,0.4,0.98,0.29,0.76,-0.07,0.57
1.2,-122.81,81.44,160.5,0.01,0.12,0.02,0.24,0.13,0.8,0.26,0.71,0.2,0.63,-116.25,83.29,199.08,0.25,0.09,0.13,0.02,0.78,0.14,0.48,0.57,0.45,0.49,-176.12,20.12,33.44,1.07,0.17,0.11,1.35,0.01,0.77,-0.16,0.29,-0.94,0.08,-108.19,55.94,130.18,0.79,1.03,0.22,1.05,0.71,0.53,0.31,0.76,-0.05,0.56
1.21,-122.69,81.37,160.12,0.15,0.05,0.01,0.53,0.14,0.08,0.26,0.71,0.19,0.63,-116.25,82.94,197.77,0.07,0.06,0.14,0.14,0.78,0.02,0.48,0.57,0.44,0.49,-176.19,20.31,34.75,1.09,0.37,0.15,0.93,0.4,0.45,-0.16,0.3,-0.94,0.08,-107.69,55.19,132.43,0.82,1.11,0.22,2.0,1.43,0.35,0.33,0.77,-0.04,0.55
1.22,-122.5,81.37,159.87,0.17,0.09,0.01,0.5,0.24,0.17,0.26,0.71,0.19,0.63,-115.82,82.6,196.45,0.56,0.44,0.04,0.31,0.1,0.04,0.47,0.58,0.44,0.5,-176.06,20.69,36.19,1.3,0.48,0.12,0.67,0.32,1.86,-0.16,0.31,-0.93,0.09,-106.75,54.38,134.99,0.82,1.23,0.46,0.23,0.57,0.99,0.35,0.76,-0.02,0.54
1.23,-122.25,81.31,159.06,0.34,0.13,0.01,0.61,0.16,0.32,0.26,0.71,0.19,0.63,-115.38,82.25,195.13,0.18,1.16,0.02,0.19,0.63,0.35,0.47,0.58,0.43,0.5,-175.87,21.19,37.63,1.24,0.46,0.15,0.87,1.05,0.99,-0.16,0.32,-0.93,0.09,-105.87,53.69,137.62,0.89,1.07,0.56,0.53,0.76,1.99,0.37,0.76,-0.0,0.53
1.24,-121.94,81.19,158.0,0.3,0.14,0.01,0.18,0.69,0.24,0.25,0.71,0.18,0.63,-115.13,81.91,193.82,0.15,0.99,0.04,0.01,0.09,0.21,0.47,0.59,0.43,0.5,-175.56,21.69,38.88,1.04,0.42,0.16,1.19,0.77,0.75,-0.16,0.33,-0.92,0.1,-104.38,53.0,139.93,0.96,0.97,0.27,0.69,1.31,0.5,0.39,0.76,0.01,0.52
1.25,-121.75,81.12,157.31,0.19,0.09,0.02,0.14,0.65,0.37,0.25,0.71,0.18,0.63,-114.88,81.56,192.5,0.38,0.03,0.12,0.08,0.2,0.28,0.47,0.6,0.42,0.5,-175.31,22.19,40.12,1.1,0.51,0.17,0.88,0.82,0.27,-0.17,0.34,-0.92,0.1,-102.94,52.25,142.12,0.9,0.96,0.53,0.67,0.12,0.65,0.42,0.75,0.03,0.51
1.26,-121.75,81.0,156.37,0.04,0.14,0.07,0.09,0.44,0.06,0.25,0.71,0.17,0.63,-114.69,81.5,190.75,0.38,0.28,0.13,0.36,0.31,0.59,0.46,0.6,0.41,0.51,-175.06,22.81,41.56,1.19,0.64,0.19,1.33,0.76,0.07,-0.17,0.36,-0.91,0.11,-102.38,52.06,143.43,0.74,0.8,0.88,0.44,1.06,0.19,0.43,0.75,0.04,0.5
1.27,-121.87,80.94,155.25,0.03,0.17,0.07,0.32,0.23,0.12,0.24,0.72,0.17,0.63,-114.51,81.12,187.12,0.44,0.59,0.17,0.86,0.87,0.39,0.44,0.62,0.39,0.52,-174.75,23.62,42.94,1.13,0.73,0.31,1.75,0.66,1.06,-0.17,0.37,-0.91,0.12,-100.5,51.63,145.8,0.92,0.78,0.53,0.27,1.62,0.39,0.45,0.74,0.06,0.49
1.28,-121.81,80.81,154.31,0.22,0.13,0.03,0.1,0.12,0.6,0.24,0.72,0.16,0.63,-113.94,80.69,182.31,0.42,0.21,0.16,1.0,0.7,0.65,0.43,0.63,0.37,0.53,-174.5,24.44,44.38,1.18,0.77,0.32,0.26,2.66,0.13,-0.18,0.38,-0.9,0.12,-98.44,51.13,147.93,1.04,0.68,0.5,1.03,1.98,1.36,0.48,0.73,0.08,0.48
1.29,-121.31,80.62,153.56,0.41,0.22,0.13,0.31,0.08,0.17,0.23,0.72,0.16,0.63,-113.88,80.38,179.56,0.32,0.43,0.21,0.43,0.67,0.93,0.41,0.64,0.35,0.54,-173.75,26.19,47.19,1.08,0.75,0.49,2.1,1.13,2.52,-0.19,0.4,-0.89,0.14,-96.37,50.75,150.12,0.99,0.4,0.86,0.69,2.76,1.22,0.5,0.72,0.1,0.46
1.3,-120.87,80.38,153.0,0.33,0.25,0.13,0.38,0.1,0.48,0.24,0.72,0.15,0.63,-113.69,80.0,177.31,0.37,0.42,0.1,0.2,0.3,0.25,0.41,0.65,0.34,0.55,-173.25,27.13,48.25,0.92,0.52,0.57,1.42,2.84,0.79,-0.19,0.41,-0.88,0.15,-93.62,50.69,152.43,0.85,0.41,0.69,0.85,0.88,0.84,0.53,0.71,0.13,0.45
1.31,-120.62,80.06,152.43,0.15,0.21,0.08,0.13,0.58,0.14,0.24,0.72,0.15,0.63,-113.44,79.81,176.38,0.26,0.18,0.03,0.05,0.74,0.24,0.4,0.65,0.33,0.55,-172.75,27.75,49.25,0.89,0.6,0.1,1.53,0.58,1.32,-0.19,0.42,-0.87,0.16,-91.87,50.44,154.18,0.75,0.45,0.24,1.66,0.4,2.13,0.54,0.7,0.14,0.44
1.32,-120.37,79.94,152.25,0.17,0.05,0.05,0.06,0.87,0.16,0.24,0.72,0.15,0.63,-113.19,79.56,175.75,0.26,0.37,0.01,0.79,0.01,0.38,0.4,0.65,0.33,0.55,-172.94,28.19,50.5,0.91,0.64,0.03,1.65,1.91,0.37,-0.19,0.43,-0.87,0.16,-90.25,50.0,155.49,0.52,0.46,0.48,0.88,0.47,1.03,0.56,0.69,0.16,0.43
1.33,-120.06,79.87,152.25,0.27,0.04,0.08,0.96,0.76,0.44,0.24,0.72,0.15,0.63,-112.94,79.19,174.75,0.32,0.3,0.01,0.52,0.12,0.51,0.4,0.66,0.32,0.55,-173.0,28.56,51.88,0.93,0.58,0.13,0.71,0.15,1.07,-0.2,0.44,-0.86,0.16,-88.87,49.63,156.74,0.44,0.45,0.46,0.26,1.37,0.15,0.58,0.68,0.17,0.42
1.34,-119.69,79.81,152.18,0.31,0.01,0.07,0.87,1.01,0.78,0.24,0.72,0.15,0.63,-112.63,79.0,174.0,0.31,0.08,0.01,0.04,0.29,0.3,0.4,0.66,0.32,0.55,-172.94,28.87,53.13,0.9,0.47,0.07,0.44,0.03,1.23,-0.2,0.45,-0.86,0.16,-88.31,49.19,157.68,0.35,0.51,0.25,0.98,0.8,0.35,0.58,0.68,0.17,0.41
1.35,-119.44,80.0,152.81,0.22,0.25,0.02,0.98,0.87,0.69,0.24,0.72,0.16,0.63,-112.44,78.94,173.44,0.13,0.1,0.04,0.6,0.44,0.1,0.4,0.66,0.32,0.55,-172.94,29.12,54.44,1.1,0.34,0.14,1.32,1.26,0.49,-0.2,0.46,-0.85,0.17,-87.69,48.63,158.37,0.26,0.55,0.14,0.87,0.79,0.58,0.59,0.68,0.17,0.4
1.36,-119.06,80.12,153.43,0.35,0.13,0.1,0.37,0.04,0.28,0.25,0.72,0.17,0.63,-111.63,78.81,172.81,0.09,0.13,0.05,0.45,0.18,0.18,0.4,0.66,0.32,0.55,-172.87,29.19,55.81,1.01,0.36,0.11,1.18,0.26,0.22,-0.19,0.47,-0.85,0.17,-87.62,48.06,158.87,0.26,0.56,0.01,1.27,0.26,1.23,0.6,0.68,0.17,0.4
1.37,-118.56,80.06,154.31,0.28,0.07,0.2,0.25,0.08,0.34,0.26,0.71,0.17,0.63,-111.57,78.62,172.19,0.12,0.15,0.04,0.32,0.85,0.15,0.4,0.66,0.31,0.55,-173.0,29.44,57.19,0.99,0.5,0.12,1.04,0.74,0.43,-0.19,0.48,-0.84,0.17,-87.5,47.38,159.18,0.14,0.61,0.02,0.47,0.74,0.11,0.6,0.68,0.17,0.39
1.38,-118.25,80.0,155.18,0.06,0.05,0.12,0.01,0.06,0.47,0.27,0.71,0.18,0.62,-110.63,78.31,171.69,0.02,0.19,0.02,0.25,0.13,0.1,0.4,0.66,0.31,0.55,-172.81,29.87,58.5,0.99,0.59,0.28,0.14,0.46,1.18,-0.19,0.49,-0.83,0.18,-87.25,46.19,160.3,0.25,0.6,0.17,0.31,0.08,0.65,0.61,0.67,0.17,0.38
1.39,-118.25,80.0,155.31,0.06,0.01,0.07,0.76,0.68,0.84,0.27,0.71,0.18,0.62,-110.51,77.94,171.19,0.14,0.37,0.02,0.9,0.19,0.55,0.4,0.66,0.31,0.55,-172.44,30.44,59.88,1.02,0.6,0.25,0.53,0.42,1.12,-0.2,0.5,-0.83,0.19,-86.56,45.63,160.93,0.26,0.52,0.25,0.26,0.02,0.27,0.62,0.67,0.17,0.37
1.4,-118.37,80.06,155.56,0.15,0.06,0.02,0.41,0.71,0.71,0.27,0.71,0.18,0.62,-109.44,77.31,170.19,0.17,0.22,0.02,0.7,0.36,0.23,0.41,0.67,0.3,0.55,-172.69,30.81,61.56,1.2,0.74,0.25,0.41,0.38,0.43,-0.2,0.51,-0.82,0.19,-86.12,45.19,161.62,0.22,0.42,0.26,0.57,0.14,0.66,0.62,0.67,0.18,0.37
1.41,-118.56,80.12,155.81,0.14,0.05,0.03,0.43,0.41,0.24,0.27,0.71,0.18,0.62,-108.63,77.06,169.69,0.19,0.28,0.03,1.67,0.53,0.17,0.41,0.67,0.3,0.54,-172.75,31.12,63.31,1.0,0.82,0.38,0.82,2.07,0.47,-0.2,0.52,-0.81,0.19,-85.25,44.94,162.3,0.21,0.27,0.43,0.3,1.34,0.11,0.63,0.66,0.18,0.36
1.42,-118.69,80.19,155.93,0.1,0.04,0.03,0.71,0.92,0.5,0.27,0.71,0.18,0.62,-108.5,76.69,169.5,0.04,0.25,0.06,0.66,0.95,0.5,0.41,0.67,0.3,0.54,-172.37,31.94,64.75,0.96,0.76,0.51,0.59,1.11,0.29,-0.2,0.53,-0.8,0.2,-84.25,44.69,163.12,0.21,0.31,0.56,0.18,0.58,0.24,0.64,0.66,0.19,0.35
1.43,-118.75,80.19,156.25,0.02,0.08,0.02,0.27,2.22,0.41,0.27,0.71,0.19,0.62,-108.5,76.5,169.56,0.05,0.13,0.04,0.36,1.79,1.05,0.41,0.67,0.3,0.54,-172.06,32.75,66.31,0.99,1.01,0.3,0.96,1.73,1.15,-0.2,0.54,-0.79,0.21,-84.25,44.56,163.56,0.15,0.41,0.63,0.05,0.67,1.46,0.64,0.65,0.19,0.35
1.44,-118.81,80.25,156.5,0.09,0.04,0.03,0.09,1.11,0.17,0.27,0.71,0.19,0.62,-107.75,76.44,169.0,0.15,0.05,0.07,0.07,0.05,2.06,0.41,0.67,0.3,0.54,-172.0,33.5,68.06,1.01,1.08,0.27,0.3,0.22,0.9,-0.2,0.55,-0.78,0.22,-84.94,44.19,164.49,0.2,0.35,0.67,0.12,1.15,0.48,0.64,0.66,0.19,0.34
1.45,-119.0,80.25,155.5,0.02,0.17,0.16,0.7,0.38,1.86,0.26,0.71,0.18,0.62,-107.75,76.12,167.75,0.02,0.36,0.13,0.52,1.05,2.09,0.41,0.67,0.29,0.54,-172.19,34.19,69.75,0.93,0.98,0.24,0.31,1.02,0.24,-0.2,0.56,-0.77,0.22,-85.63,43.87,165.49,0.17,0.43,0.63,0.31,0.03,0.33,0.64,0.66,0.19,0.34
1.46,-119.06,80.19,154.43,0.27,0.28,0.18,1.55,0.23,2.19,0.26,0.72,0.17,0.63,-107.13,75.75,166.94,0.08,0.41,0.13,2.26,0.77,0.34,0.41,0.67,0.29,0.54,-172.06,35.38,72.62,0.68,0.74,0.36,0.61,0.1,0.19,-0.21,0.58,-0.75,0.23,-86.69,43.44,166.3,0.08,0.45,0.47,0.01,1.55,0.5,0.64,0.67,0.19,0.33
1.47,-119.0,80.12,152.31,0.1,0.04,0.23,0.01,0.03,0.84,0.24,0.72,0.16,0.63,-107.38,75.37,165.94,0.01,0.39,0.19,0.81,0.59,0.97,0.4,0.68,0.28,0.55,-171.81,35.94,73.94,0.91,0.75,0.3,0.19,0.24,1.9,-0.21,0.59,-0.74,0.24,-88.31,42.5,167.74,0.1,0.42,0.55,0.39,0.23,0.58,0.64,0.67,0.19,0.32
1.48,-119.31,80.25,150.93,0.11,0.09,0.27,1.83,0.12,0.72,0.23,0.72,0.15,0.64,-107.57,74.94,164.56,0.14,0.4,0.21,0.41,0.38,0.11,0.4,0.68,0.27,0.55,-171.69,37.0,77.44,0.99,1.02,0.54,0.25,0.31,0.96,-0.2,0.61,-0.72,0.25,-88.81,42.13,168.3,0.02,0.31,0.49,0.58,0.82,0.08,0.64,0.68,0.19,0.32
1.49,-119.62,80.5,150.06,0.02,0.05,0.12,1.62,0.55,1.43,0.23,0.72,0.14,0.64,-107.13,74.56,163.75,0.07,0.36,0.13,0.55,0.12,0.04,0.4,0.68,0.27,0.55,-171.25,37.81,79.37,1.13,1.0,0.35,1.36,0.3,0.17,-0.2,0.62,-0.71,0.26,-90.56,41.69,169.37,0.06,0.1,0.63,0.04,0.8,1.0,0.63,0.68,0.19,0.31
1.5,-119.69,80.56,149.87,0.12,0.09,0.01,1.35,0.88,1.9,0.22,0.72,0.14,0.64,-107.38,74.37,163.44,0.16,0.16,0.07,0.31,1.18,0.69,0.4,0.69,0.26,0.55,-171.37,38.38,81.44,1.11,1.0,0.3,0.51,1.47,0.22,-0.2,0.63,-0.7,0.27,-91.19,41.63,169.74,0.21,0.09,0.5,0.68,0.84,1.16,0.63,0.69,0.19,0.31
1.51,-119.25,80.62,150.93,0.06,0.02,0.11,0.64,0.1,0.37,0.23,0.72,0.15,0.64,-106.94,74.12,163.12,0.12,0.31,0.09,0.12,0.86,0.91,0.4,0.69,0.26,0.55,-171.13,39.0,83.31,0.92,1.03,0.45,0.19,0.59,0.66,-0.2,0.64,-0.69,0.28,-92.25,41.5,169.93,0.2,0.1,0.34,0.65,0.93,1.27,0.62,0.69,0.19,0.31
1.52,-119.25,80.5,150.87,0.32,0.29,0.2,1.17,1.12,0.74,0.23,0.72,0.15,0.64,-107.13,73.62,162.5,0.03,0.51,0.14,0.73,0.41,0.6,0.4,0.69,0.25,0.55,-170.81,39.56,85.31,0.98,1.02,0.38,0.37,0.93,0.65,-0.2,0.66,-0.67,0.28,-92.63,41.25,170.06,0.09,0.32,0.45,0.49,0.01,0.05,0.62,0.7,0.18,0.31
1.53,-119.94,80.38,148.68,0.44,0.33,0.35,0.58,0.12,0.09,0.22,0.72,0.13,0.64,-107.26,73.12,161.69,0.02,0.4,0.14,0.53,0.92,0.09,0.39,0.69,0.25,0.55,-170.62,40.0,87.25,1.02,0.88,0.25,0.84,0.43,0.4,-0.19,0.67,-0.66,0.29,-93.19,40.88,170.37,0.14,0.41,0.45,0.45,1.28,0.72,0.62,0.7,0.18,0.31
1.54,-120.87,80.31,145.62,0.19,0.27,0.35,0.39,0.94,0.26,0.19,0.73,0.11,0.65,-106.88,72.87,161.37,0.12,0.22,0.1,0.18,0.43,0.3,0.4,0.69,0.24,0.55,-170.56,39.94,89.19,0.94,0.67,0.09,0.73,0.96,0.98,-0.19,0.68,-0.65,0.29,-93.81,40.38,170.3,0.12,0.44,0.2,1.38,0.1,1.88,0.62,0.7,0.18,0.31
1.55,-121.31,80.19,143.37,0.02,0.23,0.21,0.2,1.35,0.24,0.18,0.73,0.09,0.65,-106.94,72.75,161.06,0.05,0.23,0.12,0.7,1.02,0.17,0.39,0.7,0.24,0.55,-170.94,40.0,92.56,0.9,0.93,0.01,0.47,0.77,1.75,-0.18,0.7,-0.63,0.3,-94.0,39.75,170.3,0.07,0.64,0.14,0.03,0.02,0.02,0.62,0.7,0.17,0.3
1.56,-121.13,80.06,142.68,0.3,0.08,0.03,0.74,1.88,0.72,0.18,0.73,0.09,0.65,-107.0,72.5,160.56,0.13,0.24,0.02,0.02,0.18,0.41,0.39,0.7,0.24,0.55,-171.0,40.12,94.56,0.92,0.97,0.25,0.82,1.08,0.53,-0.18,0.71,-0.62,0.3,-94.5,39.06,170.18,0.08,0.63,0.26,0.3,0.55,0.1,0.62,0.71,0.17,0.3
1.57,-120.69,80.06,142.24,0.45,0.01,0.12,0.62,0.34,0.71,0.18,0.73,0.09,0.65,-106.19,72.25,160.44,0.05,0.02,0.08,1.33,0.28,0.37,0.4,0.7,0.24,0.55,-170.94,40.19,96.44,1.01,0.8,0.09,1.03,1.89,0.61,-0.17,0.72,-0.6,0.3,-94.81,38.5,170.12,0.16,0.5,0.21,0.26,0.07,0.29,0.62,0.71,0.16,0.3
1.58,-120.44,80.12,140.74,0.44,0.03,0.21,0.51,0.27,0.32,0.17,0.73,0.08,0.65,-106.07,72.25,160.5,0.3,0.13,0.06,0.06,0.1,0.08,0.4,0.7,0.24,0.55,-170.87,40.25,98.31,0.9,0.9,0.21,0.54,0.34,0.71,-0.17,0.73,-0.59,0.31,-95.69,37.69,170.3,0.24,0.31,0.19,0.03,0.49,0.43,0.61,0.72,0.16,0.29
1.59,-120.06,80.44,137.49,0.31,0.06,0.22,0.12,1.48,0.2,0.15,0.73,0.06,0.66,-105.26,72.0,159.75,0.22,0.3,0.11,1.56,0.89,0.36,0.4,0.7,0.24,0.55,-171.0,40.5,100.31,0.91,1.09,0.47,0.37,0.95,0.31,-0.16,0.74,-0.58,0.31,-96.13,37.44,170.3,0.25,0.22,0.38,0.57,0.34,0.21,0.61,0.72,0.15,0.29
1.6,-120.37,80.62,135.56,0.02,0.09,0.35,0.44,1.14,0.72,0.14,0.73,0.05,0.66,-105.26,71.75,159.19,0.1,0.1,0.05,0.63,1.26,0.8,0.4,0.7,0.23,0.55,-170.62,40.88,102.31,0.86,0.85,0.53,0.57,1.07,0.71,-0.16,0.75,-0.56,0.32,-96.82,37.25,170.24,0.24,0.17,0.4,0.79,0.14,0.83,0.61,0.72,0.15,0.29
1.61,-121.31,81.31,131.74,0.07,0.17,0.29,0.16,0.08,0.19,0.11,0.73,0.02,0.67,-104.82,72.0,158.75,0.03,0.17,0.1,0.24,0.82,0.31,0.4,0.7,0.23,0.55,-169.94,41.25,103.87,0.82,0.61,0.51,0.19,1.95,0.42,-0.15,0.75,-0.55,0.33,-96.94,36.94,170.3,0.15,0.28,0.02,0.28,0.14,0.77,0.61,0.73,0.15,0.29
1.62,-121.62,81.56,130.18,0.05,0.15,0.2,0.11,0.29,0.67,0.09,0.73,0.01,0.67,-105.0,71.94,158.44,0.04,0.21,0.09,0.49,0.17,0.25,0.4,0.7,0.23,0.55,-169.75,41.5,105.81,0.91,0.89,0.43,0.41,2.26,0.21,-0.15,0.76,-0.54,0.33,-97.13,36.56,170.37,0.11,0.34,0.21,0.2,0.11,0.71,0.61,0.73,0.15,0.29
1.63,-121.75,81.75,128.87,0.13,0.21,0.19,1.28,0.36,0.91,0.09,0.73,0.0,0.67,-104.57,71.75,158.12,0.06,0.15,0.06,0.36,0.69,0.14,0.4,0.7,0.23,0.55,-169.5,41.63,107.81,0.89,0.96,0.35,1.33,0.76,0.24,-0.14,0.77,-0.52,0.34,-97.81,36.25,170.18,0.06,0.33,0.26,0.37,0.25,0.46,0.6,0.73,0.14,0.29
1.64,-121.62,82.06,127.75,0.31,0.2,0.13,1.06,0.64,0.94,0.08,0.73,-0.0,0.68,-104.44,71.69,157.62,0.29,0.05,0.08,0.48,0.88,1.08,0.4,0.7,0.23,0.55,-169.19,41.44,111.5,0.91,0.87,0.37,0.36,1.16,0.52,-0.13,0.79,-0.5,0.34,-98.0,35.88,170.24,0.09,0.33,0.07,0.72,0.28,0.78,0.6,0.73,0.14,0.28
1.65,-121.44,82.19,126.68,0.23,0.13,0.13,0.01,0.35,0.35,0.07,0.73,-0.01,0.68,-104.44,71.69,157.0,0.1,0.02,0.14,0.46,0.13,0.69,0.39,0.7,0.22,0.55,-168.87,41.37,113.44,0.91,0.87,0.25,1.33,0.25,0.59,-0.12,0.8,-0.48,0.34,-98.75,35.13,169.99,0.11,0.33,0.19,1.08,0.2,0.74,0.6,0.74,0.13,0.28
1.66,-121.37,82.37,125.31,0.22,0.08,0.17,0.69,1.97,0.25,0.06,0.73,-0.02,0.68,-104.01,71.56,156.69,0.05,0.18,0.1,0.81,0.79,0.21,0.4,0.7,0.22,0.55,-167.69,41.75,113.44,0.96,0.8,0.63,1.17,0.89,0.39,-0.11,0.8,-0.48,0.35,-98.94,34.81,170.06,0.14,0.27,0.09,0.14,0.61,0.89,0.6,0.74,0.13,0.28
1.67,-121.44,82.37,122.87,0.23,0.06,0.29,0.65,1.46,0.63,0.05,0.73,-0.03,0.68,-104.01,71.31,156.31,0.16,0.22,0.08,1.1,1.84,0.21,0.4,0.7,0.22,0.55,-166.88,42.0,115.31,0.73,0.68,0.63,1.44,0.18,0.81,-0.1,0.81,-0.46,0.36,-99.44,34.38,170.06,0.16,0.2,0.26,1.28,1.17,0.19,0.6,0.74,0.13,0.28
1.68,-121.56,82.44,120.43,0.13,0.04,0.24,0.5,0.88,0.34,0.03,0.73,-0.05,0.68,-103.63,71.19,155.75,0.06,0.04,0.11,1.3,1.84,0.01,0.4,0.7,0.22,0.55,-166.06,42.06,116.81,0.87,0.5,0.32,0.58,1.63,1.11,-0.09,0.81,-0.45,0.36,-99.69,34.19,170.12,0.21,0.15,0.06,1.09,0.83,1.51,0.59,0.74,0.13,0.28
1.69,-121.81,82.5,119.06,0.12,0.05,0.16,0.84,0.8,0.34,0.02,0.73,-0.06,0.68,-103.82,71.31,155.63,0.17,0.15,0.08,0.74,0.48,1.89,0.39,0.7,0.22,0.55,-165.75,42.06,117.62,0.9,0.5,0.21,0.06,2.73,0.03,-0.09,0.82,-0.44,0.36,-100.0,33.94,170.3,0.2,0.24,0.05,1.78,0.92,0.35,0.59,0.75,0.12,0.27
1.7,-122.19,82.56,118.18,0.07,0.12,0.11,0.56,0.5,1.4,0.01,0.73,-0.06,0.68,-104.07,71.31,155.56,0.07,0.09,0.16,0.18,0.4,0.12,0.39,0.7,0.21,0.55,-165.12,41.88,119.12,0.72,0.57,0.03,1.33,1.28,0.17,-0.08,0.82,-0.43,0.37,-100.13,33.69,170.3,0.23,0.29,0.01,0.86,1.07,0.04,0.59,0.75,0.12,0.27
1.71,-122.31,82.69,118.93,0.01,0.11,0.06,0.08,0.51,1.82,0.02,0.73,-0.06,0.68,-104.01,70.94,156.69,0.23,0.1,0.14,0.12,0.94,0.36,0.4,0.7,0.22,0.55,-164.88,41.44,120.31,0.73,0.34,0.06,0.9,1.34,0.52,-0.07,0.83,-0.42,0.37,-100.31,33.38,169.99,0.24,0.28,0.09,1.15,0.58,1.07,0.59,0.75,0.12,0.27
1.72,-122.37,82.75,119.12,0.13,0.06,0.04,0.2,1.69,0.19,0.02,0.73,-0.06,0.68,-104.32,70.87,156.69,0.29,0.02,0.12,0.54,0.25,0.34,0.4,0.7,0.22,0.55,-164.62,41.25,121.25,0.47,0.25,0.02,0.89,1.55,0.31,-0.06,0.83,-0.41,0.37,-100.13,33.06,169.62,0.11,0.24,0.28,1.96,1.06,2.35,0.59,0.75,0.12,0.27
1.73,-122.56,82.81,119.56,0.17,0.04,0.08,0.44,1.49,0.49,0.02,0.73,-0.06,0.68,-104.32,70.94,156.94,0.03,0.03,0.21,0.12,0.05,0.44,0.4,0.7,0.22,0.55,-164.31,41.13,122.0,0.4,0.27,0.16,0.1,1.39,0.22,-0.06,0.83,-0.41,0.37,-99.81,32.81,169.3,0.11,0.29,0.3,0.91,1.42,1.12,0.6,0.75,0.11,0.27
1.74,-122.94,82.81,120.56,0.27,0.07,0.17,0.01,0.04,0.51,0.02,0.73,-0.05,0.68,-104.57,70.87,157.62,0.08,0.12,0.21,0.51,0.34,0.48,0.4,0.7,0.22,0.55,-164.13,41.13,122.69,0.42,0.22,0.15,0.33,1.77,0.24,-0.05,0.84,-0.4,0.37,-99.5,32.5,168.87,0.02,0.04,0.01,1.14,1.53,0.79,0.6,0.75,0.11,0.27
1.75,-123.44,82.69,121.74,0.34,0.1,0.18,0.24,0.48,0.06,0.03,0.73,-0.05,0.68,-104.5,70.69,158.06,0.22,0.11,0.16,0.22,0.15,0.34,0.4,0.7,0.22,0.54,-163.5,41.31,123.31,0.14,0.02,0.45,0.92,0.45,0.46,-0.05,0.84,-0.4,0.37,-99.69,32.5,169.05,0.1,0.04,0.11,1.33,1.07,1.76,0.6,0.75,0.11,0.27
1.76,-123.87,82.56,122.74,0.22,0.15,0.14,0.4,0.1,0.14,0.03,0.73,-0.05,0.68,-104.69,70.69,158.25,0.08,0.13,0.1,0.31,0.29,0.12,0.4,0.7,0.23,0.54,-162.75,41.75,123.81,0.23,0.01,0.47,1.41,1.65,0.44,-0.04,0.84,-0.39,0.38,-99.81,32.63,169.3,0.12,0.11,0.2,1.6,0.62,1.03,0.6,0.75,0.11,0.27
1.77,-124.12,82.37,123.37,0.03,0.04,0.08,0.18,0.18,0.35,0.03,0.73,-0.04,0.68,-104.75,70.81,158.75,0.18,0.1,0.12,0.62,0.47,0.18,0.4,0.7,0.23,0.54,-162.12,42.06,124.25,0.33,0.14,0.2,0.43,1.73,0.88,-0.04,0.84,-0.38,0.38,-100.13,32.75,169.68,0.11,0.1,0.33,1.71,0.94,0.87,0.59,0.75,0.11,0.27
1.78,-124.31,82.25,124.43,0.01,0.07,0.09,0.4,0.01,0.22,0.04,0.73,-0.04,0.68,-104.13,70.81,159.37,0.24,0.1,0.1,0.26,0.44,0.13,0.41,0.7,0.24,0.54,-161.56,42.25,124.43,0.16,0.12,0.02,0.5,0.73,0.84,-0.03,0.84,-0.38,0.38,-100.5,32.88,169.87,0.07,0.09,0.03,1.53,1.74,1.34,0.59,0.75,0.12,0.27
1.79,-124.25,82.12,125.49,0.3,0.04,0.09,0.12,0.35,1.01,0.05,0.73,-0.03,0.68,-104.07,70.62,159.81,0.17,0.06,0.05,0.11,0.65,0.63,0.41,0.7,0.24,0.54,-161.69,42.06,124.37,0.13,0.02,0.27,0.62,0.28,0.58,-0.03,0.84,-0.38,0.38,-100.44,33.0,169.93,0.09,0.19,0.01,0.47,0.99,0.13,0.59,0.75,0.12,0.27
1.8,-124.0,82.06,127.62,0.23,0.1,0.14,0.26,0.04,0.1,0.06,0.73,-0.02,0.68,-103.57,70.75,160.19,0.16,0.15,0.04,0.21,0.56,0.35,0.42,0.69,0.24,0.53,-161.69,42.0,124.18,0.01,0.23,0.18,0.61,0.62,0.6,-0.03,0.84,-0.38,0.38,-100.94,33.25,170.12,0.04,0.22,0.19,0.87,1.3,0.64,0.59,0.75,0.12,0.27
1.81,-123.87,81.87,128.81,0.33,0.14,0.13,0.87,0.18,0.3,0.07,0.73,-0.01,0.67,-103.38,70.94,160.37,0.17,0.17,0.03,0.77,0.16,0.84,0.42,0.69,0.25,0.53,-161.31,42.13,123.81,0.11,0.42,0.22,0.33,0.28,0.85,-0.03,0.84,-0.38,0.38,-100.88,33.56,170.12,0.03,0.23,0.12,1.12,0.61,0.63,0.59,0.75,0.12,0.27
1.82,-123.69,81.87,129.68,0.26,0.06,0.06,0.23,0.06,0.56,0.08,0.73,-0.0,0.67,-103.13,71.0,160.75,0.37,0.02,0.02,0.81,0.47,0.38,0.42,0.69,0.25,0.53,-161.19,42.13,123.56,0.08,0.29,0.26,0.41,0.51,0.82,-0.03,0.84,-0.38,0.38,-100.81,33.81,170.06,0.01,0.28,0.01,0.03,0.63,0.7,0.59,0.75,0.12,0.28
1.83,-123.56,81.94,130.49,0.17,0.09,0.05,0.49,0.06,0.99,0.08,0.73,0.0,0.67,-102.5,71.12,161.12,0.18,0.15,0.05,0.46,0.19,0.24,0.43,0.69,0.26,0.53,-161.12,42.25,123.06,0.19,0.38,0.06,1.48,0.57,0.95,-0.03,0.84,-0.39,0.39,-101.06,34.19,170.12,0.05,0.34,0.04,0.51,0.04,1.21,0.59,0.75,0.12,0.28
1.84,-123.44,82.12,131.18,0.11,0.16,0.02,0.19,0.11,0.88,0.09,0.73,0.01,0.67,-102.32,71.25,161.19,0.26,0.1,0.08,0.14,1.02,0.5,0.43,0.68,0.26,0.53,-161.0,42.56,122.5,0.08,0.49,0.02,1.57,0.81,1.1,-0.04,0.83,-0.39,0.39,-100.75,34.5,170.12,0.2,0.28,0.33,0.01,1.51,0.8,0.59,0.75,0.13,0.28
1.85,-123.44,82.37,131.06,0.07,0.18,0.11,0.47,0.68,0.39,0.08,0.73,0.01,0.68,-101.75,71.44,161.25,0.22,0.16,0.08,0.83,1.26,0.14,0.43,0.68,0.26,0.53,-160.25,42.94,122.0,0.08,0.27,0.08,1.46,0.75,0.38,-0.04,0.83,-0.39,0.39,-100.57,34.69,170.12,0.16,0.31,0.1,0.28,0.5,0.24,0.59,0.75,0.13,0.28
1.86,-123.31,82.56,130.31,0.03,0.13,0.14,0.05,0.03,0.12,0.08,0.73,0.01,0.68,-101.57,71.69,161.31,0.15,0.24,0.02,1.05,0.44,0.16,0.43,0.68,0.26,0.53,-160.5,43.0,121.69,0.16,0.46,0.21,1.05,1.53,0.45,-0.04,0.83,-0.39,0.39,-100.57,35.06,170.18,0.08,0.4,0.04,0.02,0.36,1.05,0.59,0.75,0.13,0.28
1.87,-122.94,82.69,129.06,0.25,0.13,0.21,0.18,1.24,0.7,0.07,0.73,0.0,0.68,-101.44,71.87,161.62,0.16,0.13,0.04,0.79,0.33,1.43,0.43,0.68,0.27,0.53,-160.31,43.13,121.06,0.07,0.43,0.02,0.17,0.67,1.29,-0.04,0.83,-0.4,0.39,-100.57,35.5,170.3,0.14,0.38,0.13,0.11,0.37,1.2,0.59,0.75,0.13,0.29
1.88,-122.44,83.06,127.5,0.09,0.23,0.24,0.49,0.75,0.72,0.07,0.73,-0.0,0.68,-101.07,72.0,161.62,0.11,0.1,0.07,0.53,0.1,0.42,0.44,0.68,0.27,0.53,-159.94,43.44,120.62,0.14,0.38,0.01,0.09,0.43,1.4,-0.04,0.83,-0.4,0.4,-100.44,35.88,170.37,0.14,0.34,0.02,0.02,0.29,0.26,0.59,0.75,0.14,0.29
1.89,-122.13,83.31,119.0,0.07,0.15,0.19,0.42,0.73,0.19,0.02,0.73,-0.05,0.68,-100.88,72.19,161.56,0.18,0.21,0.06,0.68,0.72,1.19,0.44,0.68,0.27,0.53,-160.0,43.63,120.06,0.27,0.42,0.13,0.02,2.08,0.22,-0.04,0.82,-0.4,0.4,-100.44,36.31,170.24,0.09,0.36,0.03,0.38,1.49,0.09,0.59,0.74,0.14,0.29
1.9,-121.69,83.44,118.81,0.33,0.13,0.21,0.45,0.63,0.3,0.02,0.73,-0.05,0.69,-100.13,72.81,161.44,0.08,0.28,0.17,0.3,0.28,0.39,0.44,0.67,0.28,0.53,-159.87,43.81,119.31,0.14,0.44,0.02,0.54,0.84,0.18,-0.05,0.82,-0.41,0.4,-100.44,36.69,170.12,0.07,0.34,0.07,0.02,0.47,1.14,0.58,0.74,0.14,0.29
1.91,-121.0,83.62,118.49,0.26,0.17,0.33,0.07,0.37,0.62,0.02,0.73,-0.05,0.69,-99.88,73.12,161.12,0.14,0.22,0.12,0.02,1.03,1.81,0.44,0.67,0.28,0.53,-159.81,44.13,118.81,0.05,0.44,0.01,1.38,1.04,1.9,-0.05,0.82,-0.41,0.4,-100.31,37.0,170.12,0.14,0.3,0.27,0.01,1.17,0.8,0.58,0.74,0.14,0.3
1.92,-120.62,83.94,118.18,0.01,0.29,0.26,0.6,0.11,0.5,0.02,0.72,-0.05,0.69,-99.32,73.31,161.37,0.4,0.18,0.03,0.33,0.26,0.89,0.44,0.67,0.28,0.53,-159.5,44.31,118.37,0.12,0.33,0.22,0.4,0.25,1.04,-0.05,0.82,-0.41,0.4,-100.0,37.31,170.18,0.08,0.29,0.09,0.57,0.82,1.43,0.59,0.74,0.14,0.3
1.93,-120.44,84.25,118.18,0.09,0.29,0.13,1.01,1.26,0.71,0.02,0.72,-0.04,0.69,-99.07,73.62,161.62,0.19,0.3,0.05,0.96,0.28,0.05,0.44,0.66,0.29,0.53,-159.5,44.38,117.81,0.16,0.32,0.16,0.42,1.72,0.3,-0.05,0.81,-0.41,0.4,-100.06,37.69,170.18,0.02,0.33,0.01,0.37,0.7,0.28,0.58,0.74,0.14,0.3
1.94,-120.13,84.62,118.18,0.28,0.32,0.04,1.28,1.79,0.65,0.02,0.72,-0.04,0.69,-98.69,74.0,161.62,0.12,0.38,0.08,0.9,0.98,0.38,0.44,0.66,0.29,0.53,-159.37,44.75,117.37,0.18,0.43,0.44,0.29,0.32,1.37,-0.05,0.81,-0.41,0.41,-100.13,38.13,170.12,0.05,0.47,0.05,0.27,0.59,0.82,0.58,0.74,0.15,0.3
1.95,-119.62,84.87,118.18,0.46,0.18,0.07,0.64,1.51,0.17,0.02,0.72,-0.04,0.69,-98.44,74.25,161.81,0.26,0.17,0.03,0.22,0.32,1.5,0.44,0.66,0.29,0.53,-158.63,45.38,117.0,0.16,0.39,0.31,0.16,0.17,2.03,-0.05,0.81,-0.41,0.41,-100.0,38.69,170.3,0.06,0.47,0.14,0.17,1.12,0.02,0.58,0.74,0.15,0.3
1.96,-119.06,85.06,118.31,0.41,0.21,0.18,0.36,0.69,0.61,0.02,0.72,-0.03,0.69,-98.19,74.44,161.87,0.21,0.19,0.08,0.38,1.23,0.66,0.44,0.66,0.3,0.53,-158.37,45.88,116.68,0.09,0.36,0.18,1.01,1.39,1.79,-0.05,0.81,-0.41,0.42,-100.13,39.19,170.37,0.12,0.48,0.11,0.35,0.48,0.66,0.58,0.74,0.15,0.31
1.97,-118.37,85.38,118.56,0.43,0.32,0.26,0.03,0.28,1.04,0.03,0.72,-0.02,0.69,-97.88,74.62,161.81,0.09,0.46,0.13,0.72,0.65,0.16,0.44,0.66,0.3,0.53,-157.81,46.31,116.31,0.1,0.42,0.27,0.11,0.26,1.59,-0.05,0.81,-0.41,0.42,-100.5,39.81,170.37,0.39,0.58,0.15,2.66,1.47,2.28,0.58,0.74,0.16,0.31
1.98,-117.56,85.75,118.87,0.43,0.36,0.31,0.34,0.86,0.26,0.03,0.72,-0.02,0.69,-97.69,75.19,161.62,0.04,0.45,0.09,0.46,0.69,0.79,0.44,0.65,0.3,0.54,-157.5,46.56,116.12,0.05,0.21,0.15,0.61,0.32,1.2,-0.05,0.81,-0.41,0.42,-100.88,40.38,169.99,0.34,0.42,0.07,1.12,2.29,0.72,0.57,0.74,0.16,0.32
1.99,-117.0,86.12,119.12,0.15,0.41,0.21,0.54,1.07,0.18,0.03,0.72,-0.01,0.7,-97.57,75.62,161.5,0.11,0.17,0.02,0.54,0.91,1.15,0.44,0.65,0.3,0.54,-157.44,46.69,116.12,0.08,0.02,0.03,1.04,0.58,0.42,-0.05,0.81,-0.41,0.42,-101.38,40.88,169.93,0.34,0.54,0.46,0.3,2.03,0.36,0.57,0.74,0.16,0.32
2.0,-117.06,86.44,119.18,0.13,0.26,0.12,0.32,1.26,0.21,0.03,0.72,-0.01,0.7,-97.32,75.81,161.69,0.19,0.24,0.01,0.32,0.53,0.53,0.44,0.65,0.31,0.54,-157.06,47.0,116.12,0.1,0.15,0.41,1.48,0.13,0.8,-0.05,0.8,-0.41,0.43,-102.19,41.56,170.06,0.42,0.61,0.76,0.92,0.05,0.57,0.56,0.74,0.16,0.33
2.01,-117.19,86.63,119.12,0.14,0.21,0.02,0.34,0.15,0.35,0.03,0.72,-0.01,0.7,-97.19,76.12,162.06,0.1,0.5,0.01,0.47,0.03,0.1,0.44,0.65,0.31,0.54,-156.37,47.69,116.0,0.14,0.34,0.54,1.2,0.04,1.09,-0.05,0.8,-0.4,0.43,-103.13,42.25,170.12,0.39,0.6,0.43,1.21,1.4,1.77,0.55,0.75,0.16,0.33
2.02,-117.37,86.87,119.18,0.15,0.19,0.03,0.35,0.46,0.07,0.03,0.72,-0.01,0.7,-97.0,76.69,162.19,0.03,0.29,0.01,0.71,1.18,0.58,0.44,0.64,0.32,0.54,-155.75,48.19,115.81,0.15,0.31,0.22,0.03,0.63,1.95,-0.05,0.8,-0.4,0.44,-103.31,42.81,169.74,0.44,0.42,0.05,0.73,1.39,1.67,0.55,0.75,0.16,0.34
2.03,-117.5,87.0,119.24,0.14,0.19,0.03,0.63,0.35,0.2,0.03,0.72,-0.01,0.7,-97.0,76.94,162.31,0.02,0.1,0.01,1.43,0.34,1.21,0.44,0.64,0.32,0.54,-155.5,48.19,115.68,0.16,0.11,0.18,0.52,0.71,0.98,-0.05,0.8,-0.4,0.44,-103.63,43.25,169.24,0.47,0.39,0.09,0.37,2.27,0.28,0.54,0.75,0.16,0.34
2.04,-117.5,87.25,119.31,0.06,0.27,0.09,0.82,0.15,0.14,0.03,0.71,-0.0,0.7,-97.0,77.06,162.25,0.05,0.14,0.03,0.86,0.92,0.08,0.44,0.64,0.32,0.54,-155.5,48.13,115.56,0.01,0.13,0.09,0.43,1.29,1.14,-0.05,0.8,-0.4,0.44,-104.81,44.19,168.93,0.4,0.41,0.47,0.47,0.84,1.87,0.53,0.75,0.16,0.35
2.05,-117.44,87.31,119.37,0.13,0.21,0.08,1.0,0.22,0.6,0.03,0.71,-0.0,0.7,-96.94,77.56,161.94,0.27,0.54,0.08,0.15,0.47,0.1,0.44,0.64,0.32,0.54,-155.56,48.25,115.18,0.26,0.17,0.06,0.64,0.27,1.53,-0.05,0.8,-0.41,0.44,-105.19,44.63,168.87,0.28,0.4,0.23,0.08,0.53,1.49,0.53,0.75,0.16,0.35
2.06,-117.56,87.5,119.43,0.26,0.16,0.03,0.26,0.27,0.29,0.03,0.71,-0.0,0.7,-97.19,78.12,161.75,0.12,0.3,0.03,0.43,1.16,1.32,0.43,0.64,0.32,0.55,-155.56,48.38,115.0,0.14,0.18,0.28,0.38,1.55,0.8,-0.05,0.8,-0.41,0.44,-108.81,45.12,168.55,0.14,0.43,0.16,0.39,1.08,0.89,0.5,0.77,0.15,0.36
2.07,-117.87,87.69,119.37,0.26,0.18,0.1,0.53,0.15,0.21,0.02,0.71,-0.0,0.7,-97.25,78.37,162.06,0.01,0.17,0.05,0.46,0.2,0.86,0.43,0.64,0.32,0.55,-155.12,48.81,114.87,0.03,0.28,0.53,0.26,1.09,0.9,-0.05,0.8,-0.4,0.45,-109.56,45.63,168.24,0.42,0.42,0.12,0.12,1.17,0.29,0.5,0.77,0.15,0.37
2.08,-118.25,87.94,119.31,0.12,0.29,0.02,0.33,0.83,0.21,0.02,0.71,-0.0,0.7,-97.38,78.5,162.06,0.26,0.17,0.04,0.41,0.61,0.75,0.43,0.64,0.32,0.55,-154.25,49.44,115.0,0.07,0.15,0.5,0.24,1.36,0.51,-0.05,0.8,-0.4,0.45,-110.75,46.06,167.74,0.54,0.38,0.01,1.24,0.82,0.55,0.49,0.78,0.14,0.38
2.09,-118.5,88.37,119.31,0.26,0.11,0.03,0.39,0.16,0.39,0.01,0.71,-0.0,0.7,-97.57,78.69,161.62,0.28,0.22,0.05,0.08,0.38,0.46,0.43,0.64,0.32,0.55,-153.56,50.0,115.25,0.18,0.08,0.45,1.17,0.06,0.42,-0.05,0.8,-0.39,0.46,-112.19,46.44,167.18,0.61,0.31,0.17,1.39,0.54,1.91,0.47,0.78,0.13,0.38
2.1,-118.81,88.5,119.24,0.25,0.1,0.06,0.45,0.27,0.38,0.01,0.71,-0.01,0.7,-97.69,79.0,161.37,0.14,0.27,0.02,0.42,0.87,0.34,0.42,0.64,0.32,0.55,-152.75,50.44,115.68,0.19,0.08,0.3,0.09,3.99,1.46,-0.04,0.8,-0.38,0.46,-113.69,46.75,166.55,0.75,0.3,0.17,0.16,1.56,1.57,0.46,0.79,0.13,0.39
2.11,-119.13,88.62,119.18,0.16,0.13,0.07,0.54,0.09,0.29,0.01,0.71,-0.01,0.7,-97.82,79.12,161.5,0.09,0.07,0.06,0.04,0.46,0.83,0.42,0.64,0.32,0.56,-152.25,50.75,115.87,0.06,0.15,0.26,1.31,2.38,0.69,-0.04,0.8,-0.38,0.47,-114.56,47.19,166.62,0.61,0.37,0.83,0.33,2.57,2.71,0.45,0.79,0.13,0.39
2.12,-119.37,88.75,119.12,0.21,0.16,0.04,0.03,0.23,0.77,0.01,0.71,-0.01,0.7,-97.94,79.25,161.81,0.16,0.13,0.06,0.13,0.59,0.68,0.42,0.64,0.32,0.55,-152.75,51.0,115.37,0.45,0.15,0.1,0.13,1.09,0.03,-0.04,0.8,-0.38,0.47,-114.75,47.62,166.93,0.31,0.32,0.42,0.21,0.34,2.08,0.45,0.79,0.13,0.39
2.13,-119.69,88.87,119.06,0.27,0.13,0.05,0.11,0.29,0.74,0.0,0.71,-0.01,0.7,-98.25,79.5,161.94,0.32,0.28,0.04,0.17,0.04,0.66,0.42,0.64,0.32,0.56,-152.87,51.19,114.87,0.12,0.17,0.23,0.06,1.71,1.06,-0.05,0.79,-0.39,0.47,-115.25,47.81,166.49,0.01,0.18,0.44,0.84,0.84,0.54,0.45,0.79,0.12,0.4
2.14,-120.13,89.0,119.0,0.32,0.08,0.08,0.04,1.03,0.07,-0.0,0.71,-0.01,0.7,-98.63,79.87,161.94,0.35,0.31,0.03,0.05,0.37,0.71,0.42,0.64,0.32,0.56,-152.62,51.56,114.81,0.06,0.19,0.36,0.58,0.72,1.93,-0.05,0.79,-0.38,0.47,-115.88,47.88,165.81,0.06,0.14,0.49,0.76,2.28,1.27,0.44,0.8,0.12,0.4
2.15,-120.44,89.13,118.93,0.05,0.19,0.03,0.46,1.29,0.02,-0.0,0.71,-0.01,0.7,-98.88,80.12,161.94,0.23,0.25,0.02,0.53,0.4,0.19,0.41,0.64,0.32,0.56,-151.94,52.06,114.81,0.01,0.27,0.36,0.74,1.43,2.0,-0.05,0.79,-0.38,0.48,-116.25,47.81,165.62,0.11,0.11,0.13,0.46,0.51,1.67,0.44,0.8,0.12,0.4
2.16,-120.44,89.19,118.93,0.03,0.22,0.03,0.65,0.67,0.25,-0.0,0.71,-0.01,0.7,-99.01,80.44,161.87,0.12,0.27,0.02,0.32,0.38,0.11,0.41,0.64,0.32,0.56,-151.69,52.31,114.62,0.02,0.16,0.06,0.93,1.22,1.65,-0.05,0.79,-0.38,0.48,-117.25,47.5,164.99,0.05,0.09,0.11,1.27,0.7,0.81,0.43,0.8,0.11,0.4
2.17,-120.44,89.13,118.93,0.04,0.2,0.03,0.43,0.1,0.62,-0.0,0.71,-0.01,0.7,-99.07,80.62,162.25,0.02,0.18,0.07,0.42,0.43,1.53,0.41,0.64,0.33,0.56,-151.87,52.25,114.44,0.09,0.01,0.14,0.78,0.69,1.61,-0.05,0.79,-0.38,0.48,-117.44,47.44,164.87,0.02,0.02,0.11,0.6,0.03,1.11,0.43,0.8,0.1,0.4
2.18,-120.37,89.19,118.99,0.06,0.13,0.07,0.16,0.14,0.79,-0.0,0.71,-0.01,0.7,-99.07,80.69,163.19,0.14,0.03,0.11,0.31,0.2,0.91,0.42,0.64,0.33,0.56,-152.19,52.19,114.25,0.15,0.04,0.03,0.03,0.05,0.64,-0.05,0.79,-0.38,0.48,-117.19,47.44,165.05,0.05,0.02,0.16,0.05,0.13,1.09,0.43,0.8,0.11,0.4
2.19,-120.44,89.25,119.05,0.02,0.06,0.05,0.2,0.21,0.43,-0.0,0.71,-0.01,0.7,-99.01,80.69,163.75,0.12,0.04,0.04,0.21,0.62,0.9,0.42,0.63,0.33,0.56,-152.19,52.25,114.25,0.05,0.02,0.17,0.06,0.03,0.66,-0.05,0.79,-0.38,0.48,-116.94,47.44,165.24,0.07,0.03,0.02,0.13,1.06,0.42,0.43,0.8,0.11,0.4
2.2,-120.44,89.25,119.05,0.02,0.03,0.01,0.22,0.37,0.63,-0.0,0.71,-0.01,0.7,-98.88,80.81,163.94,0.01,0.11,0.04,0.1,0.87,0.57,0.42,0.63,0.34,0.56,-151.63,52.75,114.44,0.01,0.1,0.51,0.23,0.52,1.47,-0.05,0.79,-0.38,0.48,-116.75,47.38,165.37,0.06,0.01,0.12,0.7,0.57,0.38,0.43,0.8,0.11,0.4
2.21,-120.37,89.19,118.99,0.03,0.03,0.07,0.25,0.6,0.69,-0.0,0.71,-0.01,0.7,-98.88,80.87,163.88,0.14,0.07,0.03,0.2,0.27,1.16,0.42,0.63,0.34,0.56,-151.0,53.31,114.75,0.01,0.03,0.54,0.17,0.45,1.51,-0.05,0.79,-0.37,0.49,-116.38,47.44,165.68,0.04,0.05,0.28,0.51,0.12,0.39,0.44,0.8,0.11,0.4
2.22,-120.13,89.06,118.86,0.13,0.06,0.11,0.23,0.49,0.64,-0.0,0.71,-0.01,0.7,-99.01,80.94,163.56,0.07,0.06,0.07,0.32,0.38,0.85,0.42,0.63,0.33,0.56,-150.44,53.75,115.18,0.01,0.05,0.51,0.58,0.52,1.23,-0.04,0.79,-0.36,0.49,-116.06,47.62,166.05,0.01,0.13,0.3,1.27,0.11,0.39,0.44,0.8,0.12,0.4
2.23,-119.94,88.94,118.8,0.1,0.07,0.07,0.32,0.43,0.71,-0.0,0.71,-0.01,0.7,-98.94,80.94,162.94,0.02,0.04,0.07,0.15,0.7,1.27,0.42,0.63,0.33,0.56,-150.25,53.94,115.37,0.03,0.1,0.35,0.96,0.17,1.51,-0.04,0.79,-0.36,0.49,-115.75,47.88,166.43,0.09,0.27,0.49,1.76,0.27,0.66,0.44,0.79,0.12,0.4
2.24,-119.75,88.81,118.68,0.01,0.02,0.01,0.24,0.41,0.65,-0.0,0.71,-0.01,0.7,-98.82,80.94,162.44,0.12,0.01,0.05,0.05,0.6,0.9,0.41,0.64,0.33,0.56,-150.06,54.19,115.75,0.07,0.22,0.32,0.66,0.82,1.76,-0.04,0.79,-0.36,0.49,-115.38,48.19,166.93,0.13,0.27,0.56,1.42,0.29,1.89,0.45,0.79,0.13,0.4
2.25,-119.81,88.69,118.68,0.07,0.01,0.02,0.07,0.18,0.71,0.0,0.71,-0.01,0.7,-98.57,80.94,162.25,0.18,0.03,0.04,0.09,0.03,0.84,0.41,0.64,0.33,0.56,-150.19,54.38,116.31,0.05,0.24,0.35,0.19,0.18,2.16,-0.04,0.79,-0.35,0.5,-115.32,48.44,167.37,0.27,0.15,0.47,1.62,0.4,1.9,0.45,0.79,0.13,0.4
2.26,-119.81,88.69,118.68,0.08,0.05,0.02,0.04,0.39,0.59,0.0,0.71,-0.01,0.7,-98.32,80.87,162.06,0.14,0.11,0.07,0.03,0.2,0.92,0.42,0.63,0.33,0.56,-149.94,54.56,116.87,0.02,0.28,0.35,0.88,0.86,2.03,-0.04,0.79,-0.35,0.5,-115.44,48.63,167.62,0.23,0.1,0.37,1.55,0.67,2.2,0.45,0.79,0.14,0.4
2.27,-119.69,88.56,118.61,0.1,0.09,0.06,0.2,0.55,0.46,0.0,0.71,-0.01,0.7,-98.13,80.75,161.56,0.09,0.13,0.1,0.38,0.08,0.84,0.41,0.64,0.33,0.56,-150.0,54.69,117.56,0.05,0.37,0.29,0.11,0.55,1.85,-0.03,0.8,-0.34,0.5,-115.63,48.63,167.81,0.31,0.05,0.43,1.35,0.25,2.79,0.45,0.79,0.14,0.4
2.28,-119.44,88.44,118.49,0.15,0.11,0.11,0.58,0.01,0.35,0.0,0.71,-0.01,0.7,-97.88,80.62,160.75,0.13,0.07,0.11,0.64,0.4,0.68,0.41,0.64,0.32,0.56,-150.06,54.69,118.18,0.04,0.33,0.16,0.3,0.62,2.23,-0.03,0.8,-0.34,0.5,-116.19,48.44,167.87,0.41,0.25,0.37,1.59,1.46,3.79,0.44,0.79,0.13,0.4
2.29,-119.06,88.25,118.3,0.17,0.03,0.14,0.39,0.11,0.8,0.0,0.71,-0.01,0.7,-97.63,80.56,160.12,0.09,0.15,0.08,0.38,0.3,1.05,0.41,0.64,0.32,0.57,-150.19,54.63,118.69,0.04,0.3,0.12,0.34,2.44,2.35,-0.03,0.8,-0.34,0.5,-116.63,47.88,168.12,0.31,0.57,0.48,0.73,0.8,3.07,0.44,0.8,0.13,0.39
2.3,-118.56,88.12,118.18,0.33,0.04,0.16,0.72,0.85,0.74,0.01,0.71,-0.01,0.7,-97.38,80.38,159.56,0.06,0.15,0.08,0.45,0.56,0.85,0.41,0.64,0.32,0.57,-150.56,54.5,118.93,0.14,0.25,0.03,0.6,2.41,2.72,-0.03,0.8,-0.34,0.5,-116.63,47.31,168.24,0.05,0.53,0.08,0.44,0.78,2.79,0.44,0.8,0.13,0.39
2.31,-118.06,87.94,117.99,0.24,0.04,0.18,0.64,0.51,0.57,0.01,0.71,-0.01,0.7,-97.25,80.25,159.06,0.13,0.11,0.08,0.69,0.5,1.16,0.41,0.64,0.31,0.57,-151.37,54.13,118.93,0.32,0.42,0.24,1.03,0.32,2.28,-0.03,0.8,-0.34,0.49,-116.88,46.63,167.99,0.02,0.66,0.29,0.68,1.48,3.04,0.44,0.8,0.12,0.39
2.32,-117.75,87.75,117.74,0.1,0.06,0.19,0.41,0.13,0.28,0.01,0.71,-0.01,0.7,-97.0,80.19,158.75,0.17,0.1,0.07,0.76,0.09,1.16,0.41,0.64,0.31,0.57,-152.38,53.69,118.87,0.26,0.39,0.28,1.56,0.42,2.41,-0.04,0.8,-0.35,0.49,-117.25,45.69,167.99,0.14,0.91,0.25,0.32,2.41,3.23,0.44,0.8,0.12,0.38
2.33,-117.44,87.69,117.55,0.13,0.1,0.14,0.06,0.35,0.44,0.01,0.71,-0.01,0.7,-96.82,80.0,158.62,0.15,0.14,0.03,0.32,0.24,1.09,0.41,0.64,0.31,0.57,-153.69,53.13,118.93,0.27,0.29,0.04,1.28,1.61,2.86,-0.05,0.8,-0.35,0.48,-113.31,44.69,168.62,0.11,0.89,0.7,1.83,0.08,2.8,0.47,0.79,0.13,0.37
2.34,-117.06,87.56,117.43,0.22,0.1,0.14,0.22,0.51,0.56,0.02,0.71,-0.01,0.7,-96.69,79.81,158.44,0.07,0.22,0.06,0.13,0.13,1.42,0.41,0.64,0.31,0.57,-154.63,52.88,118.81,0.42,0.31,0.09,2.67,2.11,1.88,-0.05,0.8,-0.36,0.47,-113.81,43.5,169.24,0.23,0.56,0.02,3.29,1.44,3.27,0.48,0.79,0.13,0.36
2.35,-116.69,87.44,117.24,0.13,0.17,0.15,0.13,0.47,1.08,0.02,0.71,-0.01,0.7,-96.57,79.56,158.06,0.07,0.22,0.07,0.34,0.02,1.55,0.41,0.64,0.31,0.57,-156.81,52.44,117.69,0.69,0.06,0.1,3.35,1.16,1.6,-0.07,0.8,-0.38,0.46,-113.81,42.94,169.62,0.3,0.45,0.38,3.34,1.39,3.36,0.48,0.79,0.13,0.35
2.36,-116.62,87.37,117.18,0.04,0.27,0.09,0.6,0.43,0.9,0.02,0.71,-0.01,0.7,-96.5,79.37,157.56,0.02,0.19,0.08,0.54,0.18,1.23,0.41,0.65,0.31,0.57,-157.81,52.44,116.87,0.86,0.07,0.2,3.5,1.21,1.49,-0.08,0.79,-0.39,0.46,-114.19,42.44,170.37,0.33,0.32,0.79,3.87,1.17,3.09,0.48,0.8,0.13,0.35
2.37,-116.62,87.37,117.12,0.09,0.31,0.03,1.34,0.02,1.04,0.02,0.71,-0.01,0.7,-96.44,78.87,156.94,0.02,0.26,0.07,1.71,1.17,1.69,0.41,0.65,0.3,0.57,-158.56,52.75,115.93,0.92,0.16,0.31,2.94,2.02,0.61,-0.09,0.79,-0.4,0.46,-115.0,42.13,169.12,0.36,0.23,0.93,4.32,0.95,3.17,0.47,0.8,0.12,0.35
2.38,-116.75,87.44,117.12,0.21,0.25,0.12,1.95,0.98,1.13,0.02,0.71,-0.01,0.7,-96.44,78.62,157.31,0.11,0.18,0.06,2.57,0.6,2.0,0.41,0.65,0.3,0.56,-159.19,53.31,114.62,1.07,0.43,0.42,2.39,2.12,0.25,-0.1,0.78,-0.41,0.46,-115.81,41.81,167.81,0.37,0.21,0.86,4.35,0.37,2.69,0.46,0.81,0.1,0.35
2.39,-116.56,87.5,116.99,0.5,0.2,0.04,2.4,0.93,1.55,0.02,0.71,-0.01,0.7,-96.57,78.56,157.75,0.11,0.04,0.04,3.23,0.36,2.0,0.41,0.65,0.3,0.56,-159.87,53.94,112.68,1.39,0.71,0.17,1.85,1.11,0.56,-0.12,0.77,-0.42,0.46,-116.75,41.69,166.55,0.43,0.09,0.82,3.97,0.07,2.21,0.45,0.81,0.09,0.36
2.4,-116.06,87.44,116.99,0.34,0.21,0.06,3.1,0.32,1.66,0.02,0.71,-0.01,0.7,-96.63,78.56,157.56,0.11,0.02,0.03,3.12,0.82,1.86,0.41,0.65,0.3,0.56,-160.94,54.44,110.12,1.48,0.81,0.08,1.48,0.95,1.08,-0.14,0.76,-0.44,0.45,-117.5,41.63,165.18,0.49,0.18,0.78,3.83,0.37,2.21,0.44,0.82,0.08,0.36
2.41,-115.31,87.19,117.18,0.19,0.04,0.13,3.05,1.24,2.01,0.03,0.71,-0.0,0.7,-96.63,78.69,157.19,0.01,0.17,0.06,2.2,1.62,1.9,0.41,0.65,0.3,0.57,-162.19,54.88,106.87,1.65,1.09,0.12,0.85,1.15,1.32,-0.16,0.75,-0.47,0.45,-118.13,41.81,163.93,0.46,0.27,0.63,3.77,0.84,2.05,0.43,0.82,0.07,0.37
