0.02,-0.3195325631020432,-0.21752989984188356,0.8462267544743051,0.1685880961908435,-0.14631399865196296,-0.10079596982091737,0.8136730318861695,0.7774881666709165,-4.224105137772697,-1.6069642375429352,5.917389395067688,-13.259119580688182
0.03,-0.2716528998734721,-0.20689455685129307,0.5856739776267523,-0.062239288601696766,-0.11758438590181439,-0.011356372383127922,0.8861194781322201,0.37663622173322364,-4.225224077176059,-2.0159748602320278,-0.20278622092384424,-19.24413658020662
0.04,-0.5465698512217538,-0.14500468785227724,0.7377469447326656,0.21467601576708156,-0.3439760204962294,-0.2885306093081333,1.2662894512785283,0.10256092339174899,-3.985604045334674,-2.6851279553677254,-6.638146857520934,-24.571824693715595
0.05,-0.3222740460061292,-0.15878797445342457,0.5201386427032022,0.021605348638723834,-0.3357757120974826,-0.1734614487609411,1.0524602105600536,-0.227559045647628,-3.478677920400654,-3.1460785466335364,-13.265119809089352,-29.243881811683547
0.06,-0.23702945938635084,-0.1609424218157307,0.5901917714190674,0.1207947124618707,-0.49987910868152546,-0.7341279515791277,1.198060682245162,-0.5011105508647744,-2.6567552436450392,-3.4540914393035607,-20.392769400030417,-33.282176734920625
0.07,-0.21328870523108717,0.06749992381776512,0.5065034316731986,-0.060590048031876564,-0.5334437352493046,-0.6130361235334723,1.204005362835557,-0.7323271312020173,-1.5518168192978266,-3.4476981731401213,-27.628666455524233,-36.064528495710086
0.08,-0.34697265492550233,-0.11014820012882698,0.6567425725679346,0.2422306681011785,-0.5943142227593902,-0.7687058819192731,1.072306621916903,-1.112247608378994,-0.1825326949566327,-3.2551298719299444,-34.77752974609754,-37.5628242722489
0.09,-0.34586133755422477,0.033130632591153494,0.5733314609548955,-0.04573828019175165,-0.8508483001174141,-0.9282945906165415,1.0294427990677841,-1.4999806079296651,1.5229794817851816,-2.8249795699009073,-41.5974485246441,-37.833801826739844
0.1,-0.35565018217946665,-0.16158106957267357,0.7143032591827605,0.06397197780987332,-0.7871552448051581,-0.8194870315989554,0.768800183179901,-2.019936787168644,3.3302472961135905,-2.020006331070788,-48.270312524052336,-36.46981052320951
0.11,-0.294821283638331,-0.35513580104004216,0.6290363963953096,-0.06933894918344606,-0.8363309985343288,-1.0538825614764324,0.6594726329864152,-2.350918289527076,5.292355258043456,-0.9016398681987181,-53.99566635965604,-33.04230872769308
0.12,-0.21369701298696536,-0.15445757422817258,0.640760028545815,-0.027154746837558336,-0.6841992599301059,-1.209154850561342,0.31956906263667895,-2.691443076883046,7.58048627332045,0.5406627828606829,-58.95979311147929,-28.30953934995918
0.13,-0.39132010408994583,0.006476358858723302,0.5393429438333797,-0.025221037164981933,-0.8511871222736889,-1.0734421131272873,-0.27873965311843396,-2.941426031726589,10.09621602720513,2.3992554590420965,-62.77547428695477,-21.810447308496048
0.14,-0.31386502540303873,-0.11078094089059519,0.6821982989613382,0.04390159289923577,-0.9048326625107825,-0.8840632777723506,-0.8550373286277438,-3.406330726299252,12.120501504739481,4.627639292220995,-65.2902818811292,-13.824626522128568
0.15,-0.2857908388723754,-0.09697131277709745,0.5270416183163869,0.12971412544820055,-0.7489570111556593,-1.1021913422587235,-1.037068925015236,-3.4988001055466724,14.390369462326953,6.8124495856200316,-66.23847692265687,-4.4503490459380926
0.16,-0.37810723141415065,-0.12226770561350636,0.8301719574465759,-0.08648206357913114,-0.7541291152032921,-0.8782809227070852,-1.9383851092935611,-3.7561527691716923,16.375669943269425,9.225941096645327,-65.055219446562,6.113013800247216
0.17,-0.36736822671106234,-0.10747292752297562,0.8465176167391003,0.01564920997720351,-0.5515772525605671,-0.7440352829250843,-2.342922697467573,-3.478195076509987,17.997004356108604,12.371900593653418,-62.32242616278274,17.762480634383294
0.18,-0.2776256900363961,-0.15440767358960686,0.7381601733448881,-0.24725999978554472,-0.6441275835995945,-0.6269944398276924,-2.8015479452294403,-3.558549636694398,19.13140792754228,15.451555312572234,-56.84543879972345,30.31291124112697
0.19,-0.41353941120531224,-0.10794147617759951,0.719876281326921,-0.11548624888411141,-0.30945436080234867,-0.28270471712803025,-3.433492199368253,-3.249177536629759,19.8761435122616,18.438392317107166,-49.55778430074633,42.97321343933549
0.2,-0.2659828570230269,-0.13000972518623055,0.4690325342489311,-0.28625121845113455,-0.10347178200821872,0.062011854841168654,-4.177627949972016,-2.537768189710424,19.670078518390582,25.031225091141557,-27.183419703959004,67.79987353841936
0.21,-0.44288915743064927,-0.21857081933369787,0.6067827019915206,-0.1222759327964867,0.2578027686878024,0.24965494319019815,-4.375892034537881,-1.974197987074546,18.500187341117435,27.921844587126124,-12.588316457431013,79.02155112955313
0.22,-0.36926246563244064,-0.04658678109991517,0.504278352221697,-0.001143460830641957,0.31572491935994235,0.7326687413267899,-4.848292138274484,-1.3592313306831885,16.47000666321674,30.98762132579599,4.230887283848412,88.8470580679209
0.23,-0.35681262284045884,-0.1482623622977483,0.5445356446834884,-0.1884490048833481,0.4222821821636378,1.079670274412862,-4.548485409376046,-0.7550074160391561,13.68014741670553,33.915167426938126,23.477936952562125,96.62765599538774
0.24,-0.30911703432273274,-0.1959268954554447,0.45217060636641654,-0.33688065395723776,0.6130426474752024,1.581610850576416,-4.464836604908207,0.11620869404348966,10.247831832166758,36.46880260414142,44.371523459239086,102.22091245121351
0.25,-0.3155211265159615,0.03932132720468218,0.2973418753256259,-0.10895381001816788,0.7182645607831839,2.0052601977710114,-4.249896971178664,1.2041586168807172,6.144058831876916,38.69682713772248,67.36205738220904,104.97526408416101
0.26,-0.3448788151352102,-0.09965683354537949,0.559182124899602,-0.31685863862338887,1.1443473107025923,2.2122229093508343,-3.6980815013144706,2.1897793916721877,1.2299575514892696,40.62698307860879,91.06395057485824,104.46841062847659
0.27,-0.3458827824554494,0.06403946241340455,0.24389955766963178,-0.38459910286367927,0.9907252095203627,2.6865788132004114,-2.7718219396400543,2.9784986189395086,-4.32644032763181,42.35302914808861,115.88555223568031,100.19633216365939
0.28,-0.5702353310392383,-0.0574258895088929,0.48611378830975993,-0.1284269550131237,1.2773272750380638,3.252781499960873,-1.5400973349974214,4.099628599615834,-10.330661283324792,43.622200345551406,141.19218309808141,92.60679615398124
0.29,-0.37130547254934104,-0.026872485791942322,0.31310102891524616,-0.0939997147920629,1.3597928446592034,3.7434088712977927,-0.24794796191236826,5.121933984054376,-16.71084597410191,44.21940524073253,166.03364077844464,80.30599494981037
0.3,-0.4117848631492419,0.2206141542098256,0.3899511874952152,-0.07869686084113658,1.0064482328496158,4.189816575384955,1.4269934468308592,6.010194160197419,-23.066428629268575,44.5043290422988,190.51469370358527,64.00466534718045
0.31,-0.4010420842767483,0.023809031610173864,0.23739793757906366,-0.13268164239222827,1.0463017565154105,4.675596633572626,3.1961258407119755,6.701118569579087,-29.73029686606719,44.58691715642233,213.60218490432422,43.39226603762976
0.32,-0.2607858324058762,0.2775086610391625,0.2544186432062213,-0.15146425999971697,0.9249280525756416,5.022020291233937,5.392691113135802,7.099544610319094,-36.43483914316497,43.735303398104605,234.5752980345383,18.818817457443604
0.33,-0.3143062095315126,0.36026610380535684,0.4871219330013603,-0.03665234042450327,0.6460258372474117,5.657585840575361,7.747951878059972,7.342597876514226,-42.2633997986619,42.78875178485294,253.57761114268828,-9.805760280061062
0.34,-0.47686661392818935,0.2624346768656451,0.5348318937544606,-0.08559519094624195,0.4867843322472395,6.167850569108664,10.191765437884687,7.323162966647443,-47.784493619236585,41.230908851333126,269.42703364055325,-42.3287384974144
0.35,-0.20627249737674347,0.30096565528162184,0.7192336775500533,0.06371187216160683,-0.18684940492439506,6.300158789576157,12.871857801623776,6.695923622278894,-52.51725366467831,39.210289056258446,281.70163301063246,-77.84849957033869
0.36,-0.42609701957739,0.5112434526100729,0.7193336749876363,0.24743414272739953,-0.6070237203640605,6.847478973292684,15.95698907108515,6.016555653663884,-56.34471814751794,36.689131188535825,290.0183900242938,-116.61605232272223
0.37,-0.4744105316448429,0.4284470621731095,0.9526326163540798,0.25031061104424046,-1.2250487665660064,7.068744331019323,18.99893352584168,4.774457901029596,-59.06191679688025,34.15399892825643,294.11808373993847,-157.05109306572825
0.38,-0.4673674293381399,0.5630019103132747,1.4185763346485984,0.23006503867467354,-2.145037871770676,7.6980494238914465,24.94868772646524,1.2816645143642071,-60.78814716255369,27.531727270836253,287.5839808803561,-242.91918467821952
0.39,-0.46936684190242584,0.7894912469168631,1.550615769849402,0.23588685432666545,-2.9883529789084475,7.711082131709362,28.194421531862684,-1.5046077043758592,-59.48205122526405,23.762441469512407,276.9798445156691,-285.9371744448354
0.4,-0.33976254790792143,0.7452214020595453,1.7545319211313817,0.23205822086876848,-3.7353555619098233,8.17523308598406,31.04021174416878,-4.412476917124084,-56.59710900173061,19.9480691959685,261.02863041667837,-328.045708736248
0.41,-0.4449487918916984,0.9349681313372542,2.215317640165768,0.26154814905429313,-4.372558011922856,7.976185076476071,33.7797099311872,-8.007905760846121,-52.23806915238842,16.043773482082077,240.14528537990165,-368.07398567493857
0.42,-0.30876601530852005,0.8657255939993134,2.606830529184757,0.19756718024813824,-5.220262097494675,8.166498864512185,36.37134641854707,-11.964770541122704,-46.16648642407323,11.682695727974538,214.48236343018326,-405.7861621362671
0.43,-0.4667055499720122,1.0396709564915994,3.1063698262951465,-0.1436774649551596,-5.683798227051296,8.205300155814166,38.52044078006811,-16.1546102754368,-39.19076847000594,7.437979890569007,184.5818998190175,-439.5038330446121
0.44,-0.4594406670293734,1.2269597088375976,3.4742186046289536,-0.32441162683206237,-6.068128711410167,8.372357160917277,40.5374803473901,-20.84132752267775,-30.66803548613479,3.013805176073638,149.86201033457849,-468.37770229699606
0.45,-0.5182425869660433,1.2666161321475973,3.8616546982653936,-0.5022496185380774,-6.860942778675999,8.213558989949865,42.301011312732285,-25.87390925697177,-21.229179210452184,-1.1796432702446065,112.54964265749241,-492.22307014263083
0.46,-0.6887524113277533,1.3358647834734014,4.172597338987227,-0.7303030219954242,-7.08725946820578,8.215600715145696,43.3246561030259,-30.93242607991821,-10.98083045584197,-5.595035102402553,72.19969322240853,-509.50524882922633
0.47,-0.544076805775125,1.3034242117815844,4.4699553377602665,-1.2337032237384746,-7.5411422610406555,8.094923345415483,44.16585366340779,-36.45220032072033,0.1686626212920723,-9.786611192377954,29.82970816753,-519.9499642241965
0.48,-0.9153719181299524,1.251832771320615,5.083750309331892,-1.4355875880149063,-7.687919922606325,7.671602641690988,44.30151498175507,-41.97224687616212,11.370232720139418,-13.800861852069703,-13.706433977773541,-522.7228214690672
0.49,-0.709917507624611,1.5114673517116854,5.591746347154026,-1.8570142254985627,-7.816292381511642,7.7020487969371105,44.16019638755532,-47.69253668158331,22.509437105843876,-17.728692835137682,-57.79658888778314,-517.594821654148
0.5,-0.9593025396081543,1.464874736277842,5.889695882977355,-2.281030878094046,-7.782841535310134,7.73292346387537,43.39579905878637,-53.0404753974508,33.15777773878699,-21.592981507693892,-101.04599022170368,-503.91516338671204
0.51,-0.9312371544876474,1.4550764236993,6.637047082179315,-2.8528598054859104,-7.533492371896367,7.347322632970841,42.160742463256604,-58.37012177923687,43.07601084792615,-24.661662063054457,-142.79879238053897,-481.8370923288542
0.52,-1.2635488140075295,1.7175016528492122,6.966639672079748,-3.5186642371066825,-7.232190198631518,7.037448456152848,40.650083986725484,-63.39929476480925,52.07887339100279,-28.130412292421763,-182.00667771871406,-451.30563051296923
0.53,-1.1978781539776733,1.8033844748447099,7.339686120394164,-4.21657704986313,-6.454530660988666,6.75122886910649,38.16367636026027,-67.76064351610208,59.635777096515376,-31.123325686881493,-217.8721573780326,-411.97284764716795
0.54,-1.2665007955982772,1.7539677058859997,7.687786792806893,-4.814867499853317,-6.005041684964804,6.4150072411706045,35.69409203840944,-72.09553903791122,65.25821208001382,-33.843110115303794,-249.2818004312887,-364.9026269987442
0.55,-1.466619004606312,1.8343521641460518,8.083664624282056,-5.510711489451266,-5.455809214716911,6.066723602676435,32.93860900485653,-75.4883325010092,68.66790586764812,-36.015920515258685,-275.9051362030645,-310.0062848172581
0.56,-1.5172902388778908,1.8897610907635254,8.740579930740061,-7.345180939516243,-3.6177246765302264,5.266489291788902,26.20527976920084,-80.65568524997511,69.15674367590567,-39.66940783048066,-310.9810658477046,-180.16508850879717
0.57,-1.5655004677147681,2.0270358103524773,9.147496015624254,-8.144238288471861,-2.849384637119917,4.9038748863598824,22.592862550504723,-81.97903053290328,65.50810699867424,-40.55278626419798,-318.8347282958231,-106.6646140738747
0.58,-1.5457726955689397,2.2048449177163265,9.179324866282348,-8.878652420415042,-2.0598660631066386,4.483713017333511,19.081960271515477,-82.26647561566267,59.046724688032675,-41.423536792332484,-319.56104714519404,-29.088251790534745
0.59,-1.7368665323999222,1.9602121288572842,9.594111671126846,-9.919469703549213,-1.1325554864342304,3.9161838859002827,15.340925729109586,-82.1740095062595,50.37321245318427,-41.38491040579469,-312.93174553763345,52.165974822897965
0.6,-1.695504678843852,2.188900283477277,9.654220793527937,-10.808138833379887,-0.5465347571761361,3.8267203044308067,11.736473819946422,-80.81413501427096,39.243162675577096,-40.88360280654374,-299.39159000173396,134.8858464098602
0.61,-1.854247344931133,2.2846702439012705,9.646599713931916,-11.527390587933736,0.32360753319479063,3.269262134418164,8.324267312416463,-78.63974964688774,25.622301451312083,-40.14100147915696,-278.93356975814316,218.72953172632222
0.62,-1.7283952170411532,2.4096154595101007,9.778315490363562,-12.469535334497072,1.0229982730001472,3.050125100813729,5.027242568468105,-75.3259846667128,10.301916665332815,-38.485760888727036,-251.58696170099114,301.6071380235335
0.63,-1.4799880494209936,2.461878267182681,9.74986053208659,-13.509040149588131,1.3390023079113236,2.53659905184924,2.3672656409164867,-71.53570070791476,-6.886027108549227,-36.54127307144914,-218.6913386077757,382.6890802241052
0.64,-1.6366004170415553,2.3668724719952006,9.721521785317236,-13.925662762221426,1.5324631682566983,2.263461136424956,-0.0642077453823829,-66.55261378322717,-25.155725307605977,-34.03639454918907,-180.16105712221733,460.96141091811296
0.65,-1.6619914787473873,2.4295044239187864,9.80776234771976,-14.543860094128156,1.4966837390887622,2.0808908330284126,-2.027853489155502,-60.946429049874894,-44.32947381419449,-30.722843620388065,-137.2437358244113,534.2976224447943
0.66,-1.6330420680817563,2.5439682115086244,9.702864404098552,-15.166465766720675,1.2540008202078965,1.8177657398632083,-3.3416334140036406,-54.4355276273979,-63.68953178360556,-26.748924571890743,-90.44055338773843,602.0679558318141
0.67,-1.6114877826705185,2.4001335508880404,9.680151404076337,-15.816027833289917,0.7716381156837032,1.469517865664231,-4.005504006673128,-47.2463307658071,-82.60474195129936,-22.21388728812626,-41.134939933422054,663.1293800606851
0.68,-1.5742947294004148,2.5127729764337583,9.583680808688564,-15.897743787280554,0.08497004688129522,1.3669388899870027,-4.180637301902096,-39.66829864256592,-100.7744104155728,-17.311672729206887,9.460951729719543,716.7757911314859
0.69,-1.5523613865396677,2.5368393911687757,9.303856291476613,-16.42886221432164,-0.9508623160827664,0.9985897025433985,-4.066164868595523,-31.633782917225417,-117.48316962576745,-11.574535609047174,60.48738120496949,761.4377955689371
0.7,-1.7533979300483218,2.545280096079326,9.35669497960572,-16.615453110427822,-2.1168349007228953,1.0544134367766653,-2.812388365964416,-23.392545330746568,-131.7966190920038,-5.212871506870049,110.57902065706605,796.7363603762301
0.71,-1.5174822436518574,2.4681390376776684,9.148898401386782,-16.85136328669911,-3.488419310968995,1.0480542800298929,-1.2273191935908998,-14.726273898598103,-144.11968274856878,1.4746788459157112,159.0050064692662,822.4749646056283
0.72,-1.313338552336405,2.289455826717965,9.145415490328968,-16.765013881553724,-4.918540710439623,1.0970951933690825,1.0483717784909148,-5.857892149767756,-153.0531349419379,8.691971743158756,204.02476547087622,837.6020786246536
0.73,-1.5537191606461696,2.613937604554988,8.990095730251944,-16.53522294219362,-6.707808381537202,1.3937001784012415,3.741664130198996,2.841014492949013,-158.74013135828082,16.67033765732112,244.72775067750086,842.1761245296669
0.74,-1.6123743693488866,2.55584332041167,8.931062737867649,-16.07840098346913,-10.740204279902393,1.9214946015026702,10.300481260608331,19.949510230089526,-158.37546086071032,33.33354454131754,310.6857046587879,818.9825453648461
0.75,-1.74364448874411,2.5146246596149164,9.307782734666567,-15.930580630208745,-12.472774226964813,2.2784508154869814,14.431477791618466,27.85703234392661,-152.0117394366513,42.42983521224031,334.033425395341,791.8062349323085
0.76,-1.8151692598655214,2.517583289721481,9.345678460738378,-15.655722554051165,-14.550423368335084,3.079745297883049,18.70069741527547,35.42901787434136,-141.78358409369076,50.88370633483344,350.380838013019,754.7555569543779
0.77,-1.800942121653521,2.50431653877038,9.671050662018041,-15.079236384864721,-16.32329844421389,3.6564106695721845,22.917709724193013,42.6169374651987,-127.19172789696034,60.04757760984534,359.4708954256493,707.7050271096739
0.78,-2.1073303929160936,2.634038799139043,9.883800455978474,-14.326182906610669,-17.804590784486642,4.23988311117029,27.26542990302125,49.026171010428264,-109.0327896106982,69.00848560636048,360.9689816489285,652.3167588859491
0.79,-2.1962112734223678,2.7834165267738853,10.269645154785634,-14.059305905009449,-19.299576705655618,5.171164929754318,31.307906581771718,54.54884683263168,-87.4155965315507,77.655052501345,354.950357969441,589.0617169938663
0.8,-2.543070560477834,2.6970972007427365,10.587371253852131,-13.202635347612043,-20.379840811677997,6.006315515841326,35.632779276722054,59.572773211962776,-62.754936885746375,86.13471320244001,341.6697178831015,518.6800065201406
0.81,-2.7008908491592476,2.5600350067929667,10.820748774082913,-12.632286434281632,-21.563144314781415,6.850115917916885,39.60523811602453,63.92193629217114,-35.37506820167665,93.9007145808249,321.9097220374367,442.2825616940789
0.82,-2.755610080432448,2.7594364461835394,11.344332956307108,-11.966612515198323,-22.303921437916134,7.841481279594353,43.230529114917836,67.10687204630129,-6.665428744088144,101.22262974784817,296.0845172319385,360.7908847627074
0.83,-3.306256881355427,2.961874972162605,12.002466880642212,-11.435416908529197,-22.625178393088703,8.948966341946997,46.343490436072805,69.53044629672397,23.16980653670483,107.5244826565069,264.79308990980564,275.5776409160242
0.84,-3.4984219579215803,3.119553938596741,12.518020711239583,-10.640021095276813,-22.46776091390593,10.076125074324576,49.37476390586357,70.89931119513078,53.068290615970746,113.13895924722519,229.14821064825546,187.9702247097682
0.85,-3.7806240931022033,3.233255581477577,13.052675123119178,-9.752204188843029,-22.05703359855304,11.266207849884623,51.48940873036898,71.8061019209968,82.15147646429988,117.48731988728694,190.40439354126949,98.68050414492593
0.86,-3.9889274510490993,3.2372512843138583,13.671330834040035,-9.211571815023202,-21.132049227271455,12.490258595666003,53.17924367467903,71.57466020909223,109.58991950509088,120.32477493811282,149.50870984122867,8.96746876539487
0.87,-4.2377975021673855,3.2467888582176827,14.390802429956855,-8.480208582218614,-19.9723041908075,13.516472614937866,54.56047054045366,70.46709168195098,134.81385955000457,122.02135892614915,107.51940532307997,-79.4907904839333
0.88,-4.757015141613103,3.6004691479985294,14.83028975405177,-7.912700862522082,-18.462561300385413,14.724008306326503,55.155091692511654,68.41894026876474,156.77394881260182,121.82004995361314,66.16486104679348,-165.91569025926378
0.89,-5.038220640589125,3.740423936571058,15.334025849673889,-7.051352349829962,-16.675488393958904,15.857360480136007,55.2082475356192,65.96632122897945,174.11459478766457,120.07850478452472,26.280887411840077,-249.25272764098108
0.9,-4.861964529140591,4.079783956262324,16.15826660489006,-6.669927373355365,-14.461757289083465,16.884068200759955,54.80744409420159,62.66040246429531,186.79003222455103,116.05603030156331,-10.76741410077477,-328.08720412561956
0.91,-4.933282424746439,4.005657209196869,16.715462055441275,-6.079663963390477,-12.347324499183186,17.904941911448674,53.851315265611674,58.57514924613763,194.00502430533774,110.08788367193071,-43.78866714344874,-401.98613689170315
0.92,-5.714023058520432,4.63618009249192,18.13901736108566,-4.974281063718054,-7.511379435691646,19.728585853061325,51.03376306525782,48.4729999895698,190.88195772107812,91.21208814644157,-94.0614180765015,-530.8024199275476
0.93,-5.713109469578086,4.813385941593481,18.28076216987828,-4.7958073442079385,-4.954941726524102,20.268576159306097,49.34952490688918,42.596211397755006,179.51829604207208,78.80343335637205,-109.6029266342383,-584.0033952430591
0.94,-5.659959985176888,5.17940779560774,19.079255750891942,-4.586739948100714,-2.6056727721732407,20.975299640711537,47.206199322634646,36.43452667647655,161.86148881502572,63.64193434948015,-117.87663196531695,-629.2803505861259
0.95,-5.648901530835052,5.3282166763814685,19.50052637402474,-4.178806563738909,-0.5783212127913078,21.387123332344316,45.1388026153305,30.24031764874991,138.08506702108056,46.28294895069262,-118.42968300816749,-665.8346206536505
0.96,-5.524239765935347,5.327189870410694,19.822758430192962,-3.896164699850798,1.3174445545042848,21.42993189759354,43.2033019563645,23.37440600059575,108.44361687694288,26.576319906661226,-111.18860568826346,-693.5539624554604
0.97,-5.520694106037974,5.662602147477182,20.425562618713734,-3.8272987293249114,2.6940827990071528,21.58819821805614,41.72094319615437,16.555327214627216,73.55131909917954,4.883750742444101,-96.03990549010702,-712.0134094370118
0.98,-5.4897543529500314,5.750310968627675,20.62158731427749,-3.6021570666826195,3.85855623680745,21.189578244900005,39.86355599914885,9.698015574152308,33.93187553115068,-19.18928759134368,-73.18154615624405,-721.1850352156722
0.99,-5.466335188082578,5.970203404071673,20.979515637068314,-3.6518670255422743,4.339628339948355,20.98196853207369,38.889397770456036,2.398546439321309,-8.843944126795687,-45.106998913592555,-43.43681578745969,-721.1110541483422
1.0,-5.202580130116746,6.121066776085669,21.202729359867725,-3.4826254586782746,4.363068998864982,20.37815658306728,38.27784144153461,-4.312145436654406,-54.88789033911914,-72.55517071441324,-6.917830634984506,-711.6761925619735
1.01,-5.3687283603596265,6.175563621129579,21.416724934052542,-3.663857269371945,4.071887992490879,19.424751987950877,37.9697422612909,-11.12710001148673,-102.21999098497855,-101.60865915915969,35.12948398224309,-693.0249830462649
1.02,-5.15497479364486,6.473607626891408,21.82565164093279,-3.7230071109120964,2.9959156947528562,18.06549680611719,38.50689476646386,-17.69431399302802,-149.70550473161478,-131.79772329796924,82.20923654715924,-665.7767355151154
1.03,-4.987288573330654,6.5088979656828085,22.015033505692976,-4.089838026486642,1.4901891490940298,16.839372274515046,39.60920780610529,-23.75800632516768,-196.64562922625262,-162.51091535788504,132.94601009615832,-630.5759136308817
1.04,-5.069575051660809,6.899217888492898,22.695281312451186,-4.27472145242344,-0.44717770137384844,15.067579222408758,41.2050653530163,-29.639830173431086,-240.90691323886782,-193.91745012302152,186.1481567347632,-587.4149144670134
1.05,-4.858634068261196,6.826075255423486,22.9270546069222,-4.613221700360021,-3.5168725224468624,12.964825394619384,43.612210619714325,-35.1206725285824,-281.83535894863746,-225.55455788350235,240.6699967105264,-537.2925811268416
1.06,-4.934011668120608,6.985580623895944,23.201944452780463,-4.860758322050155,-6.79061461666112,10.475791133327586,46.627011089612935,-39.905123698528314,-317.77732125598624,-256.37705473470413,295.3181751544277,-480.7414002618823
1.07,-4.9993199185222315,7.024259092272968,23.685852710611016,-5.356725113016155,-10.552847814820922,8.055595450075124,50.508606712690025,-44.189602173178606,-347.54607845004085,-286.5589366393341,348.5887214282637,-418.4857873334092
1.08,-5.1671957571715215,6.9982463552883605,24.16153866210677,-5.680958936864556,-14.464722653323173,5.062696282565572,54.77789542993317,-48.10912068060442,-370.1798811316801,-315.42565152150235,399.32321023188956,-351.5288333059099
1.09,-5.22807729679061,7.085902325804334,24.74085907568269,-6.130820648257623,-18.94840969815805,1.8513585200166314,59.7881228371556,-51.00005293826339,-384.53196029176434,-342.84690767851686,446.50573721934853,-280.7614873903541
1.1,-5.67841244216086,7.099815451027263,25.96187355967913,-7.353906803954508,-27.905118669760608,-5.382362177440161,71.34149943051048,-54.93613002806449,-386.53674142049044,-390.63508781422837,525.230990151289,-131.73512512220435
1.11,-5.910930941930126,7.174110281522758,26.73732663805932,-7.9637510632117525,-32.499111406181996,-9.512067714942813,77.68941562421627,-55.77493878691947,-372.76579677304676,-410.0868700030766,555.330197750306,-55.298266658860506
1.12,-6.240853019899606,6.716316372119496,27.628505982417785,-8.660841547699322,-36.903569846924285,-13.62880901803439,84.1122969967151,-55.64994079393371,-348.9636869068846,-426.67379152960837,578.0737098974806,21.013142861490014
1.13,-6.892938038358836,6.713795906886673,28.695624087787944,-9.193059639406826,-40.966876022304156,-18.041871293144546,90.86333285847968,-55.01366953205256,-315.8611410229394,-439.4716985810654,593.2970596782538,96.26372573057938
1.14,-7.21212168042346,6.632925044277011,29.59109526857628,-9.547772688535707,-44.63622102949593,-22.548814338419447,97.54071859528774,-53.61238306947166,-272.64744822804784,-448.3546255681064,600.649787494676,169.15488145932514
1.15,-7.676575190169814,6.238727855703042,30.75650419127492,-10.317247603944779,-47.31000906105959,-27.162613080868432,104.28296477695008,-51.40303494027971,-220.6416470136848,-453.270059176054,600.0906842677185,239.07987789899695
1.16,-8.29653115643635,6.032678156929146,31.701247813241178,-10.770187550663056,-49.868469361476286,-31.79229187777854,110.76544370877211,-48.47277589714257,-160.62038920999728,-454.1872769278432,591.932010005009,304.8993380734519
1.17,-8.667922641648811,5.687709776947795,33.13886982547373,-11.155383443858167,-51.81473410962129,-36.57587389659986,117.50960976652132,-44.87159536573427,-93.24299544831912,-450.61220466147785,576.4016883583898,366.0245925021399
1.18,-9.232457448340128,5.2808790069440485,34.4568051823825,-11.725219438191163,-52.51565448991513,-41.02177693361459,123.68242314440613,-40.62254766041162,-20.01778875246356,-443.0876127017847,553.6910854323297,421.3879501260312
1.19,-9.873583851103453,4.914413668322377,35.772539753081574,-12.022929662749135,-52.6677902574259,-45.84626029825288,129.33370004360086,-35.76377439918842,57.90683031277957,-431.28023845208133,525.2710166662462,470.5323819623542
1.2,-10.468657125299687,4.313635360464584,37.09788554765751,-12.57195474341778,-51.64440792164446,-50.44295041441226,134.7216374661133,-30.504837194459572,138.63749852688,-415.6777421114481,491.36630820033594,513.0695041142769
1.21,-10.90139882435959,3.7003994799321327,38.46390548565735,-12.749007631316822,-49.866928186587714,-54.6078112630985,139.44128257156456,-24.971259654614755,220.72650637148485,-396.29855323296096,453.1188208416864,548.1746303153113
1.22,-11.745637024536506,3.217669667235065,40.01129963402463,-12.762542498209521,-46.71728275442052,-58.68616557057148,143.53099236926855,-18.987668654471975,302.6873425674322,-373.69298438879224,412.00842319845134,575.2026099592433
1.23,-12.203159035155398,2.675986257086628,41.76420385084899,-13.26447750371522,-43.103365222630266,-62.585095406363436,147.32320499160943,-12.921805037241102,382.75122435533734,-348.4688564297829,368.44215206482545,594.7371059545455
1.24,-12.574977466116406,1.9113138562277905,43.12857198788957,-13.149207252199306,-38.03306692384005,-66.11575042163491,150.30266296773044,-6.4271902286094065,459.0840222646737,-320.56684571283427,324.00028175547624,605.9296114941067
1.25,-12.936911626793446,1.4208063174046863,44.83603750081567,-13.130283406342453,-32.7114863120921,-69.41524487351052,152.87443123277026,0.01170664770230715,530.2737497647363,-290.6637315602313,279.5978884168582,609.2800750418579
1.26,-13.381452419631723,0.5830852731115214,46.37871789112137,-13.09502956344495,-26.118948521759858,-72.24161689154847,155.0236263613152,6.327622778341743,595.019686842863,-259.35882341511757,236.5393340588896,604.7066607160777
1.27,-13.565885535303165,-0.2552926591549672,47.771540582005805,-12.812794886663413,-19.236223466694003,-74.60131350479848,156.4444038511812,12.778671210188179,651.5074541171484,-227.27232948902952,195.6087973731202,592.2316086938491
1.28,-13.638254858522437,-1.827704657891251,51.05921631431222,-12.348852266868434,-3.233604952376287,-78.74387909984333,158.07562356279033,24.486358084777326,736.0751319714609,-162.54620122482442,123.60500189686614,546.8152018198277
1.29,-13.896003827401765,-2.9138411435676885,52.71731590037981,-12.0238951817517,5.450534333997156,-79.9736020155793,158.18186214005704,29.776560887537148,762.5991908681254,-131.21214792559064,93.90758993703488,514.3185301019948
1.3,-13.476546740325844,-3.687973179189639,54.22211083470529,-11.508752160380709,14.16672607532145,-80.92704536391527,158.18948402340166,34.6495849723317,777.9681682148212,-101.29800612144189,68.87571943439941,476.31748213230765
1.31,-13.409062240498194,-4.353588766735629,55.82357627952951,-11.236408886661941,23.008642581925756,-81.66627753245544,157.55433467649237,39.38374619346906,781.7218784884477,-73.26449775587847,48.53641424909156,433.5534741725217
1.32,-13.100629392886036,-5.4236312712694845,57.584713519238086,-10.778281368075362,31.670047132367436,-81.72974193975648,157.5459378728842,43.257229563701266,774.619477371736,-47.2879866510433,33.27647647629685,387.0201255713754
1.33,-12.667308952513297,-6.086407023264404,59.06774980545436,-10.230048719409352,40.17109385609923,-81.92613682307791,156.8228865545849,46.600474356267874,756.7014523583568,-23.88177650292183,22.84858259400806,337.46211741685784
1.34,-12.2997766668689,-7.018977992218751,60.36321878369675,-9.652160848502135,48.193167108378695,-81.60039921895,156.32017659949713,49.801924964741445,728.6359522888949,-3.091342216983711,16.209440174407618,285.6351056342219
1.35,-11.378727882193415,-7.695863494036592,61.919913784239355,-9.143477438120353,55.937114381496144,-81.1535214412065,155.61107081303666,51.752043538034066,691.0739869100947,14.39278355640333,13.309596630577833,232.7560414379465
1.36,-10.862492333619263,-8.594651267562046,63.64741333555998,-8.549572405383051,63.22028266099836,-80.31832489090856,155.20844743801462,53.38791913249669,645.6559958359858,29.175558072813267,13.297284552764925,178.92852165435332
1.37,-9.957263347630116,-9.541178585752442,65.03464398102821,-8.043539209562304,69.73097528586939,-79.4718025840032,154.94223057131376,54.57113358032785,593.5533234641266,40.748540522698164,14.968054691272279,126.22532106427724
1.38,-9.172971383683933,-10.216954997786509,66.50156540381896,-7.371005198818394,75.50483416958097,-78.27683088615869,154.93342938074593,54.96888020412206,536.378762515367,50.00936787702016,17.531883130977704,74.77568487514706
1.39,-8.513409227727497,-11.1918614267769,67.84818375351958,-6.976610296078841,80.5293234700224,-77.1215573128365,154.5651114825349,54.86425886206954,475.65736214916205,56.19944746853746,19.3614409312442,25.35865880097107
1.4,-7.35814169198391,-11.816131811465196,69.42730941588744,-6.239605296697317,84.7617297909755,-75.88603999413029,154.66455940226308,54.42374734121601,413.4878507722562,60.367487755370846,19.72116727160041,-21.171015615711443
1.41,-6.460114661695636,-12.501072708475919,70.89216537023628,-5.836251615658757,88.2281424039972,-74.74403762730779,154.73453336138783,53.47706522252986,351.20691111790336,62.987032024544526,16.935059560325232,-64.51415014649461
1.42,-5.338420755256228,-13.347920742141861,72.56558793283223,-5.174102004078423,91.11010999955226,-73.93690263007672,154.72519788170663,52.111056227785284,290.6692175730799,64.11151957214463,9.882466357463112,-103.47628511850426
1.43,-4.386452239209161,-13.898497008207455,74.00818494483958,-4.9465774941335425,92.87684581911044,-72.97390746188836,154.98282974384583,50.53419111664236,234.16879137351384,64.35140800189251,-2.6157868641841597,-138.3928796705221
1.44,-3.298907102780018,-14.592461494937957,75.45689104324106,-4.227073424417325,93.98569022287886,-72.08862132454429,155.25213810507003,48.30489162150316,182.88793937034885,64.35508976359684,-21.793788860824154,-168.43988065071434
1.45,-2.5530588786451704,-15.411594948350702,77.02306722285746,-3.955529967780162,94.8541982649538,-71.03590841009104,154.99534843961914,46.28408740483666,138.21766976671194,65.1524516917367,-48.51334784069574,-193.6489008164194
1.46,-0.28862330497365374,-16.417577154296772,79.94427345231946,-3.1139821619702808,94.74084987355275,-69.78156130443982,154.09927361302792,41.18575875272223,73.97639546406882,69.77643935724005,-128.02511412813251,-228.57552230425802
1.47,0.49559308205438674,-17.269858874275368,81.51957109965291,-2.7759507470871405,94.4371202574181,-69.07048199719446,153.03132630269576,38.84568029002603,56.325891128854884,75.43827359751232,-181.75784690352648,-238.46676079635876
1.48,1.4433017116913904,-17.85018607754723,83.08972707699698,-2.4302448225416744,93.88261646068416,-68.43571357393876,151.44097903103966,36.207868265421595,49.288776421753305,83.74465315907703,-245.56745670795956,-243.73380980044527
1.49,2.3139293249637616,-18.370620678270956,84.56595580211352,-2.3609743505657574,93.40459504978764,-67.94233134931196,148.9271851621241,33.50800261471908,52.97718539545101,94.90712360659953,-318.0892121846398,-244.61857953066695
1.5,3.5287525861988875,-19.11828369238471,85.93750731329773,-1.850489580002138,93.0612719774607,-67.07612024774379,145.92936909768312,31.322639255435742,67.54675795247461,109.99553578105346,-400.38108850566834,-241.3421629693426
1.51,4.1684011636204925,-19.60077449209034,87.42272053085382,-1.583158369311305,93.0662434636581,-66.43405699587537,141.5809011203099,29.011412256230646,92.00063872970729,128.66279159659285,-491.3865782475084,-234.24131475581535
1.52,5.053192257064425,-20.167675010958813,88.70921815340633,-1.346328279599213,93.53777779434549,-65.39468378135635,136.54607549943796,26.567558247209636,126.61897336706247,151.2773873714844,-589.4308488126775,-224.19336228189798
1.53,5.866515444194865,-20.904667501873746,90.15561091046877,-1.1078974962215689,94.23171109074562,-64.13237740680253,130.3274451542971,24.906369430211544,169.82675728413872,177.89898478478156,-694.0222551192065,-211.4617462367055
1.54,6.832202566888152,-21.497403490294534,91.33436305376986,-0.889467267977108,95.73008303039721,-62.65867600689635,122.97098531550384,23.28112198695268,220.47901954056644,208.1388959415682,-803.6735144814924,-196.69664781955504
1.55,7.665359118661933,-22.207027238489356,92.66833760301563,-0.6898285240564082,98.03839700485128,-60.76859674704052,114.32706033689139,21.577989471465315,277.32461737218307,242.14413603347145,-916.8003656377225,-179.97927055427812
1.56,8.604494878745125,-22.830998746092963,93.60252043846853,-0.5340920191265441,100.93406469529799,-58.95442559031995,104.68463425447455,20.207385174403733,338.78574805539904,279.43820646306364,-1031.240684552978,-162.78576568431276
1.57,9.67928749752737,-23.16758197696416,94.59473024305984,-0.4166888792207467,104.74317011787615,-56.19926539920068,93.43327051968939,18.773594180693603,402.6566859177532,318.9512118761886,-1145.2153736352573,-144.94848928956623
1.58,10.464561475307555,-24.024450677149254,95.36436399187333,-0.047709237472995034,109.52343149897982,-53.068548753826036,81.41142398602047,18.06440190966606,467.8455390666553,361.23535411935217,-1256.6309287833933,-127.3899456299525
1.59,11.731377873281565,-24.412635504331178,96.31314305987998,0.038532989744627995,114.85633317940848,-49.86295138644728,67.84953143677421,17.018470468360366,531.5853381792787,404.61916793650005,-1363.430873389135,-110.06611359048615
1.6,12.621943791667125,-25.041794249587497,96.89696548648867,0.13088726865444422,120.98743210306844,-45.630282673769486,53.220831716437246,16.33913648963596,592.3480133754424,448.8726617260463,-1463.3927224205604,-93.95996663032959
1.61,14.138185244000077,-25.30127059496368,97.21352406695303,0.5436206143685364,127.78099202312082,-40.81773419226637,37.58870949467838,15.927795196337941,647.8060684942966,492.9879776160976,-1554.1273451051152,-79.353911674152
1.62,15.571780345800747,-25.80493291864059,97.51331594451565,0.6491933287172588,135.42104913253172,-35.649486043915104,21.04062547612675,15.300303968719767,696.6176107569704,535.7584571746388,-1633.9603724021765,-66.55605327794956
1.63,16.66229483549623,-26.31962643395263,97.66252673541582,0.47071514499080425,143.569296374921,-30.09350442526366,3.7229150850497326,14.896417802708894,737.0987836767903,577.0050239012633,-1700.7188494711527,-55.822410648591315
1.64,19.697922158653494,-26.815417949541807,97.35817382497812,1.179977865549883,160.74972126461583,-17.01323949368957,-32.7869586388294,14.123882767489714,785.5171124729313,649.8217788299627,-1788.5424823717187,-40.66397332751626
1.65,21.3886657939472,-26.93943072289186,96.69448023804772,1.3916784100849013,169.65576465082677,-9.931112357783574,-51.65427254145031,13.91438231888803,791.5506221802568,680.1662496860222,-1806.8418033737562,-36.824676624362105
1.66,23.321121243492065,-27.090936430443985,96.05763250875304,1.4590518795759455,178.54280135564693,-2.450354317789888,-70.43635018481469,13.79792921001629,784.3067641772436,705.2929848862115,-1806.5853688812585,-35.201347536873115
1.67,25.20321557038834,-27.00350171022349,95.29926838462087,1.5122123345449048,187.11760341772228,5.33654864532168,-89.33963491288355,13.21725653740716,763.0585414328642,724.543071932382,-1787.2431288376893,-35.74236039991401
1.68,27.271749635682205,-26.97346275672958,94.27379534751834,1.6426542820517014,195.4347914914794,13.292757523038164,-107.3942802909242,13.040347118800945,728.2757548002908,737.5488396443632,-1748.3952832312666,-38.629511451091915
1.69,29.330388553209353,-26.79610034402766,92.89361757637027,1.8809018043682908,203.3278452212549,21.41008915383063,-125.19210144475055,12.447363983297773,679.3640051534367,743.9266177373966,-1690.1601047269749,-43.59599242069204
1.7,31.247585423672522,-26.572755284253656,91.59776243383331,2.15077693215342,210.26074865767305,29.969001856588886,-142.16851119302711,11.963514711004738,617.2115054199963,743.408988783065,-1613.2036465185795,-50.02609519895746
1.71,33.36625836224831,-26.242617010399506,89.74571121260708,1.9879350889970602,216.29313290631353,37.71395967333679,-158.24664807854438,11.038467276365047,542.3233564587032,735.7409814871315,-1518.2319638435413,-57.92387319599195
1.72,35.931137274606016,-25.44392910898157,88.01904161784556,1.9406952085101141,221.57270625705388,45.89221166933901,-173.13638709709224,10.299956378579122,456.34168717799844,721.5595255088709,-1405.846925041706,-66.95046529247283
1.73,38.393898621709795,-25.26252517768746,86.2414769434342,2.097158856123733,225.6811139456376,53.408657437286756,-186.6478882713772,9.547432307030011,359.958026310005,700.4569905903514,-1277.8972618722444,-76.97589470738916
1.74,40.595279635845166,-24.513512673656553,84.11879409052688,2.219774289615928,228.51941505652502,60.96327086097316,-198.52284515404628,8.542349078216173,255.12391827002327,672.9026532301507,-1136.7084174558627,-87.28735250166031
1.75,43.00488090552259,-23.59324712724383,81.95698397477743,2.309399580201894,230.28447687269426,67.75190777869742,-208.97855543768446,7.179251857661221,143.44398387402103,639.8260729318541,-983.4494340310443,-98.22424912692996
1.76,45.591527150729085,-22.87676369701778,79.74538733993761,2.3359469089583786,230.63765769233663,74.13816258866936,-217.46319244237583,6.249034321334782,27.182519065490695,601.5306009636795,-820.9282409365043,-108.6925343554122
1.77,47.799201016605565,-21.964799921893494,77.29026642435711,2.6133037181758008,229.47566088393253,80.03732910482067,-224.5470969850219,4.765660699770061,-92.01814124348351,558.8357419376497,-651.2459094814245,-118.89463480235806
1.78,50.14302849660222,-21.083776133409337,75.13006908748676,2.6759068102177683,227.07945762503226,85.76500892648149,-229.45043992027755,3.240981498108965,-212.16293178153984,512.5103919577726,-477.54696330416317,-128.31123403687096
1.79,52.34573458549271,-20.166455634825567,72.6575009509268,2.350153273562949,223.35541229790678,90.12842661125535,-232.35210073776489,1.7745976845889015,-330.40307711185346,463.4358288253349,-302.0911414221732,-136.6731442651836
1.8,54.62704242726144,-19.124792440265967,70.27522581051707,2.495367439338719,218.30621303872792,94.56853478225285,-233.35196869498097,0.24963563302548725,-445.4335058454434,412.56625374507115,-127.59582509824828,-144.18649700147498
1.81,56.7183070115294,-18.01154557179421,67.99648630075195,2.3506594229696316,211.9003330402312,98.10357176152726,-232.88397154155567,-1.3783995509154836,-554.6493538440606,360.76019960857474,42.8071765467455,-149.89992240443053
1.82,60.72418327422015,-15.82224161385583,63.15366336556536,2.3808793044836647,196.4745245432817,102.85781818461665,-226.14520000860526,-4.670476078052484,-749.1954813403577,258.4981817408829,362.1325554487552,-157.1240495551668
1.83,62.53265983694504,-14.765544914246314,60.81734887818345,2.341095369238298,187.08252470124117,104.38733879247214,-220.2191181233277,-6.1635525099108,-831.2698005255846,209.37275320464963,506.25903898387315,-158.05548280263864
1.84,64.37317804031267,-13.70370198492266,58.94715908063122,2.2361120425485423,177.28427356821572,105.3778746124405,-213.2239344719839,-7.831009774393887,-901.2900766422408,162.66553792449784,636.9795173526278,-157.30232491983048
1.85,66.15759712136582,-12.676766396148894,56.74879843161052,1.9951070392082202,166.81481920765685,105.97358512898788,-204.84623483181437,-9.311635011210635,-958.4720653288388,119.2696045134145,753.0284453239362,-154.75160336334253
1.86,67.44662460997311,-11.52239761923386,54.901566102754344,2.0134618649249365,155.69176203392306,105.88234423373574,-195.44599406926116,-10.705293039668602,-1001.9282572128526,79.80693695549782,852.4121852999087,-150.78058020429006
1.87,69.09583548500474,-10.298453549790606,52.92494219514672,2.017154881292967,144.68065122229,105.51716265628518,-185.23753398353827,-12.265096421418546,-1031.213494801753,44.27642536674547,934.2390184972452,-144.9539658283736
1.88,70.12266936060064,-9.342463465699527,50.98092521390255,1.7105843844492563,133.63157506321312,104.69770120054821,-174.33985348237053,-13.609310801901042,-1046.1710306497405,12.858868378127557,997.6409330647593,-137.5896253932035
1.89,71.35436302368585,-8.295026063830063,49.593470131904986,1.5261744728090312,122.3030000989959,103.92596605789251,-162.96835361632705,-14.682362493030974,-1047.021851054689,-13.981714382135848,1042.6052123095008,-129.12296685846525
1.9,72.45031914078399,-7.254044096345942,47.97230382675303,1.3470552593729326,111.5942398810399,102.91181771660662,-151.396423065734,-16.04197207748574,-1034.3871445340556,-36.714752544708496,1068.4714290877691,-119.08410900130681
1.91,73.42971504061484,-6.37827291037293,46.60895569519735,1.1713649952110854,101.10026328412057,101.79765008571908,-139.51830272216165,-16.827990649192593,-1008.6197015363975,-55.161117009561224,1076.4970174059877,-108.33450518350388
1.92,74.36745783930269,-5.5432010329930765,45.586029823742564,1.185844469697121,91.16804814295752,100.44375659433736,-128.10508339805864,-17.853386104621663,-971.3148238950445,-69.92088676171198,1066.6325106643942,-96.6238614457885
1.93,75.09829039587011,-4.438148568328353,44.432282355968994,1.017718253784507,81.56635923054986,99.20660792087762,-117.24330677130715,-18.731268104849065,-922.9607495284092,-81.14732236799746,1040.0944947973435,-84.3822989643967
1.94,75.81811935271008,-3.637826530942654,43.4407127349909,0.6546362572795862,73.1445917043295,97.83984207377584,-106.80169930741445,-19.305066276517298,-865.4665818860378,-89.40990517033045,998.2662263894873,-71.51941286185784
1.95,76.43059837576962,-2.718788862217787,42.68823015604652,0.44293287808962484,65.33470319836934,96.86916486840958,-96.87179780280503,-19.675517244940647,-799.8525565476137,-95.90037053925838,943.0671536870104,-58.90335793362478
1.96,76.86701014551785,-1.862471664242002,41.726085731139975,0.32142795867321317,58.109967416055596,95.8639082016837,-87.91428771660263,-20.04094411652171,-728.1803568094243,-100.5955103740861,875.9402828305164,-45.773823206129684
1.97,77.35918591215341,-0.9509109943600841,40.93116568299079,0.13292081262372396,51.95351433625203,94.92386275968502,-79.82205640748289,-20.397695601500917,-651.9499925483021,-104.83332011447432,799.3329073443076,-32.9262383646888
1.98,77.78043651246752,-0.18728376345035025,40.25376323814641,-0.1442296841811624,46.80000045962503,94.01966703943478,-72.78752441375059,-20.549969744346882,-573.0130558373767,-108.64959292942825,715.3949602729292,-20.232494821451738
1.99,78.17196205001757,0.6277711700304348,39.72847468492613,-0.18374646217530277,42.6269759874622,93.23667379502625,-66.95547076138595,-20.418197038482337,-493.22501236215635,-113.75532854196594,625.9892107884566,-8.291527760935566
2.0,78.77496982244156,2.661395845120994,38.59162601681828,-0.46555780013932574,36.2466696025538,91.81567944029281,-58.03402594709404,-20.19687202995313,-337.3080280136848,-127.67994422706498,441.2026371412679,14.237981930575538
2.01,79.13132713503153,3.4275067967908504,38.23363853160764,-0.7663926888701097,34.33522815359237,91.36283319159877,-55.02395343254015,-20.19479545961396,-264.3091140617274,-138.6504097626011,350.1145783519307,23.942503349109906
2.02,79.4209111157387,4.316518879324769,37.74042946449634,-1.1411686858749783,33.21521508888756,90.37678568424512,-53.50416775834798,-19.549282049464818,-196.5433889309157,-152.21769693765512,262.5353925634825,33.18374988373813
2.03,79.93524322784742,5.179695239439678,37.16290354650972,-1.2487455893007766,32.51005432546725,89.6811157574557,-52.798862170694846,-19.24162480017522,-134.9298315741755,-169.34672950811648,180.52064474851312,41.62681837884956
2.04,80.26120951526829,5.98724404298633,36.822140484406404,-1.5377863308824502,32.44640402666187,88.61789430495362,-52.25847196009153,-18.834569454001606,-80.62781588468049,-189.3210722771337,106.22357730004393,49.040467842905436
2.05,80.58186751374437,7.021621229934653,36.119146732610844,-1.6585629753922186,32.69612572862101,87.03743884457096,-52.99222976304288,-18.11637322761409,-34.19748733295169,-213.3555775076203,40.67590790984709,55.14788503423025
2.06,81.02187801795073,7.523817936162743,35.68745583999371,-1.9107413079919071,33.388773818032796,85.33331264056476,-54.1823793571469,-17.56672752718642,3.5658270908484533,-240.58833502408265,-15.114605186323521,60.46404917211412
2.07,81.25607171210444,8.581521778074908,35.30548228218865,-1.8389014532053434,34.3709581298167,83.26956577737899,-55.79156336114135,-17.10828744605417,32.69115631424915,-271.02477324779386,-59.8366810108787,64.84713493552647
2.08,81.69530495337222,9.612867105832098,34.66316945882691,-2.075269433952695,35.30792795349202,81.0190117898072,-57.523866596999774,-16.400756195457575,52.57343652561336,-304.0503395397163,-92.80925741187451,68.13748542038694
2.09,82.13115820161794,10.326767398633914,33.75553436009292,-2.1957807095106405,36.27830975273341,78.00918715631381,-59.757883545865674,-15.731336491405745,63.93598481598652,-339.19908564903125,-113.97623901166408,70.86005751417375
2.1,82.66974794309381,11.171442126097396,33.28625961253515,-2.4377873591608146,37.26201231763422,74.56618065734861,-61.52227471310843,-15.052230556599266,66.99426455564328,-376.3400835181696,-123.20732194618188,72.6680431646382
2.11,83.0244598436649,12.033517895351036,32.3609510980876,-2.533299755881539,37.687129301293474,70.69595530605052,-63.41012096590362,-14.245340738604925,62.03806344354328,-414.2147987294508,-120.77001814689783,73.69611670297598
2.12,83.77546276364455,12.71865679858267,31.750408457444724,-2.678004239395961,38.375073070960966,66.21065556299841,-65.05034153772199,-13.614825977139603,50.00516630650124,-452.3671180003668,-107.01454755500615,74.27531487090062
2.13,83.9762689151605,13.566632960979945,30.9548766491663,-2.7853674279466856,38.47421288990895,61.26574325677457,-65.99112242839684,-12.864300765652457,31.503941423267523,-490.0085896536294,-83.47607642195683,74.15688198359372
2.14,84.369576077157,14.21225337275544,29.891479538265287,-2.991159680411691,38.263162635592515,55.81355993525487,-66.73276187672394,-12.399222883776247,7.331948200624169,-525.7690286587122,-50.12810943744499,73.44508436423395
2.15,84.67709792183827,14.594640879114744,29.425696045966554,-3.128202516475177,37.79230812774078,49.80050952801584,-66.56807279220669,-11.385862417777767,-20.642676037859935,-559.0236300753531,-8.859350587362671,72.38046068575858
2.16,85.02263769844565,15.083154172961153,28.55812960925006,-3.3860204953549005,36.640764386737295,43.595367717097844,-66.07370223824182,-10.912848023042091,-52.46875337267813,-589.2397827923556,38.96338722381947,71.30230490125187
2.17,85.4896417248574,15.617859608517213,27.76465625540706,-3.4807576730417247,35.44359296379907,36.85458620394958,-64.6392935092582,-10.30277838941614,-85.94861396457542,-615.3394812282545,92.07962197970033,69.47717766414435
2.18,86.2249850850974,16.219675667970655,26.57709918499315,-3.609611856991558,31.55570890944964,22.565194812088844,-60.07383058176795,-9.028356917366787,-155.38915719721368,-652.1299331407637,207.69528745712748,65.54863775453988
2.19,86.49771964140457,16.203619592116368,25.761455616646987,-3.5385473945572605,29.02923976690624,15.32856400775399,-56.74176108291671,-8.296236565974827,-189.03794601067318,-662.1992004937667,267.1290200927727,63.44546270063949
2.2,86.77370673777041,16.265094618983593,25.538986219771786,-3.693258980516669,26.207590558680224,7.963956464895699,-52.54846576839685,-7.807352609487467,-221.0137848178931,-665.6047133181493,325.37432695209355,61.33416625826689
2.21,86.8161995229696,16.300789669751527,24.92004007988251,-3.6884881574207107,23.350534494468725,0.7070355613378868,-47.78470108685265,-7.067116015621763,-249.87070156245304,-662.5344960186717,381.2984056482478,59.21778637243074
2.22,87.29637198108269,16.17059242657048,24.328427032886964,-3.8628758227538853,19.872317156522293,-6.527155706699804,-42.546269327220195,-6.431838394189365,-275.155140273876,-652.5816031975643,433.38097683044384,57.24389841399022
2.23,87.36988773779198,16.041511869395816,24.097503970607363,-3.788553777270631,16.35904008400677,-13.672963495595283,-36.8545586625054,-5.965926533939159,-296.2412283986845,-635.977604068387,480.42322184230807,55.37167527173899
2.24,87.40701982472048,15.610805651175905,23.727789347403196,-3.9216111515396017,12.972298362580585,-20.320541091585866,-30.73475203789301,-5.309078968814018,-313.0249889320711,-612.7968810383618,521.3217025906656,53.48829484306453
2.25,87.41713070932056,15.434352488367967,23.584432147259133,-3.9187204011217043,9.216196387926093,-26.573197056876715,-24.54126341362118,-4.7845546686833895,-324.60485835023354,-583.539489628224,555.1845584934816,51.62722623324192
2.26,87.27054713035844,15.135621975521977,23.474224959703946,-3.921168763512083,5.595292271968017,-32.2885789071007,-17.902672168763015,-4.4849307160499485,-331.21667178098755,-548.5240351779624,581.7437019540662,49.975512080444524
2.27,87.33000792283666,14.685294843977704,23.55725087164231,-3.9150107661087605,2.0886454070888005,-37.763888108639094,-11.373312286496564,-3.949192673162384,-332.73100478688843,-508.0640081394861,600.1298555804927,48.18196367078775
2.28,87.30421003543498,14.119149435869723,23.62351572232822,-4.040586550459044,-1.271063019516315,-42.52672709239375,-4.929570728320837,-3.4049184712615435,-329.23889454532747,-463.2938704562538,610.2114513658383,46.73359272360593
2.29,87.23688107623722,13.70847880275279,23.435277786300162,-4.073284538647417,-4.59025752194408,-46.54531543500073,1.7269092415102956,-2.929306001875135,-321.0412195974938,-414.5322144561782,612.1561388310906,45.473406646092485
2.3,87.32618398173386,12.950370044945743,23.762567317269188,-4.191944313616577,-7.536617596560214,-50.01710340250549,8.186810120393258,-2.414461827924588,-308.08008726795674,-363.46610880800654,605.9440575839105,43.887093509600554
2.31,86.79141725361362,12.385919829845566,24.18280164405517,-4.26699859894128,-10.16108534909724,-52.85933180448607,13.974390129199213,-1.8843401030894058,-291.2834106514952,-309.7385949359606,592.1989689879894,42.64948019841469
2.32,86.72435989421929,11.840982710830747,24.40267358880267,-4.078383753686301,-12.75805315484557,-55.26404958968187,19.652547061097973,-1.4015757332994723,-270.83468220397515,-255.28089265159227,570.7290700984204,41.35578232881879
2.33,86.62548440000275,11.384058454833717,24.748166073001496,-4.195261122511581,-14.83834136074714,-56.67539461805662,24.80957431571744,-1.230441540786865,-247.34329606615148,-200.8647661309019,543.0309633374869,40.20970561305178
2.34,86.55458513473268,10.649178023338653,24.883960095930632,-4.286649697927541,-16.66757976916557,-57.68792127692688,29.395172276861523,-0.7761997599785151,-221.68167207372923,-147.06750609089343,509.02432340701176,38.79266129274949
2.35,86.54865905741555,10.131183145246306,25.371080519418346,-4.426499267189897,-18.254527519360735,-58.16509016488102,33.7441722442132,-0.41502910943094995,-194.1725704866638,-94.57951198760634,470.2176855444813,37.65447678719777
2.36,85.96011344832826,8.97691809879561,26.41413666872688,-4.186811602836516,-20.323892362196553,-57.204295218827035,40.43821504492673,0.21479256857105025,-136.25663068326335,2.071299768922051,380.77116497920514,34.76807245562999
2.37,85.64765750161388,8.321373124287835,26.521288231285848,-4.054027386534406,-21.077998879162188,-56.360756297139666,43.21447305725515,0.6739401309543538,-107.2721687151773,44.92486893738093,332.2714727701665,33.088338542854174
2.38,85.42896447296559,7.963734485517973,27.06844768287454,-4.286317031265539,-21.302205022359047,-54.935790380547324,45.3974969417228,0.9574936439489248,-79.04592762856326,83.7257298452122,282.6541418668223,31.606865932085512
2.39,85.33985928379967,7.294991835052162,27.467672523248407,-4.230649396025066,-21.369276887350075,-53.21327231810272,46.74986149040398,1.2958205111648025,-51.77004834256445,117.70964021041804,232.322034659602,29.873144161415205
2.4,85.21732217927868,7.0076200324619125,27.912848943222098,-4.234962236371557,-21.39819086169228,-51.23417006042857,47.904219789978626,1.5964797416427712,-26.11897649816889,146.75218012367688,182.56886235743127,28.11460552599917
2.41,84.80998700057971,6.161557069062171,28.546806394418365,-3.946135147568241,-21.161006800344072,-49.21918105739273,48.769114239262095,1.7373760278109622,-2.727724427487615,170.6387573887213,134.0361849139859,26.285285355946616
2.42,84.85009247904458,6.174178695130706,28.909105758695148,-4.142947054697139,-20.705646445576154,-46.83804767529814,49.04493369741395,2.0963781219381676,18.561992217108532,189.28831067717326,87.57134191394228,24.057794960319036
2.43,84.49903681762613,5.6452677045913395,29.205130147232545,-4.0467587183706,-20.10795233035205,-44.54413829608859,48.86070354238168,2.1789462662610575,37.4380063764945,202.94649988258917,43.707019647877274,22.13493417657366
2.44,84.41153724082646,5.231372933962247,29.560123693103833,-3.9879998135542905,-19.35759055343798,-42.334616345884086,48.63078854637477,2.5040364938408226,53.6321650033446,211.44646849711106,2.7278166363384657,19.88896174680924
2.45,84.32924554623862,5.05481043780136,30.169677204763758,-3.871930003923231,-18.768644526001083,-40.14578403173094,48.04672305831143,2.621472970834084,66.85892907738547,215.8960238833267,-34.79320453723224,17.803619248820386
2.46,83.95783370169168,4.709274576636476,30.330851903967616,-4.041257390364439,-18.008135243911262,-38.013043525329714,47.101564962490436,2.858236109470453,77.46060352143213,215.70226436278062,-68.47347484878836,15.388363228878669
2.47,83.986928169253,4.360648825205282,30.84079814221741,-4.105323418827275,-17.233696745285624,-36.04863940505864,46.33396679315959,2.9209867095027056,85.79428458130201,211.6801697257791,-98.4777440559444,12.998487328072697
2.48,83.88847440170423,3.752169651220281,31.41606523112664,-3.9369949146360455,-16.277587686179984,-34.3474164345394,45.13299106418008,3.107811885791294,91.15849191448203,204.2068055278192,-124.5374991408453,10.803864011389402
2.49,83.69834506104539,3.6550089497731886,31.658310648928804,-3.8954504895233772,-15.53835876014755,-32.8004924567995,43.8610534445194,3.007447073467672,94.3450394121515,194.18676023175033,-146.2260918634058,8.223257430428273
2.5,83.57250531928712,3.3470307200438567,31.974983213028317,-3.93734560734469,-15.20076073500438,-31.24419845054395,42.48827275076166,3.275969172290771,95.74331943276138,181.8142250403978,-164.25372779050298,5.803252687154915
2.51,83.44142728254558,3.069919538437329,32.394758730488576,-3.7741587029322763,-14.189017725903442,-30.100164557455155,41.01717443545229,3.0636792350118687,94.72658921078805,167.68459777840806,-178.3780697258679,3.45525897736582
2.52,83.22491936196,2.7572024975866243,32.91042364931825,-3.957751235262551,-13.51445526257376,-28.992352664169758,39.46278054568371,3.275559834491076,92.55489478569845,152.5953650242035,-189.38475288592292,1.182736215813649
2.53,83.20316112073802,2.6239068008107225,33.338136058287674,-3.796089372817193,-12.986273874433708,-28.11521522510846,38.074524142392534,3.20784375678653,88.95023261231219,137.1578956785303,-196.71088827817076,-0.9785626928160809
2.54,82.94200908375919,1.901312942857923,33.9875079968799,-3.7717670241124845,-11.950607602768828,-26.84823648601165,35.143291361574995,3.074784204728116,79.09384329165158,105.78619542780099,-203.7319646108632,-5.468142423116018
2.55,82.73581818964705,1.6357670924933212,34.29845765455693,-3.6200543985574405,-11.694698946583504,-26.44311570182346,33.568974116916294,3.0672033303080695,73.06263495514037,91.09362667973836,-203.5678704175375,-7.629847005968552
2.56,82.4615001015904,1.4216613225796297,34.80299701500148,-3.555164508503908,-11.115120428077752,-25.937827184540925,32.010177157019655,2.9482107641416047,67.19355895907782,77.51698468873607,-201.2273036159897,-9.478447827862276
2.57,82.63179433126302,1.0356015568702637,34.98289930306208,-3.4850833478857983,-10.901027321155732,-25.650180959779988,30.547574596739423,2.8061392176340525,61.260039323947815,65.28223482158656,-197.64374046298434,-10.940486935578296
2.58,82.42773116946688,0.5572697040609865,35.28167825578928,-3.649028349009414,-10.223060018978238,-25.39109192198996,28.898736862956806,2.6861657663038505,55.42402176277895,54.85892304958869,-192.8484720003891,-12.14714789107429
2.59,82.08779830741953,0.6256081123413105,35.82000361677246,-3.748606971528304,-10.213881154081953,-25.0461972652938,27.337003559530686,2.7311379724662106,50.001391263511586,46.115862168079325,-186.93803379211846,-13.842678513484993
2.6,82.07189957108206,0.3014598474210684,36.11626785064325,-3.43423979423435,-9.631875095304311,-24.695750977299227,25.566239347461867,2.4556618952677747,44.895292760654456,39.07791150973009,-180.36884182264382,-14.72019461763469
2.61,82.03701461587141,-0.0858427680873669,36.18913082744463,-3.420537486063823,-9.47921111662405,-24.718168633740202,24.068633327260596,2.437822079624092,40.65135217719192,33.7522206730017,-173.34979832735343,-15.742679574866852
2.62,81.9356013949562,-0.2672272032928207,36.55860401401311,-3.5367331379820497,-8.7963985123969,-24.0196121893638,22.4063564665266,2.0654513848207348,36.707765168653694,30.488550761796585,-166.13839865657707,-16.531969726859554
2.63,81.82456863356319,-0.5412136942066835,36.957259496817365,-3.303882842890843,-8.43960319718833,-23.59442131035205,20.810942873717565,2.0636461907320958,33.574643172050294,28.763133227760736,-158.98933748832727,-17.239204391878342
2.64,81.76417672073364,-0.7634207416389598,36.97710923373509,-3.4836707053828477,-8.129791357356053,-23.181954121256,19.12659641732356,1.6767421343560183,31.246777368412342,28.291719691536716,-151.82833909955596,-17.688581327549766
2.65,81.53243213533037,-1.0819517501857856,37.21862588686464,-3.3763762086626006,-7.7269739481623265,-22.501930656375322,17.445614860704612,1.440572282103977,29.40555674327728,29.35807883934506,-144.6448204384423,-17.694375231708147
2.66,81.45943832773449,-1.289736327108684,37.39334341952502,-3.3375361078345502,-7.442735971142379,-22.01357026275673,15.610182329365577,1.2776610420525905,28.12859026219206,31.50190258953208,-138.04972047837296,-17.72354669775025
2.67,81.52692944475167,-1.5860144185940865,37.42545410700601,-3.474126818187967,-6.75879392834842,-21.07009353910066,14.165712635277577,1.2428921499980774,27.36084143808301,34.66621657724836,-131.48973262811555,-17.377990498540136
2.68,81.3723095158559,-1.7867419271427631,37.75475908131653,-3.508133074133513,-6.260240721967904,-20.47182798715332,12.437995185783484,1.0315838320730741,27.15713305786903,38.93386682428652,-125.5359989871969,-17.382417154914066
2.69,81.29219191203721,-1.9667106918885688,37.6294891265489,-3.2807119243462064,-5.811624483878451,-19.459035091980482,10.87546735506277,0.7899153761348309,27.433820005178923,43.12572587815321,-119.90983909114382,-16.98061680520889
2.7,81.47726704179664,-2.173574017329414,37.996193722349545,-3.448002335845472,-5.081941193110307,-18.662000318575103,9.316774487972737,0.5460697986301016,27.867101845102354,48.001955564704694,-114.68532453597967,-16.648222801375706
2.71,81.3310200501637,-2.5252196826829483,37.704948382412866,-3.3357353541718604,-4.768378801758526,-17.724304329594716,7.885611749081187,0.34755387704143115,28.70436715591454,52.85701642708885,-109.88249744410163,-16.186551689966834
2.72,81.0002409614811,-2.9097801065120907,37.84400508453061,-3.326231229147339,-3.819572301075314,-15.784328517218876,5.124367792720472,-0.01803258948612317,30.75404636417437,62.53156620583677,-101.56907983272947,-14.785544178011538
2.73,81.10651760435242,-2.712233872130644,37.8843757567588,-3.488890912711554,-3.233720081246086,-14.798233362842362,3.951375738331383,-0.035181711405579665,31.802610643542383,67.2960422759481,-97.85813509217972,-14.20044527502274
2.74,81.07076670756416,-2.9757301104955363,37.9780451100646,-3.3375272159869356,-2.852505232481011,-14.159639744836925,3.0114273383217327,-0.15003901066937791,32.817519907312175,71.55645685561593,-94.3503894933678,-13.486220419386589
2.75,81.45385546260775,-3.10505281573086,37.932728632537376,-3.5382050264351137,-2.528842658175964,-13.24838999746947,1.921116914564839,-0.35260381871599267,34.223914624126536,75.03247890928256,-91.62358649922744,-13.082009454851438
2.76,81.13848429246728,-3.1408963544813666,37.98032553013415,-3.363227044289407,-2.1420485898719743,-12.45591889740463,0.893187446659291,-0.5011790843420345,35.03446231919925,78.59491237804056,-88.97713119904004,-12.526268464824495
2.77,81.1633165533279,-3.201752836458675,38.027169878730284,-3.6066248440047994,-1.8079635836603007,-11.618404952900429,-0.015029354862062444,-0.6272233790575668,35.59983138301884,81.29111392675591,-86.63909968576654,-11.628064879596892
