0.01,-109.92,77.39,160.72,0.15,0.35,-0.0,2.39,0.41,0.7,-97.0,82.19,109.9,0.02,0.13,0.09,0.19,0.71,-0.2,-155.48,2.27,5.16,0.05,0.2,0.6,1.23,2.34,0.05,-122.98,10.48,9.95,-0.02,0.09,0.06,0.35,0.33,0.23
0.02,-109.86,76.41,162.14,0.22,0.39,0.16,2.19,0.49,0.55,-97.17,82.06,113.76,0.12,0.33,0.16,0.45,0.57,-0.02,-154.33,2.23,5.02,0.02,0.32,0.56,1.03,2.14,0.6,-122.92,10.41,10.09,0.02,-0.12,0.1,0.42,0.33,0.43
0.03,-109.67,75.38,163.21,0.22,0.75,-0.02,2.19,0.33,0.49,-97.31,81.87,117.57,0.27,0.33,0.08,0.91,0.61,0.17,-153.25,2.32,4.88,0.22,0.31,0.55,0.89,1.82,1.13,-122.48,10.56,10.32,0.07,-0.11,0.31,0.68,0.7,0.64
0.04,-109.59,74.54,164.53,0.2,0.73,0.14,1.77,0.28,0.36,-97.3,81.7,121.04,0.09,0.66,0.04,1.08,0.59,0.24,-152.14,2.66,4.7,0.23,0.08,0.7,0.88,1.42,1.54,-122.32,10.75,10.24,0.18,0.16,0.45,0.91,0.46,0.82
0.05,-109.49,73.75,165.8,0.1,0.96,0.26,1.54,0.41,0.32,-97.18,81.54,124.69,0.08,0.65,0.0,1.37,0.6,0.3,-151.15,2.57,4.42,0.13,0.14,0.73,0.79,1.09,1.92,-122.09,10.82,10.47,0.28,0.01,0.46,0.92,0.93,1.19
0.06,-109.36,72.47,167.07,0.2,1.22,0.39,1.45,0.34,0.39,-97.4,81.01,128.68,-0.07,0.92,0.1,1.45,0.35,0.44,-150.19,2.87,4.49,0.11,0.08,0.74,0.51,0.85,2.28,-121.57,10.95,10.46,0.29,-0.16,0.28,0.9,0.93,1.59
0.07,-109.52,71.39,168.24,0.1,1.2,0.13,1.13,0.46,0.32,-97.6,80.59,132.14,0.14,1.0,0.24,1.98,0.32,0.36,-149.27,3.17,4.35,0.04,0.26,0.66,0.49,0.78,2.49,-121.24,11.1,10.69,0.28,0.25,0.41,0.84,0.95,1.82
0.08,-109.15,69.9,169.23,0.13,1.23,0.1,1.02,0.35,0.67,-97.69,79.91,135.96,-0.0,1.25,0.27,2.05,0.34,0.46,-148.45,3.33,4.35,0.22,0.58,0.47,0.31,0.67,2.75,-120.72,11.23,10.91,0.32,-0.04,0.6,0.78,0.82,2.05
0.09,-108.84,68.54,170.29,0.07,1.14,0.21,0.95,0.29,0.44,-97.85,79.0,139.49,0.19,1.28,0.1,1.97,0.26,0.49,-147.89,3.44,4.48,0.28,0.08,0.28,0.45,0.56,2.72,-120.06,11.3,11.02,0.35,-0.1,0.61,0.98,0.99,2.12
0.1,-108.63,66.91,171.3,0.02,1.5,0.27,0.93,0.23,0.8,-98.01,78.19,142.97,-0.01,1.44,0.12,1.94,0.35,0.8,-147.26,3.48,4.41,0.02,0.25,0.46,0.38,0.34,2.77,-119.61,11.34,11.02,0.16,0.05,0.73,0.79,0.86,2.5
0.11,-108.41,65.09,172.12,0.07,1.48,0.09,1.01,0.04,0.68,-97.66,76.79,146.4,0.34,1.53,0.25,2.17,0.4,0.5,-146.51,3.78,4.76,0.02,0.26,0.49,0.43,0.55,2.72,-119.01,11.75,11.05,0.33,0.09,0.68,0.9,0.77,2.73
0.12,-108.33,63.1,172.92,0.18,1.37,-0.05,0.86,0.11,0.87,-97.91,75.1,149.71,0.3,1.66,0.12,2.23,0.22,0.58,-146.4,4.06,4.92,0.21,0.19,0.26,0.66,0.6,2.56,-118.57,11.62,11.13,0.23,0.1,0.53,0.71,0.83,2.89
0.13,-108.17,62.39,173.3,0.1,1.45,0.18,0.98,0.03,0.71,-97.83,74.27,151.26,0.27,1.74,0.14,1.97,0.32,0.47,-146.01,4.12,4.86,0.05,0.17,0.3,0.72,0.68,2.39,-118.51,11.63,10.95,0.35,0.06,0.5,0.6,0.66,2.77
0.14,-108.1,61.29,173.6,-0.0,1.47,0.21,0.89,0.45,0.9,-97.69,73.27,152.69,-0.04,1.77,0.12,1.97,0.34,0.68,-145.9,4.21,5.16,0.2,0.13,0.26,0.66,0.56,2.31,-118.03,11.54,11.07,0.19,0.17,0.55,0.65,0.71,2.67
0.15,-107.93,59.47,174.3,0.07,1.47,0.03,1.08,0.19,0.98,-97.79,71.34,155.62,0.18,1.97,-0.23,1.77,0.19,0.5,-145.35,4.49,5.32,0.2,0.18,0.22,0.78,0.7,2.17,-117.43,11.62,11.04,0.01,-0.0,0.49,0.54,0.71,2.72
0.16,-107.55,57.47,174.68,0.3,1.26,0.32,1.22,0.03,1.17,-97.73,68.97,157.95,0.21,2.09,-0.05,1.71,0.2,0.39,-145.26,4.68,5.32,-0.05,0.2,0.23,0.68,0.82,2.11,-117.13,11.65,11.06,-0.12,0.08,0.55,0.66,0.69,2.67
0.17,-107.22,55.44,175.16,0.17,1.44,0.02,1.02,0.3,1.15,-97.81,66.35,160.14,0.23,2.08,-0.01,1.61,0.26,0.44,-145.04,4.88,5.54,-0.16,0.28,0.1,0.8,1.07,1.79,-116.64,11.6,10.91,-0.17,-0.03,0.27,0.53,0.56,2.54
0.18,-107.15,53.63,175.28,0.1,1.38,-0.07,1.33,0.08,0.99,-97.42,63.48,161.91,0.16,1.97,-0.13,1.44,0.18,0.56,-144.94,5.1,5.45,-0.1,0.13,0.12,0.79,1.13,1.54,-116.14,11.52,10.85,-0.18,-0.11,0.46,0.55,0.78,2.52
0.19,-107.29,51.89,175.69,0.15,1.42,-0.15,1.5,0.19,0.88,-97.23,60.81,163.63,0.2,2.26,0.2,1.34,0.29,0.52,-144.93,5.38,5.46,0.01,0.17,0.2,0.98,1.13,1.41,-116.16,11.21,10.87,-0.03,-0.15,0.38,0.49,0.64,2.37
0.2,-107.12,49.92,175.76,0.18,1.36,0.13,1.29,0.12,0.99,-97.23,57.89,164.88,0.1,2.29,0.2,1.1,0.3,0.3,-144.92,5.44,5.52,0.12,0.23,0.18,0.93,1.24,1.3,-115.95,11.15,10.79,-0.1,0.12,0.51,0.55,0.5,1.99
0.21,-107.21,48.46,176.42,0.08,1.23,-0.05,1.53,0.27,0.77,-96.9,54.62,166.13,0.33,2.42,-0.15,1.21,0.26,0.4,-144.81,5.8,5.28,0.01,0.06,0.09,1.11,1.36,1.02,-116.09,10.8,10.46,-0.11,0.0,0.29,0.74,0.39,1.93
0.22,-107.09,46.85,176.46,0.1,1.14,0.08,1.49,0.4,0.8,-96.64,51.48,167.08,0.18,2.16,0.13,1.02,0.38,0.56,-144.98,5.84,4.99,0.14,0.06,0.08,0.7,1.42,1.09,-116.24,10.54,10.8,-0.07,-0.06,0.32,0.65,0.55,1.78
0.23,-106.97,45.38,176.57,-0.15,1.17,0.09,1.45,0.3,0.66,-96.65,48.49,167.75,0.19,2.11,0.05,1.01,0.29,0.45,-145.16,6.04,4.62,0.08,0.26,0.36,0.79,1.22,1.18,-116.6,10.22,10.68,0.12,0.11,0.1,0.84,0.59,1.6
0.24,-106.93,43.95,176.85,0.16,1.1,-0.02,1.28,0.29,0.52,-96.59,45.59,168.38,-0.05,2.2,0.02,0.83,0.37,0.26,-145.34,6.26,4.26,0.15,0.02,0.38,0.85,1.43,1.26,-116.73,10.06,10.68,0.01,0.15,0.22,0.87,0.5,1.61
0.25,-107.22,42.86,177.01,0.07,0.97,0.09,1.35,0.25,0.66,-96.42,42.69,168.69,0.14,2.12,0.08,0.89,0.33,0.44,-145.74,6.45,3.82,0.27,0.16,0.16,0.76,1.22,1.29,-116.79,9.94,10.91,0.14,0.11,0.05,0.84,0.45,1.32
0.26,-107.28,42.14,177.02,0.31,0.97,-0.03,1.46,0.25,0.46,-96.27,41.43,168.89,-0.05,1.99,0.08,0.72,0.37,0.69,-145.97,6.36,3.51,0.39,0.06,0.42,0.75,1.28,1.25,-117.07,9.76,11.2,0.07,0.16,0.25,0.81,0.64,1.37
0.27,-107.34,41.71,177.18,0.12,0.84,0.12,1.3,0.2,0.43,-96.28,40.02,168.96,0.04,2.12,0.09,1.01,0.41,0.52,-146.07,6.58,3.57,0.43,0.1,0.31,0.68,1.37,1.46,-117.03,9.69,11.19,0.08,0.37,0.2,0.78,0.43,1.7
0.28,-107.48,40.37,177.4,0.27,0.93,0.05,1.29,0.35,0.5,-96.11,37.3,169.08,0.24,1.77,-0.11,1.06,0.34,0.65,-146.67,6.98,2.92,0.39,0.19,0.44,0.5,1.12,1.71,-117.63,9.47,11.37,0.36,0.25,0.1,0.75,0.39,1.68
0.29,-107.58,39.47,177.31,0.07,1.01,-0.01,1.06,0.3,0.57,-96.16,35.03,169.4,-0.07,1.65,-0.02,1.07,0.12,0.62,-147.05,7.01,2.47,0.41,0.29,0.51,0.54,1.35,1.59,-118.12,9.74,12.04,0.36,0.29,0.22,0.71,0.55,1.63
0.3,-107.63,38.67,177.69,0.2,0.94,0.2,0.91,0.49,0.44,-96.0,32.88,169.57,0.04,1.66,0.09,0.91,0.41,0.69,-147.76,7.42,2.05,0.51,0.26,0.51,0.58,1.1,1.86,-118.34,9.87,12.5,0.31,0.39,0.27,0.89,0.29,1.68
0.31,-107.75,37.51,177.78,0.39,0.6,0.14,0.96,0.41,0.28,-95.96,30.87,169.44,0.19,1.52,0.12,0.8,0.15,0.47,-148.14,7.54,1.77,0.58,0.06,0.43,0.47,1.07,1.76,-118.79,10.34,13.33,0.45,0.61,0.32,0.63,0.59,1.75
0.32,-107.67,36.87,177.66,0.06,0.65,-0.06,0.85,0.51,0.39,-96.3,29.12,169.82,0.13,1.39,0.07,0.9,0.2,0.64,-148.72,8.0,1.87,0.67,0.41,0.73,0.54,0.86,1.8,-119.18,10.76,14.01,0.53,0.65,0.23,0.65,0.79,2.06
0.33,-107.81,36.34,177.62,0.24,0.6,0.0,1.11,0.43,0.3,-96.01,27.53,169.89,0.08,1.27,0.0,0.84,0.47,0.73,-149.26,8.25,2.02,0.56,0.23,0.72,0.7,0.6,2.01,-119.2,11.47,14.86,0.63,0.64,0.0,0.73,0.73,1.98
0.34,-107.88,35.61,177.5,0.26,0.48,-0.05,0.78,0.5,0.27,-96.28,26.22,170.04,0.01,1.34,-0.01,0.95,0.32,0.58,-149.93,8.39,2.22,0.82,0.5,0.52,0.64,0.71,1.85,-119.9,11.91,15.7,0.74,0.49,0.34,0.87,0.62,2.34
0.35,-107.85,35.17,177.74,0.13,0.52,0.09,0.78,0.47,0.54,-96.12,24.98,170.27,0.15,0.93,0.19,0.77,0.2,0.78,-150.41,8.86,2.49,0.61,0.5,0.81,0.86,0.72,1.68,-119.92,12.61,16.71,0.77,0.61,0.15,0.93,0.87,2.38
0.36,-108.07,34.2,177.74,0.18,0.4,0.13,0.55,0.68,0.22,-96.23,23.58,170.45,0.21,0.8,0.07,0.67,0.4,0.95,-151.04,9.44,3.13,0.68,0.42,0.58,0.92,0.66,1.48,-120.03,13.73,17.84,0.9,0.66,0.43,1.0,0.76,2.47
0.37,-107.93,34.0,177.78,0.06,0.43,-0.1,0.58,0.57,0.25,-95.96,22.67,170.75,0.15,0.83,0.05,0.5,0.31,0.79,-151.61,9.97,3.46,0.81,0.27,0.75,0.62,0.67,1.4,-120.43,14.49,19.02,0.92,0.77,0.44,1.01,0.75,2.37
0.38,-107.9,33.58,177.55,0.22,0.32,0.19,0.79,0.63,0.18,-96.03,21.78,171.31,0.26,0.78,0.13,0.63,0.32,0.88,-152.08,10.37,4.41,0.62,0.5,0.65,0.88,0.6,1.4,-120.36,15.43,20.13,0.73,0.64,0.31,1.17,0.87,2.58
0.39,-107.9,33.28,177.57,0.28,0.3,0.03,0.74,0.46,0.34,-95.9,21.56,171.43,0.31,0.56,0.09,0.61,0.36,0.72,-152.26,10.54,4.96,0.62,0.53,0.67,0.94,0.53,1.39,-120.25,15.8,20.72,0.85,0.86,0.3,1.1,0.79,2.55
0.4,-107.83,33.18,177.65,0.29,0.29,0.05,0.71,0.56,0.32,-95.8,20.95,171.59,0.38,0.58,0.06,0.55,0.58,0.85,-152.48,10.99,5.29,0.59,0.39,0.45,1.11,0.52,1.26,-120.26,16.02,21.32,0.81,0.99,0.39,1.2,1.08,2.53
0.41,-108.01,32.52,177.75,0.15,0.28,-0.06,0.68,0.65,0.18,-95.56,20.33,171.85,0.2,0.56,0.38,0.37,0.57,0.79,-152.86,11.46,6.25,0.55,0.42,0.39,0.94,0.51,1.08,-120.13,17.09,22.54,0.93,0.92,0.54,1.1,0.87,2.47
0.42,-107.95,32.18,177.69,0.09,0.12,0.03,0.63,0.38,0.28,-95.77,19.5,172.22,0.29,0.62,0.18,0.31,0.58,0.9,-153.32,11.84,7.1,0.45,0.48,0.65,0.88,0.62,1.04,-120.33,17.87,23.58,0.88,0.64,0.6,1.15,1.11,2.19
0.43,-108.23,32.01,177.66,0.25,0.26,0.03,0.61,0.36,0.19,-95.54,18.84,172.56,0.21,0.59,0.12,0.24,0.47,0.77,-153.65,12.3,7.92,0.52,0.24,0.47,0.89,0.37,0.83,-119.91,18.92,24.76,0.71,0.8,0.33,0.81,0.9,1.98
0.44,-108.2,31.56,177.89,0.08,0.38,0.01,0.7,0.45,0.29,-95.27,18.09,172.93,0.42,0.53,0.17,0.17,0.72,0.79,-153.69,12.89,8.81,0.43,0.45,0.33,0.72,0.65,0.65,-119.91,19.44,25.97,0.71,0.4,0.48,0.93,0.98,2.07
0.45,-108.2,31.24,177.98,0.03,0.25,0.16,0.71,0.41,0.17,-94.96,17.62,173.35,-0.03,0.49,0.24,0.38,0.59,0.7,-154.07,13.37,9.51,0.51,0.34,0.45,0.66,0.59,0.76,-119.82,20.3,26.9,0.74,0.73,0.25,0.92,0.99,1.69
0.46,-108.28,31.17,178.03,0.14,0.12,0.02,0.84,0.38,0.36,-94.82,16.97,173.49,0.17,0.49,0.19,0.41,0.64,0.65,-154.31,13.6,10.29,0.26,0.22,0.47,0.49,0.67,0.87,-119.59,20.76,28.01,0.78,0.19,0.36,0.88,1.0,1.55
0.47,-108.19,30.85,178.28,0.16,0.17,0.09,0.71,0.33,-0.0,-94.75,16.24,173.73,0.24,0.31,0.11,0.61,0.55,0.88,-154.62,14.07,10.77,0.21,0.29,0.34,0.67,0.58,0.58,-119.29,21.35,29.23,0.63,0.52,0.48,0.82,0.93,1.47
0.48,-108.4,30.91,178.19,-0.04,0.22,0.1,0.7,0.54,0.13,-94.56,15.91,173.9,0.25,0.48,-0.03,0.46,0.63,0.89,-154.48,14.26,11.38,0.24,0.07,0.37,0.53,0.81,0.61,-119.28,21.78,30.08,0.4,0.32,0.53,0.65,1.05,1.25
0.49,-108.5,30.68,178.21,0.09,0.21,0.2,0.8,0.45,0.3,-94.47,15.39,174.21,-0.05,0.46,-0.03,0.7,0.68,0.79,-154.93,14.52,11.6,0.03,0.18,0.48,0.47,0.8,0.56,-119.19,22.15,30.92,0.88,0.3,0.28,0.86,0.88,1.01
0.5,-108.49,30.7,178.36,0.05,-0.02,0.06,0.79,0.35,0.18,-94.33,14.7,174.04,-0.04,0.44,0.34,0.6,0.55,0.87,-155.18,14.96,12.07,0.16,0.27,0.34,0.6,0.83,0.79,-119.04,22.43,31.79,0.54,0.3,0.43,0.69,0.76,1.19
0.51,-108.71,30.91,178.22,0.09,0.01,0.11,0.76,0.32,0.22,-94.39,14.51,174.36,0.1,0.55,-0.08,0.71,0.64,0.92,-155.23,14.98,12.12,-0.03,0.17,0.03,0.46,1.0,0.67,-119.02,22.86,32.73,0.53,0.18,0.39,0.87,0.65,1.07
0.52,-108.68,30.61,178.38,0.19,0.09,0.15,0.74,0.35,0.13,-94.16,14.16,174.38,0.27,0.39,-0.04,0.57,0.52,0.73,-155.28,15.06,12.28,0.2,0.2,0.24,0.62,0.9,0.77,-119.25,22.77,32.92,0.4,0.26,0.43,0.77,0.86,1.01
0.53,-108.99,30.93,178.28,0.13,0.14,0.15,0.55,0.45,0.36,-94.05,13.98,174.41,0.12,0.25,0.1,0.59,0.46,0.88,-155.26,15.0,12.23,0.19,0.06,0.25,0.65,0.92,0.91,-119.0,23.03,33.28,0.49,0.13,0.4,0.75,0.84,1.27
0.54,-109.17,31.03,178.26,0.06,0.03,0.09,0.57,0.48,0.27,-94.2,13.95,174.2,0.13,0.29,0.13,0.73,0.46,0.82,-155.54,14.96,12.14,0.3,0.18,0.25,0.48,0.7,0.91,-119.15,23.11,33.89,0.35,0.29,0.45,0.9,0.94,1.07
0.55,-109.13,31.26,178.1,0.26,0.07,-0.05,0.68,0.58,0.28,-93.95,13.74,174.38,0.11,0.13,0.07,0.59,0.32,0.85,-155.74,15.49,11.98,0.34,0.18,0.26,0.51,1.1,0.84,-119.29,23.54,34.37,0.19,0.28,0.32,0.82,0.85,1.16
0.56,-109.44,31.2,178.17,0.33,0.02,0.01,0.5,0.51,0.24,-93.81,13.6,174.54,0.06,0.29,-0.03,0.53,0.55,0.82,-155.89,15.18,11.72,0.21,0.15,0.3,0.73,1.08,0.81,-119.27,23.43,34.87,0.21,0.22,0.27,0.78,0.76,1.27
0.57,-109.56,31.48,177.97,0.09,0.05,0.07,0.4,0.54,0.42,-94.01,13.71,174.38,-0.05,0.3,-0.06,0.54,0.47,0.82,-156.04,15.48,11.5,0.27,0.03,0.33,0.79,0.89,0.74,-119.75,23.52,35.28,0.24,0.17,0.51,0.9,1.11,1.27
0.58,-109.64,31.82,177.92,0.14,0.03,0.11,0.31,0.5,0.34,-94.03,13.83,174.32,0.03,0.14,-0.01,0.57,0.29,0.64,-156.38,15.18,11.12,0.32,0.26,0.23,0.92,0.99,0.97,-119.86,23.58,35.59,0.05,0.2,0.64,0.86,0.83,1.38
0.59,-109.87,31.99,177.89,0.29,0.11,0.04,0.41,0.34,0.49,-93.92,13.86,174.23,0.25,0.3,0.2,0.52,0.32,0.53,-156.85,15.27,10.94,0.37,0.2,0.27,0.83,1.16,0.84,-119.92,23.55,35.81,0.1,0.19,0.5,0.96,0.82,1.39
0.6,-110.05,32.12,177.48,0.07,0.16,0.12,0.29,0.5,0.49,-93.83,14.0,174.36,0.04,0.0,0.21,0.43,0.22,0.53,-157.01,15.15,10.6,0.18,0.01,0.28,1.02,1.02,0.67,-120.41,23.59,36.08,0.17,0.36,0.55,1.01,0.58,1.41
0.61,-110.05,32.32,177.42,0.14,0.06,0.16,0.31,0.52,0.46,-93.91,14.52,174.08,0.15,0.03,-0.16,0.52,0.44,0.41,-157.26,15.13,9.95,0.49,0.2,0.36,0.88,1.17,0.75,-120.92,23.63,36.25,0.02,0.51,0.59,0.9,0.61,1.23
0.62,-110.42,32.64,177.16,0.01,0.25,0.05,0.15,0.57,0.57,-93.89,14.4,173.99,0.2,0.24,0.11,0.44,0.32,0.4,-157.72,15.0,9.49,0.34,0.15,0.18,0.72,1.06,0.72,-121.35,23.59,36.39,0.25,0.31,0.44,1.08,0.67,1.31
0.63,-110.43,32.95,177.04,0.2,0.3,0.2,0.2,0.66,0.43,-94.07,14.7,173.74,0.31,0.15,0.12,0.46,0.31,0.21,-157.82,14.93,9.41,0.4,-0.02,0.29,0.86,0.87,0.79,-121.71,23.36,36.53,0.16,0.24,0.59,0.96,0.55,1.21
0.64,-110.3,33.06,176.93,0.13,0.39,0.0,0.24,0.45,0.4,-93.91,15.39,173.48,0.19,0.35,-0.04,0.48,0.24,0.34,-157.83,14.4,8.64,0.55,0.08,0.3,0.66,0.88,0.38,-122.31,23.29,36.53,0.12,0.17,0.51,0.87,0.59,1.12
0.65,-110.58,33.14,176.92,0.15,0.22,0.05,0.25,0.34,0.48,-93.88,15.18,173.69,0.24,0.36,0.15,0.33,0.39,0.15,-158.19,14.74,8.59,0.43,0.14,0.38,0.72,0.99,0.31,-122.47,23.4,36.68,0.21,0.22,0.65,0.89,0.45,0.86
0.66,-110.55,33.34,176.54,0.32,0.3,0.02,0.2,0.38,0.5,-93.99,15.48,173.45,0.33,0.22,-0.1,0.23,0.49,0.52,-158.27,14.41,8.44,0.44,-0.01,0.25,0.52,0.75,0.36,-122.58,23.29,36.8,0.04,0.24,0.66,0.86,0.58,0.95
0.67,-110.89,33.61,176.27,0.19,0.25,-0.05,0.48,0.42,0.61,-94.0,15.9,173.46,0.4,0.4,-0.15,0.17,0.53,0.12,-158.39,14.33,8.21,0.25,0.24,0.28,0.67,0.93,0.34,-122.9,23.28,36.92,0.01,0.17,0.56,0.75,0.57,0.67
0.68,-110.63,33.84,176.38,0.16,0.15,0.15,0.36,0.48,0.63,-93.79,16.29,172.91,0.18,0.26,0.07,0.24,0.4,0.12,-158.54,14.22,7.85,0.43,-0.06,0.26,0.44,0.59,0.09,-123.19,23.04,36.92,0.11,0.17,0.31,0.75,0.55,0.77
0.69,-110.86,34.1,176.21,0.16,0.46,0.05,0.34,0.45,0.76,-93.8,16.67,172.58,0.44,0.43,0.04,0.11,0.42,0.36,-158.46,14.01,7.35,0.15,0.17,0.34,0.54,0.77,0.1,-123.44,23.14,37.1,0.16,0.09,0.38,0.62,0.38,0.5
0.7,-110.73,34.6,176.01,0.23,0.19,0.18,0.65,0.31,0.51,-93.7,16.95,172.32,0.27,0.24,-0.05,0.28,0.41,0.18,-158.55,13.91,6.94,0.24,0.11,0.24,0.62,0.85,-0.18,-124.03,23.2,37.14,-0.13,0.01,0.3,0.39,0.34,0.48
0.71,-110.84,34.67,176.09,0.09,0.27,0.08,0.78,0.19,0.52,-93.91,17.33,172.25,0.29,0.5,-0.05,0.04,0.53,0.35,-158.59,13.97,6.9,0.33,0.25,0.23,0.31,0.76,0.08,-123.96,22.99,37.34,-0.06,0.24,0.28,0.36,0.41,0.25
0.72,-110.77,34.89,176.22,0.27,0.22,0.08,0.84,0.18,0.69,-93.64,17.63,172.07,0.32,0.22,0.06,0.26,0.32,0.39,-158.53,13.6,6.36,0.28,0.16,0.33,0.58,0.82,-0.05,-123.94,23.05,37.35,-0.18,0.1,0.06,0.4,0.4,0.53
0.73,-110.83,34.98,176.21,0.08,0.3,-0.05,0.98,0.29,0.55,-93.49,17.91,171.8,-0.01,0.3,-0.14,0.42,0.26,0.48,-158.22,13.6,6.23,0.29,0.19,0.15,0.32,0.87,0.16,-124.0,23.07,37.46,0.04,0.14,0.38,0.33,0.29,0.5
0.74,-111.02,35.45,176.15,0.22,0.2,-0.01,0.86,0.12,0.88,-93.7,18.28,171.66,0.08,0.35,0.09,0.34,0.29,0.49,-158.27,13.52,6.03,-0.06,0.18,0.15,0.27,0.85,0.08,-123.86,23.03,37.36,0.03,0.11,0.27,0.31,0.48,0.7
0.75,-110.97,35.65,176.27,0.26,0.22,0.04,0.95,0.21,0.77,-93.52,18.57,171.55,0.16,0.18,0.07,0.17,0.2,0.72,-158.26,13.5,5.87,0.19,0.24,0.29,0.43,0.87,0.28,-123.67,23.13,37.59,0.06,0.1,0.12,0.25,0.27,0.45
0.76,-110.97,35.94,176.5,0.26,0.23,0.11,1.42,0.04,0.59,-93.55,18.79,171.27,0.17,0.28,0.03,0.52,0.31,0.69,-157.58,13.35,5.77,0.02,-0.06,0.26,0.28,0.66,0.37,-123.46,23.1,37.65,0.14,0.2,0.29,0.17,0.63,0.62
0.77,-110.98,36.18,176.27,0.23,0.21,0.07,1.31,0.4,0.68,-93.62,19.04,171.36,0.1,0.3,-0.02,0.35,0.31,0.86,-157.65,13.53,5.67,0.23,0.14,0.19,0.34,0.75,0.56,-123.33,22.93,37.53,-0.21,0.07,0.32,0.3,0.82,1.1
0.78,-111.32,36.35,176.38,0.3,0.19,0.07,1.39,0.31,0.89,-93.59,19.16,171.32,0.04,0.23,0.1,0.48,0.44,0.77,-157.84,13.19,5.68,-0.08,-0.02,0.18,0.21,0.68,0.49,-123.0,23.16,37.55,0.04,0.18,0.14,0.36,0.69,0.88
0.79,-111.19,36.58,176.31,0.36,0.25,0.11,1.33,0.31,0.78,-93.74,19.25,171.36,0.02,0.19,-0.0,0.33,0.44,0.86,-157.67,13.45,5.48,0.14,0.14,0.29,0.28,0.72,0.77,-123.19,23.0,37.42,0.25,0.06,0.17,0.35,0.61,1.04
0.8,-111.36,36.54,176.37,0.11,0.35,0.07,1.48,0.19,0.58,-93.65,19.56,171.34,0.17,-0.03,0.07,0.49,0.3,0.85,-157.49,13.45,5.63,0.02,0.17,0.09,0.09,0.46,0.88,-122.94,23.15,37.59,0.08,0.04,0.29,0.35,0.96,1.08
0.81,-111.33,36.98,176.38,0.06,0.28,0.07,1.44,0.35,0.85,-93.4,19.71,171.27,0.05,0.27,0.03,0.6,0.31,1.05,-157.61,13.5,5.57,0.13,0.2,0.18,0.14,0.84,1.15,-122.78,23.26,37.65,0.15,-0.15,0.17,0.45,1.0,1.25
0.82,-111.31,37.14,176.54,-0.07,0.18,-0.06,1.82,-0.01,0.59,-93.69,20.02,171.46,0.28,0.24,0.01,0.64,0.16,1.33,-157.44,13.71,5.95,0.17,0.45,0.3,0.1,0.49,1.32,-122.68,23.27,37.8,0.0,0.0,0.18,0.43,1.04,1.25
0.83,-111.53,37.31,176.36,0.14,0.27,-0.06,1.69,0.34,0.55,-93.59,20.29,171.41,0.06,0.01,0.01,0.75,0.3,1.07,-157.51,13.8,5.83,0.3,0.11,0.37,0.17,0.68,1.59,-122.71,23.4,38.11,0.2,0.02,0.11,0.44,1.2,1.45
0.84,-111.6,37.81,176.52,0.03,0.17,0.1,1.85,0.44,0.5,-93.87,20.59,171.64,-0.03,-0.01,0.03,0.68,0.29,1.31,-157.75,14.04,5.92,0.09,0.28,0.17,0.19,0.34,1.9,-122.72,23.5,38.35,0.17,0.41,0.11,0.77,1.23,1.38
0.85,-111.62,38.02,176.29,0.13,0.39,-0.03,1.89,0.28,0.65,-93.75,20.66,171.73,-0.03,0.36,0.11,0.92,0.36,1.11,-157.74,13.93,6.45,0.07,-0.0,0.4,0.26,0.38,2.04,-122.63,23.48,38.43,0.24,0.34,0.09,0.81,1.41,1.42
0.86,-111.8,38.25,176.5,0.11,0.3,-0.09,1.74,0.41,0.53,-93.7,20.69,171.89,-0.08,0.24,0.04,0.91,0.62,1.21,-158.0,14.26,6.5,0.34,0.22,0.18,0.4,0.41,2.16,-122.68,23.61,38.92,0.42,0.15,0.2,0.96,1.72,1.48
0.87,-111.71,39.02,176.36,0.05,0.17,-0.01,1.85,0.16,0.72,-94.0,21.37,171.79,0.04,0.19,-0.01,1.11,0.33,1.3,-158.1,14.54,6.82,-0.01,0.26,0.27,0.26,0.41,2.41,-123.08,24.07,39.48,0.4,0.2,0.09,0.98,1.48,1.44
0.88,-111.75,39.37,176.26,-0.12,0.55,0.03,1.66,0.43,0.52,-93.93,21.69,171.88,0.02,0.3,-0.04,1.18,0.44,1.33,-158.43,14.68,7.1,0.16,0.13,0.25,0.32,0.5,2.4,-123.18,24.0,39.93,0.52,0.46,0.01,1.01,1.69,1.29
0.89,-111.69,40.13,176.28,0.14,0.64,0.03,1.61,0.4,0.6,-93.9,21.86,171.94,0.26,0.17,0.01,1.23,0.39,1.31,-158.73,14.8,7.36,0.15,0.08,0.29,0.29,0.26,2.3,-123.17,24.32,40.78,0.43,0.24,0.12,0.83,1.83,1.22
0.9,-111.85,40.67,176.13,0.0,0.61,-0.0,1.68,0.45,0.78,-93.86,22.45,171.92,0.12,0.31,0.03,1.33,0.2,1.14,-158.68,14.98,7.39,-0.0,-0.01,0.17,0.37,0.53,2.37,-123.58,24.63,41.46,0.38,0.51,0.18,1.07,1.46,1.42
0.91,-111.69,41.34,176.06,0.17,0.68,0.34,1.79,0.55,0.82,-94.09,22.71,171.92,0.17,0.36,-0.13,1.28,0.19,1.21,-158.74,14.93,7.61,0.14,0.11,0.09,0.4,0.39,2.45,-123.39,24.7,41.94,0.62,0.45,-0.11,1.06,1.64,1.23
0.92,-111.85,41.81,176.06,0.03,0.82,-0.03,1.47,0.4,0.67,-93.71,22.82,171.92,0.14,0.55,-0.11,1.49,0.36,1.27,-158.88,15.18,7.7,0.1,-0.01,0.01,0.34,0.55,2.23,-123.54,24.94,42.24,0.54,0.26,0.32,1.17,1.68,1.07
0.93,-111.82,42.74,175.93,0.2,0.76,0.14,1.5,0.56,0.78,-93.84,23.42,171.72,0.13,0.3,0.06,1.44,0.41,1.25,-158.93,15.25,7.9,0.22,0.14,0.35,0.32,0.29,2.3,-123.57,25.16,43.16,0.6,0.31,0.27,1.28,1.69,1.06
0.94,-111.65,43.76,175.7,0.29,0.8,0.03,1.49,0.44,0.81,-93.92,24.13,171.76,0.02,0.6,0.06,1.38,0.37,1.23,-158.95,15.43,7.77,0.19,0.24,0.05,0.44,0.37,2.13,-123.37,25.75,44.06,0.48,0.49,-0.01,1.25,1.82,0.93
0.95,-111.57,44.93,175.41,0.22,1.1,-0.01,1.33,0.56,0.78,-93.97,24.78,171.71,0.21,0.49,-0.04,1.55,0.22,1.08,-158.98,15.43,7.69,0.01,0.25,0.27,0.48,0.52,1.66,-123.49,26.1,45.06,0.53,0.46,0.11,0.99,1.59,0.9
0.96,-111.47,46.31,175.11,0.22,0.98,-0.01,1.26,0.6,1.06,-93.83,25.38,171.48,0.21,0.6,0.0,1.49,0.32,1.14,-158.98,15.37,7.47,0.32,0.07,0.14,0.4,0.49,1.7,-123.11,26.34,46.0,0.7,0.39,0.17,1.06,1.59,0.74
0.97,-111.48,47.89,175.02,0.11,1.17,0.13,1.25,0.69,0.83,-93.7,26.39,171.54,0.14,0.65,-0.12,1.53,0.44,1.19,-158.94,15.22,6.99,0.34,0.12,0.08,0.49,0.38,1.65,-122.9,27.07,47.43,0.88,0.24,0.26,1.03,1.63,0.58
0.98,-111.18,49.51,174.63,0.3,1.32,-0.17,1.1,0.19,0.98,-93.69,27.17,171.16,0.09,0.76,0.09,1.39,0.18,0.92,-158.84,14.88,6.61,0.28,0.17,0.28,0.39,0.57,1.49,-122.56,27.51,48.41,0.82,0.42,0.08,0.94,1.34,0.68
0.99,-111.14,50.83,174.14,0.22,1.24,0.1,0.82,0.48,0.86,-93.6,28.4,171.06,0.14,0.86,-0.09,1.34,0.29,0.88,-158.52,14.22,6.18,0.13,0.43,0.29,0.51,0.34,1.24,-122.57,27.95,49.58,0.86,0.48,0.29,0.82,1.48,0.32
1.0,-110.95,52.55,173.85,0.11,1.51,0.11,0.97,0.57,1.03,-93.59,29.53,170.85,0.03,0.89,-0.09,0.96,0.39,0.99,-158.48,13.81,5.55,0.23,0.43,0.3,0.46,0.49,1.07,-121.85,28.78,50.64,0.93,0.52,0.38,0.98,1.39,0.43
1.01,-110.82,54.4,173.36,0.17,1.56,0.2,0.79,0.42,1.14,-93.31,30.57,170.63,0.12,1.15,0.09,1.1,0.43,0.97,-158.44,13.4,4.82,0.44,0.51,0.1,0.29,0.57,0.96,-121.36,29.57,51.92,0.87,0.75,0.45,0.8,1.28,0.56
1.02,-110.69,56.01,172.94,0.04,1.42,0.14,0.8,0.43,1.04,-93.33,31.97,170.58,0.15,1.04,-0.04,1.05,0.49,0.85,-158.27,12.38,4.07,0.56,0.53,0.32,0.37,0.4,0.66,-120.8,30.34,53.04,0.91,0.47,0.5,0.74,1.13,0.4
1.03,-110.46,57.62,172.61,0.26,1.49,-0.13,0.56,0.31,1.06,-93.22,33.48,170.3,0.01,1.33,0.12,0.92,0.47,0.76,-157.88,11.37,3.36,0.48,0.68,0.22,0.58,0.72,0.57,-120.16,31.41,54.46,1.16,0.57,0.39,0.67,0.89,0.34
1.04,-110.56,58.67,172.34,0.14,1.5,0.04,0.57,0.44,1.06,-93.13,34.1,170.26,-0.05,1.27,-0.07,0.76,0.49,0.57,-157.82,10.93,3.17,0.66,0.56,0.37,0.48,0.48,0.59,-119.52,31.76,54.94,1.09,0.61,0.53,0.65,1.19,0.54
1.05,-110.28,59.57,172.02,0.22,1.47,0.07,0.73,0.5,1.0,-93.2,34.76,170.15,-0.09,1.31,0.18,0.71,0.38,0.56,-157.64,10.51,2.76,0.68,0.76,0.14,0.63,0.43,0.64,-119.32,32.43,56.0,1.0,0.72,0.66,0.87,1.02,0.2
1.06,-110.41,61.13,171.55,0.31,1.62,-0.11,0.67,0.46,1.24,-92.9,36.51,169.91,0.12,1.23,0.09,0.77,0.34,0.75,-157.49,9.33,2.74,0.81,1.02,0.34,0.45,0.66,0.7,-118.46,33.62,57.2,1.27,0.61,0.56,0.64,1.06,0.42
1.07,-110.41,62.92,171.31,0.3,1.62,-0.01,0.7,0.41,1.05,-92.97,38.22,169.66,0.18,1.67,0.01,0.6,0.36,0.69,-157.28,8.25,2.45,0.91,1.05,0.29,0.45,0.56,0.66,-117.68,34.6,58.69,1.24,0.83,0.62,0.68,0.94,0.36
1.08,-110.42,64.53,170.16,0.23,1.6,-0.08,0.92,0.61,1.1,-92.78,39.81,169.72,0.03,1.48,0.47,0.46,0.51,0.52,-157.14,7.4,2.62,0.8,1.17,0.24,0.66,0.84,0.67,-116.54,35.88,60.12,1.08,0.98,0.7,0.93,0.73,0.42
1.09,-110.64,66.22,169.71,0.14,1.41,0.2,1.02,0.44,0.96,-92.79,41.5,169.56,0.07,1.79,0.13,0.65,0.3,0.52,-157.02,6.43,2.99,1.03,1.14,0.18,0.81,0.72,0.58,-115.41,37.38,61.84,1.18,1.04,0.84,0.74,0.65,0.25
1.1,-110.83,67.73,169.08,0.18,1.34,0.17,0.91,0.27,0.91,-92.94,43.5,169.38,0.17,1.87,0.03,0.52,0.34,0.51,-156.78,5.67,3.4,1.33,1.28,0.06,0.65,1.04,0.68,-114.4,39.06,63.56,1.13,1.04,0.95,0.84,0.57,0.43
1.11,-110.98,69.11,168.27,0.25,1.28,0.19,1.07,0.53,0.8,-92.81,45.38,169.27,0.0,1.76,0.12,0.5,0.44,0.57,-156.73,4.88,4.34,1.33,1.4,0.22,0.54,0.92,0.89,-113.16,40.65,65.34,1.02,1.13,1.39,0.87,0.56,0.58
1.12,-111.07,70.46,167.33,0.08,1.4,0.13,1.11,0.5,0.91,-92.82,47.32,169.13,0.05,1.83,0.04,0.93,0.54,0.55,-156.61,4.91,5.57,1.48,1.35,-0.02,0.65,0.77,0.98,-111.94,42.27,67.03,1.39,1.14,1.05,0.92,0.48,0.45
1.13,-111.13,71.6,166.68,-0.0,1.29,0.04,1.15,0.5,0.66,-92.89,49.31,168.94,0.05,1.99,0.14,0.82,0.54,0.32,-156.47,4.86,6.81,1.68,1.52,0.38,0.57,0.89,1.07,-110.34,44.11,69.11,1.16,1.14,1.27,0.88,0.62,0.84
1.14,-111.48,73.02,165.78,0.1,1.2,0.11,1.25,0.31,0.73,-92.94,51.21,168.77,0.2,1.76,0.27,0.75,0.47,0.81,-156.25,5.27,8.57,1.71,1.71,0.19,0.53,0.94,1.06,-109.18,45.67,71.25,1.33,1.38,1.23,0.95,0.65,0.79
1.15,-111.6,74.2,164.91,0.15,1.05,-0.07,1.23,0.57,0.39,-92.99,52.97,168.61,0.28,1.77,0.17,1.05,0.38,0.46,-156.21,5.98,10.44,1.98,1.6,0.51,0.64,0.98,1.15,-107.54,47.68,73.62,1.25,1.34,1.32,1.18,0.52,0.73
1.16,-111.64,75.15,163.9,0.08,1.0,0.1,1.12,0.27,0.67,-93.08,55.19,168.36,-0.03,1.76,-0.09,1.24,0.19,0.42,-156.08,6.94,12.59,1.69,1.85,0.48,0.29,1.2,1.04,-106.02,49.47,75.69,1.13,1.42,1.53,1.14,0.55,0.86
1.17,-111.49,75.8,163.64,0.15,1.03,0.03,1.1,0.31,0.51,-93.2,55.93,167.99,0.23,1.91,0.05,1.2,0.29,0.49,-156.13,7.65,13.62,1.99,1.5,0.25,0.43,1.18,1.11,-105.36,50.37,77.24,1.28,1.32,1.49,1.14,0.71,0.94
1.18,-111.9,76.04,163.19,0.1,0.8,0.13,1.19,0.34,0.49,-93.02,57.22,167.98,0.32,1.87,0.05,1.3,0.34,0.59,-155.81,8.35,14.66,1.77,1.82,0.48,0.28,1.1,1.06,-104.63,51.11,78.16,1.19,1.47,1.48,1.04,0.68,0.9
1.19,-112.08,77.15,162.17,0.37,0.79,-0.03,1.01,0.36,0.35,-93.1,59.14,167.41,0.01,1.97,0.13,1.2,0.29,0.58,-155.86,9.85,16.91,1.88,1.78,0.22,0.33,1.09,1.21,-102.96,52.99,80.67,1.26,1.36,1.52,1.17,0.59,0.79
1.2,-111.83,77.81,161.53,0.06,0.54,0.21,1.02,0.45,0.39,-93.24,60.99,167.02,0.09,1.86,0.19,1.34,0.22,0.49,-155.42,11.79,19.26,1.81,1.74,0.28,0.4,1.13,1.06,-101.21,54.5,83.75,1.2,1.45,1.3,1.1,0.83,0.85
1.21,-111.9,78.53,160.84,0.23,0.67,0.02,0.96,0.44,0.46,-93.12,63.01,166.24,0.29,1.7,0.0,1.3,0.3,0.53,-155.33,14.0,21.27,1.91,1.86,0.35,0.41,1.14,1.08,-99.55,56.4,86.81,1.06,1.46,1.52,0.99,0.85,0.73
1.22,-111.9,79.15,160.35,0.27,0.43,-0.03,0.85,0.4,0.3,-93.01,64.65,165.52,0.14,1.81,0.06,1.39,0.23,0.67,-154.79,16.41,23.62,1.85,2.02,0.3,0.54,1.14,0.94,-97.3,57.95,89.81,1.1,1.34,1.43,0.99,0.98,0.8
1.23,-111.97,79.68,160.08,0.3,0.39,0.0,0.67,0.42,0.44,-93.46,66.71,164.56,0.36,1.81,-0.06,1.16,0.3,0.49,-154.55,19.02,25.97,1.98,2.0,0.39,0.48,1.05,0.78,-95.52,59.57,93.1,0.89,1.15,1.64,0.65,0.99,0.98
1.24,-111.86,79.98,160.0,0.19,0.37,0.0,0.73,0.49,0.28,-93.28,68.49,163.73,0.18,1.38,-0.0,1.29,0.38,0.68,-153.85,21.6,27.95,1.98,1.87,0.67,0.7,1.06,0.76,-93.36,60.96,96.67,0.76,1.31,1.58,0.71,0.81,0.6
1.25,-111.8,80.68,159.96,0.34,0.1,0.06,0.64,0.2,0.22,-93.15,70.44,162.46,0.12,1.61,0.21,1.07,0.39,0.61,-153.42,24.35,30.3,1.77,2.0,0.44,0.74,0.97,0.91,-91.44,62.43,100.14,0.65,1.16,1.49,0.74,0.95,0.71
1.26,-111.89,80.96,160.36,0.17,0.1,0.02,0.57,0.48,0.41,-93.2,72.14,161.44,0.25,1.43,-0.07,1.07,0.4,0.49,-152.97,27.28,32.41,2.01,1.87,0.68,0.8,1.0,0.74,-89.36,63.54,104.09,0.65,1.06,1.55,0.78,1.07,0.53
1.27,-112.03,81.29,160.46,0.14,0.54,0.15,0.6,0.5,0.33,-93.17,74.01,159.97,0.22,1.56,0.06,1.25,0.44,0.54,-152.12,29.92,34.73,1.77,2.09,0.9,0.83,1.07,0.61,-87.4,64.73,108.02,0.64,1.07,1.46,0.93,0.8,0.77
1.28,-112.03,81.79,160.85,0.08,0.26,0.24,0.46,0.54,0.6,-93.35,75.56,158.61,0.03,1.43,-0.03,1.0,0.35,0.42,-151.57,32.66,36.9,1.97,1.97,0.84,0.98,1.07,0.72,-85.6,66.11,112.08,0.72,0.95,1.39,0.68,1.0,0.63
1.29,-111.94,82.09,161.44,0.09,0.22,0.28,0.54,0.56,0.49,-93.19,77.44,157.35,0.21,1.27,0.4,0.76,0.42,0.67,-150.59,35.28,39.37,1.72,1.99,0.59,1.23,1.03,0.54,-83.83,67.08,115.94,0.56,0.86,1.31,1.0,0.89,0.55
1.3,-112.02,82.46,162.04,0.19,0.19,0.09,0.46,0.52,0.68,-93.3,78.19,156.44,0.12,1.27,0.03,0.76,0.45,0.63,-150.28,36.41,40.54,1.62,1.96,1.0,1.25,1.16,0.47,-83.14,67.62,118.09,0.51,0.86,1.39,0.78,0.82,0.67
1.31,-112.24,82.34,162.19,0.18,0.12,0.3,0.47,0.47,0.6,-93.4,78.88,155.85,0.07,1.23,0.08,0.83,0.42,0.76,-149.76,37.77,41.72,1.7,2.33,0.83,1.31,0.98,0.68,-82.24,68.0,119.97,0.5,0.86,1.4,0.86,0.67,0.49
1.32,-112.39,82.52,162.69,-0.06,0.12,0.17,0.35,0.57,0.57,-93.39,80.28,154.57,0.23,1.17,0.05,0.83,0.5,0.57,-149.01,40.46,44.27,1.69,2.08,0.65,1.1,0.96,0.38,-80.96,68.86,124.36,0.63,0.84,1.56,1.05,0.7,0.57
1.33,-112.5,82.68,163.18,0.01,-0.02,0.21,0.42,0.46,0.59,-93.42,81.72,153.48,0.33,1.09,0.12,0.57,0.64,0.62,-148.03,42.62,47.01,1.67,1.98,0.69,1.32,1.22,0.57,-79.68,69.67,128.13,0.51,0.65,1.34,1.23,0.73,0.73
1.34,-112.79,83.03,163.7,-0.1,0.0,0.3,0.35,0.57,0.62,-93.66,83.22,152.39,0.12,0.92,0.01,0.58,0.73,0.48,-147.08,44.93,49.92,1.68,1.91,0.84,1.38,1.16,0.47,-78.78,70.18,131.99,0.39,0.5,1.29,1.18,0.66,0.65
1.35,-113.18,83.2,164.28,0.06,0.24,0.23,0.38,0.63,0.76,-93.58,84.02,151.23,0.14,0.92,0.18,0.52,0.77,0.66,-146.17,47.09,52.83,1.47,1.94,0.93,1.23,1.27,0.71,-78.05,70.75,135.5,0.57,0.51,1.13,1.51,0.51,0.56
1.36,-113.35,83.16,164.45,0.07,0.3,0.27,0.45,0.68,0.75,-93.51,85.25,150.63,0.29,0.77,-0.04,0.52,0.58,0.52,-145.15,48.92,56.26,1.45,1.81,0.83,1.17,1.2,0.61,-77.74,71.19,138.78,0.95,0.26,1.09,1.51,0.52,0.76
1.37,-113.69,83.18,164.33,0.09,0.33,0.35,0.57,0.49,0.86,-94.22,86.2,150.16,0.16,0.72,0.07,0.54,0.52,0.76,-144.03,50.79,59.66,1.59,1.97,0.76,1.46,1.15,0.48,-77.66,71.5,141.72,0.66,0.49,0.96,1.53,0.7,0.8
1.38,-114.22,83.11,163.91,0.08,0.21,0.31,0.4,0.46,0.89,-94.41,86.76,149.65,0.02,0.59,0.18,0.5,0.68,0.82,-143.18,52.08,63.03,1.51,1.57,0.69,1.2,1.36,0.72,-77.93,71.87,144.56,0.82,0.35,0.7,1.52,0.6,0.74
1.39,-114.26,83.02,163.52,0.21,0.45,0.37,0.37,0.6,0.83,-94.46,87.34,149.77,0.18,0.52,0.15,0.69,0.59,0.79,-142.08,53.48,66.74,1.43,1.72,0.67,0.98,1.28,0.84,-78.59,71.87,146.97,0.87,0.13,0.82,1.66,0.75,0.82
1.4,-114.88,82.79,162.84,0.25,0.13,0.2,0.52,0.47,0.7,-94.72,87.45,149.65,0.27,0.35,0.19,0.71,0.79,0.78,-141.34,54.8,70.57,1.5,1.68,0.55,1.01,1.16,0.86,-79.24,71.89,148.57,0.87,0.2,0.57,1.72,0.78,0.79
1.41,-114.99,82.64,162.27,0.32,0.48,0.25,0.42,0.75,0.87,-95.21,88.01,149.74,0.24,0.57,0.24,0.74,0.75,0.72,-140.28,55.76,74.12,1.36,1.55,0.51,1.06,1.37,0.82,-80.16,71.94,150.1,0.74,-0.03,0.58,1.84,0.96,0.74
1.42,-115.34,82.39,161.33,0.02,0.37,0.3,0.44,0.63,1.05,-95.28,88.26,149.82,0.05,0.3,0.03,0.55,0.97,0.87,-139.34,56.48,77.92,1.33,1.13,0.5,1.1,1.49,1.01,-81.13,72.01,151.17,0.81,0.28,0.61,1.93,1.07,0.61
1.43,-115.45,82.18,160.86,0.29,0.36,0.25,0.37,0.47,0.89,-95.45,88.15,149.75,0.08,0.46,0.07,0.65,0.63,0.68,-139.09,56.75,79.75,1.29,1.29,0.45,1.01,1.54,0.92,-81.91,72.06,151.21,0.94,0.19,0.22,1.81,1.21,0.61
1.44,-115.41,81.81,160.45,0.17,0.25,0.21,0.37,0.42,0.93,-95.42,88.29,149.71,0.24,0.42,0.01,0.57,0.72,0.88,-138.67,56.98,81.6,1.17,1.29,0.61,1.02,1.62,0.97,-82.52,71.99,151.76,0.88,0.06,0.18,1.9,1.12,0.62
1.45,-115.56,81.7,159.28,0.27,0.35,0.24,0.46,0.57,0.99,-95.87,88.22,150.01,0.2,0.14,-0.06,0.53,0.63,0.61,-137.85,57.76,84.93,1.18,1.0,0.42,0.85,1.54,1.13,-83.89,71.99,151.98,0.8,0.11,0.23,1.82,1.23,0.84
1.46,-115.78,81.19,158.5,-0.01,0.22,0.09,0.5,0.62,1.11,-96.18,88.2,150.26,0.23,0.29,0.05,0.84,0.56,0.7,-137.28,58.09,88.41,0.99,0.97,0.43,1.05,1.55,1.26,-85.14,71.93,151.47,0.76,0.11,0.18,1.97,1.4,0.88
1.47,-115.78,80.97,157.5,0.09,0.26,0.28,0.67,0.55,1.05,-96.32,88.04,150.44,0.17,0.34,-0.02,0.68,0.67,0.78,-136.46,58.31,91.58,0.85,0.84,0.29,1.09,1.69,1.22,-86.69,71.97,150.95,0.75,-0.06,0.25,2.03,1.4,0.66
1.48,-115.78,80.47,156.9,0.12,0.29,0.2,0.7,0.58,1.11,-96.57,88.12,150.5,0.13,0.38,0.08,0.82,0.57,0.94,-136.0,58.76,94.69,0.73,0.78,0.03,1.25,1.73,1.18,-88.16,71.84,150.13,0.91,0.02,0.05,1.95,1.41,0.8
1.49,-115.7,80.12,156.31,0.25,0.26,0.13,0.76,0.54,1.36,-96.67,88.07,150.84,0.11,0.22,0.06,0.71,0.61,0.89,-135.2,58.66,97.34,0.54,0.54,0.23,1.13,1.51,1.19,-89.37,71.84,149.19,0.75,0.09,0.02,2.12,1.4,0.54
1.5,-115.78,79.75,155.9,0.02,0.28,0.29,0.54,0.79,0.95,-96.89,87.91,150.58,0.36,0.23,0.21,0.83,0.72,0.91,-134.69,59.07,99.54,0.67,0.46,0.28,1.09,1.96,1.28,-90.66,71.73,148.2,0.33,-0.06,-0.0,2.19,1.39,0.69
1.51,-115.62,79.53,156.11,0.18,0.28,0.08,0.56,0.59,1.34,-97.18,88.04,150.54,0.33,0.3,0.06,0.7,0.48,0.84,-134.29,58.97,101.77,0.69,0.25,0.44,0.8,1.72,1.13,-91.71,71.84,147.06,0.55,0.05,-0.14,2.21,1.24,0.67
1.52,-115.32,79.02,156.22,0.29,0.24,0.14,0.89,0.77,1.07,-97.33,88.07,150.54,0.19,0.19,0.26,0.75,0.72,0.9,-133.59,59.28,103.3,0.49,0.44,0.36,0.95,1.59,1.11,-92.56,71.72,146.3,0.29,0.04,0.06,1.95,1.02,0.53
1.53,-115.31,78.88,156.52,0.25,0.2,0.0,0.72,0.83,0.97,-97.36,87.95,150.32,0.23,0.27,0.03,0.55,0.74,0.83,-133.31,59.78,104.78,0.42,0.37,0.42,0.98,1.44,0.95,-93.05,71.97,145.48,0.2,0.04,0.12,2.18,1.09,0.64
1.54,-115.12,78.43,157.05,0.06,0.22,0.06,0.61,0.94,1.2,-97.53,88.25,150.3,0.15,-0.02,0.2,0.69,0.5,0.7,-132.43,59.99,105.92,0.39,0.39,0.39,0.79,1.37,1.02,-93.78,71.97,145.08,0.27,0.04,0.26,1.78,0.97,0.51
1.55,-114.75,78.2,157.74,0.26,0.34,0.08,0.52,0.78,0.99,-97.5,88.17,150.23,-0.11,0.34,0.13,0.51,0.52,0.76,-131.92,60.09,106.75,0.33,0.11,0.57,0.66,1.21,0.87,-93.93,72.15,144.8,0.14,0.31,0.29,1.75,0.86,0.77
1.56,-114.55,78.1,158.08,0.26,0.36,0.24,0.8,0.86,0.87,-97.33,88.14,150.06,0.14,0.31,0.13,0.69,0.44,0.74,-131.65,60.45,107.21,0.11,0.01,0.33,0.67,1.05,0.88,-93.98,72.23,145.05,-0.03,0.01,0.35,1.75,0.82,0.77
1.57,-114.51,78.12,158.42,0.26,0.22,0.04,0.71,0.97,1.0,-97.33,87.83,150.14,0.14,0.29,-0.03,0.58,0.57,0.67,-131.15,60.95,107.39,0.22,0.15,0.54,0.62,0.96,0.75,-93.87,72.54,144.68,0.16,0.11,0.41,1.6,0.62,0.41
1.58,-114.21,77.65,159.11,0.18,0.29,0.22,0.7,0.99,0.73,-97.54,87.89,149.77,0.25,0.56,0.23,0.56,0.5,0.82,-130.61,61.27,107.99,0.0,0.22,0.5,0.53,1.01,0.61,-93.93,72.86,145.07,0.2,0.16,0.2,1.17,0.76,0.52
1.59,-113.72,77.35,159.99,0.34,0.26,-0.01,0.61,0.76,0.71,-97.35,87.88,149.82,0.15,0.31,-0.12,0.6,0.28,0.76,-129.96,61.66,108.17,0.12,0.17,0.64,0.6,0.75,0.77,-93.66,73.01,145.79,0.02,0.1,0.46,1.09,0.51,0.66
1.6,-113.44,77.06,160.72,0.27,0.32,0.27,0.56,0.76,0.58,-97.32,87.57,149.57,0.1,0.45,0.22,0.52,0.43,0.67,-129.3,62.15,108.51,0.18,0.18,0.46,0.5,0.55,0.63,-92.99,73.47,146.77,0.03,0.22,0.44,0.9,0.6,0.54
1.61,-112.96,76.96,161.65,0.09,0.35,0.08,0.56,0.6,0.61,-97.14,87.32,149.36,0.08,0.31,0.18,0.54,0.29,0.78,-128.49,62.86,108.52,0.19,0.17,0.43,0.36,0.48,0.81,-92.45,73.88,148.31,-0.11,0.45,0.49,0.75,0.59,0.69
1.62,-112.36,76.47,162.45,0.31,0.43,0.06,0.42,0.61,0.54,-96.83,87.12,149.14,0.05,0.24,0.23,0.43,0.25,0.59,-127.95,63.41,108.68,0.35,0.42,0.46,0.2,0.56,0.74,-91.76,74.32,150.11,0.07,0.25,0.52,0.56,0.43,0.68
1.63,-111.82,76.12,162.86,0.5,0.36,0.23,0.5,0.56,0.33,-96.61,86.78,149.1,0.21,0.45,0.18,0.46,0.32,0.63,-127.23,64.09,108.63,0.05,0.28,0.35,0.16,0.39,0.62,-90.85,74.91,151.88,0.1,0.31,0.47,0.37,0.7,0.58
1.64,-111.14,76.1,163.14,0.25,0.29,-0.02,0.36,0.68,0.41,-96.36,86.32,148.86,0.2,0.35,0.25,0.33,0.28,0.64,-126.42,64.76,108.51,0.21,0.21,0.49,0.32,0.32,0.85,-90.26,75.22,153.96,0.09,0.37,0.48,0.43,0.43,0.68
1.65,-110.51,75.62,162.99,0.46,0.27,0.14,0.38,0.54,0.27,-96.22,85.78,148.8,0.13,0.43,0.06,0.28,0.14,0.48,-125.83,65.19,108.64,0.16,0.19,0.41,0.34,0.23,0.81,-89.5,75.61,156.01,-0.02,0.4,0.53,0.24,0.41,0.64
1.66,-109.93,75.47,163.1,0.31,0.15,0.18,0.41,0.49,0.35,-95.76,85.56,148.9,0.03,0.43,-0.05,0.37,0.23,0.49,-125.3,65.55,108.5,0.28,0.36,0.27,0.37,0.32,0.9,-88.54,76.14,158.18,0.13,0.55,0.53,0.22,0.67,0.77
1.67,-108.99,74.99,162.83,0.19,0.4,0.13,0.41,0.42,0.29,-95.45,85.09,148.62,0.1,0.27,0.14,0.23,0.11,0.73,-124.88,66.19,108.86,0.08,0.15,0.39,0.2,0.31,0.9,-87.84,76.78,160.34,-0.05,0.38,0.57,0.33,0.62,0.97
1.68,-108.7,74.52,162.47,0.29,0.29,0.01,0.38,0.31,0.52,-95.04,84.57,148.68,0.24,0.53,0.28,0.32,-0.03,0.76,-124.26,66.54,108.91,0.03,0.3,0.38,0.36,0.34,0.88,-87.13,77.13,162.38,0.23,0.38,0.46,0.3,0.61,0.96
1.69,-107.99,74.59,162.38,0.26,0.17,0.14,0.42,0.42,0.5,-94.79,84.3,148.86,0.16,0.24,-0.14,0.33,0.05,0.78,-123.85,66.54,108.67,0.31,0.27,0.32,0.63,0.37,1.03,-86.91,77.35,163.17,-0.01,0.51,0.65,0.48,0.56,0.82
1.7,-107.72,74.36,162.01,0.41,0.35,0.13,0.3,0.55,0.56,-94.58,84.05,148.73,0.36,0.52,0.18,0.37,0.09,0.47,-123.81,66.89,109.15,0.2,0.25,0.48,0.44,0.55,1.01,-86.54,77.51,164.02,0.22,0.41,0.37,0.64,0.63,0.93
1.71,-107.01,73.94,161.46,0.24,0.36,0.03,0.39,0.48,0.47,-94.11,83.58,148.77,0.19,0.34,0.19,0.25,0.2,0.86,-123.31,66.99,109.07,0.06,0.13,0.18,0.69,0.44,1.14,-85.93,77.99,165.34,0.28,0.34,0.42,0.8,0.63,1.12
1.72,-106.21,73.7,160.66,0.28,0.2,0.2,0.33,0.61,0.43,-93.68,83.11,148.93,0.33,0.49,0.06,0.61,0.33,0.65,-122.78,67.27,109.48,0.16,0.16,0.26,0.69,0.67,1.02,-85.51,78.45,166.36,0.01,0.22,0.34,0.95,0.82,1.19
1.73,-105.69,73.61,160.1,0.16,0.16,-0.16,0.44,0.35,0.52,-93.16,82.6,149.2,0.35,0.4,0.05,0.66,0.14,0.93,-122.41,67.68,109.96,0.19,0.27,0.27,0.78,0.62,1.29,-85.18,78.94,166.88,0.15,0.23,0.35,0.95,0.86,1.0
1.74,-105.2,73.34,159.38,0.28,0.29,0.11,0.38,0.54,0.57,-92.73,82.25,149.2,0.29,0.19,-0.04,0.77,0.33,1.02,-122.15,67.93,110.4,0.21,0.27,0.46,1.02,0.78,1.06,-84.64,79.33,166.91,0.06,0.37,0.28,1.24,1.0,1.23
1.75,-104.58,72.78,158.51,0.3,0.17,0.2,0.37,0.5,0.68,-92.3,81.7,149.19,0.33,0.08,-0.09,0.58,0.45,0.99,-121.61,68.32,111.09,0.24,0.16,0.22,0.82,0.72,1.15,-84.68,79.44,166.71,0.3,0.01,0.3,1.44,0.92,1.05
1.76,-104.07,72.6,157.87,-0.08,0.18,0.2,0.22,0.6,0.68,-92.01,81.19,149.65,0.19,0.34,0.13,0.73,0.5,1.03,-121.03,68.74,111.54,0.12,0.27,0.62,1.04,1.0,1.2,-84.15,80.04,165.79,0.27,0.07,0.39,1.47,1.05,1.04
1.77,-103.53,72.49,157.29,0.21,0.18,0.23,0.51,0.66,0.61,-91.64,80.99,149.66,0.07,0.19,-0.03,0.68,0.48,1.28,-120.7,69.17,112.16,0.19,0.18,0.45,1.07,0.92,1.38,-83.75,79.9,164.28,0.06,0.07,0.29,1.6,1.04,1.03
1.78,-103.16,72.2,156.43,0.29,0.32,0.12,0.36,0.79,0.73,-91.24,80.62,149.81,0.19,0.29,0.09,0.84,0.38,1.12,-120.07,69.71,113.16,0.15,0.05,0.65,1.02,1.16,1.31,-83.44,80.04,162.58,0.12,0.2,0.37,1.52,1.2,0.81
1.79,-102.53,72.14,155.99,0.06,0.3,0.12,0.48,0.83,0.6,-91.13,80.4,150.07,0.11,0.16,0.31,0.72,0.33,1.26,-119.54,70.34,113.74,0.11,0.03,0.65,0.92,1.21,1.34,-82.93,80.02,160.27,0.15,-0.12,0.49,1.61,1.35,1.12
1.8,-101.94,71.77,155.45,0.22,0.23,0.02,0.28,0.81,0.79,-90.77,80.03,149.84,0.21,0.26,0.19,0.86,0.5,1.22,-118.98,71.09,114.53,0.14,0.11,0.68,1.17,1.26,1.42,-82.55,79.91,157.7,0.2,0.02,0.6,1.54,1.21,0.8
1.81,-101.94,71.65,154.9,0.12,0.29,-0.07,0.29,0.82,0.48,-90.62,79.95,150.03,0.0,0.51,0.03,0.87,0.44,1.45,-118.24,71.66,115.34,0.09,0.23,0.56,1.05,1.28,1.18,-81.97,79.55,154.54,0.13,0.05,0.92,1.49,1.32,0.94
1.82,-101.67,71.26,154.79,0.11,0.28,0.11,0.41,0.6,0.42,-90.38,79.67,150.31,0.11,0.31,0.09,0.75,0.61,1.44,-118.0,72.05,115.85,0.31,-0.06,0.64,1.28,1.54,1.24,-81.69,79.48,152.87,0.1,0.05,0.54,1.47,1.38,0.76
1.83,-101.65,71.19,154.57,0.21,0.1,0.16,0.53,0.66,0.49,-90.18,79.63,150.21,0.18,0.32,0.02,0.87,0.46,1.39,-117.77,72.23,116.37,0.27,0.2,0.68,1.01,1.3,1.42,-81.36,79.18,151.46,0.08,0.07,0.8,1.52,1.48,1.08
1.84,-101.58,71.04,154.07,0.19,0.13,0.26,0.49,0.45,0.53,-90.14,79.6,150.16,0.1,0.09,-0.01,0.68,0.64,1.35,-117.16,72.98,117.11,0.16,0.0,0.69,1.23,1.27,1.63,-80.85,78.73,148.12,0.38,0.04,0.73,1.3,1.37,0.81
1.85,-101.3,70.74,153.78,0.15,0.25,0.11,0.37,0.47,0.57,-90.4,79.61,150.36,0.3,0.2,0.02,0.8,0.35,1.39,-116.55,73.93,117.79,0.23,0.22,0.64,0.95,1.29,1.16,-80.01,78.24,144.59,0.2,0.22,0.91,1.22,1.24,0.91
1.86,-101.15,70.79,153.64,0.01,0.11,-0.01,0.29,0.53,0.45,-90.11,79.56,150.58,0.21,0.09,0.21,0.81,0.57,1.21,-116.05,74.76,118.49,0.09,0.08,0.71,0.85,1.13,1.07,-78.87,77.53,141.06,0.24,0.31,0.93,1.24,1.33,1.04
1.87,-101.15,70.3,153.26,0.15,0.05,0.24,0.2,0.33,0.5,-90.47,79.8,150.38,0.09,0.21,0.1,0.43,0.56,1.0,-115.47,75.44,119.04,0.23,0.14,0.6,0.71,1.05,1.17,-77.75,76.56,137.35,0.47,0.17,0.88,1.18,1.14,1.12
1.88,-101.37,70.05,153.19,0.24,0.09,0.16,0.41,0.48,0.69,-90.54,79.43,150.54,0.25,0.2,0.13,0.49,0.53,0.88,-115.1,75.99,119.62,0.26,0.13,0.76,0.66,0.88,1.01,-76.72,75.65,133.73,0.22,0.23,1.08,1.15,1.2,1.34
1.89,-101.2,69.8,152.87,0.33,0.1,0.17,0.32,0.41,0.48,-90.66,79.85,150.55,0.23,0.26,0.03,0.34,0.43,0.67,-114.91,76.69,120.06,0.13,0.08,0.43,0.69,0.73,0.83,-75.66,74.58,130.32,0.09,0.38,1.19,1.01,1.04,1.59
1.9,-101.43,69.68,152.81,0.31,0.08,0.21,0.13,0.67,0.61,-90.96,79.66,150.93,0.29,0.16,-0.09,0.4,0.26,0.75,-114.47,77.38,120.42,0.44,0.37,0.35,0.33,0.51,0.62,-74.28,73.56,126.86,0.17,0.46,0.94,0.78,0.74,1.78
1.91,-101.77,69.41,152.43,0.14,0.03,0.15,0.37,0.67,0.55,-90.98,79.79,150.6,0.45,0.04,-0.03,0.18,0.1,0.61,-114.07,77.95,120.72,0.3,0.11,0.35,0.13,0.46,0.35,-73.29,72.49,123.28,0.09,0.48,1.14,1.03,0.69,1.99
1.92,-101.91,69.31,152.47,0.21,-0.11,0.12,0.07,0.65,0.6,-91.45,79.96,150.73,0.35,0.17,0.16,0.06,-0.02,0.33,-113.88,78.2,121.09,0.07,-0.16,0.52,-0.05,0.21,0.37,-72.03,71.33,120.3,0.0,0.64,1.05,0.84,0.47,2.32
