0.02,-47.55772635091693,79.57720207246354,117.94730677485144,-96.125502485078,87.92193235277324,178.02756638427138,-224.68544694048077,0.6808976485419767,13.449471805593122,-147.86831369096808,16.73598336754771,20.425785588720327
0.03,-47.64118417242387,79.28563357209126,118.09401665169337,-95.98991411378069,87.70987182260383,177.97597063781424,-224.64906405033312,0.7024162024680914,13.303029387538423,-148.0254236026594,16.724638287470015,20.396166352285267
0.04,-47.44297698014268,79.41122887302659,118.0058054980829,-96.04649209483752,87.81156468065242,177.92777165370782,-224.70296801991503,0.7717825552391812,13.24935095699672,-147.8153961481247,16.82538561837214,20.511953018244974
0.05,-47.5349136038247,79.66370547243011,118.30734750847802,-96.03097980016632,87.63026117394222,177.95730995575863,-224.7993731545794,0.6664895672697395,13.23828972983394,-147.7884101871567,16.570432540723978,20.34281902189889
0.06,-47.36922019043679,79.36853724336403,118.08605115356188,-96.14321972939982,87.78125744671266,177.9523679444444,-224.6820926702929,0.8894956745381927,13.200318681319075,-147.89496751949875,16.789109421677985,20.38502282871093
0.07,-47.51839889187984,79.51631758061923,118.227291282884,-96.0878509300814,87.62741659786359,178.04483909157594,-224.91453436157397,0.7451913599338769,13.2049374933535,-147.89282500002304,16.806162732589833,20.3847632718974
0.08,-47.60896668428129,79.26974945996675,118.42735325454308,-96.14629331018624,87.68152526518992,177.9401882715253,-224.5838276084652,0.8147468348995585,13.283552361509894,-148.02234280990874,16.761305144528226,20.40577852464515
0.09,-47.497612319215335,79.27415516008851,118.56249576468694,-96.00290792399744,87.84845326933801,178.11452526043607,-224.589979969465,0.828087200710745,13.39462549651676,-148.07579448179925,16.803658637249587,20.544160540556003
0.1,-47.35665026550284,79.26123562793173,118.39837697344488,-96.07991366806792,87.68214345554789,177.93012419764744,-224.56072534042443,0.7825172083157992,13.40882117187351,-147.9019424965307,16.739423577430586,20.5473885141592
0.11,-47.55312016946086,79.46628164198427,118.42668656559933,-96.090507660579,87.87812638896716,178.11347856980922,-224.57447930105045,0.8887000765792425,13.25139476476437,-147.88090272040742,16.645116657853578,20.431419292551976
0.12,-47.61562435387478,79.35215268758235,118.43941924282524,-96.12433137782313,87.82422217379045,177.98269469480027,-224.70944897594185,0.6358677836629775,13.469964371520105,-147.8816431388644,16.66655674466621,20.433497519905178
0.13,-47.72657075663478,79.48082432945937,118.5653408661659,-96.15417075483327,87.67836752798742,178.11336515714777,-224.8681576843655,0.6511799861803248,13.06251944149453,-147.84230904582483,16.774319277984272,20.531486377527525
0.14,-47.57407795026752,79.29686308867706,118.65003733215433,-95.9913988148902,87.6995000239394,177.9533646532738,-224.6056284452545,0.7656569876125823,13.2098069115198,-147.71605365549,16.760107634636476,20.417439356149124
0.15,-47.53287455911699,79.41524780405774,118.63609128945777,-95.9682393519502,87.8666279125699,178.1443192275937,-224.5024796243201,0.7250630808127434,13.337533960762482,-147.76309249939916,16.626439873439374,20.61666573542466
0.16,-47.747825373243536,79.46078540556057,118.51396570161116,-95.9549376329544,87.51246191871968,178.21170457313494,-224.555987289134,0.7978805388805508,13.52155344240772,-147.86556435157578,16.739717831816378,20.529083422703977
0.17,-47.57686370695969,79.38409373760153,118.78312617065032,-96.13343427407683,87.51888103563388,178.09848239899648,-224.6528896345723,0.7890864351298006,13.160007078089643,-147.6961519676313,16.849700200057875,20.57814749107274
0.18,-47.540692876229066,79.38272190351913,118.6621817941915,-95.96909800711178,87.63318500283717,177.95726026031477,-224.69543353243176,0.7514768440823801,13.113449186032453,-147.65166341584433,16.814123285384554,20.367805511672618
0.19,-47.49255016295452,79.15893253217304,118.95629281289352,-96.1046518915125,87.62700738714284,178.1944888709311,-224.5029978772859,0.6955249822892972,13.154472000464628,-147.76260532468368,16.929145989093126,20.465235809655223
0.2,-47.64274031732997,79.33256158159992,118.86429670690944,-96.0121439542877,87.53017023870171,178.08142837762628,-224.4042651387541,0.8426264560527482,13.405266455508611,-147.7892607973137,16.753917444685552,20.43394006611824
0.21,-47.57372054238176,79.39181965823367,118.79772474040642,-96.1570212929912,87.63920389396085,178.09533547684617,-224.43140992551807,0.8023460408495237,13.29121374546652,-147.82878145489087,16.599567382302023,20.32847207614753
0.22,-47.41929109187144,79.42903552286246,119.17293658468712,-96.12724064567097,87.53301100766811,178.20027174105155,-224.42453124359704,0.883215494244824,13.269658522587438,-147.6980566828154,16.777083765483162,20.37793490919129
0.23,-47.37342402524147,79.27524017599623,119.0235704845274,-96.10755596633504,87.66097496965338,178.1718275835441,-224.45224650330505,0.7957958082311846,13.264853303099756,-147.76403603511088,16.704863839661574,20.68381693390864
0.24,-47.4598730635067,79.3263951420606,119.0815673681504,-96.16333863140169,87.4947277964453,178.0060133043839,-224.465134622798,0.8974995737053088,13.219205717620213,-147.44521336556912,16.52850119249208,20.45835208017004
0.25,-47.48462376575653,79.3033422089176,119.06972596976502,-96.03861387037443,87.29772938202717,178.26375957583753,-224.5497977605027,0.8050538799983655,13.388681034777878,-147.66339862749962,16.734389213893973,20.473302586596496
0.26,-47.57192362265768,79.28980783991787,119.1641050750582,-96.0583949830876,87.36392553168139,178.20005743858695,-224.52182867951225,0.8419809902641443,13.253901373144508,-147.49616347590717,16.829863043422545,20.210407147541066
0.27,-47.50991546268717,79.44156314717067,118.91507941337936,-96.07431754454907,87.42500350805922,178.15540542021435,-224.3925294005961,1.073688755081517,13.154290665083382,-147.595997440882,16.96149449995937,20.41050412336353
0.28,-47.46174262194038,79.3564413793011,119.19445245667342,-95.92651162695267,87.32855787455726,178.23119326891168,-224.4095117976484,0.8285784877474099,13.322841475744111,-147.48931332448856,16.9160145942714,20.41343043398036
0.29,-47.47773554825381,79.4253354415006,119.16564605391802,-96.13103155117294,87.41137848828586,178.25513453019354,-224.3778269669692,0.818748024478502,13.1309095079311,-147.6989291653354,16.833594998108943,20.507368026192804
0.3,-47.58226367304155,79.3695802483485,119.10104741861358,-95.88404639304186,87.28842785268067,178.19908461811505,-224.404431290619,0.90791550603703,13.264159216066464,-147.59459335355513,16.77531062299311,20.50746704825613
0.31,-47.46491058320277,79.35006257911094,119.10965640613402,-96.15692819377226,87.34739518677034,178.2450072679967,-224.5416994390848,1.1196210557196302,13.072908724188228,-147.53108991788037,16.69880877583064,20.397122351571262
0.32,-47.36621249061493,79.2694841082183,119.11895780905122,-96.12772671573134,87.04684675576715,178.1987290488695,-224.3159860812996,0.9161869101339865,13.294465894139424,-147.60010542741773,16.70305170490049,20.55729284997406
0.33,-47.553607123977024,79.43131540678398,119.17011838954224,-96.07310597952544,87.18649648536632,178.22266092981062,-224.4130704912181,0.7836691499647079,13.097653694204704,-147.44147161518464,17.025963281679957,20.47299082309181
0.34,-47.61127765256831,79.20179899135626,119.19349989822304,-96.09449788360176,87.1576423424508,178.30947386283594,-224.2861318178922,0.8099786641073026,13.236352457342964,-147.42354992949632,16.752713325500267,20.21906042404065
0.35,-47.310399178504944,79.32308026633828,119.3040387846406,-96.002818999268,87.2856472937112,178.0887202123596,-224.30335292170332,0.8193269785274031,13.248741767527337,-147.394262068326,16.769505485696655,20.4229830823821
0.36,-47.39942048721013,79.19076885335087,119.28192657577264,-96.00589181647156,86.99488546577567,178.33263136193878,-224.3562941777404,1.059076967961971,13.456523923926335,-147.60912594342022,17.01103901339561,20.24697042290116
0.37,-47.26111598158687,79.31065467370708,119.12313609210106,-96.23132983904456,86.98041852914331,178.33363894971464,-224.3826372606472,1.0878219414184782,13.332121626699507,-147.42382526320236,16.933464253968104,20.414067396516376
0.38,-47.51961813064676,79.134787637113,119.16560686562752,-96.03853858675568,87.06685061315709,178.2504988859586,-224.40356224816512,1.0396850924548025,13.45346263678598,-147.37586418899565,16.919370224544487,20.171300282822088
0.39,-47.37256871513298,79.40357198890736,119.1854295526042,-95.93441607261217,86.98520978337343,178.39404314421932,-224.28344369936133,1.02732993572243,13.260956358747563,-147.22276133561493,16.965857346999005,20.478276500493543
0.4,-47.44874428664312,79.21876532347883,119.16738680637005,-95.99586215747011,86.92044532774538,178.48352489426875,-224.3191381678125,0.904564216741632,13.25078345121089,-147.21794206174303,16.862898707987775,20.460538697190465
0.41,-47.45958496122016,79.20345723013999,119.19158210511196,-96.03376411057702,87.0929568179153,178.43867376610967,-224.2695986558244,0.691468267732633,13.44312204031184,-147.18329163699678,16.901525869406782,20.479669064022023
0.42,-47.3823595793894,79.22618574529633,119.08914960015896,-96.00093738549153,87.02206351633387,178.1561443275441,-224.36342054648384,0.8228422022302424,13.32660402947986,-147.27038034059476,16.78604728600465,20.44484516216818
0.43,-47.45739801434368,79.16622293338273,119.1231531675778,-96.03551302111866,86.86894648965904,178.34032313019063,-224.344987386188,0.981928236583632,13.307144847790932,-147.15792038637417,16.919175624123426,20.39529566991173
0.44,-47.65134008664896,79.31140499357791,119.2754667351376,-96.09909848055702,86.60982742661697,178.39434672810123,-224.28657133589016,0.8846868603029433,13.220033039637238,-146.8590203086487,16.891642286490473,20.34530573950601
0.45,-47.36745430934496,79.33339267574645,119.40796399414717,-95.95963154289102,86.67888050320803,178.34257588648805,-224.19366025610088,0.8276266315395306,13.3858164920127,-146.6273746170779,17.016272027734903,20.52652362046443
0.46,-47.46729340452433,79.36921769721397,119.7329251756962,-95.95948868047344,86.4938501374024,178.5130926377552,-224.13457388138025,0.9869010062460052,13.33579739306397,-146.3325882899729,17.05038129767256,20.37195242034632
0.47,-47.28484812767976,79.31966841242682,119.9934017815854,-95.97810035200509,86.33432866630164,178.59151427299,-224.1098739762115,1.0558141003443775,13.155947387694786,-146.03074870631724,17.398014412495215,20.55864696339354
0.48,-47.34694003139254,79.34535544158602,120.2776383088951,-95.9151851596409,86.32632809596848,178.62701835527469,-223.9894900719759,1.0055128906632316,13.420075375983036,-145.9401882355472,17.576998610556306,20.578419848502037
0.49,-47.53234562685414,79.41934186561924,120.04348925771504,-95.85005947176025,86.06581387884665,178.61514947232362,-223.95296636047047,1.0580742646459418,13.358994225667978,-145.68104475737832,17.51228013036242,20.567433032374726
0.5,-47.49702682582864,79.32008302806835,120.4725554036376,-95.9597902947146,86.00714774200928,178.74877697002327,-224.1026388251708,1.2824932969116636,13.511683956045442,-145.5163238888255,17.835153317478074,20.44860364787163
0.51,-47.49382781176084,79.2405126187611,120.44713148062388,-96.09577254715518,85.67199155020533,178.68943013331935,-223.80066537783827,1.3494699242646593,13.469373786303944,-145.3339192496915,18.16243071542588,20.535103488987502
0.52,-47.697175412831726,79.19794751195607,120.3411319742754,-96.06741911813656,85.78087112261059,178.81757963586412,-223.84455997186825,1.3909974224205264,13.34192902861156,-145.40856442209196,18.291033588757674,20.87170040520872
0.53,-47.60358544730853,79.14228410156787,120.47666045414812,-95.96117324160105,85.38339164059849,178.88432795950487,-223.6325253156672,1.655797340284007,13.66221759205888,-145.9660761298419,18.310787755383,20.8810667188462
0.54,-47.51841073254575,79.11076091303417,121.22517939126332,-96.09879124806712,85.09512433561856,178.9530536656173,-223.5986694136187,1.8396726162795087,13.6763836046013,-146.2853667909002,18.69089701944672,21.19097087675965
0.55,-47.64944683935769,79.03117154120544,121.61003698250808,-95.93167096996184,84.56212329026168,179.01220912030678,-223.4384282442314,1.9688156223026227,13.820887209586264,-145.7926768859209,18.563443635410177,21.35423549546917
0.56,-47.651190018934784,79.0750666759806,121.62843381778038,-95.8565985335398,84.26432600542931,179.1344251093187,-223.8073574412908,2.020020089319844,13.946060971285393,-145.9779027357239,19.27627248257836,21.285509999394755
0.57,-47.6730672516,79.21443085140207,121.71009283990762,-96.11505383144063,83.50022387238776,176.8061699435134,-223.77430799012072,2.4307853545530382,14.09539763822438,-145.72689738945118,19.579470387684413,21.349279456395703
0.58,-47.60629665032237,79.00844283433979,121.89364782817336,-95.92152622101212,83.1021415542787,174.0319895597325,-223.47371162532875,2.6333135450317524,14.399274231275472,-145.2680719879822,19.67634127344925,21.281020876928206
0.59,-47.81187106377466,78.9158187500964,121.92699044737998,-96.12345502605795,82.11016869536758,175.45980362306076,-223.20361105182,2.7153895258218723,14.478730569331695,-145.17904778173045,20.21235620249333,21.63923755220293
0.6,-47.85428236029377,78.9761675623764,122.35555726700709,-96.1741395504634,81.11620823239687,176.851820158487,-223.183867366128,3.3875299463269584,14.661498641972797,-144.82801304762455,20.57129775700625,21.602501656386377
0.61,-48.09698424885298,78.9413316368136,122.58600044102415,-96.13672483260883,80.18223785366119,178.01554123132064,-223.00583429425868,3.5340881294142537,14.407736412894632,-144.70750876782327,20.58906120874508,21.50680971452685
0.62,-47.8235005513073,78.91589668221472,123.0898075945362,-96.09360166070046,79.16854343087104,179.00780087391612,-222.8102981439194,3.828763010758838,14.510874767025197,-144.6089455365534,20.782545472071703,21.530170132148037
0.63,-48.35435117338751,78.90149480877196,123.97574604567576,-96.12937514738532,78.00091147739457,180.08241409327417,-222.30721807088213,4.063552846675164,14.548619490200885,-144.2823129184547,21.159094374734604,21.36286460072297
0.64,-48.44277813497828,79.0567367967925,124.21037316924668,-96.11301406706995,77.42893975230831,179.59427420831784,-222.415822890342,4.211579072628606,14.489656019425407,-144.18982466333802,21.098181903816755,21.526556447086147
0.65,-48.528845552973145,78.96303252666677,124.4063350989938,-95.98204742040562,76.69880447340236,179.3338763269945,-222.4480055472734,4.480555283813711,14.271520555644326,-144.4110948576557,20.951052527697502,21.303197864857253
0.66,-48.55897530657292,78.94674584682727,124.40759090636732,-95.91905730917613,75.44295571375716,178.6064519038721,-221.8311088076024,4.613751717130416,14.138720597690638,-144.17290435424906,21.277104071948397,21.275105925114445
0.67,-48.58849222173036,78.82698591615814,124.52212695485946,-95.94146274462892,73.75680296097305,178.2214402981326,-221.8554622066773,4.983488155031256,13.952220320796869,-144.27850557785592,21.10912750156761,20.92616258855783
0.68,-48.7162933466245,79.11926981324726,123.54966729196656,-95.92000078027796,72.19485506812754,177.7471132500932,-221.96256288438596,5.278855763038128,13.520308554486006,-144.183621646054,21.13580407232155,20.7070401571192
0.69,-48.88272470011169,79.20285841500785,123.47945007615574,-96.09363809269004,70.41814719410499,177.63878134554892,-221.57983806154863,5.28103755922816,13.484101745860007,-144.56454272085782,20.97661494760813,20.58787691003233
0.7,-49.08352344231114,79.4196833056213,123.01875162189592,-96.04515915590775,68.16849652701873,177.5559864671811,-221.57483008098995,5.341682551751007,13.203373738097222,-144.5499932359435,20.708453419798687,20.20461231645787
0.71,-49.01471486672706,79.37762524959024,122.98473071426532,-96.00146414224486,65.93636946219341,177.30303985246428,-221.476368723794,5.512481932369329,12.670631084884354,-144.5055773573815,20.95527907527399,19.815132639198072
0.72,-49.17066569197962,79.30929790297057,124.07226656535629,-96.09921210149837,63.60424070432397,177.29080650977835,-221.4800817266766,5.575843268807687,12.28558796677194,-144.79829385977152,20.828676536507796,19.79696115151789
0.73,-49.2934767210127,79.20571548491797,125.46582587835196,-96.01445232287972,61.598792169093,177.07676856422106,-221.33639064233148,5.800324733567926,11.900336644370578,-144.65218155662,20.60988411542704,19.38740037086285
0.74,-49.20866897618942,78.92994331269259,128.14293647892475,-95.97960773835052,59.49604496462281,177.3817244818974,-221.42139472831133,5.805031920361758,11.196177282965197,-144.80073808644931,20.34108929038638,19.25365066758603
0.75,-49.21559922720933,78.41544467958853,132.7540772581889,-95.95782407767572,56.91171088792679,177.2278810829961,-221.15375454958027,5.738311704388384,10.595230858102209,-144.6584004362752,20.071579357181264,18.880715170595465
0.76,-48.99124051573708,77.70855958282516,137.61731388551732,-95.17300602837985,53.982746670437415,177.12906238878372,-220.7333384634812,5.74643627166961,9.963693901638008,-144.97275751389842,20.105442718894203,18.485220106949637
0.77,-48.87020207982339,76.51946242567669,141.5026576746419,-94.75227456198228,51.4691475886105,176.81509200041916,-220.7160401163716,5.519832438838784,9.314882964286296,-144.79038179035447,19.723272860164364,18.117564328120817
0.78,-48.95589431152275,75.58937241861672,144.87310567401565,-94.63504246460636,49.58007681828308,177.03715386257718,-220.26710704965276,5.636758528205316,8.76099100052003,-144.99588444173378,19.572636077521096,17.865878973726517
0.79,-49.32626716620769,74.5607014647863,144.8738069688319,-94.34714338289608,47.28177407870283,176.89227032729116,-220.0565030335553,5.435632582535924,8.218467545410428,-144.91863780089966,19.195369941045684,17.319866899377594
0.8,-49.27688449216911,73.8618331588997,144.9873835835441,-94.09216369328036,46.25367102278207,176.90631236967528,-219.68564475628227,5.4381375895114274,7.900569450866913,-145.01751892655437,19.311114099908774,17.272268330173972
0.81,-49.3846270597092,73.33694059584505,144.85228046116504,-93.98053213891652,45.13948186706015,176.72732905505742,-219.43570445635945,5.475054821072015,7.371907582690239,-144.93917440883612,19.02157309249518,16.842222353998253
0.82,-49.55834962577077,72.0469610069543,147.92279883909933,-94.05025021899648,42.29822482279059,176.94746902452457,-219.12643859345548,5.577094958166892,6.56983197813009,-144.90759115209949,18.75695339045797,16.446815516969945
0.83,-49.68321378543398,69.93218171334046,150.3473791167668,-94.11176271292946,40.39317154966792,176.64087643701177,-218.67501312935045,5.452743380640792,6.234937917870385,-144.9044215463639,18.61610274923597,15.719240827938345
0.84,-49.82686708620858,67.93134141894362,152.90977442535748,-94.00452254884148,38.66987800303087,176.76718427178565,-218.0898909612134,5.456884672886692,5.609063895719256,-144.60686609179305,18.46451906664533,14.888476696279596
0.85,-50.06129191324818,66.88438972119332,154.4392436881685,-93.81968915958976,37.29531033863237,176.74389782957545,-217.72965390068975,5.748405721737108,5.2046913971586495,-144.8516335400406,18.35528159939775,14.271014676181636
0.86,-49.60450535121047,65.94144522620623,156.00092516150252,-93.7781769059948,35.28485309924581,176.62534225332507,-217.03971462604247,5.713344138754379,4.9464456264304975,-145.16609618126256,18.285689561197124,13.611829486747894
0.87,-49.045813632530944,65.15905321233193,156.9450615098453,-93.82120866529068,32.86571253658151,176.42881987854247,-216.66829458535344,5.847102950507917,4.91512266888831,-145.84524242104672,18.32901772656602,13.39503433247726
0.88,-48.99708169746785,64.08289417516424,157.6738721120402,-94.12145705542676,30.373655625587357,176.33827627653028,-216.33923177387695,5.861018512035361,4.7865447611483445,-146.67162834612012,18.404529261998444,13.346572619612992
0.89,-48.67172700117438,62.75816969956036,158.41101659266988,-94.01467420545112,28.77216818362774,176.15619423176284,-215.74775931491035,5.775960241237493,4.722440680134797,-147.40256907457083,18.235150635856392,13.395121507189142
0.9,-48.51616564419656,61.50920810671975,159.58320727839936,-94.03965706682492,27.57167713859828,175.76669218767097,-215.48511046168176,6.139439878303989,4.824913439924103,-148.24668263026544,18.285799615432584,13.01316996940004
0.91,-48.30892674558627,60.21853899333056,160.18847515994904,-93.93508192165535,26.370451350346137,175.59881980425365,-215.37636516901117,5.66219230650171,4.714035943889467,-148.79181630778527,18.35640149919393,13.236694989256504
0.92,-48.38182385011245,58.72409451736182,161.23987952307462,-93.98143700376396,24.79443260876613,175.41184543953034,-215.60286031898184,6.070608002454957,4.591277644769628,-149.0474949203892,18.44374442571096,13.24926128758968
0.93,-48.30359529681775,57.51743170407239,161.71523057594516,-93.95787850156267,22.65942087953389,175.34737397048073,-215.56028085849195,6.147349216868303,4.667730428773113,-149.61595620688408,18.68646895686295,12.860079384355148
0.94,-48.246526763882535,56.5265227176507,162.17928468361472,-94.2289741342128,20.991316745871423,175.24273159230583,-215.44544110955977,6.292680256152575,4.512392559716851,-149.56065655950766,18.894468603112312,12.50573736262736
0.95,-48.08724281775279,55.874660509630544,162.7560602699179,-94.14890415086178,19.441732472852877,174.98340771165672,-215.62483981696204,6.376982092212137,4.301237743440378,-149.56003204395125,19.06316311309113,12.115584562314211
0.96,-48.01579607322949,55.44817379985311,163.1781139609883,-94.05254209861704,18.71043833214524,175.0307524769854,-215.4044777997053,6.498483658794986,4.450619316489576,-149.5546962829007,19.32653067408796,11.588548536580172
0.97,-47.64819807899072,54.862381339447815,163.22142112326094,-94.13454040312315,17.94813435024471,174.7577675918266,-215.4460980878763,6.605706572455054,4.538087799243189,-149.37161499935235,19.56658740944888,10.84591996009774
0.98,-47.01931607154624,54.41439927931416,164.23130759621597,-94.03075654679364,16.34555124851215,174.6614787123257,-215.05563283372427,7.116660830892974,4.345636312082215,-149.58265026802738,19.687954363382897,10.41324879146143
0.99,-46.37062143578233,53.68632198646041,165.0577738040932,-94.07213116938496,14.561036665689745,174.47864576292034,-214.95460205821897,7.59244962624332,4.944412773305512,-150.12546141959618,19.876071825491675,9.918614770289787
1.0,-45.73264021713042,53.05693410996088,165.66778604005043,-94.29245806479312,12.814819083996882,174.67639557032138,-214.61136569119256,7.839129086139047,5.299773876705561,-150.85810593279066,19.865846067989697,9.941718762266548
1.01,-45.105665703411645,52.456608517008014,166.321806241629,-94.26421245434086,11.997155595348016,174.42327399367122,-214.30385429589307,8.069856169718637,5.816532396425552,-151.40654536489487,20.076537552115347,10.028496202615312
1.02,-44.766020392355486,51.4882922952276,166.89848051482508,-93.8646920064172,11.08181073038431,174.180117041294,-214.2803708736436,8.36496073449812,6.167809974061929,-152.24779080394185,20.329628179266237,10.249627437953375
1.03,-44.77541684685037,50.437170345331765,167.53046632848,-93.87633147221958,10.374674378936009,174.015657840956,-213.9598833832256,8.502896978102106,6.374701367301462,-152.49836359701376,20.320685599795627,10.41546375875161
1.04,-44.44484080321399,49.782770442092016,167.99992320716495,-93.98309474556126,9.152710256747886,174.29457423213933,-213.8474216314228,8.787960343048365,6.305530461207647,-152.95629237295165,20.83966380390488,10.499335695927952
1.05,-43.77610928137064,49.22837975751539,168.33930232490872,-93.7667652136272,7.826622488013053,174.17404770105594,-213.32758555944784,9.14028095670093,6.071839128284098,-153.1517981286742,20.931593777445315,10.811078852989493
1.06,-43.40770257413567,49.034206712037296,168.9934716589544,-93.83365488364907,6.945039770923789,174.01978343422965,-212.84477393657767,9.269338837787307,6.320276513803219,-153.6976632364109,21.19648473983384,11.121063731442716
1.07,-42.9452481864566,48.58955272939369,169.08385322221318,-93.88228124901786,5.790483019780639,174.2271344048104,-212.76741800639925,9.328702201278892,6.576465935636929,-154.1478215534733,21.39639720813494,11.72228819543539
1.08,-42.74942655174452,48.16434627445099,169.44919498475932,-93.51807826017178,5.489148893517656,174.45279703075042,-212.61488746758977,9.428493613240716,7.04143799359024,-155.06616727270423,21.465298027348748,12.242880286669044
1.09,-42.690415263312765,47.85368110991406,169.79161843200134,-93.42032642118664,4.745020377351566,174.627542525821,-212.54015104574987,9.447966981747449,6.964112072035885,-155.38792424128712,21.46718172272519,12.780648803424612
1.1,-42.6586671427424,48.157304689176776,169.79102351361718,-93.53513462366452,3.872523145326714,174.8097226587109,-212.63007332588316,9.30288100404811,7.291253021466309,-155.6477715113651,21.27718057350252,13.395571544545788
1.11,-42.08055230969155,49.17218277437824,169.9436526755492,-93.23887913493962,3.445239803468477,174.68422382420582,-212.7266544945177,9.196616039104036,7.171859151678199,-155.7340473791323,21.19145865264581,13.612785163100847
1.12,-42.158880175608665,49.78150756607384,169.85246832681264,-93.37763839550736,2.9918339516938626,174.7843085986211,-212.63710846392388,9.057297605574854,7.3088661533370995,-155.45555009171852,21.44401988919468,13.823849421296227
1.13,-42.01750572786224,50.29059796421768,169.70537771524965,-92.94223040790165,2.5831284418239777,174.99854575059234,-212.4108143173379,8.978647895366088,7.451275502436508,-155.35444107922382,21.355752176017617,13.88849773511725
1.14,-41.67217800817887,51.73661775634682,169.65859753707923,-92.94889722037962,2.698806448654044,174.4276608967445,-211.88444475102992,9.173872304719518,7.511616877350899,-155.07586538122868,21.03328080132969,14.001785069990314
1.15,-41.63152664795363,52.83089293743776,169.6951208410374,-92.67915409796508,2.733499248934239,174.11690496541416,-211.6347322536509,8.834323481401292,7.431872179590368,-155.05419090522886,21.213011969348177,13.944517628308803
1.16,-41.42974507235399,53.8595468603116,169.61664529937508,-92.27968136083936,2.529612344181859,174.6862068265944,-211.38114180247536,8.890136219989946,7.1199432876254205,-154.80417560720488,21.15324687432441,14.670134310223837
1.17,-41.26312131505305,54.97010015193534,169.72258462101684,-92.24914916014455,3.0938371733077346,174.165317841417,-210.6894512478475,8.601776628611228,7.075064834631172,-154.77552974844713,20.92933179362904,15.02411486642387
1.18,-40.86678668079648,55.98036420214487,169.63950104707155,-92.0935166660455,3.3942426027300314,173.71973485466472,-210.24994556633615,8.526101213622377,6.96446175133488,-154.53644077076405,20.866994574947444,15.534750077532646
1.19,-40.42757499422567,56.0607313481374,170.0762854998508,-91.84301181210466,3.566902187456052,173.62132104380507,-209.87433724023785,8.33634224927103,6.7899208840562295,-154.3590618507271,20.709183169534032,16.018146371616776
1.2,-40.36006904288178,56.03148879446256,169.92803098113023,-91.78480679024496,3.312754712335563,173.50903449486705,-209.83767833011197,8.118414065863236,6.822860335589654,-154.21912319062145,20.88639330092531,16.617475024910103
1.21,-40.20492579444719,56.0670296068632,169.95086700025757,-91.55762302786968,3.1536127606663267,173.07459117917793,-209.7917263540588,7.976949159702481,6.751148174571515,-154.57051100193124,21.028222841669663,17.69613271322152
1.22,-40.04769798762624,55.96471308631114,170.21041487297106,-91.78147953608132,3.289693912214104,173.21897082052394,-209.32853315469447,7.783383872218962,6.272887246933959,-155.14281938631126,21.03324940216464,19.26598501731754
1.23,-39.994233268593646,55.86699526685323,170.28801745522716,-91.41971539325812,3.287044453035357,173.26487723268622,-209.2155841778608,7.852563239895926,6.126339004933616,-156.79538294591947,21.22331834476589,20.397858848215705
1.24,-39.84215560555486,56.05271209359117,170.52304903346362,-91.3963048091869,3.16702859576481,173.2760332540659,-209.34702855578576,7.494998483149118,5.335881648392593,-158.6082120671237,20.86613486879491,21.33908581799569
1.25,-39.676400255255736,56.18480908130925,170.50543897108977,-91.42876241828613,2.889291786279735,173.29920200122095,-210.31292343523728,7.423607842340687,4.892816523733034,-160.0623208463944,20.64252191756801,22.43436844322112
1.26,-39.68457815229242,56.17294044140845,170.50057722105555,-91.27123405137426,2.612998180979254,173.11686711571414,-211.2527030419619,7.513149979377131,4.393884051012515,-159.74412674913077,20.91968744328631,22.81133487253032
1.27,-39.312637806468025,55.84884464863079,170.6868362873241,-91.08534775659491,2.4810283475203065,173.0817967917473,-213.4178240626397,7.757389063668939,4.245694597957395,-158.22010978371108,21.623739032960383,23.15871760362195
1.28,-39.12136374844588,55.984268121675775,170.70208414757286,-90.99881906956284,2.494077402035435,173.13900817469158,-214.052950649968,8.078330298958896,3.723513464235325,-157.60571134773775,21.727130114116235,23.07208320749288
1.29,-38.88806156775752,55.87107855231707,170.86802403477796,-90.79315703198202,2.413989336997178,172.9904900395859,-215.02881515597315,8.057073483370651,3.5226797616586345,-157.37786947060417,22.21288998952005,23.358686993850835
1.3,-38.551230234781336,55.87525305332053,171.14646994777715,-90.88125448401873,2.368907342362951,173.05385350465622,-216.5095862920913,8.551804246717063,2.7717948131361214,-157.4280374519441,22.369163357050272,24.00118030722947
1.31,-38.38139278276245,56.003400240892944,171.21263638391034,-90.90515878702917,2.5256344114675544,172.7409411693536,-216.6372301584749,8.856050772618302,1.842901780837063,-157.77194076061042,22.20791575303352,24.67337093041363
1.32,-38.29099445366122,55.87314882859656,171.50291391137014,-90.66730776680032,2.466668789379381,172.98219613856924,-216.66606670215884,9.20159354480778,0.7059963381096699,-157.59087200138063,22.43753276881474,24.79224658024292
1.33,-38.03716160531024,55.8670040140058,171.3380948404899,-90.55403323619744,2.4465395617682297,172.9461590866396,-217.1084958752085,9.339991020577092,0.2675271623612936,-157.79338103822312,22.597204188934704,25.40960360282608
1.34,-37.75995764458268,56.14583672210063,171.4202302462271,-90.52384847157325,2.4914247071180164,172.8954547919249,-217.4356863244928,9.262640675003906,0.4222094272469677,-158.46463928796285,22.81637177452239,26.044791109875163
1.35,-37.74010904648812,56.17803325604095,171.3242912921579,-90.6105857939558,2.802677964626016,172.9314395084346,-217.7121632486545,9.501237041206569,0.6845583380617528,-158.06934360801642,23.972125739851048,26.65507731935484
1.36,-37.48018129309588,56.34002682607515,171.6433654085965,-90.59200690262487,2.7386791927224072,173.11650700499243,-218.35820858467247,9.389843746137252,0.963104850857614,-157.57257743061265,25.04338951103993,27.212522493142973
1.37,-37.610458891550174,56.57565046334879,171.61602970882487,-90.6916845228917,2.8137399936103447,173.1006526563852,-219.0742971785684,9.397354136264664,1.224827791189469,-157.9068840137019,26.07623570775064,28.45414329134201
1.38,-37.67111785896678,56.60824267929144,171.38717769379852,-90.736921128626,2.8686549042595058,172.98510285459568,-219.6457943790836,9.409893277216035,1.108524061231897,-159.00883755815158,25.9625354499452,30.27796243800927
1.39,-37.97181088960342,56.67371894009675,171.14638901121015,-90.76861860161256,3.1398416023986244,173.2099596382312,-220.70073111548268,9.654228548821152,1.009035004962837,-158.54899990862816,26.195279127440447,31.40177162280112
1.4,-38.105465579260894,56.94220498213917,171.17882337114042,-90.97343199063968,3.051457551174936,173.3449308198838,-221.723411317824,9.675599318497758,0.444134978163729,-155.74358489875348,28.066840224627896,31.247211824640384
1.41,-38.14592781908663,57.09756237908968,170.95545395916045,-91.03355975176169,3.263395305112561,173.47546799299377,-222.62706928082363,9.414301071591376,0.0069125102224822,-155.77403959135344,28.84714415433629,32.100928562049866
1.42,-38.4000141899972,57.34901753619065,170.689105642139,-91.02111521594335,3.3302533910475725,173.4734305436332,-222.48664747433267,8.962522729935039,0.1290997197718535,-157.93933139863373,28.320336902114622,34.65339964941479
1.43,-38.59296698407333,57.18963004774402,170.67129183957948,-91.21032164771049,3.341669826000829,173.23804089374696,-222.3020162408233,8.800770037775704,0.1440541017484985,-158.69798184487664,28.084122014052937,36.56526121070508
1.44,-38.54728057564886,57.23775736804582,170.61398542771244,-91.22242805190125,3.484156248432852,173.35013356882115,-222.74239000515064,8.493766407153988,0.4531677045393927,-157.91092236659412,28.85253411147187,36.71586857058404
1.45,-38.74714198977205,57.419700734688135,170.77913327938947,-91.33100912811612,3.749537519966741,173.28225589616247,-222.76657215554368,8.359823159768,0.2534486193347023,-157.22781977321927,29.205356927664265,37.0856101160959
1.46,-38.59366553063761,57.64142553957605,170.5908311971299,-91.20250800821124,3.39833924753919,173.28548754234683,-223.3517874775017,8.283007493858843,1.0583490921169985,-156.3676592784564,30.061620269894707,36.68871715733419
1.47,-38.93081985709394,57.63551068108011,170.5149931241099,-91.50413716046276,3.616651090016087,173.4299976584022,-223.83860680208,7.9506950504936995,1.8629498401077795,-155.26042046880158,30.65477340047667,36.43099113842639
1.48,-39.07463126163798,57.79274139132906,170.4070789269463,-91.38326522878424,3.598684938590833,173.29251528847942,-223.90290470068012,7.854944010105457,2.281426494440137,-155.58553874769515,30.247218211611283,36.36373899892888
1.49,-39.078901803487454,57.7826332069117,170.4426577646567,-91.4770263643837,3.522916566424004,173.09244422557302,-223.641305747745,7.625059855935676,2.712414146560719,-154.49615117045212,30.51977141164984,35.93106529003259
1.5,-39.07613841549367,57.95360643964913,170.42020450589723,-91.4504075501219,3.58375910856698,173.25845219420816,-223.19554349879115,7.353087742243367,2.76375134067537,-153.54513040804795,30.508651982152315,35.68680254231394
1.51,-39.11411128045624,58.04354368031131,170.36949969074897,-91.40272848426288,3.5650297615233795,173.1639673764857,-222.62077628360444,7.745148089480523,2.564675602371974,-153.40556864740404,30.80991281664781,36.55077990912428
1.52,-38.86242640940035,58.12755270175749,170.5674559823438,-91.43699398177856,3.834373953320761,173.34555407805206,-222.29529777780056,8.091222842534574,2.263782119761657,-154.33469707536116,30.07018483346153,37.88530257427752
1.53,-39.22792972445811,58.14178963822961,170.46450866965077,-91.41109631054402,4.156283993271142,173.32067547796387,-222.3689008934656,8.099837336898766,2.5977918037101344,-154.43107017968768,29.68817244788633,38.56976740657136
1.54,-39.26248208400333,58.22085625803677,170.12831662019377,-91.63676828960722,4.2281282215497775,173.5473459955409,-222.6395779300616,8.069189681263268,2.7491494992536327,-153.3010034573565,30.21829112613324,38.42052522171242
1.55,-39.23529415412689,58.30978677790503,170.0173586326713,-91.68810669298064,4.548916315158455,173.44966121085113,-222.82141634914797,8.000599723057626,2.689685982001321,-152.72204799894095,30.916756695881173,38.60737166326562
1.56,-39.18799786721886,58.448894429178985,170.1479331377349,-91.57516765837902,5.017998048338718,173.32522052986937,-223.25468979116047,7.786388959559773,2.3017311407244097,-153.767107543863,30.824326055070305,39.63614531988476
1.57,-39.33448921217527,58.53918276451007,169.9286286130881,-92.09026506278708,5.297182488108102,173.3853462424316,-224.01511062753133,7.93878982106712,2.154914060963152,-154.62676717104594,30.569936409342905,40.70405647789547
1.58,-39.53351936914456,58.53848339119896,169.70311082763487,-92.14111516892926,5.780281357002596,173.33411997622326,-224.78458082285928,8.00551636844875,2.297812225384232,-154.83621995026766,30.56452248354194,41.199132659122256
1.59,-39.47757885392357,58.45998196904235,169.39482466298773,-92.000992780887,6.016483755532461,173.2287414429709,-225.3445218492016,7.91504519489432,2.284659893187983,-154.60285586703156,30.923743484032723,41.4490576679209
1.6,-39.62540616607716,58.22867106488833,169.2910891774317,-91.9675134808944,6.288748760264281,173.0309155148275,-225.41519434507637,7.809164182274446,2.3614976686920546,-154.65130729622672,30.86984844962226,41.77065756514715
1.61,-39.63451045668463,58.00208940077449,169.39307160276695,-92.06196388148643,6.285080800749232,173.07068851923094,-225.85395244677764,8.069308007690578,2.482174502444842,-154.59548585145896,30.843695673292277,41.83998307943028
1.62,-40.00777490077597,57.33621944640526,169.3465924262285,-92.18485149629858,6.894651633515626,173.02240199106316,-225.9215732993312,8.162645910224452,2.2281212501827965,-154.47013514935549,30.963191146391463,42.27751236330985
1.63,-40.3486030948365,56.360424684657154,169.28959832917425,-92.33321205880937,7.624635581493992,173.05843945063532,-225.99222888239152,8.393063108128855,1.777145149340313,-153.7714763168353,31.05994020361064,42.59953083441912
1.64,-40.83236729012319,55.1578027483426,168.9061805611526,-92.48462685367753,8.372092497184738,173.1034708133228,-225.83970436472688,8.391327825659374,1.301150248644554,-153.57549880445248,31.59753743592892,42.597753699125455
1.65,-41.29233330074081,53.74813333114401,168.72968970536277,-92.41673726192906,8.770421437411397,172.82242494959416,-226.0968640142512,8.405193097422492,0.9912971009204008,-153.55610718307113,31.358481018839832,42.92017954654368
1.66,-41.764441910561686,52.468012956038606,168.34694387646732,-92.52462815095932,9.361005235946545,172.99041034366783,-226.3066693770731,8.579056002778616,0.7944218068318797,-153.7107927850104,31.513700014433105,43.37028861311056
1.67,-42.70867564813231,52.0768775887416,168.34516578976314,-92.12898841724028,10.587847879021275,173.14394614061715,-226.44880689769727,8.776124985516056,0.6064819864896369,-153.55789208924082,31.64844541564761,43.50888057101122
1.68,-43.00861645788143,51.126897727252285,168.06838453907582,-92.29098547537178,11.252578020372958,172.93849098886025,-226.75786033070264,9.063246865366814,0.2989510478605953,-153.7463426998822,31.746137613360894,43.8794474582879
1.69,-43.719812123938574,50.97553475392522,167.86465314654177,-92.33157599952028,12.348651972320448,173.11634680803346,-226.91268320773327,9.091158725014193,0.1511674381989733,-153.85807998166305,32.00062563821182,44.28137148095913
1.7,-44.04844776640157,50.64004784868864,167.73841991676684,-92.14466506994474,13.579412835122088,173.05758127344055,-227.05975986438276,9.381310718659597,0.0605221347986455,-154.13223836789376,32.101043517141704,44.8011713278388
1.71,-44.580220867828665,51.32699376519,167.2913161597162,-92.2537684533242,14.932656977753895,173.33017223998942,-227.21362324971773,9.620240807514849,0.2004017472337945,-154.16734297225736,31.76178206758244,44.99576247839634
1.72,-44.99932049194441,52.30409334588128,166.90353894123913,-92.11539791800377,16.175878066791267,173.50126387158318,-227.4822451293797,9.74189382323962,0.3001549320437479,-153.7351912951782,32.653297744308,45.53708178819706
1.73,-45.094814046077744,53.478415990008266,166.65825334503998,-92.0333054694444,17.66753218421614,173.44758202495058,-227.833864279331,9.712903984758496,0.333428313611904,-153.69451681668457,33.051361103108555,46.123399476407336
1.74,-45.21613226073525,54.3306270502409,166.33553022761964,-91.9324839429334,18.81521712487304,173.71073186106491,-228.0185124777874,9.5047328551118,0.380922971916059,-154.7599165496885,32.7409662820471,46.98424045486565
1.75,-45.20155510007388,55.10678447693089,166.0121903093033,-91.8404488847376,20.126687815448907,173.8102007953168,-228.442717772357,9.52589816113916,0.5631971569698716,-155.0878144048067,32.73136934315196,47.68757677695227
1.76,-45.12759880221391,55.70048597755383,165.95165851791722,-91.58804721332147,20.7945151939826,173.7572701395103,-228.70876921428,9.66626063025923,0.3751481124033731,-154.8934303695206,32.84798807143271,48.06397127841159
1.77,-45.27191775886047,56.23686998681056,165.6637585406568,-91.46978290420972,21.557751799809964,173.8496684704517,-228.8602744206873,9.662296984102934,0.6531421758780818,-155.1160500521161,33.070164301873184,48.33081625365204
1.78,-45.38420361429342,57.4362844852818,165.26547260003315,-91.58502283216524,22.70786462341865,173.76277898021925,-229.12258474398956,9.688502245782738,0.6165025647453558,-155.16527801289814,33.311659129798976,49.08899416676416
1.79,-45.14428792761501,58.48598160007138,164.5989950629136,-91.58214376432645,23.57901810359623,174.00308538344473,-229.6184986995009,9.998730387834357,0.615888153559101,-155.53973525156442,33.290913916307204,49.93023026989173
1.8,-45.7222411154749,59.237450280486016,163.81263190986192,-91.6973080319065,25.300995504750297,174.14840900646826,-229.50755133741757,10.30790815803421,0.7154037328107734,-155.87431491217515,33.39363551056745,50.83222619490394
1.81,-46.11700165055015,60.72994177670315,162.9450949871626,-91.54580804394097,26.933855116453856,174.17201085166525,-229.7104209435375,10.367134552435852,0.6335846815748334,-155.95115379217106,33.71376320551392,51.02126871448933
1.82,-46.56680559100617,61.793341650351564,161.7563317175002,-91.39083585334096,28.45775616638904,174.1713265151974,-229.72495533161617,10.408553580986462,0.5895029856771522,-155.60726402659873,34.21208420687873,51.78225275034189
1.83,-46.460080630669154,63.119584340161325,160.55016381259233,-91.19778859076376,29.92708398800063,174.34460825929648,-229.93839475004648,10.511651703002522,0.6077935296768711,-155.39932543771027,34.53057776103906,51.98476885717781
1.84,-46.3477647649765,64.17739091855054,159.4832129251513,-91.26971027712128,31.459111331251076,174.44244312652685,-230.32904888754192,10.699006901093822,0.2507854981282373,-155.74112978971533,34.27303443727104,52.73443684431101
1.85,-46.5235067418172,65.28555190435637,158.61935817150027,-91.32278110108577,33.14422220551014,174.66995950793557,-230.69000445466168,10.703944646035342,0.1756053726401159,-155.8664542541076,34.59192869117755,53.340046449115086
1.86,-46.36439796259589,66.45376014195743,157.46353797601964,-91.12922287853117,34.66464506842291,175.16863501375275,-230.5012553808282,10.900883204047346,0.1199434448249978,-155.64824459322568,34.7131502810375,53.85286197083816
1.87,-46.50677281635127,67.4457109733494,156.50221497521122,-91.0788326159708,36.26672481076158,175.26431830901868,-230.35323695631357,10.872473286554508,0.0943448225888514,-156.05431971163296,34.776962961695304,54.8455496214832
1.88,-46.66313577478591,68.44457912374403,155.0716005667026,-91.31255880200624,38.22448374749815,175.3900131474393,-230.55292718884309,11.036962836061106,0.1260331567254311,-156.14355170864488,34.790748981135714,55.47484398332245
1.89,-46.87414245204757,69.901369696161,153.35480496569957,-91.00754547208405,39.90417529925834,175.6253951864348,-230.77344803450697,10.735312227687958,0.5289625486898746,-156.31903651994767,35.03945019699219,56.261384222907495
1.9,-46.85642783698137,70.73250606899965,151.7883143669478,-91.07851038479804,41.37814010876888,175.78120179779563,-230.9872115279607,11.124883624607584,0.683506522389011,-155.62183200669776,35.51370583463534,57.19862464188924
1.91,-46.91523936834101,71.87044869816218,150.27267834391452,-91.0013843867535,42.7334111063897,176.04008038029815,-231.18514299724677,11.074749203176534,1.0219960300124098,-155.3621307639025,36.06757262297572,57.968913589846665
1.92,-46.96659634424267,72.22756449451774,149.40746760563746,-90.93946072036763,43.57432986370357,176.20745478813208,-231.18348916287465,11.317809217634366,1.0610291109555632,-154.7877242272783,35.9571308219276,58.24705529329032
1.93,-47.02729551632391,73.0179373212887,148.17313181961376,-91.17832203935974,44.49457216595998,176.3750798196404,-231.38144272904043,11.288556033401733,1.358004423185794,-154.7072432908722,36.30181987744096,58.66641038444886
1.94,-47.031548818534056,73.96579775084416,146.03928321990563,-91.19389710897768,46.26449922941086,176.7466301128381,-231.6175802154285,11.33866008527131,1.5532188203619193,-154.74822233642996,36.45223853582578,59.152505417005
1.95,-47.18495470320997,75.11456425522964,143.96316795102484,-91.83497772624187,48.1871722077474,176.8470109322381,-231.6826647164468,11.76702845180053,1.6752338770798012,-154.1212550120743,37.428332254143946,60.502268683467406
1.96,-47.37121184295311,76.01385568095206,141.21788795439,-92.41342636304222,49.82414714474751,177.07957972649848,-231.7997704592601,11.784301793330767,2.0018628683001,-154.03386208523992,37.85972618652696,61.2801733680648
1.97,-47.43568138076474,76.9184985419755,138.15847253094134,-93.21333020793834,51.1394848927585,177.65616587389638,-231.9668370491204,12.30657359843434,2.204374314009109,-154.07457191809405,38.10327620890704,62.32292904621623
1.98,-47.23615096014936,77.76215289434401,135.18537729028398,-94.31227718683692,52.93923487560996,177.84238414211694,-232.31065279469016,12.47197975639445,2.6970940129210974,-153.9810665938349,38.44928038954835,63.39177056410605
1.99,-47.48023431226924,78.21119074913862,132.07035573705792,-94.9280122506931,54.55429761508046,178.55448933150203,-232.7342851209453,12.8705593710399,2.954192066363325,-154.10104491793885,38.75804463940968,64.60539735435248
2.0,-47.407044994165496,79.21090204902292,128.05212185570923,-95.81444350861123,56.42753893547126,179.07156250164834,-233.062613779265,13.242851999526987,3.461444993204015,-154.13238205571437,39.17534058416084,65.8123832405719
2.01,-47.433690546681774,79.7452300447907,123.36421355107242,-96.5196768675015,58.04799660666692,179.44430667487617,-233.5381479831262,13.39732446358939,3.83991158793002,-154.3627226371333,39.48259503949683,67.50084520478364
2.02,-47.76312914913364,80.34261402915375,123.26365516923411,-97.12268581682964,59.56221964928494,179.99166012338824,-233.8321158270968,13.712886419258227,4.454744090158917,-154.9171632263109,40.26195233853242,67.62679250290024
2.03,-47.77184103579877,80.91526794142766,118.34437908295185,-97.7394562518804,61.16044597028305,179.25444158352985,-234.04209092149813,13.959370067141055,4.726972933322403,-155.4514787514288,40.74589848186287,69.46034684428636
2.04,-47.84534457964322,81.12799005246578,113.19507910987647,-98.4883740226291,62.638046638490536,178.6842307723229,-234.42699747700377,14.376482362008336,5.387100148840935,-155.67560104932605,40.81931383556272,71.21143599931317
2.05,-47.86125552618916,81.56744488106597,108.36356784331858,-98.9735121048322,64.06407985711395,178.012988931325,-235.07652948644343,14.602110758612632,5.799721876002664,-155.97895220380374,40.85811075736754,73.1379135931966
2.06,-48.02614758375295,81.62446302022875,103.80570751831894,-99.66417995840482,65.21861542865891,177.1606693076999,-235.50511082413487,15.164599206698584,6.42486984179452,-156.30520161258494,40.89761959485055,74.12351197890587
2.07,-48.33940054980091,81.70208992611683,99.647112939071,-100.15195738985082,66.52534204487976,176.60202499027915,-236.0999871345444,15.221544676741251,7.048875118387448,-156.07516905636115,41.33182623966092,76.16829688616858
2.08,-48.434060025326666,81.59807923495019,97.6640878563108,-100.20581893177145,67.01511255403949,176.4064225922876,-236.2861041211765,15.59389572976931,7.187496831502267,-156.31364297058477,41.06200206085369,77.10592251297125
2.09,-48.55995023822964,81.70151453044434,95.7035576771194,-100.56188738895656,67.6999953860209,175.98707737230313,-236.68220507778145,15.461607359222366,7.8999119311253105,-156.69822284056522,41.04836616494087,77.9425253729263
2.1,-48.78834338584139,81.63071447758267,92.86013461469284,-100.95840978952494,68.73915899974085,175.1809112891373,-237.1186203288119,15.641863974228992,8.26828478508203,-157.2463277805349,41.11155333428847,80.02671793771675
2.11,-48.91940010991256,81.68458463899114,89.47323304853262,-101.77400040040216,70.18375029053853,174.44080715373426,-237.8942611134098,15.993809833299846,8.820363288720312,-157.13584190730174,41.20839906521655,82.04335793420121
2.12,-49.21581036161434,81.61387863191358,86.69045712688606,-101.98712128402316,71.50949808178707,173.40033196481755,-238.3300334954488,16.07568388414303,9.61943784554336,-157.7950352942112,41.349585153744826,84.2720624000284
2.13,-49.60970573424967,81.76295686807654,84.16991025033059,-102.56858007160896,72.61638646722717,172.37485969311922,-239.05267591948768,16.093584504343042,10.19765641319615,-158.43937228735984,41.05376497591784,86.03542817446795
2.14,-50.08254792996523,81.52904166260372,82.12789925472694,-103.19305695101356,73.50319645250333,171.05003437459834,-239.7619908591447,16.1098888005839,10.843371098927502,-159.03573604015656,40.56220565694798,88.07928903909563
2.15,-50.24239469218187,81.37954323068143,80.44305847913606,-103.26190355939934,74.1609344760814,170.52873829085706,-240.48645628628128,16.275512772717395,11.680900097629433,-160.10846655681104,40.48569057473407,89.968091367933
2.16,-50.70870123077098,81.25146135928247,78.5308392666853,-103.62005936753232,75.09925604107582,169.23496238313243,-241.1096286559253,16.314564753384342,12.61260827941273,-160.21617092098336,40.80472491289912,92.14668643557822
2.17,-50.57152254189855,81.3168939881463,77.95716965188568,-104.1044216717579,75.97657957641943,167.84145211120196,-241.9085407802232,16.41425070154564,13.2633419235717,-160.50587812736777,40.91994116508677,94.18635223252883
2.18,-50.90984257574396,81.07252074117301,76.7593672780845,-104.45605662551688,76.64543489841591,166.31147740836073,-243.1146695261522,16.56175677387756,13.920461715749047,-160.76274784577538,40.95267503752154,96.49934982454032
2.19,-50.89195151655573,81.05074929712721,75.52073849185614,-104.55346649197654,77.45445373346563,164.80379039342657,-244.07463104004356,16.68400707329047,14.927294862823349,-160.96068357486664,41.0673077117147,98.56676033279372
2.2,-51.21979252749685,80.83026357676886,74.85107013806795,-104.73516917302284,78.29285790439012,163.25923934818576,-245.19318509952063,16.741207480226404,15.786673056468985,-161.05631651105543,41.094604473404594,101.0997564425276
2.21,-51.25260083622231,80.98334925470303,73.93820203369474,-104.88582190252394,78.78948774282986,161.97209328885145,-246.1241807694556,16.806378516365896,16.74823692417469,-161.21974129879493,40.8965663800197,103.53788796599036
2.22,-51.264002710743206,80.92350861024134,73.23337650203055,-104.86762643744544,79.4497100942559,160.03420464815184,-247.36458081046644,16.875379066027786,18.0819612661238,-161.38892473551402,40.479191287525,106.01390506174091
2.23,-51.47095515170706,80.80463321339292,72.82125796878277,-104.965382754837,80.17284561077015,158.26740754384883,-248.43054334670535,16.774012415698643,19.160226258786444,-161.7105594531619,40.14352538446202,108.54493787576628
2.24,-51.51189361024405,80.74312423086005,72.81305955575911,-105.00814357153946,80.49240326768151,157.1387465915137,-248.84132411500397,17.062199735628656,19.781474458477973,-161.5659999632067,39.7869326166697,109.872314875495
2.25,-51.40372190432269,80.7460228127281,72.34165967035993,-105.14653842769992,80.58124805315347,156.23762751753102,-249.36688375375857,17.03265171950435,20.66012930112971,-161.76485100780735,39.457277858386966,111.4864015479968
2.26,-51.28626712491484,80.65343512559117,72.11504082481544,-104.7771482717324,81.22123681685194,154.1766217420208,-249.8756763338165,16.900967114186255,21.851563463070864,-161.9327747425014,39.10521411036979,112.71245550114624
2.27,-51.4199483929194,80.61648005274556,71.44953912235265,-104.84276768265885,81.8683359146256,151.68209507717293,-250.87244324595383,16.88607047518835,23.331353626728763,-161.75680680884312,38.31331851027838,115.4042256182878
2.28,-51.28912623065167,80.58419350582183,70.6553568431734,-104.96460855576257,82.28203706942988,149.41015534904378,-251.68689069794488,16.827653088973822,24.991131758799305,-161.85717791084198,37.7682601004682,117.87103964504868
2.29,-50.99983513822166,80.4811768138525,70.35950879194064,-104.71149186015388,82.75616955838008,147.08753360118084,-252.52484635431367,16.78412664020855,26.529439013759784,-161.69000113039235,36.98984780369435,120.27616956845276
2.3,-51.03959813943364,80.47488182978199,70.86664973590534,-104.71490016105366,82.98401903737808,147.00307061349824,-253.4038235140805,16.40605060127536,28.319369075889355,-161.3472147501258,36.13835107481752,122.90435015334172
2.31,-51.1642547148269,80.54517565185506,71.56439057657606,-104.76634269075508,83.42924737208828,147.08150857887847,-254.4151835518537,15.989883248677854,30.237964922313388,-161.1474635216953,35.58427356756933,125.59093659615412
2.32,-51.22076302060884,80.41228186401626,72.0593852535535,-104.51199715796028,83.70157583439926,147.056802438793,-255.276930778002,15.692327924922974,32.169217812446945,-160.6180845237301,34.79253700756289,128.0696741024054
2.33,-50.93036920204885,80.38824894348619,72.28472661921097,-104.4043567600884,83.65955209264739,146.96202971053265,-256.5812935063539,15.476474319633631,34.08312952593774,-159.83321365629047,33.939758068027366,130.60642483844455
2.34,-50.941541546719165,80.47578596945013,72.76996098229316,-104.50210160696004,84.2077912202049,146.96157321984688,-257.286953006768,14.92656849678114,36.12128301402191,-160.1315849418364,32.820525054786195,132.58262391062502
2.35,-51.093509016425735,80.42307817022245,73.31464749140748,-104.41459727267588,84.25585159670804,146.94740504606546,-258.03631978802105,14.22619017848352,38.201672243925714,-160.2675075076847,31.83624772282801,134.72428023991725
2.36,-50.91752730604489,80.34726965967249,73.82067179048603,-104.378827331892,84.68469516540684,146.90068945201858,-258.51577616100866,13.974164806675716,40.07044229772438,-160.2891926619113,30.864302740336026,136.72421505983826
2.37,-51.07832036594587,80.37696822458574,73.50890460006431,-104.55802558543232,84.5967371755832,146.89253510562168,-258.993740484198,12.94156315554206,42.1156128266371,-160.31656508243483,29.814017916716335,138.5155086535757
2.38,-51.16696966872888,80.32697416533496,73.81449709031423,-104.43356481707563,84.8957982680384,146.708470318943,-259.65845989074484,12.251026407270905,44.47253223753463,-160.1795149652841,28.59347641743753,140.26430928710272
2.39,-51.11988352499316,79.976986828477,74.16007145943912,-104.15374854172056,85.00297293357444,146.64811109511933,-260.57181190867885,11.56851927802026,45.92770399181831,-160.9047874956313,27.367102061277315,141.87592256948858
2.4,-51.32905942721136,80.24566328167829,74.78990483165163,-104.25893099120498,84.95193751740416,146.63855338805757,-260.62087356001126,11.134086200691632,47.108513544280434,-160.7037020147139,27.15456439186814,142.63923374151528
2.41,-51.13119992337548,80.1812375759489,75.20464053344074,-104.19996710522504,85.19133388194534,146.73309410111003,-261.01564981240534,10.85958718096088,47.83762141641818,-160.78389060682272,26.573295801086672,143.3205202553963
2.42,-51.41745347450153,80.19694534131195,76.11960915840467,-104.2337534903947,85.37892422313577,146.59927619603715,-261.55981602683994,10.000946872894684,49.62637968062745,-160.80652758791393,25.81920366473985,144.7636267485056
2.43,-51.59573473212769,80.20154436399957,76.57641137352384,-104.34786803067792,85.28471326969745,146.47045210290057,-262.19870575733233,8.883308548748833,51.04888810665401,-160.65058299744177,24.877444961696515,146.0875188912436
2.44,-51.47217791262344,80.13771081959915,77.34850340709814,-104.38323345595826,85.09536858428677,146.37891360206652,-262.4900088822712,8.218776837720252,52.185122212849286,-160.47644959441763,24.71562539394143,147.18327780427023
2.45,-51.44300130917922,80.14803442338243,78.01198435156162,-104.34213044609848,85.15214650566662,146.43519695429052,-262.5662296103956,7.636627927617217,54.01466420087396,-160.53033332705473,23.939938967131425,148.1063667587757
2.46,-51.50365146722636,80.06078031790197,78.33410324713492,-104.49594462108392,85.07682856754762,146.38635222144106,-262.4743838887708,6.85107339339781,55.18417936401324,-160.18831585169198,23.237319117125104,149.16142598253367
2.47,-51.64273708535241,79.97949491820378,78.69519905147934,-104.39134977756088,84.86871063434337,146.01776848735452,-262.01175061520865,6.696949231251386,56.44284683592726,-160.3383655109268,23.04868658116124,149.94784737425962
2.48,-51.86828284196835,79.99490418277627,78.78254985963868,-104.3722614628822,84.68995666546009,146.35621906403804,-261.80370994362033,6.081197558458599,57.60551550874794,-159.93844791543657,22.98497206346484,150.83548900612533
2.49,-51.88421045318799,80.26801421915897,78.65789477452957,-104.3485507108024,84.52982672021592,146.45953936137477,-261.1147586498449,5.663877496123961,59.13604397663875,-159.79638520671884,22.661336328481216,151.78169308960958
2.5,-51.67908949232061,80.08364325084263,78.11062310790024,-104.19770856631,84.3897242512391,146.5140696350964,-260.6205978536717,5.155887742688836,60.36013445756926,-159.9187024862009,22.41930524428749,152.4862350751552
2.51,-51.54100915186613,80.10708843235079,77.72101412943445,-103.84721652083772,84.26630791459384,146.29430773657782,-260.04254523604743,4.823066798508262,61.555306602991074,-159.68582419544015,22.273494681062356,152.99270595674938
2.52,-51.61986478704483,80.21961529920742,77.27603384209081,-103.9672843776665,84.28952990347298,146.52022926214462,-259.4589113465138,4.729009879313811,63.31732585266331,-159.44032838388884,21.99053890376308,153.34371546886933
2.53,-51.186559717476186,80.38796257271476,76.56228522886207,-103.6780946253164,84.07397965274819,146.307227251614,-258.3365082291144,4.38523095196108,64.44660556067923,-159.36337054282157,21.640985957670317,153.75485777418382
2.54,-51.16176516203878,80.33163395584057,76.17671482495551,-103.56860567682877,83.84047298842744,146.33209887349582,-257.36535805716574,4.289745843969137,65.62755719747692,-159.35656976542873,21.512344905739063,154.2043040978597
2.55,-51.12912241724764,80.11991980262806,74.93652722483698,-103.19968944188976,83.87844506205609,146.25330608134098,-256.4365049807038,4.073475934147493,66.81192986258955,-159.63740735749516,21.2872379139093,154.63174235990093
2.56,-50.6315509952706,80.30205455458007,74.46811905643523,-102.89028435824292,83.93758420401706,146.3777579679797,-255.773005579357,3.999548167769851,67.42591139873093,-159.26607687066664,20.917401139167172,154.7129469329676
2.57,-50.908472435448346,80.23831660082489,74.02251321461857,-103.0554012568822,83.72155631636407,145.878516820656,-255.40360659806916,4.026532596529254,68.13433524557163,-159.32930165389112,20.95767088921734,154.8943776053187
2.58,-50.66469735809719,80.5290505024317,72.69833771231589,-102.54094415656591,83.48492698219567,145.90375293538324,-254.46267588920375,3.819270119170407,69.56630982580545,-159.45384265177478,20.83980656925325,155.10158957452785
2.59,-50.368726620751424,80.59406985842793,71.71431163784976,-102.24546473126796,83.44720448689527,146.03655524038993,-253.33444774018483,3.893967968559111,70.8216200379213,-159.243725354562,20.663374403109675,155.25548149662765
2.6,-50.24810385728503,80.38433789895348,71.44843685196456,-102.02053924564756,83.65239404765317,145.73362188982125,-252.4026332947981,4.025189103789391,72.08348513962893,-159.54882682728794,20.478739027339945,155.53701191668233
2.61,-49.88124232919662,80.42217298972466,70.99711472711083,-101.32945565651409,83.66719618126935,145.80642214511818,-251.4342562752005,3.7793249914640463,73.35451094579427,-159.98428089117786,20.351040344568325,155.53551090421087
2.62,-49.934209833478576,80.7213254832031,70.65952705880633,-101.08574459117348,83.49174836498875,145.66013210848118,-250.88748207371208,3.5534329393792463,74.75676064600218,-159.95941245421702,20.40393274586907,155.62305201589905
2.63,-49.638424392081646,80.71000409548583,70.43969525425551,-100.68634080481594,83.52176795978342,145.66092256251733,-249.87971138838756,3.345790565042155,76.01368333424703,-160.13131706986857,20.25056235371954,155.36723223781473
2.64,-49.255969075300015,80.82395299147147,70.29004248693828,-100.23833735108016,83.35386311064592,145.33811607035375,-249.1765975726657,3.5667414004129445,77.3054530392102,-160.19680910724074,20.18004295750989,155.01308763215425
2.65,-49.10790024243858,80.67713431137955,70.02974734223615,-99.89623007397014,83.34493991924131,145.0513669696075,-248.27489628463616,3.354341932886542,78.60360727971816,-160.1564475974429,20.31930661974022,154.9655610012945
2.66,-48.70309174419859,80.88051749360368,69.2904346712379,-99.8298406659391,83.41538788504356,145.04542712193637,-247.97447585497585,3.4961692301804947,79.72720617112725,-160.42153253204455,20.213943063719828,154.68859294943243
2.67,-48.13245663109109,80.73114871386804,68.48054144874001,-99.29241881244238,83.83283021185602,145.01587423487206,-247.11599115999607,3.484482039871716,81.22835050992269,-160.21086533657706,20.37270508071653,154.3932627234207
2.68,-47.91687952599856,80.75075422636525,67.77090977865582,-99.09913324259308,83.50566011883112,144.9737799995775,-246.5943160271348,3.4684862373161347,82.38991277439946,-160.3512523145314,20.29839583460755,154.2696273774503
2.69,-47.67550006934882,80.77715820984747,67.43692468764543,-98.9027377282385,83.78010361771003,144.73232741729407,-245.637634078762,3.250944336809856,83.64511822303281,-160.5505276297321,20.47606553517454,153.86076817521985
2.7,-47.44584333446576,80.926969399175,66.76963210707771,-98.64177879853902,83.75627021912501,144.69000118336268,-244.9549071246316,3.6236263118668512,84.83313002839952,-160.87820992654952,20.245163542061608,153.6267407696216
2.71,-47.230422858663125,80.6308086818793,65.46456614359047,-98.4731502477819,84.12846915577688,144.69901129263758,-244.11805526279585,3.693188633528153,85.9633081313935,-160.6406557045207,20.47913727795829,153.2418475837284
2.72,-46.98724371624237,80.68564129795047,65.10561971311895,-98.45419544896792,84.28683764404639,144.40995952059734,-243.65463642199228,3.7541887682394495,86.76172571635975,-160.57882991978516,20.445664840870105,153.1314702866379
2.73,-46.87572391822211,80.73515186583333,64.24980593139394,-98.27997839333688,84.34184572513803,144.59606406972043,-243.0401138398964,3.7369318161200566,87.22330124283596,-160.50953000862694,20.54047946289534,152.8761180403561
2.74,-46.80792478025317,80.70630327673923,63.55117292022511,-98.2930298633191,84.56422841880762,144.33044918587524,-242.2595155184499,3.781069881225454,88.50206159966959,-160.69786896127414,21.09336797059334,152.44867986736676
2.75,-46.595772412718894,80.53614251634586,62.96743020017456,-98.23750967275669,84.75787243280175,144.31924148111682,-241.88046444373705,3.8144437142345824,89.65071522111208,-160.98832023388348,21.26623795062896,151.89712514310924
2.76,-46.37220920517014,80.71139591480068,61.79738695488965,-98.1677823098594,84.88587961906055,144.32955549435613,-240.78536888158536,3.665058723114242,90.84932338742396,-161.16385587158655,21.5925063027523,151.43421355339828
2.77,-46.39750422915704,80.28631051465321,60.70626764336613,-97.97308343619738,85.16152234353838,144.2181225502514,-239.8197570674587,3.970170766758274,92.09582017566524,-161.19131462154414,21.728779653394493,151.1112136742765
2.78,-46.39589770643569,80.10005391324168,60.03392160355617,-97.61844506365776,84.97929623296304,144.0985594437907,-238.891102869648,4.117904020726293,92.98223908643315,-160.69967506825483,22.04106766615355,150.6016668072461
2.79,-46.32731269022397,79.9081816898719,60.41985287620487,-97.56738217363998,85.0386856327065,144.39665940569128,-238.21869293043824,4.547223838340244,93.81318406047636,-160.4145452941121,22.120180982216358,149.80081345685164
2.8,-46.12585186284839,80.13634404657692,61.8273599073354,-97.58478947655172,84.99104154522776,144.2912077930653,-237.7478255620912,4.684248210104783,94.39922110371272,-160.52368789476276,22.37805820840626,149.2332550969906
2.81,-46.43023789974482,79.64903408096781,63.42102601674531,-97.48466823604464,85.34254056434338,144.025867615396,-236.8988319797749,4.908248239825769,95.13575303957695,-160.2034406059651,22.75437605380729,148.7874840594504
2.82,-46.27753239800743,79.55378496484543,64.69935187952161,-97.37686403064114,85.20237669587654,144.07828949075946,-236.0617222161412,5.061968594842485,96.17120398976763,-160.37305622549658,23.09750528118732,148.3513967993051
2.83,-46.29298838323909,79.42108479173841,65.79261191911378,-97.3025679450538,85.49261903029277,144.2156822332216,-235.5737053774756,5.455431215026077,96.92386583579489,-160.2745756230492,23.222150299246376,147.61811693499126
2.84,-45.81257421297052,79.37301218150135,67.45007524788898,-96.80013105008126,85.45328332095873,143.88045856849365,-234.69686334615565,5.3032961725294445,97.63019253407528,-159.99212004964164,23.513789155978134,147.12811033303063
2.85,-46.01357092298901,79.49543016610544,69.251983449151,-96.8723064565774,85.71744074042162,144.07599312940488,-233.79495641629387,5.802353857354087,98.32894271852486,-159.77660800196497,23.66907453714555,146.43630491477154
2.86,-45.86940027141012,79.57816364851784,70.63324908637625,-96.47878661613323,85.48780454044253,144.04434037129784,-233.02080558522405,5.804815638975659,99.04285886117653,-159.81333970883844,24.199120241398383,145.84600994644234
2.87,-45.8211464641779,79.34982020359024,72.55372231683266,-96.26794354664048,85.64182259355135,143.99074635755707,-232.5810024200421,5.73767726434725,99.80429688019768,-159.8735638764683,24.86601787812687,145.27658363632307
2.88,-45.97534563345883,79.48627861628242,73.36271872006026,-96.22195125749003,85.66408368060506,143.8430491654414,-232.19673122445812,6.028077256582693,99.82061810543784,-159.70360925568406,24.89902217899944,145.03368622639394
2.89,-45.4869959024112,79.54483392168686,74.41785022858232,-96.021830941553,85.53681269802664,143.8877209512017,-231.9523367806066,6.06916452170073,100.42462863243234,-159.63525573259645,25.07505346865773,144.74588390143424
2.9,-45.6519412638907,79.8082743979037,76.48991862364936,-95.94190180912254,85.33920002497833,143.79395366604066,-231.1126489939776,6.290808813318817,100.72340212587348,-159.21258609495774,25.47962396344029,144.1073832928457
2.91,-45.61184979554052,79.60998242772031,77.98665742540986,-95.906054127033,85.32391655473334,143.6329545142897,-230.32329808607864,6.41750087392324,101.54092767707525,-159.44601814556358,25.76079794904462,143.76232551316951
2.92,-45.45122732483016,79.56545014495728,79.56824869226958,-95.48517704776164,85.04163071727012,143.52904940526648,-229.7572103068717,6.566054655973539,101.82924905979355,-159.24814250109694,26.16665735164542,143.47260552459102
2.93,-45.43663517542737,79.50347942932649,80.81294608926295,-95.14320356033453,84.8115968708394,143.38587834580022,-228.92930089507044,6.847262532525398,102.44393887984516,-159.46520200924775,26.43162617356113,143.40935447953115
2.94,-45.22622309234705,79.54382360395385,82.18020550689621,-95.00479767948134,84.78287927440127,143.20587647461272,-228.36316238613583,7.008593432326438,102.8029957289766,-159.12905166239162,26.43603913895656,142.67800613938135
2.95,-45.10182295269627,79.30972013942757,84.15382579823769,-94.4495748690924,84.78177367497017,143.24817867207577,-227.3171364543473,7.269203705224933,103.16526004060592,-159.04626659972348,26.607032549263995,142.27987043697033
2.96,-44.637903494806565,79.51951819976833,85.80365862313063,-94.43718188609397,84.76904337620905,143.06367482596477,-226.59138958516175,7.54913389564149,103.40107233895009,-159.09627631700883,26.54939053079728,141.9798095578915
2.97,-44.16000036960693,79.60819309757892,86.79518449231689,-94.19308030876108,84.75070838832626,143.1724984623978,-225.6820034446343,7.819241641795882,104.04177374170276,-158.97660272190126,26.582085814456303,141.500154590952
2.98,-44.06279243071505,79.40767185821342,87.90569302752574,-93.82631244951828,84.72002335765373,143.13318999456197,-225.13538570192557,7.948918200000283,104.52920272609089,-158.7787889834827,27.07256629220182,141.00450823988584
2.99,-44.0225438114542,79.80999265741639,89.57596862920884,-93.72819462334196,84.86775413067622,142.7298520708188,-224.3476536217809,8.027253772919135,104.58605426198577,-159.15849587528012,27.56197125854493,140.56702000363188
3.0,-43.7959491916704,79.84615712912392,91.58467201154728,-93.55384141000604,84.84312445479424,142.82445766178387,-224.19562394877,7.935748545925472,104.98555152791674,-159.1059116764605,28.100479375418683,140.10645094520598
3.01,-43.77486259372983,79.78463182263256,93.23704666926906,-93.28664126473215,85.05495897299726,142.65707556726997,-223.76994025551724,8.1796786096149,105.20196371201229,-159.32025754127767,28.5110554382395,139.54296619026397
3.02,-43.80102256872565,79.88477059956818,94.3805997281336,-92.93167322550552,85.36721662463083,142.75546137615768,-223.10376729143056,8.175897765045475,105.58907649996648,-159.46432292508604,28.84256445376239,139.1431143117544
3.03,-43.55488375343352,79.88064138702292,95.55543273783536,-92.78247496970654,85.35649855801736,142.37942675126385,-222.5856104601797,8.296517787864044,105.88336144297456,-159.36398108424143,29.447569954503717,138.8977510737555
3.04,-43.568264610747946,79.9543261153564,95.8574174150981,-92.96608927945204,85.44577516678713,142.32322329159385,-222.0808092059763,8.569231715494414,105.82589441303196,-159.667825878254,29.5621744516275,138.70234156211652
3.05,-43.56887077390708,80.1567269819481,96.10289462499397,-92.95922356581777,85.65513525242922,142.4606664683335,-221.6657753526298,8.606393133316047,106.02527749806404,-159.76473564588042,29.89649289774776,138.73078764200346
3.06,-43.22226323568562,80.22627849671508,97.05349822397378,-92.7680947149836,85.80115599832399,142.33773623754882,-220.74841753108055,9.129682942774648,106.03099604789897,-160.06810884650744,29.94038439683732,138.26399488035705
3.07,-43.080312916302816,80.11784907512379,97.67979862055611,-92.62568236396427,86.02155924697034,142.38436877138906,-220.3053781755752,9.172885093989033,106.13490290398728,-159.92714888591686,30.38178037765386,137.92065671223455
3.08,-42.86008201157446,80.42182285532088,98.97046682861658,-92.7015424789343,86.09954086637781,142.28971907761996,-219.92936924364267,9.516659008000651,106.24391156887624,-159.50393987821317,30.686470947570005,137.35357294988108
3.09,-42.83166928723447,80.66214004066326,99.4735665452518,-92.59193577358414,86.38933721404457,142.14382055220062,-219.41914496690177,9.687162303062095,106.26244445400025,-159.28649833812867,31.24449861090751,137.19272015455422
3.1,-42.7686490657951,80.52516073432508,100.4559943173738,-92.67958015957484,86.57944990793003,142.15200741864018,-218.75292675073197,9.9421532978384,106.4431041651742,-158.9418845934934,31.191854662195496,137.16452742080452
3.11,-42.40910797823391,80.73160640773716,101.48195429703186,-92.4887132252969,86.82835776489054,141.88350621986098,-218.46804544441505,9.868751894711568,106.5741160007935,-158.9191777979522,31.660982621246447,136.82884789098688
3.12,-42.49515654745776,80.73942430627028,102.34225320870756,-92.29615486503069,86.84477772023264,142.04215024101828,-217.9523503867659,10.462045747197855,106.6358328669795,-158.7421368576399,31.947404249231248,136.53750874234103
3.13,-42.312582980213016,80.74597042557315,103.67104101056812,-91.99796319682618,87.37051668794912,141.65407471800594,-217.4964455019109,10.712629072100896,106.49027826607816,-158.79593864875204,32.03864917036026,136.29250620965163
3.14,-42.37062215436698,80.49774354880246,104.9098357220598,-92.30599792701544,87.50642229688935,141.76258772568863,-217.20971103211477,10.741410743064929,106.39278675998176,-158.799101997804,32.44747623168964,136.067098995539
3.15,-42.63101753903629,80.71545629172066,105.7258280880569,-92.29131570321732,87.68706481388108,141.41238798296962,-216.89310279219904,10.82595399176054,106.66921740660652,-158.47304524870356,32.608782286703075,135.87074943609971
3.16,-42.54753007776906,80.79807484081142,106.36512210724985,-92.27293259606115,87.84512142107775,141.69641999400477,-216.83932682798525,10.714605851631296,106.2851520011996,-158.3483603477632,32.557468096033595,135.90667859928584
3.17,-42.34698499720549,80.62927216852862,107.16777774933068,-92.59101004944272,87.98231762101673,141.5907288889706,-216.8140262789736,10.668745000629553,106.31414941127314,-157.34862253870688,32.749465688078146,135.99815972996788
3.18,-42.45440810535724,80.57602807619035,108.25617348050262,-92.31731349475658,88.3696687268658,141.6832105024446,-216.826938067977,10.654439097145032,106.28818973513287,-157.01561635604656,33.370272424410985,136.07909664755417
3.19,-42.40498133845539,80.35914186089808,109.2532554161713,-92.301915804405,88.74331381441354,141.49608998752458,-216.59217655543677,10.892913602413046,106.21650606326897,-157.22571823460868,33.552658012998165,135.5421011669068
3.2,-42.41679438450617,80.4942428056379,109.69428349656124,-92.39034542777902,88.57456036026947,141.61843661452755,-216.37078252395025,11.245036451764394,106.2682893692121,-157.00654598360163,33.67854161404487,135.44867037838992
3.21,-42.189375429427336,80.55268407769181,110.3395902012528,-92.3723556741014,88.87433303187399,141.47005592561172,-215.88049911933868,11.531766836990707,106.25295876004732,-156.89970277955814,33.656018572903,135.26479681003653
3.22,-42.21370796562575,80.44888000931927,111.34116658860168,-92.51606414373548,89.22034566409884,141.6301160515496,-214.82287090776504,12.022397755546532,105.83443785005596,-156.97720461241133,33.90311783783616,135.1956198251697
3.23,-42.444622624440406,80.6207806580487,112.13708765497,-92.56120686148854,89.59522645774008,186.46388633685896,-214.04476482554796,12.713810015667136,105.9483432712611,-157.0937122120196,34.10643019776092,134.99418532093378
3.24,-42.33860422289428,80.28648479249621,112.9835505588766,-92.439668314622,89.7285791411972,231.413161560826,-213.68661167403744,12.981646066522751,105.78108453345044,-157.7667683655119,34.256754966067845,134.39974724098732
3.25,-42.55644398080963,80.4197613483226,113.6733033123512,-92.41039282612616,89.65760878518454,253.96168308624829,-213.2067851883249,13.205976094544427,105.77720190472829,-157.5673867151299,34.70754236699703,133.67094365468054
3.26,-42.42327782141472,80.17379049999208,114.9509857815646,-92.50169526411148,89.70482500852327,276.3966243554676,-212.93003187608895,13.423990463066197,105.9189691273145,-157.77596978688155,35.30265769220143,133.38937564038383
3.27,-42.65093189887335,80.26886297936564,115.29931509260724,-92.40610908546608,89.31122189155131,276.4448853920118,-212.7365060970833,13.84962154594869,105.8221894805937,-157.078855238638,36.0027304838324,133.4097155910288
3.28,-42.6620816260416,80.12546669685113,115.89855106545104,-92.33611647539266,89.2325575785211,276.32464875038943,-211.750018691919,14.239457053552872,105.83269281678004,-156.76816066280588,36.267577979422015,133.67350469217283
3.29,-42.58851330251792,80.15179738532267,116.41188014494506,-92.15757115268168,89.08571969434782,276.4657043469641,-211.69223764320932,14.42228741329292,106.06017788823576,-157.58105824921327,35.93689208927006,132.88804087246683
3.3,-42.62314897023289,80.01919369655363,117.10188522044254,-91.88716429485552,88.96590797382656,276.4209629497756,-210.87782495072952,14.915514768541032,106.4102583479926,-157.23021223247247,36.506706315227,132.53433280968488
3.31,-42.434972533154486,79.98240481778953,117.409130811353,-91.74358916570324,88.84933425995541,276.36382012066986,-210.3743350677236,14.979686897459604,106.68407708864032,-156.02238598446274,37.602254028985385,132.31508161079122
3.32,-42.33197421950211,80.00360044039148,117.79185215754858,-91.60057599542156,88.82316933510063,276.4154096421787,-209.76546086050655,15.229270807750812,106.7943156330146,-155.13360776808474,38.6902772613344,132.58550545061277
3.33,-42.18156209989915,80.05285233868453,118.37566249035108,-91.22684707873027,88.98145846720459,276.48743884159734,-209.2849771974583,15.388525551087705,107.04622140823857,-154.29065688542408,39.44377977823744,132.21767174525257
3.34,-41.985061968268056,80.00544983490863,118.86237414618924,-90.80218485475184,88.87730183190301,276.4070855243168,-208.42298453718675,16.149130774305842,107.01020777307352,-153.82565285692527,40.02167983011582,131.8461847513509
3.35,-41.784064012041085,79.75932367633052,119.5841446950148,-90.897006206528,88.55469073526379,276.26630899006415,-207.2882145351155,16.89190244568933,107.41548774863,-153.65574543062397,40.723376115803134,131.37626116281425
3.36,-41.62705957196255,79.87801228738596,119.596896481207,-90.88544939208114,88.70685831329729,276.5754186725892,-206.86952964083403,17.374713734239787,107.41697669237418,-153.42174080927168,41.13786145345109,131.25170693532291
3.37,-41.47790225360693,79.80854175735078,119.84597477664325,-90.98811462964495,89.04218238130983,276.4376604464662,-206.27206670347368,17.71160941849469,107.56598854221944,-153.1475495303532,41.54187601736551,131.33498106976117
3.38,-41.75491243175109,79.70474884107055,119.96059306119784,-90.66176300425442,88.56479810691494,276.48483112717463,-205.43022632628225,18.209713561074345,107.82699145765476,-152.8590177343555,42.158982187355946,130.74978037123844
3.39,-41.71017575907218,79.6547504932037,120.6387257769744,-90.65630932699636,88.38701064305363,276.3883723719131,-204.463022166658,19.089965209753935,108.16976519072364,-152.885955691812,42.81036559351738,129.7617485646247
3.4,-41.6590214877257,79.47006309091296,120.6431267568494,-90.62765476446424,88.4524395300464,276.4704239104732,-203.79132710482145,19.439833889502623,108.23435247663662,-152.39657245314098,43.23083935513801,130.10483662224811
3.41,-41.67415159947869,79.43121594121709,120.78561984180428,-90.5415038389448,88.51731376132018,276.372154337722,-203.14401404039543,20.09598111463336,108.62452826316492,-151.81524877197558,44.04567076198498,129.9397970317418
3.42,-42.0630921726597,79.36407356691548,120.99847667038856,-90.53566937174284,88.25947084346711,276.2052997476998,-201.98207225833173,20.627368563344152,108.60629216248547,-152.3790793284066,44.549956485735954,129.03144861216052
3.43,-41.96396570730026,79.20820030962628,120.90542800014968,-90.71018195302732,88.19088757366562,276.49275281399963,-201.13770556719865,21.429913699390053,108.59218763266946,-152.7314276675612,44.73164151974344,128.41179013533585
3.44,-42.02530802736496,79.035520488772,121.00076309375385,-90.87965872241026,88.06356800533784,276.3707564801512,-200.84336432982985,21.80241423000105,108.7540960791065,-153.13712567047645,44.73463404593846,127.59845001020405
3.45,-42.15738630510617,79.18499047603798,120.86472736229425,-91.07211836094253,87.9400318444764,276.3401039645904,-201.19705197399728,21.465586237315435,108.73482968786551,-152.53732688855325,45.42434681720528,127.3162627923423
3.46,-42.32929345504583,79.11175908169943,121.1485476470422,-91.15973453926202,87.79315767544811,276.22231874508327,-201.1620206345456,21.42649600000029,108.69315719714066,-151.73798691326218,45.98986964240992,127.33254933139033
3.47,-42.286295297741866,79.10925672500632,121.31443780749196,-91.14350775840484,87.87150696182793,276.17823735836043,-200.75428167476431,21.495695912870914,108.58072880063024,-151.53503331019647,46.25826319893645,127.47515758497804
