0.02,-29.96861921115316,83.84334704798246,5.799162781175232,-136.7435574320992,84.67098434066467,176.71187033945773,-172.1351069105902,3.2308160901008858,6.48236461384139,-155.3040250045859,14.315185674590213,6.733217420458938
0.03,-30.21718140871077,83.84266788106758,6.069672346994423,-136.64520310606974,84.73420424806363,176.49631364148158,-171.7644101269913,3.3723316121150644,6.33732064680485,-155.19936088517062,14.207559995675728,6.778077333768946
0.04,-30.07063488576801,83.9371431157493,5.856332516728292,-136.4509461200682,84.7259999863755,176.5059164437632,-171.83637702435576,3.248643019317035,6.19542213537328,-155.1236782152435,13.956546228551677,6.612364970172928
0.05,-29.966577072703124,83.88793674554117,5.9002999481663965,-136.39131947824902,84.6059151323509,176.65399131603064,-171.7179100534259,3.266425073060645,6.252476182220563,-155.19987497887453,14.192551554894598,6.798882265352995
0.06,-30.077452419206573,83.88189329850455,5.975692563166121,-136.5555426475529,84.56256902884476,176.47980593115682,-171.64601531605268,3.143606044136968,6.220237896432933,-155.31747826975507,13.940995598526648,6.620647295005495
0.07,-30.128327139611702,84.07008416885255,5.9316891469907445,-136.07417484068844,84.50096227410349,176.73556304192036,-171.63734644087307,3.3363258380650467,6.217138871204161,-155.12433700961688,13.96908467463416,6.627510645984177
0.08,-30.07247626273194,83.94426171362348,6.082160661376641,-136.45176264477396,84.87392716801818,176.55367534202065,-171.46506006927046,3.190772864679857,6.399556789467625,-155.2763896870651,13.80078558947151,6.695380104922396
0.09,-30.090562326339956,83.91472670671554,5.92351776974578,-136.19762190744015,84.83030444854462,176.6549530512938,-171.37753102509137,3.312614961400583,6.355088564364052,-155.58610809904926,13.780404353279897,6.342810948330716
0.1,-30.077535713179312,84.06248069795086,5.789953433175643,-136.35434304490838,84.77918263489869,176.64468459593402,-171.33249007057137,3.2555785548815948,6.361625315781023,-155.8179981875906,13.89720838414662,6.695239501666464
0.11,-30.088733425221932,84.04482435043151,5.708477779588341,-136.4858454599073,84.8300276389208,176.67091088382614,-170.9024970659353,3.4343766625827667,6.236169988729697,-155.77434379158896,13.678480611532343,6.4774003029232095
0.12,-30.072769652440066,84.00342449464685,5.903904934859726,-136.47389421412737,84.87838853017917,176.70520921153096,-170.7010601806377,3.4968626890238705,6.427010268979855,-155.948208559637,13.697627017582212,6.478922647719204
0.13,-30.052935394081928,84.12346040526359,5.8328729531685255,-136.4329450547248,84.87339148525943,176.6646236401802,-170.71586626370492,3.501913227115438,6.443434690579623,-156.11665912789783,13.855107381721652,6.613674849008539
0.14,-30.109005970035025,84.1994659211987,5.776742118901335,-136.45414258791203,84.76768468455033,176.51098632645423,-170.52059120926893,3.4878187679997423,6.536546787013721,-156.08788917619657,13.92353164817784,6.340452660953309
0.15,-30.098530512599208,84.2806183727171,5.849869213428981,-136.48725637170105,85.16916974549984,176.66789085382953,-170.4402567573999,3.502121495899428,6.578980045007177,-155.92489239929392,13.938220701250216,6.331969217958509
0.16,-30.307872563223523,84.22208034232527,5.765299075894878,-136.53653263848912,85.30378202187734,176.62117502235313,-170.49023635380132,3.714000633142684,6.275097655036062,-156.0106782597321,13.818791565150876,6.276276113026433
0.17,-30.2987884946737,84.28010729802271,5.606303601418974,-136.46591078420613,85.25813019048253,176.53013015350223,-170.53760484271524,3.833238176404723,6.418665877501395,-156.15748846232748,14.068186264386112,6.431462467159119
0.18,-30.272662078495056,84.18093283574414,5.616301111014001,-136.7056674706078,85.3124125008557,176.62237397170358,-170.36438658862048,3.792345696956337,6.680645976194966,-156.15409116606685,14.006430093864488,6.336716983454748
0.19,-30.152348132547115,84.38119087025748,5.640818901742685,-136.51568743650537,85.67153126566173,176.80040262236793,-170.25974660575463,3.948460427596239,6.416127923546938,-155.77080420084735,13.857993526842174,6.353235875639991
0.2,-30.05984624785025,84.19394013748695,5.658384783763461,-136.4603298387541,85.75622724531163,176.672764750365,-169.95281030314587,4.21826993087934,6.344680569225922,-155.81750843267454,14.11243350447194,6.157086524809244
0.21,-30.25064726148125,84.36912430050779,5.541357709683734,-136.2701962822659,85.86653383809536,176.63339744615405,-169.5087225981575,4.157701115866639,6.427294508305873,-155.55926311944995,14.15601937896583,6.183885463183002
0.22,-30.13328368693515,84.22690117499508,5.686557598354111,-136.37807821707506,86.06232689547856,176.5734590884879,-169.0172333958087,4.58626540871898,6.188139945980664,-155.56408539498656,14.0840098572846,6.159516588150426
0.23,-30.33828474618137,84.2976562302035,5.602047200119262,-136.29556233119507,86.26577966053442,176.66545952754737,-168.50248948970727,4.372082056384523,5.7298185791245455,-155.25619983059462,14.398876029113152,5.958780890349759
0.24,-30.43618313589154,84.21707580258534,5.742145532178786,-136.32672515356606,86.47162615574312,176.60215608717766,-168.247511987061,4.71624307481072,5.644906228757297,-155.05131064413212,14.437205426116508,5.936322965234331
0.25,-30.404786561893207,84.11961958962847,5.572103466139014,-136.29051322611716,86.34998132347188,176.20996866293552,-167.88623075792094,4.703402522991541,5.597710330499606,-154.76059694786912,14.436262193381229,5.841142683564674
0.26,-30.3431142311746,84.38556224176257,5.776722394930096,-136.0965476882212,86.08272301976135,176.44221160663656,-167.58669656278485,4.766638330198511,5.360984652320663,-154.50964344490723,14.47152481888488,5.981004314035259
0.27,-30.443559757806582,84.13054940179566,5.56040138920466,-136.00605076799633,86.14782734002608,176.64935396340582,-167.41309709842153,4.814604848830664,5.16341939417027,-154.46463839162655,14.38908736344382,5.985042669801539
0.28,-30.440754050621987,84.01814453709768,5.449170001973834,-136.38603651911828,85.78790596178338,176.68053550430497,-167.06086020412607,5.064140346730545,4.947121652267178,-154.34848697444917,14.438669273677304,5.833093897143967
0.29,-30.550241553799637,83.87453514321173,5.352899476187443,-136.4287835490764,85.13043819171428,176.84771548201223,-166.77234366085057,5.169137182091959,4.978080260811442,-153.94256823804696,14.86343313577258,5.832183425113382
0.3,-30.445689605002123,83.78630238834417,5.304953576923113,-136.12238110059667,84.286008572177,176.69736380034357,-166.76568985672742,4.989327523143879,4.792521516236183,-153.6157763345232,14.714266736467312,5.782319765242717
0.31,-30.479046073329297,83.56905409446267,5.363378654456891,-136.14506284850566,83.21206874499096,176.88688828757196,-166.26316550117917,5.084895641205185,4.145453712655682,-153.50699587982905,14.55041238386753,5.749731181139178
0.32,-30.45359855010835,83.14997114601253,5.1698890155370325,-136.0317602979935,81.94108419315474,176.97566800988756,-165.86765075298237,5.193471370105606,3.5143649112709268,-153.26689963536663,14.652551567109622,5.800953848336702
0.33,-30.425423151897785,82.83149754478661,5.325528513993486,-136.04752501813562,80.82481209651088,181.4523193303054,-165.52503093041878,5.288715321926085,3.3245659544852497,-152.8742003388565,14.791577176565308,5.6736147088487305
0.34,-30.22313170760542,82.4768867166641,5.368348249753434,-135.62657514979645,79.22633575082787,185.14433802401007,-165.24737870482704,4.895697425225973,3.007403898094848,-152.64174338152912,14.77604915623481,5.761423738838189
0.35,-29.92475665524404,81.69125334179554,11.205911812827114,-135.41839327653318,77.52257844863709,187.89863131910283,-165.10065403580634,4.894838321818303,2.504057849576393,-152.68890498098278,14.701307981276912,5.651149218046078
0.36,-29.765196455795348,80.83204257398835,17.073271642598897,-134.65629953215864,75.64990241811613,190.3310637164356,-164.84448734415344,4.733368727781344,2.1058896016088733,-152.4785156048789,14.54113062332492,5.802609805545026
0.37,-29.56769854418452,79.72263553906176,21.75632047941928,-134.39250737002996,74.05941285934023,192.4426697650265,-164.74722130202258,4.49462888939248,1.8336215039798731,-152.38906157229653,14.639356349663831,5.669761840926876
0.38,-29.681639121706315,78.83094183084454,25.434331260991957,-134.12423813725673,72.8031039277342,193.3926997421318,-164.2230439941502,4.232649423685251,1.1559871512291997,-152.32037500447038,14.752958317949972,5.733744153922913
0.39,-29.598530732616556,78.12015952975115,27.15234747702762,-134.05524957901585,71.94469307119586,193.87882199182403,-164.07604100096552,4.468406048797214,0.8312124652957618,-152.45361386776182,14.62538739018334,5.773240401458092
0.4,-29.55078041070536,77.613845577848,28.99232225470688,-133.72891095954694,71.41712128422466,194.26929055538147,-163.90308933235335,4.2624117253789295,0.9293870242401908,-152.15349590865918,14.603835073898136,5.7936841164864905
0.41,-29.62167124849728,76.90401600729955,31.620078533784515,-133.47692181406265,69.63508524176927,195.12102306873095,-163.29593843197756,4.224822455637054,0.7864686352784931,-152.15156715470502,14.74731569856422,5.769785397990101
0.42,-29.605297156287897,76.37092350223467,33.49228274633253,-133.27539247587697,67.97795586478227,196.26914057100325,-162.95778770408737,4.22208627094242,0.6906271306861808,-151.98097853530916,14.505504036105911,5.740666485813275
0.43,-29.677253199379702,75.81552706040938,34.37255863200911,-132.9331994555639,66.28666769220774,196.96035543495472,-162.50787439579136,3.760826340637159,0.6700279440167132,-151.9418894655384,14.316492904986978,5.752390214460739
0.44,-29.810990863781345,74.80396668247592,36.1784710361626,-133.0573258729521,64.22778687468333,197.06588934442624,-163.00573349613296,3.4359314736773063,0.8348917736161048,-151.95563121419008,14.462475527536604,5.4831150025371365
0.45,-29.863840162507618,74.40786029232785,37.72437154887867,-132.96096561023958,62.37018910060397,197.6479827066236,-163.25947444272467,3.443307485076347,1.107157379544482,-152.09595666278943,14.490187206046476,5.508589863670306
0.46,-30.24683065966306,73.0555415259699,39.073101697979965,-132.79333561873378,60.33776399397911,197.98383049816468,-163.8487384348969,3.230541843108273,1.4074088770778896,-151.7716530244498,14.298551464443266,5.615106365677455
0.47,-30.62814929491677,72.36027487131551,39.8555117139977,-132.82378918662204,58.80155733643682,198.0675744643227,-164.31400652155625,2.617430543843772,1.9015454890594103,-151.81537259458153,14.260742880207662,5.2925528738227445
0.48,-31.05678287784954,71.62169670807242,40.363091977100346,-133.02446443633733,57.10260311319184,198.44840016048343,-164.74079712738958,2.494278978679861,2.1279749544872986,-151.9888990656814,14.454271652752643,5.380999243290485
0.49,-31.00577667592073,70.952066832892,41.4638389308985,-133.47264433370688,54.88759464030672,198.3782463330556,-165.4623755255459,2.3965999256481787,2.2609338164974697,-151.85011448309515,14.341158790700204,5.324874340369043
0.5,-31.22246844382308,69.9468689411115,42.739827745489016,-133.6945199274116,53.20001334304087,198.26040932549424,-165.8105108670644,2.1276280577545004,2.133739267928689,-151.87206431151338,14.468774827310842,5.474099811639586
0.51,-31.764855293015223,68.67061832778163,43.84643070494312,-133.59912589027903,51.849125936680856,198.15156397327223,-165.97189775531962,1.7956463572543473,2.147389440435702,-151.92944401873157,14.383530964243793,5.208218286231418
0.52,-31.75784061599869,68.06228171155615,44.47450693270272,-133.6655976347109,51.242940436648816,198.21118329664927,-165.9694267497376,1.899315830321441,2.082807469986415,-151.61578730645164,14.30366410600814,5.224059518091924
0.53,-31.871416241247157,67.58013574568257,44.9218106290111,-133.8782361159035,50.49154634369649,198.15597241747136,-166.0625294385691,1.7110820402036095,2.0740963225769344,-151.77607866071696,14.488567621061067,5.113702015484501
0.54,-32.12939512529069,66.60989725965646,45.74346951721117,-133.77206172250212,48.79797311261933,198.3009243419502,-166.25252563575913,1.5328372824225465,1.6085100861271702,-151.76341850408372,14.377198201956798,5.064662550604201
0.55,-32.01832802993383,65.89541244583523,46.55077997522157,-133.8186806778644,46.81252155753274,198.29879921373055,-166.44226090381588,1.0747100387523572,1.6204861754380973,-151.59405276081557,14.529360849327292,5.154480731967972
0.56,-32.404592184254845,64.62634982301269,47.083193346001394,-133.34131972296467,45.501298970876086,197.99638350967209,-166.46670152142582,1.143326080471938,1.2586307556922105,-151.47955269532557,14.498054014905144,5.005092168434564
0.57,-33.206611827253575,63.31456400969374,47.32541596688007,-134.26219802827774,44.11248098835388,198.028288455624,-166.41288027524715,1.0035078652790368,0.871683638711267,-151.2808929293268,14.450071116746942,5.106754704924644
0.58,-33.51787870052531,62.78298238061058,47.037897786090255,-134.2948194470184,42.604429932789,198.20761579737396,-166.39500021359467,1.1314779422781944,0.7035726174017145,-151.10567825194576,14.606584147717236,4.787681785073692
0.59,-34.032421459826104,61.91563316451534,47.220466007835206,-134.74669825198353,40.70672159889224,198.3496971482789,-166.4099591075744,1.0344348421125902,0.4641822642923452,-151.22082278354716,14.534144099423852,5.0043101021778735
0.6,-34.508244927365105,61.37366514481267,47.488623791891406,-134.8381638256372,39.92141244787464,198.32365832170024,-166.01609390612313,1.0494595610151487,-0.0713450096293709,-150.97958150116995,14.679133144951676,5.068671776339476
0.61,-34.53800278107418,60.50419426198405,47.95546793821553,-134.80984937926652,38.31733416081548,198.25757632481253,-165.80824125314257,1.1410034113878231,0.4077544785240194,-150.9400360938712,14.78093227579901,5.385040028433994
0.62,-34.71273423059184,59.93062112981056,48.402193180751645,-134.8726676022055,36.78447979225557,198.09245860736024,-165.47823355892467,0.9450037683116962,0.4747107230391743,-150.80639085526906,14.889542655722805,5.315062169415907
0.63,-35.01278624959531,59.11754407392398,48.219470865814266,-134.91453677004674,35.116891858585134,198.33137260614683,-165.11225726350935,0.9054127943760498,0.7403058298468156,-150.62294629598244,15.200392064076931,5.662152302990659
0.64,-35.405611556929,58.85447365488536,48.411118348274165,-134.99756783551416,33.65150717752729,198.21318727436568,-164.5841838519648,0.9684771944257168,1.1233025370592715,-150.559937929007,15.424455555915037,5.653323857723957
0.65,-35.53278833377044,58.90681031029752,48.41172059959319,-134.92185781642434,32.99161393531106,198.283440153838,-164.54434360119384,0.937510713202908,1.592269939421168,-150.38824444976566,15.386463134090851,5.88149295519216
0.66,-35.537719022759745,58.70895846413799,48.63562035487074,-135.22014451951733,32.48164942912857,198.2398522610241,-163.9921205077282,0.8976639365306761,1.5991120101300056,-150.10908665409087,15.635141958901151,5.657158211826827
0.67,-35.35730788746686,58.57238495465799,49.14747296116405,-135.03076147110363,30.810624078050697,198.2576952213556,-163.66817962614564,1.0787020518961417,2.2346657177082214,-149.92843641289204,15.644129896168469,6.001861564279017
0.68,-35.67419701622802,58.43797443660105,49.61713962900464,-135.04200596676455,29.124991780527274,198.18271295586024,-163.30899332821429,1.0573656343075335,2.3422824744623334,-149.5623815475904,15.881166057621137,6.377424636720068
0.69,-36.4902240868437,58.13350134997229,49.248744730768415,-135.15934437035227,27.85797876151912,198.1184397827257,-163.24235683544285,1.2020796154241695,2.858427049987621,-149.41994271340246,16.052138220560558,6.237481621008455
0.7,-36.92677679444341,57.935765549252594,49.06418001389061,-135.1576754332653,26.56626684260329,198.01865734940043,-162.4825381143866,1.2018299807739248,3.0869674238740576,-149.2322559213414,16.312247894507454,6.699831616853415
0.71,-36.67784293081988,58.09172223729799,49.65327352399712,-135.2242581324852,25.425025967636287,197.8086834715909,-161.6381102665187,1.3375596312761442,3.130061851986162,-149.1549896649877,16.674910730674192,6.775425125177336
0.72,-36.1316209160582,58.11267544953879,50.21964666682615,-135.3411603266373,24.400180538421235,197.49346334695628,-160.83542175803854,1.2180063838713184,3.317475107587649,-149.24016228770137,16.513746513020216,7.03614295995401
0.73,-35.9693134950418,57.39735167280296,50.85711087657761,-135.25269933424738,23.763289889170235,197.23082128323588,-160.23884360807574,1.199641120064574,3.653986687794441,-149.16586017141705,16.527644454188884,7.191147305822297
0.74,-35.786283184798144,56.47048014381086,51.44848730863116,-135.32173836521977,23.53202585971614,197.1072649316152,-159.63067689457702,0.8216349830158766,3.8252648421533912,-148.97169796179205,16.650941570300375,7.734017222795133
0.75,-35.34349503268425,55.65367638275895,52.246690575651215,-135.50295401590657,23.074210076133888,197.1285921929608,-159.17907640419548,1.0002503526483877,3.997026765568464,-148.87752938356402,16.86774102716966,7.686628795010936
0.76,-34.7765455466962,54.74531873846661,53.10742043095762,-135.26915240694314,22.358163715714262,197.30516188716751,-159.2273846560195,0.9716730343201234,4.221366562982574,-148.75787585222503,17.03130593468669,8.083080560375175
0.77,-34.55333454840551,53.736173387344,53.7067520566954,-135.44486522678008,22.40262446475428,197.38585836083016,-158.7628605920311,1.0482510774080835,4.238818979882068,-148.4020724113375,17.154604758239,8.207317770717822
0.78,-34.592560843411526,53.12561447038505,53.92695934723707,-135.2174302066697,22.5798524690248,197.1907390686824,-158.30904035794376,1.0851886458328408,4.481337342254236,-148.73948979592845,17.23715124743075,8.451584153593194
0.79,-34.13895170033961,52.7141741634892,54.12234917965955,-135.19545269660023,22.53859944430953,197.12064300430097,-157.5901847177863,1.2140053395089725,4.931753989083395,-148.16173062751963,17.1190425427347,8.530464367855613
0.8,-33.853135279109026,52.05634653878862,54.87547770435928,-135.00719093340862,22.61597147222352,197.07891056413465,-156.379932712956,0.9803122210767764,5.134658174855362,-148.38950601046974,17.418145038547213,9.013903500220229
0.81,-33.73611315416841,51.17569216303522,54.96124205726683,-134.91254939365584,23.35408241309618,197.3286236234081,-155.33494612046815,1.0948944377906684,5.214506150554719,-148.14491427712596,17.473668505949284,9.257421510150396
0.82,-33.85498332081793,50.8919005803092,55.48543790442544,-134.6859208423212,23.678675645410436,197.5814238695734,-154.39126123498733,1.1168929301442547,5.542359904086848,-147.80116346260846,17.51881934353083,9.642921552273055
0.83,-33.48926261294464,50.31153816983259,55.65259089466501,-134.52612812903163,24.71767944840629,197.5571800319301,-154.006428877465,1.1472975824442615,5.710766588110937,-147.65746258451762,17.689037188480594,9.93079073498111
0.84,-32.23829702829613,50.16572477083563,56.421691299856704,-134.22462206376292,25.34816799901437,198.11339503521785,-153.84958203539102,1.225443289520164,5.796843768154141,-147.5496824646005,17.781618994123328,10.47416534410117
0.85,-31.427988643125463,50.20537660773196,57.19271897922293,-133.97082660598497,26.03352986194685,198.07582936031304,-153.6169106378446,1.1456598715098332,5.846302264480323,-147.71209377600664,17.8583791345337,10.63663303283396
0.86,-30.771501944578176,50.41030229469091,57.68393111495799,-133.75554818621114,27.138652445264125,197.5184747373039,-153.53798464387268,1.251253382951113,5.500946560895334,-147.83780423745694,18.061816306652247,11.318269143507049
0.87,-30.570206974204545,50.27673599364992,57.819906619847,-133.85939602512516,28.339900622924983,197.10465770788835,-153.27261014608268,0.9489337597229976,5.554953756728286,-147.9059764683774,18.09997577889068,11.576603082135808
0.88,-29.89337659808995,50.19165003248545,58.41810402514891,-133.99207561229576,29.133317058089855,196.42130712351877,-152.6000020349195,0.4699040750126935,5.211843108492296,-147.73263546445392,18.28138206692064,11.851770979753956
0.89,-29.09213649976516,50.56870414834929,58.966174560250586,-133.93768173147913,29.71623772457471,195.9957083112156,-152.18357501140946,0.1915642943047929,5.129748578773804,-147.28711712570362,18.385933614976075,12.139235401740606
0.9,-28.2031427312847,50.90106477643112,59.4269791150765,-133.8136224081361,30.285312293025903,195.57301874540084,-152.3677886745106,0.2278556803977456,4.738199547148738,-146.79566776393338,18.572249054492108,12.335129931100782
0.91,-28.017732203404268,51.022889114648976,59.2929796061022,-133.8684104133699,30.64647939953724,195.61072022650205,-152.81493881759215,-0.0320280572172028,4.647983731408302,-146.4613250314109,18.575038439127933,12.447918874076928
0.92,-27.886782957143257,51.36954314342528,59.47173863121324,-133.8240703203178,30.96081094584217,195.1395336813239,-152.92426305995596,0.1912037263251982,4.449434719843821,-146.35126878171468,18.622594698633534,12.641652652450263
0.93,-27.39809139937091,51.8686870753533,59.84887135696882,-133.93423948584254,31.592125811827035,194.7782138181441,-153.21744007146026,0.0502705935105282,4.179115806504546,-146.22973707844625,18.552740661634807,13.181445118783888
0.94,-26.841906664204945,52.32055601557902,60.07385147663777,-133.92807094031394,31.75939764987457,194.31793447500505,-152.95327950512822,0.3307708237539678,3.773380164138192,-145.88205707650076,18.74697966056938,13.588574848753826
0.95,-26.30650411937169,52.4703305733372,60.10551661134878,-133.81793404729368,31.707872968951825,194.15845642318288,-152.55536074793022,0.983997884126798,3.5762823365175898,-145.3194588293903,18.85094084964156,13.890677012055574
0.96,-25.76968426304325,52.46010716964636,60.21452046267173,-133.7968513300304,32.33003698731051,193.9355956255008,-152.75008961103023,1.5759369116609676,3.184106942781852,-145.42555657877764,19.069672755531077,14.169900950392416
0.97,-25.44665043431298,52.27761010762063,59.90568890568873,-133.77756927011995,32.22162898681719,193.6947789692258,-153.8664192815689,1.5959566147988151,2.4329285528624607,-145.13387235292802,19.085245241256,14.661126602184252
0.98,-25.019454370348974,52.72867576082933,59.91567017549672,-133.83812260409562,32.091292056380226,193.29908103709383,-154.95245537302367,1.6135191112018763,2.182683287044118,-144.9560918319532,19.143455183070408,15.20052140267486
0.99,-24.77862210761321,52.77001724087113,59.72851670889815,-133.8346430358201,31.865499547414792,192.95588416740432,-155.58672059992398,1.425147211075244,1.5958127959127295,-144.80354780864255,18.927995466923957,15.320110558981227
1.0,-25.02407289982356,53.01887204061216,59.99096067739153,-134.00813070012515,31.970473504789556,192.49985829569832,-155.34655340579883,1.7258544318462856,1.354979452252021,-144.8575120969991,19.068356777259424,15.990087930209691
1.01,-25.18783165153052,52.75475966823289,60.13927536248492,-134.14866000846504,32.08661355196698,192.4144816087692,-155.15342371875377,2.019609309098809,0.9266151150770482,-144.7061529111945,19.112405698398764,16.177494037150378
1.02,-25.76363481127323,53.45863346539959,60.194398794381335,-134.1177692423321,32.243434382534915,191.9511534943824,-153.9953860898371,2.115369018991971,0.661007350313602,-144.35239361587276,18.89857970438535,16.494129090138486
1.03,-25.87061277350192,53.48180869897629,60.02566754859989,-134.39588614134254,32.51003492178127,191.966329049838,-153.76362503187406,2.275529237630755,0.6326493210965154,-143.97646085446624,18.75184118808145,16.491848584018424
1.04,-26.131876592166613,53.73990175698033,60.30140440406132,-134.14424836897504,32.92633695157905,191.90857555641844,-153.6289402700769,1.9286711298297488,0.555354878421034,-143.75976782608635,18.911655765394457,16.502436144026618
1.05,-26.26716572730108,53.72311611689544,60.34686273384561,-134.3051455543041,32.870133987902435,191.88259512654687,-153.70369076621918,2.1963309536511453,0.3575352155276775,-143.73064153888765,18.98263351788124,16.642571407429255
1.06,-26.529652947844337,53.85487815822513,60.18478247227448,-134.55670587816775,33.14252882995264,191.8047937815868,-153.79935751323413,1.910389566299924,0.2652805952053423,-143.59472854026427,18.877484557348197,16.973224411485578
1.07,-26.857157939786955,54.168446525105416,59.76341535612448,-134.37871669609683,33.73634778376458,191.69512858321707,-154.0818978089342,1.7727516645965415,0.0054149227049135,-143.52836013816366,18.581163843118485,16.99636988422503
1.08,-27.17280314606966,54.368155464433606,59.62468078253976,-134.3236149510954,33.92452189024896,191.40461674848888,-154.0372782163162,1.6991636732258806,0.3140130381868226,-143.46527514130338,18.205135462248126,17.09478472501195
1.09,-27.19579103346709,54.37004439945038,59.628945452433314,-134.39188991057776,34.31173861490379,191.02577770145797,-153.72522035088906,1.6121857231568442,0.2862625449892763,-143.97076260890532,18.326568962955136,16.977390562260588
1.1,-27.530361807089456,54.81444833872493,59.59265269746224,-134.5530412434218,34.855305683976304,191.13959401496965,-153.23565803010803,1.6160037204584912,0.2591517220096048,-143.79144928264174,18.157588899668543,17.309127940101643
1.11,-27.626141255579363,54.80064727603453,59.39142370788118,-134.67067654357493,34.958155358585365,190.8926704139736,-152.5178178466701,1.7803892032899735,0.0154464954889274,-144.367756664729,18.10175619151553,17.53487252446326
1.12,-27.68882573152523,55.01013312525488,59.40632416510785,-134.5152178742701,35.05743697460597,190.5516308101862,-152.2038111626257,1.880512962260568,0.0848263254845927,-144.50405886335847,17.68627248866806,17.970250370936053
1.13,-27.519044753285204,55.28049234587302,59.38339345347252,-134.55969711182615,34.98771465034156,190.5480180951205,-151.98680151809737,1.914098123435008,0.4252627010960967,-144.16047051773828,17.69543596510896,18.715387783723344
1.14,-27.218069791897307,55.222467146121495,59.56813851097085,-134.26113945445385,35.18279723854937,190.37397097878676,-151.6038267797734,2.004459211915289,0.774893817119021,-143.86670850570982,17.713310670456597,18.454918365078488
1.15,-27.40256591851431,55.35873748913176,59.69105531100072,-134.4433631392885,34.98146899553187,190.08613763931376,-151.25163317203126,2.3343593815541457,0.9149262226812032,-143.48329189307324,17.889732570712244,19.07902642356239
1.16,-27.32489482809147,55.761680583266056,59.814024925090166,-134.57737722752552,34.93215664087521,189.82775177487355,-151.00304453206513,2.452132234955185,1.134226688484994,-143.6234897057838,17.81592493840298,19.711950778987845
1.17,-27.372918840634803,55.760483086231936,59.740999446978016,-134.28078530667568,34.868375944303374,189.6754262716861,-150.87062496243496,2.698612329350205,1.159155495856817,-143.67744837675977,17.89976850684526,19.98441654396017
1.18,-26.99098120444838,55.8180794235029,59.96686158373229,-134.3158935380791,34.89627336597033,189.87929393991317,-150.8994327493291,2.8044382696088324,0.7661356387261624,-143.98832078335482,17.66467045471123,20.51455194949906
1.19,-26.795785502882914,55.786082873998886,60.240580700461926,-134.1770460568528,34.274196033537955,189.3968842989147,-150.85997742026774,3.06263869869395,0.8514565382978008,-144.65052932312733,17.386887532032006,21.503347874376768
1.2,-26.23886158263387,55.86717844281144,60.3463785297304,-134.14974289276975,34.65591327582407,189.07878467736745,-150.9967794699648,3.5760361737680317,0.8746239695858455,-144.87194243298333,17.07583863060878,22.37538267393725
1.21,-26.377399868107105,55.93498257532262,59.96567532779215,-134.0640510901163,34.10094719667576,188.77290534400788,-151.9751422261434,3.77044977802368,0.7175129162543775,-145.10530418300107,16.810539427279355,23.227383631653783
1.22,-26.004592641561075,56.09533052294683,59.96147176613983,-134.03315100892962,34.0013914307277,188.38871093996613,-152.8350204655676,3.6987759357188312,0.764294727271802,-144.6687673407358,16.80468496058796,23.930842558978792
1.23,-26.0416359452384,55.57673918202912,60.02784058780214,-133.9353494951429,33.70603409559902,188.28022961973525,-153.67169128736575,3.5951525286177555,0.487268506665833,-144.53295077367864,16.899571147826112,24.84555941650193
1.24,-25.82409700247515,55.7748976158268,60.23385737372173,-133.962220151729,33.61787656850264,187.7826038392434,-154.1397065789182,3.161454322067608,0.6225119032350349,-143.98911243132204,16.638273149033587,25.52005267759181
1.25,-25.751431263456556,55.65113191417227,59.98319559680266,-133.81571286574774,33.717469494896825,186.97827915557465,-154.20914417014689,3.230990517777782,0.5359158635263708,-143.03154776484146,17.248001109896308,26.17599383744619
1.26,-25.60835587543757,55.42747044065337,59.97154784806821,-133.52607967600622,33.35187968149395,186.08184560179677,-153.7809616729086,3.275208115580031,0.2740812394189938,-141.95361812642471,17.537876672831445,26.481504321027103
1.27,-25.33855273185495,55.236520802145016,59.90709181708383,-133.2254250805779,32.528740264787686,185.07788216966043,-153.85306517108347,3.4455867453590776,0.1855327769012187,-141.6072151259222,17.855396116963632,27.14463310718484
1.28,-24.453577508040624,54.40509264298449,59.491095867511646,-133.11984915185633,31.641790513506542,184.2909416631014,-154.0617102363721,3.2918351894966444,-0.0132201431942845,-141.7196272458214,17.882636433464857,28.25961294561744
1.29,-23.667871522008348,54.20207158429448,58.81128356390342,-132.70671728791018,30.818277635626103,183.193114955632,-154.3441892185188,3.153299369633076,0.1787939139388825,-141.92752990703534,17.77204717569226,28.942116149285617
1.3,-22.98816044680964,54.04814441146754,59.0900761395285,-132.5292634096784,30.28089262789317,182.94013966150305,-154.56803331986492,2.835431948387024,0.3035221910434619,-141.86790132692792,17.741053751316098,29.36859796649813
1.31,-22.55050240846601,53.78950769523886,58.87484341133828,-132.34124205066837,29.7279111186727,182.3410055321207,-154.7218439116603,2.9657182117655667,0.5863280639069584,-141.9392437194402,17.97677878022338,29.525346934696135
1.32,-21.75100820802845,53.1798296935062,58.400615629159006,-131.98787649139808,28.734401797370936,181.63058451584837,-155.44941327367565,2.660780990877889,0.6515536564166384,-141.76436245093817,17.722166134581688,30.11295445396103
1.33,-21.120088687288177,52.40603379990351,58.33379229426964,-132.0085910620167,27.60525324703485,181.3086249397143,-155.83102174685428,2.144920473154633,0.8168097380384509,-141.7459088700328,17.59391387246679,30.81341609771979
1.34,-20.62821713408424,51.8445516421444,58.30442799106116,-131.72310278201124,26.67064032195785,181.13444094592876,-155.24318639932247,1.8217244690415932,0.7802614407712294,-141.99695916367688,17.5356979125135,31.038391296237982
1.35,-20.89147955706973,51.01168526393729,58.52654540163817,-131.69695621288494,25.648286166755724,181.3153549527157,-154.8920557115165,1.8598654575954527,0.6630285226616106,-141.97059289067678,17.300567694944984,31.48844078839622
1.36,-21.040586006902416,50.15099805815994,58.93227924934597,-131.72965217873187,24.847869940112364,181.5961582011512,-154.73758777375176,1.5325175604551906,0.7570532143967497,-141.6127213460644,17.249892487460574,31.97512741202921
1.37,-21.63799937417498,49.7249113186484,59.20693951219105,-131.8394708936683,23.90666253653842,182.0926311709407,-155.60785365054934,1.1621528049111562,0.4446208422268483,-141.03360059812192,17.162592155562383,32.11291245855636
1.38,-22.271291724650524,49.12136321847034,59.5999420894056,-131.80844402439226,23.710157828352276,182.21549232069225,-155.97111597779696,0.6848051960830599,0.48169896027093,-140.76073801178129,16.998278406520924,32.45512459737549
1.39,-23.33549516330123,48.54671952970364,60.19174565683519,-132.07146780530496,22.480054321830465,183.28119216376064,-156.44396303183782,0.6336042356267392,0.5093360499123385,-141.01674012199527,16.663399555575936,32.81773964761791
1.4,-23.93615134721368,48.140196524162455,60.04932830756935,-132.38934120651996,21.33999743615407,183.7522178382127,-156.55961953397895,0.4885083860437357,0.1079962610216552,-141.04668094419964,16.28762133974922,33.089593305637145
1.41,-24.48849381612977,47.60407976080034,59.68472327125317,-132.2685185303446,20.37593847704751,184.95203336853723,-156.37225235614596,0.3278091864988599,0.7477195085663916,-140.97395324752569,16.101262028431943,33.22182574602497
1.42,-25.000733918123583,46.97574068289719,59.654293672912594,-132.4135914595232,19.36269165291234,186.0952702394981,-157.02228482761262,0.3174398393616338,1.1108449702852206,-141.34181802576515,15.670583234900302,33.72265270670519
1.43,-25.296900276919505,46.84443260998067,59.33308992095502,-132.45217929628924,18.83536634806847,186.6708419852396,-157.24044423228992,0.1778983266061552,1.1089537586203635,-141.28916163951777,15.615767396466712,34.03616651618768
1.44,-25.49915958709269,46.50395567876708,59.183192814804535,-132.630657110245,18.213448817148084,187.44290370410832,-157.73214589879564,-0.0654635388926413,1.22602146869061,-141.33959934391683,15.536699157205724,34.23202880038783
1.45,-26.090788238835096,46.10849823785576,59.11629512079477,-132.7754350224137,17.440530230038753,188.4715530647812,-157.6734503994505,0.1177211767493952,1.3363788370668856,-141.61183004685705,15.367732615550157,34.645417150505075
1.46,-26.497745587713037,45.53394443287068,59.12982417543855,-132.88708362140426,17.073317619047984,189.7977545450119,-158.3101326929044,-0.1481918702246041,1.3233222268864355,-141.92137192070768,14.54015768184313,35.422453016890096
1.47,-23.81798409106989,44.88982145550556,59.07433591634857,-133.30841438304276,16.949267785474557,191.03258415841276,-158.4995979483812,-0.0111861608642879,1.4705248138187084,-141.86847953481222,14.4056731306409,35.88039553997549
1.48,-23.954834661898595,44.09468869273015,58.72255225884252,-133.73631720705197,16.65016763012623,192.41029502204472,-158.79014748453622,0.1100324944811987,1.5276497388061667,-141.8517765485922,14.019009063979848,36.72237310231342
1.49,-23.862011424990698,43.67158337929244,58.58753734977841,-133.90177556602808,16.573584412529314,193.27320005538292,-158.97289611022768,0.1642050886130386,1.3787342603309527,-142.01640454765604,13.836488184448696,37.31069814699037
1.5,-24.097221655804315,43.12431276953931,57.33150478774702,-134.0448487523297,16.435419164273693,193.84902739152596,-159.56919304695978,0.2634243925800286,1.1803363420004584,-142.41658764616113,13.494637838431824,38.06760470509332
1.51,-24.06363958834459,42.66134369285095,56.344919582726206,-134.51275810023887,16.239026058646342,194.46057043350257,-160.07078030057423,0.4277316824250533,0.9175349643890344,-142.68348210797566,12.895253286917972,38.72503930836051
1.52,-24.36811002576277,42.45493841335535,55.14124276723383,-134.55421659986317,15.723354465026862,195.31919748453575,-159.7207785725105,0.4038135450079292,1.014510394542929,-142.79181464576865,12.628343021381944,39.07586552922714
1.53,-24.48074898719133,41.78489908398587,53.61398776750248,-134.85063043320875,15.831343589458402,195.45372102275203,-159.28153908556226,0.3115033289063811,1.0901431351854989,-143.21437012754257,12.364032340383533,39.71663641110391
1.54,-24.711171183231308,41.73751967307385,52.45790118679039,-135.19663977495398,15.571710659747206,195.668749436342,-159.65633295749677,0.4003893274154854,0.9035772738328244,-143.49178568857093,12.238679947076314,40.24093934306877
1.55,-24.7160243363496,42.49126161966686,51.5425204103256,-135.06380614279658,15.661978750285831,195.85479744092285,-159.82644928009103,0.4559851918467365,0.949974584963262,-143.61919201311514,11.951061173123682,40.78587189801102
1.56,-24.537653152506188,42.80752716375096,51.291720540684125,-135.26283791768114,15.62334565703321,196.0995051690508,-159.87748986024903,0.4318713598451784,1.3898161918665528,-143.97368552866877,11.80424258921247,41.29107813018347
1.57,-24.66422853444277,43.1625879306246,50.86027899184777,-135.40345412196487,15.752674808685269,196.1262538289818,-160.06442338543286,0.7091781425478857,1.18669941651539,-144.4572069360696,11.672350088023483,41.46926451439098
1.58,-24.69554472657592,43.94075118303032,50.44394024007661,-135.4604976773142,16.183176628606134,196.04937001777407,-159.81257541506002,0.6436883546178994,1.4510720390065164,-144.92368571625298,11.293652993022446,42.19044948433986
1.59,-24.575830221943804,44.64467237319492,49.73552157385571,-135.4995972529156,16.61177821057692,196.13825428904948,-160.06260245138995,0.4600841973581949,1.4196864794808204,-145.71148787600177,10.813049393048722,42.9203404544078
1.6,-24.05622759386089,45.876175263979896,49.73787641401861,-135.61601395137384,17.26132751074303,195.89245137812296,-159.94842294448975,0.1136109505976838,1.7450727873310454,-145.78993261612578,10.45884989371044,43.84452917337747
1.61,-23.929652715972868,46.85303813920664,49.29842203869551,-135.64239054631082,18.240515347344285,196.18532889580757,-160.18121405826133,0.2002890075336161,2.128290872034659,-145.99814715710443,10.347487723686289,44.48233338240559
1.62,-23.75971907112783,48.21171887000072,49.08022722556773,-135.52482658358082,19.450244597991247,195.97877205524316,-160.30763488659414,0.3273688957709683,2.1091683257457245,-146.56221403689892,9.585806373311284,45.33876073428187
1.63,-22.673348714847428,49.88151026493885,48.84905821108138,-135.6941372151315,20.81663822813724,195.91392749630785,-160.82597163127457,0.1417396054769774,2.200972104260696,-146.85576704519193,9.424746840862433,46.03262626933866
1.64,-21.486733607103563,51.74438941167834,48.811706671395285,-135.53892522150068,21.826493063482097,195.72094671564776,-160.9364474680406,0.0039010522326797,2.535999669858062,-146.98819395763758,9.233217642611905,46.43585532360022
1.65,-20.78953636157508,53.4735684813379,48.80314713260613,-135.64329178817536,23.50953686563919,195.4898427884829,-160.63265131322493,0.0962398412367927,2.918517337527118,-147.03462426665456,9.06780796543375,46.61612975798178
1.66,-20.53173569141282,54.27253049753706,48.42858572911817,-135.50893498754604,25.24945811970871,195.5139633450277,-159.77421735093978,0.377721168054685,3.404717997789453,-146.94977172344218,8.785616300411144,46.85019816931998
1.67,-19.622846620712743,56.35185495559269,48.12034313823065,-135.30225168483528,26.75669756796236,195.14415128839047,-159.69318121810906,0.4042242993240577,3.702950482956441,-148.05725954606163,7.836427949481394,47.48423921995436
1.68,-18.368949999807032,58.62322789506796,47.89136996567446,-135.45039789886962,28.359286332274937,195.2637717372436,-159.43865430321333,0.5693261375139066,3.824570117641797,-148.49820646345214,7.072315692704619,48.43498022541431
1.69,-18.11097709880627,59.73866925528042,47.68535268637369,-135.32060082406124,28.63409045632656,195.1041501674337,-158.99853187036788,0.743029582533085,3.817746947892225,-148.90196413804225,6.75418681925137,49.03683733627539
1.7,-17.622446072524507,61.027327591135055,47.35758418961749,-135.49018395988827,29.01865306739708,194.9310096665885,-158.8219979767962,1.009408015799124,4.0241269831661945,-149.43191876003215,6.275114382545097,49.261265014403016
1.71,-17.29411756242859,63.291896884154106,46.33488847278255,-135.11490084330185,31.100169134468512,195.16447843150516,-158.0840502130425,0.890614521675154,4.200754364231944,-150.1627213549523,5.440345039027342,50.07349475289461
1.72,-16.468512958437245,65.26666237120435,45.33373198831352,-134.93275280828567,33.0617025621176,195.33375635228813,-157.88194686529107,1.1688073520324276,4.322526700786975,-150.8926717521992,5.286940169680998,51.15814549591378
1.73,-15.630752726113204,67.80393466218958,44.107332483685525,-134.84244356804314,35.13840918110651,195.07114694331057,-158.12837919856557,1.757106657396362,4.355862418540064,-150.62765272286182,5.394272423180109,51.68006463154301
1.74,-14.74778904361117,70.54008706544649,42.53572418379226,-134.69656014049178,37.17087818520061,195.155491267082,-158.17819039495788,1.957739175358196,4.634903943969819,-150.74053302041514,5.170243247899059,52.51689578079714
1.75,-14.146587937669006,73.37236634075613,40.40666908594112,-134.4128072685355,39.29378210328751,195.29960029859885,-158.07705012818525,2.6004298905303087,4.626793284994305,-150.4200799276842,5.558870830147062,52.743293148510425
1.76,-13.326056172270594,75.48229793547524,40.51031848461406,-134.09758847632168,41.4647390712617,195.26256018908944,-157.6526745065543,3.1524218889954003,4.69633897648331,-150.26056636227045,6.307606959981735,53.27403832456647
1.77,-12.576767584279631,77.63552037373704,40.55979515354032,-133.84448957587497,43.55201721099482,195.57543716731877,-157.34586574998988,3.617047987302567,4.454526413200012,-149.86496358116975,6.172592365382864,53.638537906714575
1.78,-11.919645664777352,79.7191998946267,34.83497231253727,-128.97064217872096,45.78456937271513,195.9753975129861,-157.42027764836408,4.581982106783816,4.490882841502321,-149.27894381715552,6.339100373352879,53.89092596036093
1.79,-11.34372266400119,81.15691596022546,28.487380340177754,-129.12255298772112,47.83988424563554,195.99718143248268,-157.3764940762095,5.175762872919951,4.5786614820505145,-148.91007289677125,6.652527021097996,54.080829526279885
1.8,-10.692468785580465,82.51623737762107,21.158779850414916,-128.96239194530298,50.1975598539108,195.89835775867024,-157.21543839069747,5.981463213736346,4.384779370738794,-148.92170846491086,6.813110400273621,54.42228236146168
1.81,-10.020737341978958,83.5267499153506,21.289210989926087,-129.27531390389532,52.45698810388927,196.0708672546267,-156.86531442490983,6.56903723362445,4.115234523369722,-148.70389879426273,7.046287846745693,54.55696442202506
1.82,-9.641692827779874,84.04841799185093,21.418985177532427,-129.15124482576735,53.55556601871251,195.90316217810724,-157.1666781230061,7.001429441742946,4.1706196984815085,-148.68614258561328,7.068650168936191,54.83880209851104
1.83,-9.408899056437535,84.2199146073277,21.323081303496057,-129.09573162925054,54.79525528450601,196.4154283740384,-157.29301075084797,7.556437707430532,3.938787298806967,-148.21005726160038,6.885369838832417,54.94951397144589
1.84,-8.808233517758419,84.7567694426445,21.361278299575787,-129.1840570303082,57.06827994473232,196.23652545502165,-158.03207229344306,8.474162187271206,3.416860751076648,-148.54879176289737,6.848850488065552,54.875630351884105
1.85,-8.260181142183848,84.70679319359411,21.50185177735986,-129.5381234251019,59.62046490656412,196.6401337964176,-158.27247075607707,9.619972744737924,2.9398916173938803,-148.5431517594783,6.963108216551053,54.90091676053894
1.86,-7.5750154254887745,84.89592184673678,21.30167017327608,-129.84570114852315,61.93317107302075,197.0060853445977,-158.8256228351129,10.73478656454769,2.2127785144209766,-148.80316799262437,6.912568896149153,55.22418816507312
1.87,-6.913121174258295,84.5123636600951,21.41124227544412,-129.7856456367432,64.35183499349746,197.19793659988756,-159.2091826834662,11.72891910541935,1.2258665313427708,-149.1147733627858,6.931449256150681,55.56013117216308
1.88,-6.468436807402591,84.36913369697812,21.19646209089895,-129.42401763925477,66.75357521906443,197.2885427016685,-160.01853730584696,12.611993071578093,0.346944210704918,-149.47052797573895,6.756735268541196,55.67735866981117
1.89,-5.947711081247631,84.4127760672169,21.16805143805576,-129.581816156314,68.99431183465677,197.5132328770112,-160.5350563373299,13.57961446963092,0.6014743468753584,-149.88533274009205,6.540716361857543,55.93603993560109
1.9,-5.630194008833699,84.75838791905805,20.96544212982671,-129.5102940004624,71.04272885396401,198.25089232011052,-160.7807898974122,14.34057937439926,2.348023762826553,-149.76457149389293,6.345367007189316,56.22343277314219
1.91,-5.228279301552281,84.78428980396856,20.629470248309023,-129.63281374776267,73.65437947793,198.07475844610863,-161.45607440895904,15.7732806018801,3.866697904691731,-150.03653188524467,6.173122398102815,56.27452314585241
1.92,-5.316164018578621,84.88569287841943,20.754207746695496,-129.6232297810238,76.04060255463533,197.2147545272776,-162.18723930847543,17.178172167941067,5.824068524062492,-150.1576026651269,5.950791994074119,56.550673218272166
1.93,-5.126442002028847,84.96877080095628,20.725714367440272,-129.93002001268977,77.94376430568236,195.99578661341656,-163.07657548762003,18.678349834609836,7.888884826826676,-149.97263710572363,6.222376212052376,57.13816745226169
1.94,-4.982119119075223,85.46841591486518,20.44351424674313,-129.77120933253056,79.98463814934303,195.59150548050425,-163.3511030650054,19.804876748150384,9.961614563793953,-150.46275329529027,6.118627551750802,57.86567585736744
1.95,-4.844392985252206,85.20746134399407,20.436693485587263,-129.81226425169308,80.79847123549341,196.2108650251241,-163.75276600982724,20.45163478627671,11.198843498942756,-150.75309418172952,5.914636573869537,58.31833231483044
1.96,-4.939188132069812,85.12742638687402,20.46324996965954,-130.16102972939436,81.73462273994605,196.66842823154,-163.76272687835066,21.334905122633145,12.165956648997543,-151.21640947692995,5.836251765228931,58.75758568789746
1.97,-5.029830976660428,84.99632110969529,20.333575749119383,-130.20660137004916,83.80040028498188,197.673536498306,-164.26259805633308,22.642787250170407,14.445358074497689,-151.72319778231875,5.766039593531933,59.756521688983824
1.98,-5.338260130914198,84.98940287880971,20.436315971871,-130.54141728069058,85.39406172260384,197.51164843424291,-164.2623011541956,24.258771746935825,16.5003928555637,-152.78548302853685,5.677426317055498,60.66801738481061
1.99,-5.379711966570186,84.84121535554334,20.614924849787155,-130.8662469976576,86.40724006081496,197.3829057720073,-164.81388928769672,25.72798224766929,16.67702627504628,-153.08503290741592,5.730760931998845,61.63733295115148
2.0,-5.305829726379528,84.60973714696783,20.57671875155527,-130.44908963870685,87.78893620432594,197.3023495614614,-165.37244981208073,26.906983500615933,16.6905664211636,-153.1972019540463,5.968062575320788,62.58033980112211
2.01,-5.1663124642610505,84.70582975840175,20.601385097411043,-130.766503207537,88.35650461370079,197.3054851050645,-165.5979324837772,28.57066008366684,18.84303472845709,-153.5337279786521,6.079079204051656,63.51995843174919
2.02,-5.277502758143346,84.79513612686006,20.660991885396783,-130.71257636028088,88.45141563669637,197.1082472177636,-165.44917039310567,29.70547798925632,20.76004589001833,-153.3966434945105,6.123122707607371,64.71613388010387
2.03,-5.043052718479881,84.6956368730877,20.735077221378248,-130.93069708717312,87.68363042152221,197.1416556454896,-165.55708221035383,31.356772509940832,23.43219429347265,-153.26397743949963,6.756593316682964,65.42066542080015
2.04,-5.281952957644619,84.45705840156216,20.772025367163582,-130.8188968006423,87.20850089562012,197.36694240794748,-165.50486113328432,32.93085903733706,25.225294371727674,-152.81978679192085,7.157115592018502,66.56290679811607
2.05,-4.960212958849768,84.82141477435376,20.766606011873588,-130.94858954542235,86.3186006120266,197.39835640911588,-164.63792345309324,34.294310109692816,26.7306232650004,-152.24277735346718,7.774075730580302,67.46195167260055
2.06,-4.835976380785985,84.80555543348856,20.765205249730645,-130.99271031199942,85.58825875111451,197.52110559846105,-164.87677850341075,35.281482300568456,29.128310910347498,-151.91490660491618,8.141943103226474,68.45952238348214
2.07,-4.830512626187904,84.7874926686694,20.98499837231494,-130.92632452832194,84.85537828920656,197.7463690353064,-164.9509142456294,36.0534939696844,31.448417673732727,-151.26708245861033,8.393895522684614,69.15286431740884
2.08,-4.6249075975742615,84.62724184456908,20.600616620281304,-130.9443177785506,84.50300389885756,197.5496191885612,-165.3717883326443,36.60260593628168,32.72562496784938,-151.2578620502384,8.643938077516186,69.32305754274715
2.09,-4.645131767085167,84.62296697843793,20.7846469266652,-131.08807540857657,84.28585785165716,197.636243010999,-165.45634628267507,37.129862802901926,33.857032379112844,-151.26564736204588,8.954395435508873,69.64553120669625
2.1,-4.519649527605549,84.78267430646127,20.6265643554265,-130.83740453756386,83.74889793355037,197.6787083484333,-165.44231000606644,37.30448150607226,36.00661885777188,-150.49656174050415,9.190899399181436,70.41283703945282
2.11,-4.760486631139212,85.09213218822065,20.685326619220973,-130.79573223053427,82.95071835485119,197.6232652206307,-165.03485281750565,37.49390973952182,37.970626245183496,-150.241852780255,9.414570965748135,71.2193888995664
2.12,-4.89142680025647,85.20385130638518,20.585640116443837,-130.65459491892534,82.71425328067832,197.54019033010348,-166.1349633950412,37.17076492179804,40.76670714620024,-149.7622642267728,9.701003005578062,72.1239674608721
2.13,-4.642186941939094,84.97613568782383,20.75553873099745,-130.64785536864795,82.43518098484762,196.96995996071496,-167.10086892112096,37.13247808724323,43.150015491747695,-149.14811328250002,10.40992922887373,72.61469515295381
2.14,-5.00800268503981,85.03211541715068,20.926988750226705,-130.5208387201185,81.8453947440986,195.12223183160265,-167.23783758026562,37.00584794453586,44.42500843492469,-148.82862910762324,10.792927741305384,73.30584933329789
2.15,-5.039099563250239,85.12550316104314,21.04326966931838,-130.74468316983814,81.01057238391284,193.8560819966115,-167.29697542130708,37.33491037640902,46.40635594099973,-147.98350309823334,10.804472803516568,73.89510182747833
2.16,-5.4562173799127685,85.15368637001458,20.87512381210088,-131.15207406475596,81.2242960589459,193.2316343853997,-166.6995373504013,38.03052614238351,48.066826648139504,-147.69047298099835,11.22711197944794,74.35264500068348
2.17,-5.439111923333368,84.96856560713559,21.093051017286243,-131.2338074501671,81.28048117780035,192.97912419729465,-164.92458219980463,39.35987821434804,48.7369169324346,-146.9596396897305,11.603238731412006,74.83965279874796
2.18,-5.390762100780622,84.93210367443001,21.14144152243113,-131.09044646668605,80.9691139894082,192.47722760681367,-163.72305515007866,40.68630437977272,50.35193843853495,-146.31766528850952,11.978481563653158,75.47945206936795
2.19,-5.527401783186858,85.09587287405834,21.066124305228065,-131.27547516620533,80.33372161495174,191.7689269704885,-162.35950181166282,41.768828633927306,51.98609858111429,-145.8145716478877,12.188525676846131,76.0126981245854
2.2,-5.594750443786033,85.15068450617036,21.012051302909583,-131.56805988878287,80.04004404772155,190.3431248100141,-162.5767291105965,41.87553004584286,54.45922946965389,-145.36106809753255,12.155386765964144,76.95688665109878
2.21,-5.648538611857765,85.03686193659344,20.805941027584225,-131.69080393015426,80.14883891750905,189.9113510631575,-162.85589690929052,41.73080956066581,56.55625243958186,-145.36316566444813,12.222245891405802,77.06250653736386
2.22,-5.85217137496915,85.04486039676509,20.959412982778687,-131.62661331114245,79.89941823686068,189.7094328112483,-163.00992083985903,41.4942852561106,58.1393090099128,-144.94986275398375,12.683583076693116,77.18558413870593
2.23,-6.143497471245894,85.02005629488926,20.922608245832063,-131.80133558792187,79.62647956503933,188.72387275486557,-163.13081742884555,41.184845116302334,61.419447617730526,-144.54920014896445,12.590663327320035,78.07569382070425
2.24,-6.3528625547840205,85.3133934287417,21.0229475312338,-132.22261872109283,79.21506224202962,187.7572986808683,-163.0801146254199,40.86419944263513,64.52875761272628,-144.3060838028665,12.8176271891993,79.21796494204396
2.25,-6.438488168883443,85.22374788839286,21.129245689438918,-132.23865644117518,78.70201911793497,186.99091838618008,-162.326899812287,41.25132366906866,67.41540102993827,-144.53399843901528,12.662105905010726,79.5217250283452
2.26,-6.749667164085532,85.07130787997646,20.67151619792528,-132.36378850204656,78.55526279283526,186.38621692459105,-161.14127303891792,41.50983579729712,69.93546969530416,-144.28879497754792,12.708303194166827,80.36696992282872
2.27,-6.790658640369977,85.27547801085917,20.88963226139693,-132.32390839947735,78.38139307543355,185.8596342611284,-160.43133430635982,41.92260070373297,72.96253138478436,-144.3275900058288,12.529586014031215,81.20135615917408
2.28,-7.206208752541159,85.03289628226716,21.09624201763428,-132.0155298489309,78.4561978189479,184.3097321386068,-159.45485447538735,41.99505092753069,75.54241400972727,-144.08498273410967,12.322524298178394,82.04065772906036
2.29,-7.30797606838296,85.13507734157076,21.11049096422282,-131.94009284384077,78.31731138310879,183.92824517163143,-159.26801568281323,41.89442011426807,78.42017262812092,-144.54959463135606,12.082887675888887,82.67713714267589
2.3,-7.060293377778244,85.19271089354677,21.10514259531137,-131.95017113026466,77.9725204731595,183.15409011425592,-158.88384357091115,41.34592434569869,81.76636384996237,-144.29139152527534,12.325240263620865,83.17866907855156
2.31,-7.053848711140995,85.35615289409824,20.96334823677624,-131.73931716136667,77.96150549952083,182.1852048471405,-158.71545309309153,40.87510620747721,85.28999021398445,-144.04809020487545,11.94322942567067,83.93947943138332
2.32,-7.131414263046505,85.24943346282762,21.142554630807258,-131.34854251101112,78.244988512142,182.0431602537616,-157.88910885095447,41.17130863555787,88.49070006260511,-144.27533318561834,11.871491832728834,84.66147822317883
2.33,-6.834506436275121,85.55458244947208,21.02137348266311,-131.3826502837062,78.19247119869141,181.91115762032928,-156.07812279323574,41.92245648008215,91.13458169732932,-144.35037535384146,11.482927203649306,85.44566263331127
2.34,-6.778178885274353,85.6665232643593,20.719849503661948,-131.30390205286895,78.16160803763513,182.01421134501825,-155.4149328416392,42.546085180224864,92.73295956194607,-144.3061351475979,11.436943329185764,86.00948533323027
2.35,-6.429055966958498,85.60153057260302,20.51381339739072,-131.2831865751647,78.18745826604184,182.76475845190936,-154.63931864142236,42.731204053191455,93.88883154265876,-144.27180444618364,10.94815175312946,85.95838117433348
2.36,-5.804174751298013,85.69494780262497,20.413433132083725,-131.23350574899965,77.87544622043104,183.44376296058155,-152.81003714208853,43.24241887598803,96.64793317591088,-144.75416863391206,11.180601624560044,86.97906735330758
2.37,-5.7949083042826,85.86803782640045,20.345669593553144,-130.90439665220566,77.83625468155844,183.8345069130245,-151.63929967359283,43.26411366114263,99.71447892733966,-144.85605518321512,10.813955041256126,87.61396022777508
2.38,-5.64520654164675,85.95668661495375,20.02754898530172,-130.77003026576466,77.62436111649568,183.9603296929982,-151.18685206404885,42.69899461846483,102.39064644790052,-144.8914410422156,10.386715061653591,88.29028944457501
2.39,-5.689418614639688,86.12730976564141,20.18874965009457,-130.4712246269407,77.70665541688619,184.35701308526737,-150.79883503977976,42.45919867848363,105.01800785886412,-144.40788680543054,10.50466759347607,89.03936798790683
2.4,-5.105741265887093,86.33799535866252,19.65249798459481,-130.51718238447262,77.19918772331617,184.331731513285,-149.19341982838753,42.918523864237976,107.64651103038337,-143.7543068752204,10.736154357052122,89.79743748127666
2.41,-5.284655730870111,86.5259496965876,19.725381357275072,-130.45650379205247,77.4257699048962,184.6452429601068,-147.50023621712427,43.29898362355923,110.30922207536317,-143.77911241088742,10.873256066795545,90.36168817328436
2.42,-5.258235874227287,86.83344800194594,19.274499875594937,-130.75039979955534,77.41395899573617,185.49495448951143,-145.362458627083,44.14513434419681,112.4734035457255,-143.4499278882325,10.982684692346025,90.8770541957714
2.43,-4.965660353149719,86.84765001087611,19.27571035144708,-130.56064239392725,77.67481405117974,186.0832576386687,-143.53847892140664,44.69896503089727,114.64605515913158,-142.60163150913323,10.988216356691202,91.69570176087912
2.44,-4.890791200283243,87.42620896694396,18.88476342498214,-130.95660584842537,77.46257698062675,186.12937410103385,-141.9021248956421,44.79678280792998,116.4739229703393,-141.7090454013124,11.490753040298332,92.75069829641834
2.45,-5.000698661848567,87.47296926731812,18.722435386050527,-130.87910498687177,77.58723785077636,185.93758291679936,-141.84582381762655,43.91966444908146,118.45437475442428,-140.7464726987325,12.498719232672231,93.48024521662629
2.46,-4.807636957286023,87.51094740187989,18.60954201968742,-131.05483650940454,77.63007104380424,185.99007852884267,-141.62564789125676,43.65502822020925,119.91517453976826,-139.6642285274002,13.254645814876204,94.45319442044637
2.47,-5.207013960300141,87.6475436164687,18.59370165648352,-130.97308341236777,77.70081760427043,186.1544766422049,-140.88113067040825,43.63301739745853,120.42712451355456,-139.11338989017366,13.418880933712773,94.92398800122656
2.48,-5.22347501274593,87.69808752959385,18.690517800562063,-130.9643027591161,77.64547294404854,186.1126005344452,-140.1105290815796,43.84589779617684,120.88752888500066,-138.5039264139887,13.774452556598126,95.36699389949092
2.49,-5.18679173726986,87.64951726721,18.46773639619093,-130.90420247440008,77.8421659076355,185.71691206432305,-139.2056544682868,44.343598837350456,122.05948190030804,-137.61490397206578,14.655182339949857,96.25405802547192
2.5,-5.263689920400365,87.82926984366054,18.334194843871437,-130.99927273060564,78.10184006214546,185.7596707524071,-137.3184471865987,44.96469869947333,123.90488489949983,-136.65684641736644,15.181958589422694,97.23584849776024
2.51,-5.339724586890084,87.90570459278959,18.50295108335912,-130.70699831522532,78.57608593723349,186.1520826826489,-135.74237813091304,46.15022155904051,125.15632327828456,-135.4208237155126,16.114757435551233,98.11879667001617
2.52,-5.369426419387273,87.77766847902134,18.37501798500753,-130.83598749046337,78.81815266518187,185.6920557892555,-134.5363277784652,46.51879035343737,126.11647294891026,-134.64040836395526,16.443785102837495,98.95110603375166
2.53,-5.544120159718384,87.83832001390655,18.46021167354749,-130.74096088376163,79.27101694515665,185.86657586848509,-134.43677257188645,46.16414273373044,126.75161337823278,-133.45362275243755,17.132742043291056,100.14560494755465
2.54,-5.884092102956224,87.62893425357016,18.23902649468972,-130.72794080619173,79.79436289338766,186.1985746296053,-134.85974846413117,46.19698399916444,127.20995025865292,-132.4493937803916,17.768494677129326,100.9393638850394
2.55,-5.7565792527264525,87.52127176129765,18.32685152303325,-130.6308829750892,80.57128242314036,186.4633279447565,-134.01839502232616,46.48217727521707,127.883053217426,-131.48742003517555,18.572592910627677,101.92521053931188
2.56,-5.9617502447025705,87.60792301315585,18.208894814595496,-130.3836061329868,80.61671661560143,186.4128834507636,-133.0612172395084,46.5650586852358,127.98714185964764,-130.49524418136394,19.299813039343057,102.72774030693266
2.57,-5.858761970800864,87.48475383109614,18.14063728255344,-130.43749326317126,81.05182481354719,186.8730745716265,-133.27962892409667,46.60128434716596,128.16348211520588,-129.45879513683,19.804027848604093,103.79981756337683
2.58,-5.919934524491189,87.04032885447933,18.121486549319044,-130.5034474843236,82.16632794217867,188.3176880144888,-132.4926596394032,46.76578541561102,128.95940733871285,-128.43847937433978,20.769083731437885,104.71777793632936
2.59,-5.779478024524298,86.82923679434712,18.038337007166007,-130.5291827072604,82.24890819976785,188.4907951295922,-131.42053938334092,46.97431652377998,129.29784879816776,-127.45103714989244,21.22272138736381,105.63919865544364
2.6,-5.75812157226151,86.65053097719931,18.116115920336487,-130.27891917237406,82.55419211656532,188.61787958829623,-131.25137152847793,47.02314622873793,129.00835455868335,-126.83392787477798,21.41743421157178,106.0061227435285
2.61,-5.7517208656091645,86.43039121290944,18.14613710490735,-130.4385587280014,82.8248878052163,188.8209921915267,-131.15546784385953,46.63852496102364,129.2915771034216,-126.47809504803912,22.07079411273175,106.33943633897113
2.62,-5.626288360710573,86.36735134141702,18.004576176478864,-130.36404366357726,83.46311838559741,188.87410729922092,-131.469314473637,46.02918744826978,129.2942661312925,-125.37421928445316,22.617387969792663,107.3583285508424
2.63,-5.766156720419927,86.03429212741017,18.03938913448448,-130.46519726755463,84.11392502073033,188.7237936236703,-131.17727463888392,45.91913045373435,129.3047855400056,-124.1901035520405,23.040174307739136,108.28150111688149
2.64,-5.541930801285759,85.90187422920576,17.842814426482256,-130.0488653731301,84.45057936702288,188.8201695305657,-131.17487499932497,45.65702127261245,129.8255102466073,-122.99773001703645,24.21242830668628,108.96742062697076
2.65,-5.442245166058399,85.66125929159196,17.924081951585038,-130.24835727009952,84.86398105181748,188.75214770012477,-130.7676404549529,46.236347873683776,130.05748707836491,-119.68242093280028,26.11726176642467,110.45983455324011
2.66,-5.39912047717492,85.37177504150768,17.720730074423063,-130.10566411880288,85.68889505313118,188.64277571367123,-129.89766371369868,46.37044482153506,130.47484371938262,-116.71569106210082,27.94179434256065,112.33310229500802
2.67,-5.224482740916153,85.11152211288314,17.734045865346484,-130.05103989954245,85.88044983861603,188.34215290849124,-128.91102129967376,46.90265969467079,131.23522299722376,-113.33604332103954,30.282368258310694,114.25527923561091
2.68,-5.023848422155613,85.10949554292107,17.48963210968943,-130.14512926315842,86.21765727114243,188.49961009349067,-129.1654067969266,46.82191920440741,131.05343274187814,-110.45301677205772,31.77128905599917,116.4719238020217
2.69,-5.10813657916407,84.8229609574401,17.714878617738194,-130.27899936522385,86.67833558660809,188.7176734966014,-129.7669546624988,46.40780303057196,131.01622354818758,-108.4165677626986,32.70942158944832,118.70993060961256
2.7,-5.470092527428266,84.7803575530751,17.52496614318422,-130.40203275216408,87.26254701223209,188.3507482662859,-129.62438469153165,46.42975360989505,131.1171720531681,-105.3585764395437,34.18252352689297,120.99219808822006
2.71,-5.397934008769182,84.60825940494176,17.56972298332007,-130.7603616033694,87.5035416116635,188.45472719939147,-128.87594563693432,46.77318459805333,131.34779280769868,-101.03018656427768,36.590469612881975,123.1979304601945
2.72,-6.232492455904749,84.57431382573319,17.25858761941062,-130.61825978702566,88.19653428239477,188.3192109032888,-128.74010741490906,47.08237297066565,131.38096614085475,-100.59177405831991,38.77246855954546,123.36185136684476
2.73,-6.397056431866208,84.41165210792278,16.842376074698667,-130.9232791401026,88.2167675080789,188.4492869181282,-129.05873216381804,46.89448429524673,131.34126502229736,-101.00758136542332,38.52106682019399,122.89910871705897
2.74,-6.691741567355482,84.43984261548475,16.939327311429224,-130.85349069484454,88.7151126073507,188.30353446668656,-129.29294420962825,46.79101879871974,131.18077511252315,-101.4263372198586,37.96653208098404,122.22024954119578
2.75,-7.121391533738178,84.2559540069977,16.771016952969287,-131.34113968952838,89.12968538519554,188.45866819173816,-129.9641969594181,46.68376984932174,130.7438884788467,-102.55391597397868,37.67964447915274,121.3527775225178
2.76,-7.483609862924736,84.08013066759628,16.676094500963895,-131.4566518597606,89.69786299607495,188.09727003434853,-130.3910992233329,47.06633628548828,131.13000676709902,-103.4998914833296,37.33594391834527,120.67772059250817
2.77,-7.910932388831116,83.73352300126878,16.60504352517759,-131.66512866374703,89.31317155249008,188.0516119428937,-130.1293786300298,48.02522288716237,131.0964022334806,-102.96212874747027,36.39975725602243,119.23275373244132
2.78,-8.32469028112813,83.50597705118336,16.356303869219232,-132.1358613348756,89.27037377265357,188.19417413133507,-129.84900582707988,48.58198055761781,130.84563387880672,-102.99701015484428,35.53564978328584,117.68754989207312
2.79,-8.615089890366837,83.12564623034164,16.33180447622821,-132.52445537004454,88.78869638444581,188.3287487691896,-130.32199328091136,48.95274424185705,130.84952941797224,-104.22523844557254,35.220575217299626,116.65783084464388
2.8,-8.792951929161063,82.9762499840838,16.29054512569715,-132.76753575257084,88.70475214389054,188.39047619909695,-130.04609441413513,49.61734835450471,130.80243051894217,-104.9502655382728,35.08484815363221,115.49706635157844
2.81,-9.317878036569704,82.79683763245676,16.304053289472506,-133.11473134151,88.24439018961968,188.1847269878677,-130.09007749175265,49.58003044717401,130.21556101113896,-104.53536155821328,34.48235999561778,113.67055215205784
2.82,-9.8070912312251,82.9221606948461,16.008852260072747,-133.67852667226742,87.72520488801283,188.1067903145384,-130.8683935379604,49.354287111039305,129.85574286102198,-103.29323972324914,33.00425343178486,111.69959376173414
2.83,-10.218064460400392,82.4376899421489,15.906106959668886,-133.80064661469552,87.60921915943223,188.0531894501932,-130.67254324518424,49.57830776221292,129.66673028369308,-105.7238136999553,32.886370010457966,112.62329278571984
2.84,-10.485835111530806,82.11383235066583,15.6093040744315,-133.95152224174814,87.60845066552872,187.80131787137367,-130.3024923908519,50.3806168860982,129.95450347733822,-105.28114320989988,31.93088940933016,112.50451671684934
2.85,-11.09765513708381,82.14425618489398,15.55161553060082,-134.28410998650392,87.23807346258633,187.7702936000298,-129.45240108877232,51.00022332952253,130.43344196075748,-102.99280130645631,30.28688751774015,111.10182881836444
2.86,-11.208583936775444,82.07425166140749,15.47317167046967,-134.4396043852936,87.01995196698557,187.7949165680928,-129.04997779588837,51.30649404221753,130.7114125826318,-102.31288058177996,29.6133415341998,110.6562948981988
2.87,-11.485191801861603,81.7862809647278,15.50211658144121,-134.758510806745,86.90647981209166,187.63865858112192,-128.6380826907781,51.53810207172381,131.1452656615112,-101.54029480707553,28.517040731998986,110.151573969783
2.88,-11.590562400362083,81.63428383430717,15.448822856697342,-134.71350639692363,86.39578673500684,187.7277773055124,-127.922901708376,52.02404405861266,131.5708013854939,-101.23789479027953,28.266718664451727,110.08450023544869
2.89,-11.788275876254517,81.56516433166698,15.172172444919951,-135.18230657592173,86.31773760994152,187.6384658602172,-127.49718033202817,52.39218632772698,131.8860526676763,-101.789074302088,28.288097294493387,109.98489033929933
2.9,-11.98872399257411,81.64160765085171,14.465248658460542,-135.13456693116115,85.95087111721315,187.33583134841768,-127.22039173572972,52.90073982932528,132.4394492641384,-101.9201933413083,28.547274596474814,109.67228840727545
2.91,-12.151639401177594,81.29468336906399,14.307108766313457,-135.2572670310748,85.338009753369,187.30509631480345,-125.17589227869117,53.449568808039984,133.48470007487472,-103.90485986250684,29.89428278407383,110.17784951913728
2.92,-12.458419620031078,80.82679755562681,15.506628602158925,-135.32035407647663,84.9582270119608,187.2981522246073,-124.18419838645924,54.03537937828976,134.5934953447947,-105.06758867638092,30.48093295603446,110.62984765835095
2.93,-12.459140302727045,80.87761882241173,15.873056464168537,-135.68054715795046,84.67038489186255,187.16377177147683,-123.76947636426291,54.07962732132363,134.76971220230573,-103.57369949257584,29.738398935376647,110.07411747579005
2.94,-12.789019413633612,80.47961656171474,15.907503425706963,-135.4689511655061,84.51140863285909,187.16469152310123,-123.2915237955554,54.0396939815907,135.07679576572377,-102.28252216989728,28.60203729063601,109.30577698726998
2.95,-12.976917211731635,80.05521366165675,16.185810462168856,-135.67638539214508,83.85965498408177,187.2896037324857,-122.65965130101428,54.11875621367864,135.23508760935212,-102.0350653350999,28.721298234646024,109.16087686101088
2.96,-13.311675996174117,79.90003328169479,17.641974039983246,-135.77904567621545,83.83758531824012,187.2116625826432,-121.53889774195584,54.53315236630403,135.38240259339392,-103.51127882677874,30.05484410159297,109.70252934519868
2.97,-13.843250618005836,78.54373244072782,20.42023502438508,-136.03431097081202,83.54889046368216,187.1305741306299,-121.0175406456585,54.53699865188828,135.17721364176603,-106.1427116150505,31.58496499716856,110.63256930479616
2.98,-14.492085471021694,77.96297995466087,22.509987888368443,-136.1221130845232,83.11991593291944,187.0113958910888,-121.46780089366952,53.9167244512662,134.66297728089165,-107.90751035379242,33.25675149182885,110.96228889627768
2.99,-14.716724932989353,77.76273199482594,22.721080381590024,-136.13561261748544,83.00659247343094,187.27553876089155,-121.65924080446034,53.41836524819985,134.38427348194998,-107.73463222362064,33.93112362078988,110.73174735820557
3.0,-14.770778779302274,77.5350179221912,22.65917705563081,-135.82118724465232,82.67818871379455,187.12591816510684,-121.39587936530488,53.24884819269073,134.3321242207125,-107.65012568418824,34.32682634669045,110.5853922255992
3.01,-14.638305953049317,77.85993269342178,22.490288582475944,-135.5336225818107,82.26825802369777,187.2402637976427,-121.02914507251482,53.783282883943286,134.00789327531967,-107.71969854002138,35.252879253870574,110.27398387690091
3.02,-14.593479046936723,77.41849376602359,23.51817809789831,-135.96992309355343,82.169483178458,187.3106631428106,-120.15872529529878,54.24858365926819,133.76079006503576,-105.93342076217974,36.775437297364064,109.52132856310988
3.03,-14.667300460137438,77.12530395098186,24.18844881401252,-136.23040303911267,81.55387987474198,188.66381889643728,-120.22289662160766,53.65182728579703,133.42104107219876,-103.2219024739002,38.88715520420921,109.32916632240185
3.04,-14.91855263293175,76.66447633687109,25.05327191596905,-135.9904202436524,81.0516355544716,189.7927718225676,-121.54444051105168,52.665555731783,132.4970687580407,-100.56498896504608,39.8957281750683,110.330644139655
3.05,-14.79844554963197,76.63322806126627,25.549297280849377,-135.57622898396787,80.81890046817527,189.9770844412809,-122.88764507057564,52.11091304077419,131.3309971803678,-97.83321202466664,40.99188828451405,111.01006735316224
3.06,-15.037029858540508,76.32827739208862,26.20348364168271,-135.56385397965562,80.51113186427033,189.847043402534,-122.40487655352612,52.39848142914335,130.98542283318304,-94.77455191580744,42.20065961318588,111.9876630027382
3.07,-14.847705367407771,76.02776921040123,26.71276445250769,-135.69162392134797,80.21151630934962,190.09069018459573,-122.16983851177268,52.75790142859744,130.4080009564442,-94.8716281751903,43.78115705221558,112.05545760422744
3.08,-14.846497542442885,75.79119045127749,27.4553173149498,-135.65917975706938,80.29336262993962,190.3666414382874,-122.3915455546144,53.04957896342597,129.82117457984722,-95.35705097717738,43.756419171677344,111.40383155149766
3.09,-15.002267524764427,75.6041159541079,27.943626284811717,-135.41709662170803,79.90100988524172,190.09673994261107,-122.791189285998,53.15871162011089,129.2464445418955,-96.77720567013684,43.35154740203368,109.9055446557569
3.1,-14.741306288069334,74.98446146773573,28.46242727570314,-135.6285390612259,79.89304616688408,189.77498703604056,-123.24834381292816,53.15234841594151,128.07837023997192,-98.49153879743324,43.32304295511764,108.46625042459712
3.11,-14.791907293352097,74.7504532689395,29.28185368840594,-135.69066049831724,79.88994504572213,189.03780183219516,-123.95752886792258,53.24249703904445,127.01174691841044,-98.69315147091604,43.839726707333696,108.25908855392208
3.12,-15.05663839602925,74.60934821171995,29.25684778766944,-135.6110707372264,79.78554200105607,188.8339087714316,-124.332898149126,53.41721928352653,126.53361828125644,-97.83660459706614,44.339561932723406,108.7413441394874
3.13,-15.1155542722392,74.60243151460536,29.404745399811837,-135.50915668505058,79.58456254480618,188.77475699255191,-124.5603437686909,53.20572787210424,126.02331342233336,-96.93995454902172,44.72684407353367,109.40408509467198
3.14,-15.282048437621407,74.09058872987072,29.69429918836699,-135.77001852849796,79.36129440514827,188.66835189796052,-124.93637602511448,53.83149990721733,125.33209064286,-95.10568457501842,45.81939614122016,110.51557458216448
3.15,-15.23116884640251,74.09559324977212,29.79278063375128,-135.70621245693107,79.5538761188488,188.31085028084084,-124.88928066112446,54.1544863560943,124.8646025826758,-94.23457792622352,46.74533598650677,111.53964360708936
3.16,-15.400120827891914,73.67136472339571,29.665833012097927,-135.3756393061728,79.17383142068738,188.2330058756426,-124.93707707540356,54.86719300004093,124.5108704994808,-94.45464008613963,46.98654285401994,111.59359317630036
3.17,-15.361667397089988,73.56854150160964,29.885235016973876,-135.29478041095783,79.12380689026837,187.78207949458948,-125.28036417551982,55.30023722809785,123.56922683497513,-94.998638465759,47.36880758287384,111.35557568928246
3.18,-15.398095077632693,73.17997160223003,29.817736814513765,-135.6961347523499,79.09318784987755,187.31040353444524,-125.95848298850696,55.50785102042804,122.20215796216831,-94.86698840365815,47.814588606485934,111.44997124433787
3.19,-15.818950233238914,72.93061462593013,30.01868294609565,-135.6987034262351,79.1126608461318,186.75372005673705,-126.36569830611091,55.38413837908168,120.910854520905,-94.57785725868888,48.200586244751,112.06907313813284
3.2,-15.847809164686264,72.88901689333268,30.130111708826163,-135.93860488598824,78.99909223301964,186.51611816385687,-126.83056373868712,55.945066940653696,119.71786414080654,-93.84264074641584,48.13033342564405,113.27370233417696
3.21,-15.970935698168343,72.57217824765053,30.217031813474748,-135.84804065077955,78.88038408327218,185.9540913010508,-127.67916121385132,55.93205970649385,118.18178074771824,-93.28014612874428,48.27147730083825,114.55900262442316
3.22,-16.087002288260795,72.42324530695306,30.490609343769467,-136.15904593214896,78.852981306657,185.81758384501276,-127.62522796558672,56.55664861204309,117.021126349317,-92.63140736513994,48.66637395715505,115.6998914168264
3.23,-16.355124212909832,72.23170918018127,30.84582118004206,-135.9717009368231,78.75633688018019,185.77758010101493,-127.29715695467632,57.46339087289284,116.16742408522644,-92.56238229245588,48.68594657900556,117.22540847423522
3.24,-16.59288668689496,72.41021734084295,30.49579048218062,-136.28342761358329,78.90164845423924,185.78066134818252,-127.24731208089952,58.18933871266504,115.32374706536817,-93.03654381332072,48.61074926690471,120.9174351297908
3.25,-16.60129471419073,72.02158088370571,30.3638800978959,-136.12376069122794,78.88614282521891,185.7094657134689,-127.34391280256882,58.23520904553045,114.91725841044274,-93.08798791614151,48.54659011313729,122.95267763756296
3.26,-16.631377792225152,71.95533413761271,30.31084942644604,-136.23261248193987,78.86135096980068,186.1385081372006,-127.5458785157374,57.974782372477065,114.71514888421429,-93.37037659518114,48.50232552465781,124.73145369234425
3.27,-16.510819168810634,71.95754652539057,30.31529982135544,-135.95026633444218,78.7084356924712,185.85497300451968,-128.32754248213857,57.43475859526416,115.30695126357098,-93.75021963666286,48.59691152026153,124.78786375846096
3.28,-16.703638692799743,72.05067884194713,30.49697921897538,-136.01980536142554,79.00408949334742,185.8670112722691,-127.8202709240822,57.706698926362336,116.1379948045981,-93.01931667891292,48.80417494586669,126.0215207497505
3.29,-16.526248150471847,71.92503369566857,30.48789650720007,-135.87633860912692,78.83676330661963,185.3711325315991,-126.73630504315192,58.83261143245231,117.13193313734708,-92.51028824963312,48.6426654529549,127.50238916600536
3.3,-16.35694227059272,72.01261386085814,30.817417884950373,-135.76817875946588,78.94374741687702,184.57055917182385,-124.95189273655998,60.47606863899794,118.41569511185126,-92.46692295937854,48.58018624652293,128.27707646372968
3.31,-16.058118232377776,72.0889792672175,31.27937840085579,-135.97689090205714,79.42129124871364,184.01858013661683,-123.73175440340908,62.00936633913886,119.73615765081554,-92.5302489824582,48.492008869826506,128.3526094747658
3.32,-16.006469627204634,72.11987174783346,31.575992381285168,-136.0604744758991,79.51060151035757,183.9733084738288,-122.81733947994876,62.77511737968042,120.45391521943408,-93.06980059214224,48.24472966144705,128.2346569840921
3.33,-15.840679213171938,72.29796442592445,31.74451550867315,-135.81378960768075,79.51448660402853,183.645096300872,-121.67333616098422,63.60751287803187,121.37264909835076,-93.40092604358884,48.32024688751171,128.1052922770588
