0.01,-113.53,81.83,173.78,0.11,0.36,-0.01,1.18,0.48,0.98,-97.06,81.35,146.0,0.04,0.1,-0.07,0.69,0.13,0.72,-171.21,6.69,10.14,-0.07,-0.1,-0.11,0.04,0.11,0.03,-119.84,1.59,10.32,0.15,0.12,0.05,-0.04,0.02,-0.05
0.02,-113.49,82.26,173.5,-0.06,0.24,0.12,1.12,0.3,1.2,-97.25,81.25,146.88,-0.05,0.23,0.26,0.58,0.14,0.72,-171.11,6.45,10.08,0.0,0.08,0.01,0.14,0.13,0.01,-119.79,1.56,10.39,0.07,-0.04,0.1,0.34,0.05,0.05
0.03,-113.29,82.88,173.12,0.06,0.24,0.06,1.13,0.31,1.28,-97.56,80.71,147.96,-0.06,0.16,-0.09,0.59,0.25,0.63,-171.25,6.46,9.87,0.15,0.02,0.05,0.17,0.39,-0.09,-119.85,1.58,10.4,0.11,0.12,-0.03,0.36,0.37,-0.07
0.04,-113.49,83.34,172.74,0.04,0.43,0.05,1.05,0.34,1.3,-97.68,80.72,149.22,0.03,0.26,0.09,0.63,0.32,0.62,-171.37,6.58,10.0,-0.02,-0.04,-0.1,0.23,0.63,-0.06,-119.81,1.56,10.34,0.08,0.16,0.05,0.53,0.38,0.02
0.05,-113.38,83.33,172.56,-0.01,0.36,0.17,1.22,0.21,1.26,-97.87,80.31,150.41,0.07,0.5,0.04,0.7,0.25,0.54,-171.39,6.25,9.96,0.02,0.08,0.15,0.32,0.73,-0.0,-120.02,1.56,10.29,0.02,-0.03,0.14,0.53,0.49,-0.04
0.06,-113.42,83.62,172.35,0.2,0.26,0.04,1.15,0.17,1.23,-98.21,79.84,151.73,0.22,0.48,0.1,0.85,0.32,0.46,-171.27,6.28,9.82,-0.03,-0.09,0.32,0.41,0.79,0.16,-119.66,1.52,10.29,0.01,-0.09,0.28,0.81,0.56,0.08
0.07,-113.2,83.69,171.78,0.33,0.35,0.0,1.06,0.24,1.02,-98.26,79.25,153.36,0.15,0.55,0.2,0.9,0.25,0.43,-171.31,6.46,9.61,0.11,-0.09,0.08,0.34,1.06,0.23,-119.42,1.69,10.33,0.33,0.11,0.24,1.0,0.65,0.09
0.08,-113.24,83.61,171.46,0.25,0.39,0.11,1.05,0.14,1.13,-98.55,78.84,154.77,0.06,0.8,-0.07,0.96,0.4,0.28,-170.91,6.18,9.77,0.11,-0.1,0.21,0.65,1.09,0.15,-119.25,1.63,10.49,0.19,0.13,0.35,1.03,0.66,0.11
0.09,-112.89,82.92,171.05,0.21,0.64,-0.08,1.34,0.08,1.1,-98.52,78.04,156.88,0.12,0.96,0.17,1.08,0.15,0.21,-170.73,6.25,9.37,0.14,-0.02,0.49,0.62,1.32,0.2,-118.97,1.78,10.44,0.03,-0.08,0.29,1.39,0.83,0.39
0.1,-112.92,82.22,170.75,0.21,0.73,0.16,0.99,0.06,1.02,-98.5,77.15,158.56,0.16,0.94,0.16,1.03,0.23,0.31,-170.32,6.25,9.4,0.12,0.22,0.35,0.51,1.37,0.41,-118.44,1.88,10.57,0.11,0.03,0.25,1.13,0.91,0.54
0.11,-112.8,81.56,170.42,0.34,0.79,-0.05,1.13,0.18,0.88,-98.56,76.21,160.52,0.09,1.1,-0.16,1.3,0.18,0.38,-169.84,6.03,9.4,0.34,0.11,0.26,0.62,1.13,0.75,-117.86,1.91,10.66,0.09,-0.09,0.54,1.46,0.61,0.63
0.12,-112.72,80.63,170.19,0.34,1.11,0.05,1.2,0.05,0.69,-98.63,75.11,162.25,0.16,1.17,0.11,1.38,0.24,0.5,-169.39,5.86,8.97,0.26,0.17,0.51,0.56,1.34,1.01,-117.1,1.87,10.66,0.07,0.07,0.48,1.22,0.75,1.04
0.13,-112.55,79.52,169.96,0.14,1.15,0.35,1.1,0.17,0.64,-98.58,73.57,164.16,0.11,1.37,0.02,1.61,0.5,0.53,-169.04,5.97,9.32,0.04,0.09,0.57,0.59,1.12,1.19,-116.49,1.96,10.85,0.02,-0.11,0.53,1.22,0.67,1.22
0.14,-112.5,78.06,169.8,0.21,1.12,0.32,1.06,0.36,0.6,-98.64,71.91,165.83,0.23,1.48,0.08,1.62,0.46,0.56,-168.44,6.03,9.14,0.1,0.12,0.57,0.75,1.06,1.5,-115.92,2.5,10.89,0.2,0.19,0.53,1.5,0.68,1.48
0.15,-112.48,75.1,169.28,0.16,1.44,0.14,1.06,0.21,0.61,-98.74,68.7,169.23,0.29,1.71,0.2,1.86,0.35,0.5,-166.97,5.73,9.04,0.04,-0.18,0.46,0.55,0.95,1.84,-114.86,2.46,11.46,0.07,0.08,0.49,1.09,0.51,1.74
0.16,-112.39,73.55,169.21,0.06,1.27,0.15,0.94,0.22,0.47,-98.95,66.96,170.82,0.04,2.08,-0.01,1.87,0.28,0.45,-166.57,5.75,9.17,0.13,-0.04,0.57,0.54,0.77,1.92,-114.09,2.74,11.32,0.05,0.18,0.62,0.9,0.47,2.1
0.17,-112.42,71.77,169.11,0.15,1.44,-0.02,0.7,0.45,0.89,-99.37,64.86,171.96,0.2,1.87,0.0,1.89,0.23,0.64,-166.13,5.5,9.12,0.17,0.09,0.42,0.43,0.53,2.25,-113.67,3.16,11.69,-0.02,0.13,0.55,0.76,0.47,2.08
0.18,-112.51,70.22,169.29,0.11,1.23,0.15,0.69,0.38,0.75,-99.72,62.83,173.19,0.12,2.06,0.11,1.62,0.1,0.65,-165.61,5.71,9.58,0.06,0.26,0.35,0.38,0.66,2.49,-113.15,3.33,11.89,0.25,0.18,0.34,0.6,0.47,2.34
0.19,-112.68,68.66,169.24,0.2,1.43,0.21,0.56,0.34,0.91,-100.09,60.76,174.17,0.2,1.92,-0.04,1.62,0.24,0.69,-165.18,5.51,9.43,0.02,-0.07,0.4,0.27,0.24,2.46,-112.89,3.57,12.05,0.4,0.37,0.3,0.46,0.25,2.3
0.2,-112.75,66.79,169.09,0.11,1.55,0.14,0.56,0.39,0.8,-100.55,58.36,175.3,0.19,2.29,0.16,1.54,0.38,0.53,-164.89,5.67,9.7,0.18,0.24,0.2,0.25,0.44,2.53,-112.92,3.72,12.21,0.29,0.18,0.43,0.42,0.48,2.26
0.21,-112.93,65.42,169.09,0.21,1.58,0.18,0.47,0.27,0.83,-101.15,56.47,175.97,0.16,1.91,-0.11,1.24,0.38,0.39,-164.54,5.61,10.05,0.34,0.1,0.42,0.26,0.19,2.53,-112.77,3.93,12.35,0.29,0.16,0.26,0.21,0.57,2.43
0.22,-113.15,63.89,169.14,0.19,1.32,0.05,0.55,0.44,0.69,-101.65,54.25,176.69,0.21,1.7,0.12,1.42,0.26,0.58,-164.43,5.94,10.3,0.24,0.05,0.16,0.23,0.36,2.47,-112.75,4.21,12.58,0.23,0.05,0.22,0.2,0.45,2.33
0.23,-113.36,62.64,169.29,-0.02,1.46,-0.01,0.55,0.18,0.88,-102.22,52.21,177.27,0.19,2.05,0.07,0.96,0.43,0.55,-164.37,5.56,10.27,0.17,0.04,0.23,0.21,0.27,2.34,-112.92,4.56,12.81,0.07,0.36,0.29,0.18,0.36,2.13
0.24,-113.46,61.25,169.45,0.14,1.31,0.24,0.82,0.41,0.88,-103.06,50.16,177.58,0.19,1.91,0.18,0.79,0.33,0.48,-164.26,5.71,10.77,0.33,0.02,0.25,0.27,0.23,2.11,-113.14,4.85,12.89,0.05,0.39,0.25,0.14,0.75,1.74
0.25,-113.48,59.94,169.71,0.2,1.52,0.19,0.52,0.43,0.76,-103.65,48.07,178.15,0.4,1.95,0.2,0.73,0.31,0.4,-164.45,5.67,11.1,0.44,0.08,0.17,0.16,0.67,2.03,-113.61,5.04,13.12,-0.0,0.39,0.09,0.26,0.7,1.83
0.26,-113.75,58.35,169.68,0.17,1.25,0.17,0.89,0.36,0.7,-104.37,45.98,178.38,0.19,1.89,0.2,0.82,0.23,0.34,-164.14,5.59,11.66,0.28,0.08,0.15,0.28,0.47,1.72,-113.78,5.32,13.5,0.09,0.34,0.25,0.44,0.75,1.56
0.27,-113.53,57.21,169.87,0.11,1.22,0.14,0.97,0.41,0.72,-104.73,44.29,178.82,0.3,1.65,0.0,0.76,0.38,0.4,-164.43,5.37,12.04,0.37,0.07,-0.11,0.29,0.37,1.74,-114.45,5.7,13.52,0.12,0.28,-0.01,0.63,0.58,1.41
0.28,-113.79,56.22,169.98,0.27,1.09,0.01,0.95,0.29,0.71,-105.27,42.22,178.89,0.26,1.64,0.29,0.65,0.54,0.44,-164.38,5.55,12.49,0.22,0.15,-0.03,0.26,0.62,1.33,-114.57,6.01,13.82,0.12,0.38,0.08,0.53,0.74,1.38
0.29,-114.0,53.77,170.04,0.22,1.0,0.04,1.12,0.3,0.62,-106.03,38.99,179.12,0.23,1.27,0.13,0.78,0.35,0.3,-164.73,5.42,13.18,0.22,0.18,0.09,0.41,1.02,0.93,-115.65,6.59,14.07,0.13,0.4,0.2,0.85,0.77,0.99
0.3,-114.05,52.45,170.02,0.22,1.0,-0.01,1.16,0.54,0.76,-106.2,37.54,179.19,-0.06,1.33,0.36,0.65,0.21,0.55,-165.08,5.36,13.48,0.44,0.24,0.07,0.3,1.13,0.95,-115.95,6.7,14.24,0.04,0.25,0.39,0.78,0.62,0.98
0.31,-114.32,51.6,170.17,0.19,0.84,0.24,1.27,0.24,0.4,-106.3,36.14,179.47,0.07,1.35,0.17,0.91,0.3,0.54,-165.17,5.18,14.09,0.32,-0.09,0.27,0.4,0.98,0.9,-116.55,6.95,14.29,0.0,0.11,0.15,0.91,0.75,0.93
0.32,-114.28,50.42,170.03,0.05,0.71,0.02,1.13,0.51,0.55,-106.18,34.79,179.25,0.18,1.26,0.08,0.85,0.31,0.77,-165.43,5.21,14.01,0.23,0.02,0.16,0.48,0.89,1.01,-116.95,7.18,14.48,-0.08,0.06,0.08,0.94,0.51,1.06
0.33,-114.55,49.27,170.0,0.32,0.88,0.25,1.16,0.54,0.36,-106.16,33.4,179.44,0.12,1.02,0.29,0.83,0.38,0.83,-165.78,4.79,14.56,0.17,0.19,-0.04,0.46,0.93,0.72,-117.22,7.48,14.65,0.33,0.47,0.16,1.11,0.58,1.08
0.34,-114.9,48.51,169.73,0.25,0.76,-0.02,0.98,0.64,0.25,-106.0,32.51,179.44,0.07,0.99,0.21,1.19,0.25,0.51,-166.06,4.95,14.56,0.22,0.3,0.37,0.5,1.01,0.98,-117.44,7.81,14.86,0.08,0.29,0.19,1.05,0.55,1.29
0.35,-115.09,47.43,169.5,0.03,0.52,0.09,1.19,0.54,0.33,-105.8,31.27,179.17,0.1,0.91,0.29,1.12,0.19,0.9,-166.48,4.61,14.92,0.36,0.11,0.16,0.5,0.79,1.17,-117.7,8.08,15.41,0.15,0.33,0.21,1.06,0.5,1.07
0.36,-115.57,46.66,169.34,0.26,0.66,0.21,0.82,0.23,0.26,-105.44,30.26,178.91,-0.1,0.77,0.24,0.74,0.31,0.89,-166.59,4.72,14.68,0.18,0.03,0.48,0.55,0.69,1.24,-118.0,8.64,15.57,0.33,0.32,0.29,0.81,0.52,1.4
0.37,-115.8,45.91,169.12,0.12,0.59,0.22,0.83,0.55,0.25,-105.07,29.52,178.78,-0.01,0.87,-0.08,0.87,0.32,0.78,-167.08,4.77,14.39,0.13,0.09,0.09,0.43,0.69,1.27,-118.18,8.8,16.08,0.39,0.26,0.24,0.92,0.43,1.54
0.38,-116.35,45.13,168.93,0.27,0.25,0.17,0.66,0.39,0.39,-104.77,28.58,178.65,0.14,0.76,0.3,0.78,0.09,0.66,-167.46,4.46,14.23,0.31,0.08,0.32,0.58,0.59,1.37,-118.09,9.26,16.58,0.3,0.43,0.22,0.79,0.54,1.62
0.39,-116.67,44.52,168.86,0.15,0.62,0.14,0.77,0.42,0.42,-104.73,27.73,178.51,0.16,0.68,0.07,0.79,0.36,0.95,-167.85,4.61,13.83,0.25,0.01,0.3,0.61,0.62,1.55,-118.35,9.78,17.06,0.4,0.5,0.0,0.89,0.77,1.63
0.4,-116.84,43.74,168.54,0.11,0.48,0.22,0.58,0.02,0.53,-104.38,27.22,178.56,0.1,0.49,0.07,0.71,0.04,0.8,-168.3,4.62,13.44,0.36,0.15,0.24,0.65,0.45,1.56,-118.09,10.11,17.49,0.45,0.29,0.37,0.68,0.4,1.75
0.41,-117.36,43.35,168.51,0.31,0.33,0.03,0.46,0.23,0.54,-104.26,26.65,178.25,0.17,0.51,0.08,0.5,0.33,0.73,-168.52,4.56,12.71,0.25,0.24,0.31,0.74,0.52,1.52,-117.96,10.68,17.89,0.52,0.58,0.27,0.63,0.66,1.85
0.42,-117.5,43.17,168.32,-0.0,0.25,0.27,0.49,0.36,0.4,-103.95,25.99,178.1,-0.06,0.31,0.1,0.61,0.21,0.88,-169.13,4.73,12.3,0.5,0.09,0.45,0.82,0.29,1.56,-117.74,11.01,18.66,0.37,0.51,0.43,0.82,0.73,1.64
0.43,-118.03,42.94,168.29,0.05,0.31,0.17,0.49,0.18,0.36,-103.49,25.0,177.9,0.01,0.28,0.2,0.49,0.19,0.69,-169.84,5.02,10.74,0.36,0.25,0.44,0.71,0.51,1.37,-117.37,12.37,20.23,0.54,0.26,0.21,0.68,0.69,1.67
0.44,-118.24,42.69,168.26,-0.01,0.14,-0.05,0.63,0.02,0.62,-103.53,24.69,177.87,0.21,0.54,0.01,0.43,0.22,0.85,-170.23,4.93,9.76,0.57,0.17,0.29,0.71,0.41,1.27,-117.04,12.63,20.94,0.57,0.26,0.18,0.55,0.75,1.68
0.45,-118.36,42.87,168.25,0.25,0.24,0.19,0.71,0.25,0.72,-103.51,24.4,177.73,0.19,0.39,0.12,0.31,0.14,0.67,-170.73,5.38,9.15,0.59,0.16,0.13,0.67,0.29,1.16,-117.02,13.32,21.79,0.61,0.37,0.37,0.52,0.73,1.49
0.46,-118.13,43.23,168.43,0.23,0.31,0.14,0.43,0.13,0.79,-103.51,24.05,177.7,0.1,0.31,0.13,0.12,0.3,0.64,-171.17,5.69,8.28,0.35,0.0,0.38,0.54,0.49,1.2,-116.83,13.6,22.59,0.45,0.44,0.28,0.65,0.85,1.42
0.47,-118.08,43.67,168.39,0.17,0.48,0.01,0.53,0.23,0.58,-103.21,23.99,177.67,-0.01,0.23,0.08,0.27,0.21,0.57,-171.5,5.96,7.48,0.51,0.14,0.3,0.55,0.53,0.96,-116.77,14.25,23.37,0.61,0.5,0.27,0.45,0.47,1.21
0.48,-117.99,44.05,168.6,0.11,0.49,0.12,0.78,0.3,0.56,-103.43,23.45,177.58,0.2,0.1,0.13,0.1,0.17,0.59,-171.83,6.22,6.88,0.64,0.26,0.38,0.73,0.72,0.91,-116.8,14.47,24.12,0.28,0.38,0.21,0.48,0.8,1.17
0.49,-117.8,44.5,168.72,0.15,0.51,0.12,0.77,0.16,0.68,-103.52,23.13,177.79,0.06,0.26,0.11,-0.03,0.17,0.66,-172.07,6.47,5.97,0.44,0.21,0.39,0.47,0.77,1.12,-117.05,14.94,24.83,0.35,0.36,0.25,0.63,0.79,1.0
0.5,-117.38,45.3,169.1,0.45,0.54,0.14,0.83,0.29,0.52,-103.66,22.89,177.59,0.19,0.12,-0.16,0.13,0.28,0.89,-172.66,6.81,5.62,0.42,0.19,0.26,0.58,0.87,0.91,-117.14,15.43,25.6,0.57,0.26,0.4,0.76,0.69,1.06
0.51,-117.14,46.17,169.36,0.06,0.59,0.08,0.88,0.12,0.67,-103.73,22.79,177.88,-0.03,0.27,0.02,-0.01,0.06,0.67,-172.97,6.86,4.91,0.25,0.18,0.16,0.36,0.86,0.71,-117.4,15.64,26.04,0.44,0.36,0.27,0.56,0.65,0.98
0.52,-116.61,46.83,169.38,0.09,0.64,0.06,0.87,0.4,0.64,-103.62,22.55,177.95,0.16,0.16,0.19,0.33,0.21,0.83,-173.21,7.15,4.45,0.58,0.06,0.26,0.46,0.79,0.85,-117.75,16.11,26.95,0.45,0.61,0.43,0.45,0.73,0.76
0.53,-116.29,47.38,169.61,0.08,0.56,0.01,0.88,0.2,0.52,-103.87,22.66,177.8,0.21,0.29,0.08,0.42,0.34,0.85,-173.43,7.3,4.06,0.32,0.12,0.25,0.36,0.95,0.62,-118.02,16.23,27.31,0.33,0.42,0.28,0.52,0.59,0.88
0.54,-115.9,48.0,169.7,0.21,0.57,0.17,1.02,0.45,0.73,-104.02,22.58,178.04,0.2,0.08,0.28,0.04,0.44,0.89,-173.69,7.39,3.72,0.08,0.2,0.36,0.28,0.9,0.85,-118.43,16.53,27.72,0.23,0.4,0.39,0.26,0.76,0.79
0.55,-115.41,48.75,170.01,0.12,0.69,0.07,0.96,0.35,0.76,-104.15,22.5,178.22,0.08,0.27,0.21,0.16,0.5,1.13,-173.83,7.42,3.59,0.23,-0.05,0.27,0.2,1.09,0.74,-118.83,16.55,28.25,0.07,0.55,0.37,0.27,0.75,0.99
0.56,-114.94,49.38,169.94,0.28,0.53,0.04,0.87,0.43,0.6,-104.25,22.87,177.93,0.19,0.32,0.1,0.33,0.47,1.04,-174.05,7.86,3.54,-0.03,0.31,0.15,0.24,0.87,0.94,-119.49,16.84,28.61,0.07,0.27,0.27,0.28,0.71,0.83
0.57,-114.28,50.43,170.37,0.01,0.5,0.05,0.94,0.37,0.5,-104.34,23.05,178.39,0.16,0.23,0.21,0.43,0.61,0.8,-174.17,7.85,3.33,0.3,0.11,0.23,0.26,0.88,0.98,-120.36,16.97,29.05,0.11,0.16,0.44,0.12,0.69,1.13
0.58,-113.85,51.21,170.47,-0.04,0.58,0.18,1.02,0.37,0.57,-104.3,23.1,178.52,0.21,0.35,0.06,0.62,0.57,1.09,-174.43,7.92,3.36,0.22,0.02,0.35,0.11,0.91,0.97,-120.95,17.05,29.36,0.06,0.26,0.27,0.26,0.93,1.37
0.59,-113.59,51.58,170.5,0.02,0.39,0.11,1.01,0.42,0.79,-104.24,23.56,178.65,0.15,0.24,0.07,0.36,0.52,0.91,-174.54,7.82,3.45,-0.02,0.28,0.21,0.16,0.74,1.1,-121.21,17.16,29.57,-0.08,0.08,0.37,0.35,0.82,1.44
0.6,-113.21,52.08,170.67,-0.03,0.64,0.06,1.1,0.32,0.64,-104.16,24.18,178.88,0.15,0.21,0.14,0.51,0.45,1.03,-174.2,7.77,3.42,0.07,0.03,0.19,0.27,0.69,1.25,-121.56,17.15,29.69,0.34,-0.02,0.44,0.14,0.75,1.4
0.61,-113.21,52.7,170.66,0.11,0.17,-0.14,0.88,0.22,0.57,-104.28,24.56,178.98,0.02,0.41,-0.07,0.65,0.56,0.94,-174.66,7.64,3.46,-0.03,0.22,0.18,0.23,0.9,1.34,-122.09,17.08,29.97,0.12,0.09,0.1,0.03,0.99,1.63
0.62,-113.07,53.02,170.63,-0.04,0.55,-0.01,0.91,0.34,0.78,-104.18,25.0,178.94,0.01,0.52,-0.08,0.66,0.45,1.01,-174.51,7.71,3.66,-0.1,0.21,0.09,0.24,0.68,1.65,-122.24,17.08,30.16,0.13,0.11,0.25,0.25,0.99,1.82
0.63,-112.84,53.61,170.86,-0.01,0.5,0.04,0.86,0.19,0.71,-104.23,25.48,179.21,0.05,0.5,0.01,0.72,0.34,1.11,-174.52,7.7,3.71,0.15,-0.05,0.07,0.22,0.59,1.59,-122.6,17.29,30.41,0.13,0.17,0.29,0.37,1.09,1.87
0.64,-112.78,54.29,170.72,0.17,0.4,-0.08,0.88,0.36,0.58,-104.06,26.13,179.48,0.1,0.49,-0.03,0.67,0.32,1.03,-174.72,7.68,3.59,0.15,0.09,0.04,0.37,0.55,1.7,-123.04,17.49,30.78,0.14,0.41,0.21,0.26,1.25,1.8
0.65,-112.95,54.98,170.59,-0.03,0.47,0.04,0.77,0.39,0.66,-104.07,26.7,179.51,0.12,0.7,0.05,0.77,0.4,1.02,-174.83,7.57,3.68,-0.12,0.03,0.18,0.48,0.57,1.72,-123.06,17.56,30.89,0.3,0.26,0.23,0.4,1.16,1.99
0.66,-112.91,55.46,170.53,0.16,0.63,0.17,0.93,0.24,0.61,-104.08,27.14,179.55,0.03,0.55,0.05,0.88,0.44,1.07,-174.94,7.64,3.52,0.19,0.09,0.33,0.33,0.4,1.94,-123.31,17.68,31.64,0.25,0.35,0.22,0.89,1.51,1.96
0.67,-112.63,56.19,170.65,-0.04,0.51,0.16,0.72,0.33,0.6,-104.23,28.13,179.55,0.12,0.6,-0.0,1.01,0.51,0.93,-175.28,7.78,3.36,-0.09,0.16,0.36,0.46,0.71,1.73,-123.71,17.95,31.88,0.32,0.33,-0.06,0.62,1.35,1.91
0.68,-112.79,56.91,170.52,0.02,0.57,0.09,0.71,0.37,0.48,-104.05,28.82,179.66,0.03,0.6,0.04,0.85,0.25,0.79,-175.74,7.7,3.28,0.31,0.2,0.14,0.4,0.46,2.06,-123.87,18.3,32.77,0.45,0.35,0.24,0.84,1.44,1.82
0.69,-112.94,57.88,170.71,0.19,0.76,0.01,0.99,-0.03,0.55,-104.17,29.44,179.58,0.05,0.55,-0.03,0.82,0.21,0.87,-175.95,7.89,2.99,0.13,0.27,0.39,0.18,0.63,1.9,-123.9,18.72,33.31,0.46,0.7,0.22,0.82,1.63,1.81
0.7,-113.05,58.86,170.71,-0.02,0.61,0.18,0.77,0.3,0.7,-104.34,30.12,179.71,0.09,0.69,0.16,0.88,0.57,0.62,-176.16,7.9,3.04,0.08,-0.13,0.23,0.38,0.51,1.86,-124.08,19.16,34.16,0.55,0.67,0.22,1.01,1.39,1.66
0.71,-113.02,60.78,171.04,0.17,0.91,0.12,0.72,0.22,0.49,-104.75,32.07,179.76,-0.19,0.69,0.21,0.76,0.37,0.78,-177.07,7.99,2.45,0.2,-0.06,0.55,0.69,0.49,1.59,-124.31,20.55,36.0,0.7,0.55,0.3,0.88,1.6,1.34
0.72,-113.15,61.85,171.31,0.25,0.82,0.07,0.63,0.23,0.33,-104.66,32.91,179.74,-0.06,0.9,0.24,0.77,0.48,0.66,-177.5,8.06,2.07,0.14,0.09,0.54,0.44,0.67,1.52,-124.35,21.23,36.72,0.77,0.66,0.39,0.94,1.53,1.46
0.73,-113.03,63.35,171.49,0.21,1.04,0.0,0.56,0.2,0.47,-104.88,33.91,179.78,-0.01,0.78,0.1,1.01,0.12,0.5,-178.04,8.31,2.01,0.11,0.12,0.32,0.4,0.56,1.4,-124.33,22.04,37.99,0.96,0.95,0.37,0.74,1.51,1.18
0.74,-112.79,64.49,171.56,0.16,1.02,0.19,0.67,0.23,0.47,-105.33,35.01,179.69,0.03,0.91,0.21,0.67,0.37,0.42,-178.4,8.42,1.64,0.04,-0.0,0.29,0.64,0.71,1.27,-124.29,23.01,39.24,1.01,0.87,0.33,0.78,1.43,1.03
0.75,-113.05,65.56,171.76,0.03,0.91,0.14,0.47,0.18,0.26,-105.46,36.0,179.74,0.01,1.05,0.21,0.57,0.37,0.52,-178.69,8.06,1.72,0.23,0.25,0.52,0.56,0.46,1.18,-123.94,24.17,40.34,0.78,0.9,0.51,0.48,1.33,0.93
0.76,-112.97,66.79,172.1,-0.01,1.05,0.16,0.5,0.09,0.34,-105.44,37.08,179.5,0.03,0.99,0.11,0.59,0.36,0.39,-179.13,8.29,1.42,0.11,0.05,0.28,0.44,0.35,1.14,-123.7,25.22,41.64,1.17,0.91,0.43,0.55,1.17,0.93
0.77,-112.79,68.21,172.12,0.01,0.99,0.23,0.5,0.09,0.23,-105.7,38.43,179.22,0.09,1.04,0.17,0.35,0.32,0.23,-179.42,8.24,1.36,0.03,0.09,0.19,0.28,0.54,0.88,-123.3,26.36,42.74,0.86,1.06,0.31,0.41,1.09,0.87
0.78,-112.6,69.29,172.3,0.01,0.93,0.29,0.63,0.08,0.38,-105.96,39.64,178.86,0.15,0.96,0.36,0.46,0.35,0.22,-179.88,8.05,1.49,0.09,0.29,0.3,0.38,0.44,0.83,-122.89,27.66,44.24,0.95,1.14,0.42,0.28,1.04,0.74
0.79,-112.54,70.56,172.24,0.09,1.09,0.04,0.49,0.08,0.3,-105.84,41.03,178.79,0.18,0.97,0.39,0.23,0.24,0.27,-180.11,7.8,1.86,0.07,0.15,0.3,0.28,0.47,0.73,-122.58,29.13,45.5,0.98,1.07,0.53,0.44,1.13,0.73
0.8,-112.24,71.89,172.23,-0.11,0.82,0.21,0.5,0.15,0.42,-106.09,42.43,178.57,0.12,1.12,0.32,0.48,0.43,0.12,-180.43,7.65,2.04,0.14,0.14,-0.04,0.1,0.39,0.54,-121.71,30.59,47.15,1.01,1.15,0.49,0.47,1.06,0.6
0.81,-112.2,73.39,172.04,0.0,0.86,0.25,0.45,0.13,0.14,-105.73,43.65,177.88,-0.02,1.4,0.26,0.38,0.36,0.15,-180.6,7.47,2.21,0.2,0.16,0.22,0.21,0.55,0.46,-121.45,31.99,49.02,0.82,1.28,0.64,0.54,1.18,0.78
0.82,-112.08,74.27,171.97,0.05,0.87,0.13,0.58,0.13,0.28,-105.53,45.41,177.46,0.36,1.06,0.23,0.11,0.43,0.21,-181.11,7.26,2.55,0.27,0.11,0.22,0.22,0.41,0.79,-120.99,33.56,50.58,1.22,1.18,0.59,0.85,0.82,0.88
0.83,-111.85,75.62,171.8,0.11,0.87,-0.06,0.66,0.09,0.24,-105.66,46.75,176.8,0.23,1.08,0.24,0.23,0.46,0.19,-181.28,6.94,2.93,0.26,0.08,0.07,0.14,0.45,0.57,-120.45,35.07,52.46,1.11,1.22,0.49,1.09,1.17,0.93
0.84,-111.72,76.82,171.28,0.15,0.87,0.06,0.9,0.11,0.2,-105.21,48.36,176.42,0.1,1.26,0.17,0.47,0.49,0.36,-181.57,6.72,3.61,0.21,0.34,0.08,0.3,0.68,0.76,-119.42,36.62,54.69,1.16,1.15,0.56,1.22,1.34,1.24
0.85,-111.8,78.49,170.71,-0.07,0.83,-0.0,0.76,0.05,0.48,-104.7,51.64,175.04,0.23,1.32,0.2,0.47,0.48,0.33,-182.2,6.0,5.11,0.71,0.31,0.33,0.03,0.87,1.13,-118.27,39.77,59.59,1.31,1.4,0.5,1.69,1.69,1.54
0.86,-111.93,79.38,170.47,0.25,0.74,0.18,1.02,0.14,0.39,-104.16,53.25,174.41,0.22,1.22,0.25,0.57,0.32,0.41,-182.42,5.66,5.69,0.68,0.3,0.14,0.4,0.97,1.07,-117.44,41.58,62.11,1.17,1.54,0.8,1.93,1.87,1.81
0.87,-111.91,80.36,170.22,0.27,0.54,0.04,0.96,0.04,0.59,-103.88,54.86,173.66,0.06,1.46,0.02,0.53,0.5,0.25,-182.69,5.23,6.79,0.91,0.41,0.33,0.5,1.23,1.31,-116.68,42.9,64.94,1.26,1.46,0.67,2.19,2.0,1.76
0.88,-111.75,80.93,170.03,0.44,0.64,0.04,1.01,0.35,0.4,-103.6,56.11,172.91,0.28,1.45,0.14,0.47,0.5,0.47,-183.07,4.7,7.74,0.63,0.31,0.19,0.74,1.46,1.37,-115.93,44.34,68.01,1.03,1.6,0.51,2.35,2.12,1.92
0.89,-111.88,81.41,169.84,0.27,0.41,0.06,0.97,0.18,0.68,-103.27,57.78,172.01,0.19,1.48,0.31,0.83,0.45,0.7,-183.14,4.26,8.83,0.98,0.57,0.14,0.77,1.63,1.39,-115.09,45.68,71.29,1.48,1.66,0.68,2.43,2.19,2.01
0.9,-112.05,82.07,169.82,0.23,0.42,0.23,1.07,0.13,0.77,-103.12,59.35,171.06,0.14,1.35,0.02,1.07,0.5,0.48,-183.33,3.92,9.85,1.12,0.38,0.29,0.89,1.7,1.57,-114.46,46.77,74.34,1.44,1.48,0.74,2.35,2.45,1.84
0.91,-112.06,82.65,170.05,0.24,0.29,0.1,0.92,0.42,0.76,-102.94,60.69,170.15,0.16,1.54,0.12,1.07,0.37,0.6,-183.39,3.41,11.31,0.98,0.42,0.28,0.91,1.7,1.85,-113.73,48.0,77.95,1.37,1.62,0.71,2.51,2.42,1.96
0.92,-112.05,82.94,170.17,0.35,0.26,0.18,0.84,0.49,0.92,-102.67,62.18,169.02,-0.03,1.23,0.23,1.33,0.39,0.63,-183.46,3.04,12.58,1.31,0.45,0.41,1.26,2.0,1.57,-113.2,49.19,81.09,1.32,1.62,0.63,2.32,2.26,1.93
0.93,-112.11,83.35,170.25,0.4,0.16,0.05,0.85,0.43,0.95,-102.68,63.71,168.11,-0.02,1.28,-0.0,1.37,0.27,0.63,-183.41,2.35,14.08,1.36,0.45,0.42,1.38,2.11,1.47,-112.49,49.86,84.67,1.23,1.47,0.57,2.17,2.19,1.78
0.94,-112.23,83.49,170.64,0.38,0.37,0.08,0.74,0.52,0.74,-102.45,64.77,166.99,0.17,1.47,-0.0,1.4,0.3,0.71,-183.71,2.24,15.24,1.51,0.44,0.37,1.47,2.04,1.19,-112.01,50.89,87.97,1.24,1.48,0.83,1.95,2.2,1.62
0.95,-112.11,83.77,171.06,0.36,0.22,0.08,0.69,0.31,0.78,-102.48,66.09,166.32,0.08,1.09,0.26,1.49,0.58,0.7,-183.58,1.75,17.03,1.53,0.56,0.6,1.54,2.14,1.3,-111.25,51.52,91.29,1.37,1.57,0.84,1.79,2.02,1.73
0.96,-112.02,84.0,171.6,0.14,0.23,0.2,0.76,0.47,0.94,-102.32,67.23,165.05,0.03,1.06,0.06,1.49,0.16,0.73,-183.33,1.4,18.4,1.54,0.48,0.43,1.69,2.04,1.31,-110.79,52.01,94.65,1.15,1.36,0.56,1.53,1.8,1.4
0.97,-111.87,84.42,171.79,0.14,0.23,0.2,0.55,0.37,0.75,-102.04,68.46,164.22,0.07,1.01,-0.04,1.36,0.31,0.6,-183.36,1.46,20.12,1.64,0.44,0.53,1.37,2.1,1.08,-110.04,52.43,97.74,1.19,1.38,0.8,1.2,1.55,1.05
0.98,-111.6,84.22,172.11,0.16,0.17,0.03,0.42,0.48,0.78,-102.09,69.28,163.11,0.03,0.97,0.16,1.36,0.17,0.8,-183.18,1.27,21.87,1.47,0.39,0.51,1.32,1.65,1.11,-109.39,53.01,100.42,0.93,1.44,0.61,0.99,1.53,1.02
0.99,-111.46,84.72,172.85,0.07,0.06,-0.07,0.37,0.41,0.61,-101.65,70.99,161.31,0.15,0.55,0.16,1.05,0.1,0.58,-182.9,1.29,25.28,1.48,0.44,0.46,1.34,1.51,0.75,-108.26,53.74,105.65,0.81,1.16,0.74,0.46,1.18,0.67
1.0,-111.43,84.87,173.13,0.13,-0.06,0.2,0.37,0.54,0.57,-101.69,71.56,160.41,-0.03,0.83,0.06,1.13,0.35,0.49,-182.96,1.55,27.11,1.49,0.52,0.48,1.22,1.03,0.87,-107.57,54.04,108.22,0.86,1.17,0.79,0.47,1.22,0.44
1.01,-111.2,84.88,173.08,0.21,0.01,0.05,0.61,0.61,0.49,-101.6,72.07,159.72,0.34,0.44,0.15,1.0,0.34,0.49,-182.94,1.77,28.79,1.72,0.58,0.48,1.07,1.16,0.68,-106.99,54.54,110.36,0.61,1.04,0.49,0.45,1.14,0.34
1.02,-111.11,84.97,173.54,0.05,0.23,0.01,0.41,0.58,0.46,-101.48,72.68,159.05,0.25,0.29,0.07,0.7,0.39,0.35,-182.66,2.2,30.6,1.46,0.5,0.47,0.95,0.87,0.7,-106.26,54.83,112.78,0.9,0.91,0.66,0.4,0.86,0.62
1.03,-110.99,85.01,173.43,0.08,0.19,0.13,0.43,0.45,0.47,-101.1,73.27,158.35,0.21,0.35,-0.02,0.59,0.26,0.26,-182.55,2.6,32.34,1.38,0.37,0.19,0.99,0.78,0.69,-105.37,54.96,114.86,0.68,0.83,0.75,0.3,1.02,0.63
1.04,-110.8,85.19,173.54,-0.01,0.09,0.21,0.26,0.44,0.51,-101.2,73.59,157.94,0.19,0.42,-0.05,0.57,0.35,0.52,-182.33,3.34,34.39,1.28,0.59,0.26,0.9,0.71,0.68,-104.32,55.12,116.89,0.55,0.88,0.59,0.34,0.76,0.5
1.05,-110.73,85.24,173.45,0.14,0.01,0.01,0.29,0.72,0.38,-101.0,73.82,157.53,0.18,0.39,0.14,0.63,0.3,0.27,-182.32,3.88,36.23,1.21,0.58,0.4,0.71,0.68,0.73,-103.35,55.22,119.14,0.78,0.98,0.65,0.32,0.8,0.56
1.06,-110.44,85.41,173.24,0.24,0.02,0.21,0.41,0.49,0.42,-100.79,74.28,156.94,0.07,0.27,0.06,0.43,0.32,0.24,-182.27,4.75,37.92,1.16,0.61,0.32,0.65,0.52,0.62,-102.13,55.46,121.24,0.64,0.76,0.75,0.2,0.84,0.44
1.07,-110.56,85.51,173.01,0.11,-0.0,0.11,0.55,0.63,0.3,-100.67,74.66,156.57,0.06,0.28,0.17,0.49,0.62,0.23,-182.07,5.36,39.77,1.3,0.36,0.19,0.71,0.91,0.6,-100.99,55.23,123.53,0.52,0.69,0.78,0.17,1.03,0.7
1.08,-110.38,85.56,173.17,-0.04,0.08,0.15,0.7,0.7,0.48,-100.73,75.11,156.24,0.19,0.08,0.06,0.36,0.51,0.43,-182.18,6.19,41.54,1.45,0.58,0.19,0.7,0.61,0.63,-99.97,55.63,125.73,0.49,0.75,0.68,0.24,0.79,0.74
1.09,-110.39,85.7,172.83,0.06,0.13,0.15,0.61,0.74,0.11,-100.64,75.44,155.79,0.33,0.15,-0.12,0.35,0.49,0.28,-182.06,7.13,43.61,1.33,0.67,0.12,0.57,0.64,0.69,-98.6,55.45,128.29,0.83,0.59,0.7,0.14,1.06,0.7
1.1,-110.26,86.07,172.71,0.1,0.13,0.07,0.77,0.6,0.29,-100.69,75.64,155.62,0.17,0.45,0.14,0.34,0.64,0.29,-182.06,7.99,45.43,1.06,0.5,0.32,0.63,0.65,0.56,-97.4,55.26,130.52,0.63,0.71,0.76,0.34,0.9,0.75
1.11,-110.1,85.71,172.39,0.48,0.14,0.15,0.52,0.73,0.16,-100.97,76.04,155.08,0.07,0.32,0.17,0.36,0.64,0.46,-182.05,8.89,47.41,1.23,0.62,0.4,0.8,0.98,0.51,-95.7,55.28,133.07,0.52,0.95,0.75,0.27,0.84,0.71
1.12,-110.06,86.06,172.11,0.28,0.17,0.2,0.72,0.87,0.32,-100.71,76.52,154.93,0.15,0.45,0.23,0.44,0.83,0.33,-181.98,10.15,49.53,1.38,0.71,0.45,0.83,0.85,0.64,-94.58,55.36,135.83,0.65,0.73,0.83,0.42,0.93,0.8
1.13,-110.1,86.27,171.97,0.29,0.13,0.14,0.62,0.74,0.18,-100.82,77.47,154.36,0.06,0.19,0.12,0.57,0.8,0.34,-181.78,11.97,53.72,1.46,0.8,0.54,0.88,0.9,0.38,-91.35,54.86,141.47,0.68,0.52,0.81,0.44,0.75,0.71
1.14,-110.34,86.33,171.78,0.23,-0.01,0.17,0.62,0.9,0.24,-101.25,77.75,153.63,-0.02,0.35,0.03,0.65,0.89,0.42,-181.19,13.3,55.94,1.66,0.7,0.54,0.7,0.89,0.53,-90.04,54.62,144.07,0.66,0.49,0.82,0.5,0.74,0.61
1.15,-110.13,86.18,171.6,0.16,-0.03,0.17,0.63,0.98,0.18,-101.19,78.38,153.69,-0.04,0.1,0.25,0.58,0.79,0.32,-181.09,14.39,58.01,1.68,0.87,0.47,0.9,0.83,0.25,-88.36,54.56,146.67,0.54,0.64,0.76,0.6,0.62,0.64
1.16,-110.19,86.45,171.5,0.26,0.11,0.16,0.48,0.84,0.2,-101.38,78.9,153.27,-0.06,0.5,0.29,0.34,0.94,0.51,-180.41,15.49,60.32,1.58,0.85,0.63,0.73,0.83,0.51,-86.92,54.36,149.16,0.46,0.7,0.69,0.6,0.49,0.5
1.17,-110.31,86.4,171.19,0.06,0.21,0.18,0.42,0.83,0.24,-101.32,79.13,153.08,0.19,0.32,0.17,0.54,0.9,0.42,-179.8,16.87,62.45,1.66,0.73,0.79,0.85,0.85,0.38,-85.46,54.37,151.58,0.32,0.13,0.9,0.8,0.47,0.51
1.18,-110.23,86.34,171.09,0.04,0.17,-0.04,0.33,0.66,0.11,-101.47,79.63,152.88,0.18,0.33,0.1,0.42,0.9,0.48,-179.06,18.08,64.79,1.77,0.72,0.39,1.03,0.69,0.48,-84.26,54.16,153.9,0.56,0.38,0.74,0.71,0.38,0.75
1.19,-110.34,85.92,171.02,0.15,0.11,0.13,0.38,0.72,0.24,-101.55,80.06,152.48,0.03,0.31,0.19,0.56,0.75,0.39,-178.31,19.5,67.13,1.84,0.61,0.89,0.79,0.85,0.34,-83.12,54.11,155.93,0.26,0.31,0.88,0.8,0.53,0.51
1.2,-110.14,86.15,170.97,0.25,0.08,0.29,0.3,0.64,0.18,-101.59,80.44,152.35,0.08,0.35,0.26,0.56,0.78,0.49,-177.15,20.93,69.51,1.8,0.79,0.95,0.93,0.71,0.41,-81.82,54.11,157.79,0.52,0.26,0.87,1.05,0.51,0.67
1.21,-110.21,86.01,171.07,0.08,0.12,-0.02,0.29,0.45,0.22,-101.87,80.77,152.24,0.05,0.27,0.01,0.63,0.9,0.37,-176.12,22.09,71.68,1.62,0.84,0.83,1.02,0.58,0.4,-80.9,54.14,159.42,0.15,0.2,0.84,1.02,0.49,0.59
1.22,-110.15,85.85,170.81,0.18,0.06,0.1,0.18,0.3,0.3,-101.84,80.94,152.32,0.16,0.24,0.24,0.53,0.68,0.46,-175.1,23.52,73.72,1.75,0.67,0.64,1.0,0.69,0.3,-80.32,54.1,160.88,0.28,-0.06,0.82,1.2,0.64,0.38
1.23,-110.14,85.68,170.83,0.02,-0.03,0.19,0.56,0.32,0.37,-102.06,81.26,152.43,0.0,0.25,0.19,0.62,0.74,0.41,-173.96,25.06,75.79,1.36,0.73,0.62,1.03,0.71,0.47,-79.49,54.0,162.15,0.26,0.08,0.44,1.31,0.52,0.69
1.24,-109.91,85.62,170.94,0.19,0.16,0.04,0.31,0.24,0.28,-102.04,81.65,152.31,-0.04,0.27,0.15,0.73,0.66,0.46,-172.75,26.22,77.87,1.52,0.68,0.8,0.91,0.65,0.53,-79.24,54.11,162.75,0.1,-0.05,0.65,1.35,0.5,0.74
1.25,-109.52,85.65,170.98,0.12,0.11,0.01,0.24,0.32,0.44,-102.04,81.66,152.56,0.15,0.14,0.04,0.66,0.59,0.44,-171.42,27.36,79.69,1.67,0.31,0.63,0.9,0.81,0.63,-78.83,54.11,163.71,0.07,-0.08,0.51,1.23,0.63,0.66
1.26,-109.43,85.35,170.95,0.16,0.14,0.14,0.62,0.31,0.61,-101.83,81.95,152.69,0.25,0.07,0.05,0.66,0.61,0.39,-170.1,28.48,81.47,1.59,0.2,0.78,1.04,0.97,0.58,-78.86,54.08,164.28,0.06,0.08,0.3,1.49,0.84,0.54
1.27,-108.93,85.24,171.01,0.18,0.22,0.05,0.35,0.34,0.74,-101.74,82.37,153.0,0.15,0.22,0.08,0.54,0.52,0.47,-167.94,30.03,84.6,1.36,0.29,0.49,0.8,0.97,0.42,-79.08,54.12,165.07,0.27,0.05,0.2,1.61,0.86,1.11
1.28,-108.59,84.92,171.19,0.19,-0.09,0.15,0.47,0.24,0.73,-101.51,82.35,153.53,0.36,0.11,0.16,0.68,0.43,0.23,-166.92,30.82,86.23,1.29,0.3,0.47,0.92,0.95,0.68,-79.39,54.3,165.27,0.2,-0.03,0.3,1.81,0.89,1.05
1.29,-108.24,84.89,171.17,-0.02,0.07,0.02,0.4,0.23,0.62,-101.38,82.41,153.81,0.33,0.21,-0.05,0.3,0.6,0.56,-166.0,31.43,87.4,1.1,0.3,0.68,0.84,1.19,0.37,-79.83,54.51,165.4,0.23,0.09,0.55,1.82,0.7,1.08
1.3,-108.03,84.98,171.33,0.3,-0.04,-0.1,0.47,0.46,0.54,-101.23,82.48,154.03,0.42,0.19,0.09,0.33,0.46,0.45,-164.98,32.24,88.69,1.01,0.24,0.44,0.66,1.22,0.45,-80.22,54.9,165.28,0.2,0.21,0.19,1.79,0.88,1.0
1.31,-107.52,84.63,171.41,0.33,0.25,0.06,0.42,0.26,0.7,-100.96,82.76,154.34,0.42,0.18,0.16,0.52,0.39,0.6,-164.03,32.97,89.91,0.83,0.25,0.42,0.82,1.19,0.35,-80.57,54.95,165.15,0.29,0.34,0.36,1.89,0.83,1.06
1.32,-107.41,84.51,171.59,0.13,0.12,0.18,0.39,0.33,0.51,-100.87,82.77,154.61,0.17,0.27,0.17,0.49,0.39,0.81,-163.28,33.14,90.92,0.56,0.08,0.54,0.83,1.3,0.29,-81.34,55.37,164.62,0.29,0.47,0.11,1.54,0.72,1.22
1.33,-106.91,84.54,171.58,0.19,0.15,0.03,0.48,0.45,0.56,-100.46,82.88,154.88,0.26,0.28,0.2,0.35,0.52,0.51,-162.58,33.76,91.75,0.61,0.12,0.53,0.82,1.2,0.39,-81.79,55.97,164.2,0.47,0.5,0.38,1.88,0.75,1.3
1.34,-106.79,84.44,171.78,0.13,-0.03,0.05,0.39,0.33,0.52,-100.41,82.77,155.49,0.36,0.24,-0.01,0.33,0.3,0.45,-161.65,34.13,92.56,0.52,0.24,0.38,0.77,1.02,0.27,-82.2,56.1,163.62,0.38,0.44,0.34,1.7,0.67,1.38
1.35,-106.52,84.16,171.89,0.22,-0.19,0.11,0.25,0.34,0.67,-100.14,82.85,155.69,0.18,0.02,0.18,0.42,0.34,0.59,-160.94,34.52,93.46,0.55,-0.07,0.57,0.68,1.0,0.37,-82.94,56.78,163.1,0.23,0.6,0.02,1.39,0.71,1.28
1.36,-106.2,84.17,171.96,0.08,0.22,0.25,0.21,0.54,0.47,-99.89,82.94,156.07,-0.04,0.14,-0.0,0.22,0.31,0.89,-160.29,34.9,94.18,0.45,0.11,0.58,0.83,0.77,0.41,-83.53,57.48,162.19,0.12,0.42,0.27,1.57,0.9,1.29
1.37,-105.86,84.14,172.0,0.27,0.09,0.22,0.13,0.51,0.43,-99.67,82.77,156.2,0.11,0.19,-0.01,0.33,0.27,0.73,-159.8,35.12,94.64,0.49,0.28,0.36,1.05,0.69,0.51,-84.34,58.19,161.58,0.34,0.29,0.2,1.45,0.77,1.21
1.38,-105.72,84.27,172.21,0.25,0.17,0.0,0.31,0.4,0.08,-99.32,82.73,156.61,0.19,0.07,0.17,0.34,0.23,0.59,-159.17,35.36,95.15,0.33,0.12,0.52,0.9,0.79,0.57,-84.69,59.08,160.8,0.22,0.43,0.32,1.4,0.94,1.37
1.39,-105.32,83.87,172.3,0.34,0.1,-0.03,0.01,0.21,0.16,-99.36,82.77,156.81,0.15,0.04,0.09,0.05,0.48,0.66,-158.63,35.55,95.68,0.49,0.12,0.58,1.03,0.67,0.62,-85.41,59.56,159.74,0.31,0.57,0.04,1.39,1.07,1.41
1.4,-105.11,84.06,172.45,0.17,0.02,0.07,0.18,0.38,0.28,-99.03,82.57,157.13,0.32,0.14,-0.05,0.15,0.26,0.81,-158.17,35.66,95.95,0.41,0.34,0.49,0.91,0.83,0.62,-85.97,59.95,159.29,0.16,0.42,0.11,1.22,0.89,1.66
1.41,-104.52,83.7,172.54,0.03,0.01,0.07,0.04,0.29,0.43,-98.73,82.59,157.36,0.32,0.11,0.05,0.4,0.54,0.57,-157.17,36.21,96.21,0.21,0.07,0.23,0.94,0.91,0.99,-86.46,61.06,157.68,0.12,0.49,0.24,1.19,0.94,1.54
1.42,-104.18,83.67,172.54,0.13,0.15,0.27,0.05,0.31,0.37,-98.36,82.29,157.62,0.13,0.08,-0.07,0.21,0.25,0.5,-156.81,36.14,96.0,0.36,0.21,0.51,0.71,1.07,1.34,-86.7,61.45,157.36,0.18,0.22,0.35,1.2,0.87,1.79
1.43,-103.98,83.59,172.64,0.31,0.2,0.13,0.12,0.19,0.26,-98.33,82.17,157.28,0.19,0.15,0.05,0.24,0.28,0.44,-156.33,36.28,96.0,0.33,0.16,0.45,0.81,1.33,1.19,-86.79,61.76,157.25,0.19,0.4,0.44,1.15,0.97,1.71
1.44,-103.51,83.42,172.49,0.26,0.04,0.04,0.1,0.15,0.41,-98.04,82.07,157.26,0.23,0.09,0.04,0.18,0.51,0.68,-156.41,36.42,95.57,0.37,0.12,0.37,0.86,1.47,1.38,-86.56,62.06,157.15,0.19,0.31,0.49,1.02,1.11,1.79
1.45,-103.35,83.24,172.24,0.08,0.06,0.12,0.18,0.27,0.63,-98.06,82.21,157.03,0.24,0.07,-0.05,0.11,0.3,0.64,-156.27,36.4,95.49,0.18,0.26,0.46,0.85,1.8,1.27,-86.25,62.22,157.53,0.24,0.12,0.44,1.08,1.18,1.72
1.46,-103.16,83.21,172.23,0.31,0.02,-0.04,0.21,0.28,0.41,-97.46,81.86,157.04,0.16,0.11,0.14,0.09,0.25,0.6,-155.95,36.53,94.77,0.53,0.31,0.47,0.85,1.64,1.35,-85.9,62.27,158.02,0.29,0.08,0.54,1.11,1.3,2.09
1.47,-102.89,82.98,172.33,0.11,0.14,0.25,0.22,0.22,0.48,-97.2,81.58,156.77,0.02,0.19,-0.08,0.14,0.32,0.41,-155.89,36.52,94.5,0.4,0.35,0.39,0.9,1.82,1.31,-85.12,62.15,158.93,0.27,0.18,0.76,1.15,1.27,2.14
1.48,-102.61,82.97,171.92,0.14,0.17,0.01,0.33,0.28,0.84,-97.17,81.58,156.32,0.12,0.29,0.1,0.18,0.33,0.57,-155.95,36.51,93.75,0.43,0.14,0.64,0.78,1.92,1.35,-84.21,62.21,160.11,0.13,0.35,0.86,1.22,1.48,1.88
1.49,-102.61,82.76,171.98,0.12,0.06,0.26,0.35,0.18,0.61,-96.8,81.58,156.06,0.26,0.19,0.21,0.21,0.49,0.6,-156.12,36.53,93.09,0.48,0.28,0.55,0.73,2.07,1.53,-83.3,61.92,161.11,0.27,0.47,0.87,1.19,1.58,2.01
1.5,-102.13,82.58,171.96,0.25,0.27,0.01,0.29,0.2,0.77,-96.65,81.47,155.51,0.15,0.11,0.07,0.14,0.33,0.47,-156.12,36.87,92.39,0.4,0.13,0.58,0.71,1.94,1.39,-82.17,61.82,162.37,0.35,0.31,0.74,1.22,1.61,2.0
1.51,-102.41,82.58,172.01,0.2,0.0,0.16,0.54,0.26,0.82,-96.54,81.25,155.23,0.1,0.09,0.15,0.18,0.14,0.67,-156.16,36.82,91.69,0.38,0.23,0.57,0.88,2.05,1.2,-80.82,61.47,163.63,0.39,0.11,1.04,1.22,1.77,1.99
1.52,-102.38,82.2,172.04,0.16,0.04,-0.1,0.44,-0.03,0.61,-96.46,81.33,155.13,-0.1,-0.04,0.15,0.18,0.19,0.48,-156.63,36.72,90.95,0.69,0.11,0.69,1.17,1.92,1.07,-79.48,61.36,165.02,0.22,0.35,0.95,1.32,1.68,1.86
1.53,-102.15,82.14,172.11,0.12,-0.03,0.04,0.27,0.27,0.71,-96.33,81.34,154.83,0.23,-0.01,0.12,0.43,0.07,0.53,-156.95,36.99,90.6,0.52,0.37,0.69,0.96,2.02,1.06,-78.0,60.98,166.31,0.33,0.28,1.05,1.28,1.81,1.93
1.54,-102.39,82.03,172.14,0.25,0.07,-0.06,0.37,0.24,0.68,-96.41,81.24,154.75,-0.02,0.03,0.08,0.22,0.34,0.62,-157.09,36.94,90.05,0.5,0.33,0.83,0.94,1.71,0.85,-76.84,60.77,167.68,0.22,0.32,1.2,1.4,1.84,1.75
1.55,-102.47,81.71,172.33,0.12,0.12,0.14,0.22,0.24,0.57,-96.28,81.29,154.82,0.06,0.08,0.05,0.37,0.29,0.48,-157.88,37.03,89.24,0.4,0.39,0.48,0.93,1.32,0.76,-74.73,60.06,169.36,0.06,0.36,1.23,1.34,1.84,1.64
1.56,-102.41,81.75,172.26,0.17,0.16,0.17,0.23,0.32,0.68,-96.61,81.49,154.96,0.24,0.15,0.09,0.43,0.14,0.62,-158.15,37.07,89.34,0.38,0.27,0.64,0.97,0.99,0.76,-73.43,59.66,169.88,0.24,0.21,0.96,1.46,2.01,1.47
1.57,-102.55,81.71,172.41,0.1,0.14,0.19,0.13,0.22,0.55,-96.5,81.73,155.37,0.05,-0.02,0.21,0.52,0.27,0.46,-158.48,37.08,89.26,0.27,0.6,0.59,0.73,1.13,0.43,-72.84,59.36,170.19,0.17,0.33,0.96,1.45,1.92,1.39
1.58,-102.68,81.54,172.59,0.08,0.14,-0.03,0.23,0.2,0.58,-96.77,81.57,155.27,0.06,0.13,0.11,0.34,0.02,0.73,-158.8,37.05,89.47,0.41,0.3,0.66,0.87,1.06,0.59,-72.26,59.05,170.16,0.38,0.16,1.03,1.46,1.83,1.27
1.59,-102.74,81.29,172.49,0.11,0.02,0.22,0.21,0.21,0.57,-96.78,81.88,155.6,-0.15,-0.12,-0.04,0.18,0.16,0.48,-159.14,36.87,89.4,0.17,0.4,0.32,0.95,0.81,0.5,-71.9,58.73,170.25,0.38,0.29,0.85,1.22,1.74,1.12
1.6,-103.08,81.4,172.47,0.1,0.26,0.04,0.42,0.21,0.48,-97.12,81.68,156.06,-0.12,0.08,-0.03,0.3,0.16,0.74,-159.42,36.86,89.77,0.22,0.39,0.54,0.94,0.94,0.25,-71.79,58.34,170.16,0.25,0.17,0.99,1.0,1.86,0.99
1.61,-103.03,81.47,172.5,0.15,-0.04,0.25,0.41,0.24,0.26,-97.11,82.0,156.34,0.06,0.11,-0.02,0.28,0.1,0.62,-159.66,36.84,90.35,0.12,0.28,0.38,0.84,0.96,0.71,-71.83,58.47,169.94,0.31,0.25,0.72,0.9,1.72,0.97
1.62,-102.99,81.51,172.13,0.32,0.05,0.14,0.2,0.28,0.34,-97.57,82.16,156.49,0.04,0.14,-0.0,0.44,0.26,0.46,-159.84,36.83,90.74,0.07,0.33,0.39,0.88,0.81,0.58,-72.17,58.26,169.66,0.29,0.19,0.74,1.07,1.69,0.77
1.63,-103.26,81.42,172.06,0.19,0.18,0.23,0.22,0.2,0.46,-97.42,82.22,156.73,0.06,0.15,0.24,0.33,0.16,0.4,-159.9,36.75,91.23,0.22,0.2,0.42,0.99,0.91,0.41,-72.49,58.4,169.77,0.29,0.23,0.78,1.1,1.54,0.69
1.64,-103.0,81.34,171.43,0.24,0.11,0.16,0.18,-0.07,0.3,-97.67,82.29,156.86,0.03,0.03,0.04,0.28,0.28,0.58,-159.68,36.86,91.81,0.14,0.29,0.35,0.65,0.79,0.3,-73.12,58.19,169.27,0.33,0.38,0.47,0.8,1.58,0.76
1.65,-103.01,81.58,171.12,0.13,0.03,0.07,0.07,0.16,0.45,-97.99,82.33,157.07,0.07,-0.06,0.06,0.11,0.05,0.44,-160.03,36.69,92.33,0.14,0.05,0.27,0.81,1.03,0.48,-73.64,58.36,169.23,0.29,0.55,0.54,0.81,1.37,0.57
1.66,-102.77,81.49,170.73,0.15,0.19,0.18,-0.0,0.29,0.43,-97.79,82.5,157.0,0.02,0.2,0.03,0.35,0.11,0.4,-159.67,36.84,93.04,0.36,0.2,0.26,0.87,0.94,0.4,-74.6,58.45,169.34,0.42,0.33,0.47,0.67,1.36,0.7
1.67,-102.84,81.84,170.15,-0.07,0.12,0.06,0.19,0.16,0.4,-97.94,82.39,157.08,-0.05,-0.1,-0.03,0.23,0.47,0.29,-159.24,36.82,93.52,0.46,0.08,0.36,0.68,0.97,0.2,-75.14,59.06,169.37,0.16,0.42,0.32,0.92,1.5,0.62
1.68,-102.86,81.74,169.83,0.09,0.05,0.03,0.2,0.39,0.43,-98.03,82.67,156.75,-0.01,0.21,0.0,0.39,0.11,0.2,-159.05,37.21,94.06,0.39,-0.0,0.49,0.89,0.78,0.05,-75.96,59.29,169.49,0.45,0.46,0.48,0.95,1.3,0.58
1.69,-102.59,82.04,169.25,0.15,0.15,-0.14,0.19,0.26,0.51,-97.95,82.78,156.32,0.05,0.1,0.25,0.35,0.21,0.33,-157.92,37.86,95.16,0.46,-0.08,0.25,1.02,0.98,0.34,-77.59,60.33,170.1,0.48,0.51,0.3,1.21,1.36,0.66
1.7,-102.51,82.04,168.87,0.1,0.02,-0.03,-0.01,0.24,0.43,-97.92,82.83,155.98,0.05,0.06,-0.04,0.02,0.33,0.13,-157.13,38.35,95.73,0.43,0.18,0.21,0.63,0.77,0.31,-78.32,60.84,170.46,0.27,0.59,0.19,1.08,1.19,0.58
1.71,-102.39,82.1,168.57,-0.02,0.14,-0.01,0.28,0.28,0.48,-97.76,82.92,155.41,-0.05,0.09,0.07,0.02,0.32,0.24,-156.17,38.76,96.24,0.42,-0.1,0.36,0.79,0.59,0.21,-78.89,61.74,170.77,0.48,0.49,0.2,1.2,1.18,0.85
1.72,-102.46,82.39,168.34,0.31,0.14,0.14,0.08,0.25,0.57,-97.6,82.88,155.32,-0.1,0.04,0.05,0.24,0.33,0.1,-155.21,39.17,96.5,0.28,0.28,0.4,0.71,0.69,0.21,-79.63,62.25,171.24,0.16,0.6,0.49,0.98,0.91,0.82
1.73,-102.4,82.13,168.2,0.2,0.1,0.13,0.04,0.25,0.55,-97.57,83.02,154.68,0.15,0.19,0.1,0.15,0.24,0.22,-154.57,39.8,96.89,0.26,0.03,0.32,0.75,0.62,0.24,-79.84,63.2,171.5,0.2,0.64,0.07,0.78,0.93,0.76
1.74,-102.46,82.26,168.15,0.24,0.19,0.19,0.08,0.39,0.29,-97.27,83.14,154.24,0.3,0.33,-0.13,0.14,0.43,0.12,-152.87,40.31,97.43,0.16,0.19,0.34,0.75,0.55,0.42,-80.44,64.18,171.94,0.08,0.42,0.2,0.93,0.82,0.67
1.75,-102.45,82.34,168.05,0.32,0.07,-0.05,0.08,0.21,0.4,-97.12,83.0,153.93,0.11,0.24,0.05,0.11,0.43,0.13,-151.86,40.77,97.53,0.36,0.18,0.39,0.87,0.55,0.22,-80.67,64.93,172.27,0.16,0.68,0.1,0.95,0.68,0.75
1.76,-102.3,82.46,167.89,0.05,-0.07,0.05,0.02,0.19,0.35,-97.11,83.11,153.54,0.07,0.17,0.12,0.13,0.34,0.17,-150.85,41.38,97.68,0.34,0.3,0.43,0.81,0.26,0.42,-81.06,65.63,172.3,0.05,0.62,0.14,0.73,0.45,0.78
1.77,-102.48,82.51,167.73,-0.04,0.03,-0.01,0.13,0.09,0.35,-97.02,83.34,153.28,-0.02,0.21,0.12,0.18,0.4,0.08,-149.56,42.18,98.1,0.3,0.36,0.59,0.41,0.07,0.42,-81.52,66.91,172.52,0.19,0.74,0.12,0.71,0.29,0.81
1.78,-102.75,82.43,167.74,0.03,0.08,-0.04,-0.07,-0.09,0.29,-96.71,83.2,153.02,0.08,0.13,0.24,0.08,0.54,0.06,-148.49,42.78,98.24,0.36,0.35,0.42,0.64,0.06,0.65,-81.52,67.67,172.53,-0.01,0.68,-0.05,0.45,0.36,0.63
