0.01,-106.83,76.8,172.15,0.13,0.08,0.05,1.16,0.2,0.99,-98.82,84.81,5.47,-0.0,0.14,0.15,0.01,0.1,0.3,-147.23,1.22,5.78,0.24,0.01,0.05,0.32,0.14,0.06,-120.3,12.69,9.86,0.02,0.04,-0.01,0.1,0.03,-0.03
0.02,-106.85,76.83,172.02,0.16,0.39,0.09,0.58,0.24,0.64,-98.85,84.65,5.87,0.02,0.18,0.18,0.17,-0.06,0.33,-147.2,1.17,5.97,0.18,0.02,0.07,0.41,0.21,-0.02,-120.37,12.81,9.62,0.16,-0.07,-0.06,-0.09,-0.09,0.07
0.03,-106.86,77.31,172.12,0.33,0.06,-0.08,1.52,0.34,1.87,-98.68,84.7,5.67,0.12,-0.06,0.08,0.3,0.17,0.05,-147.28,1.29,5.94,-0.08,0.08,-0.05,0.53,0.17,0.12,-120.31,12.74,9.69,-0.21,-0.01,-0.02,-0.08,0.16,-0.04
0.04,-106.78,77.4,172.08,0.21,0.11,-0.11,1.29,0.41,1.5,-98.69,84.77,5.65,-0.07,0.1,0.13,0.19,0.09,0.11,-147.68,0.9,6.05,-0.05,0.12,0.21,0.33,0.47,0.21,-120.17,12.84,9.81,-0.03,-0.13,-0.04,0.06,0.06,0.08
0.05,-107.28,77.34,172.2,0.18,0.19,0.02,0.2,0.07,0.78,-98.79,84.69,5.3,0.0,0.22,0.2,0.04,0.12,0.14,-147.52,1.05,5.93,0.22,0.09,0.16,0.53,0.69,0.18,-120.29,12.87,9.76,-0.05,0.08,-0.09,0.21,-0.08,0.13
0.06,-107.66,77.02,172.86,0.2,0.34,0.03,0.21,-0.0,0.76,-98.71,84.56,5.36,0.18,0.17,0.09,0.35,0.26,-0.04,-147.49,0.87,6.25,0.15,0.04,0.17,0.64,0.74,0.17,-120.31,12.67,9.77,-0.09,0.08,0.06,0.17,0.06,0.01
0.07,-107.74,76.68,173.4,0.18,0.48,-0.05,0.79,0.11,0.77,-98.95,84.62,5.26,0.23,0.32,0.23,0.25,0.14,0.32,-147.23,1.1,6.01,0.24,0.14,-0.04,0.82,0.69,0.19,-120.3,12.72,9.75,0.08,0.37,0.18,-0.01,0.14,0.05
0.08,-107.97,75.89,173.51,0.16,0.5,-0.08,1.01,-0.03,0.8,-98.83,84.53,5.16,0.39,0.38,0.15,0.02,-0.21,0.61,-147.28,0.89,5.72,0.28,-0.09,0.09,0.91,0.64,0.03,-120.12,12.9,9.81,-0.11,-0.03,0.14,-0.09,-0.05,-0.08
0.09,-107.68,75.53,173.52,0.2,0.65,0.1,1.27,0.04,0.67,-99.09,84.36,4.93,0.36,0.31,0.18,0.18,0.25,-0.06,-147.19,1.25,5.4,0.22,0.08,0.06,1.45,0.54,0.69,-120.04,12.63,9.72,-0.09,0.04,-0.02,-0.02,-0.14,0.08
0.1,-106.99,74.62,173.7,0.13,0.67,-0.1,1.35,0.02,0.86,-99.18,84.31,4.77,0.31,0.23,0.28,0.37,0.05,0.06,-147.1,1.22,4.99,0.23,0.13,-0.15,1.41,0.97,0.92,-120.29,12.67,9.92,0.12,0.13,0.05,0.02,0.09,0.08
0.11,-106.81,73.7,174.06,0.2,0.75,0.11,1.6,0.14,0.28,-99.35,83.93,4.65,0.04,0.79,-0.0,0.7,0.07,0.2,-147.15,1.29,4.75,0.6,0.17,0.12,1.03,1.03,1.22,-120.38,12.56,9.76,-0.0,-0.01,-0.15,0.1,0.1,-0.02
0.12,-106.67,72.74,174.18,0.12,1.05,-0.09,1.97,0.53,0.24,-99.4,83.88,4.68,0.15,0.65,-0.03,0.96,0.22,0.14,-146.82,1.42,4.48,0.25,0.16,-0.01,0.85,1.12,1.85,-120.12,12.77,9.98,-0.02,0.05,0.23,0.22,-0.06,-0.12
0.13,-106.11,71.72,174.55,0.19,1.33,0.16,0.92,0.26,0.4,-99.07,83.35,4.72,-0.36,0.91,-0.11,1.26,0.27,0.27,-146.74,1.49,4.0,0.21,0.15,0.09,1.0,1.09,1.69,-119.89,12.75,9.7,0.01,-0.05,-0.07,0.26,0.18,0.11
0.14,-106.0,70.79,174.64,0.34,1.09,0.18,0.87,0.18,0.07,-99.04,83.17,4.55,0.03,0.89,0.13,1.73,0.16,0.32,-146.63,1.75,4.1,0.41,0.43,0.43,0.94,1.42,2.0,-120.07,12.72,9.82,-0.15,-0.05,-0.06,0.3,0.09,0.18
0.15,-106.0,70.3,174.97,0.08,1.14,-0.06,0.75,-0.02,0.08,-98.96,82.98,4.43,-0.04,1.05,-0.02,1.85,0.22,0.52,-146.33,1.85,3.65,0.3,0.24,0.36,0.92,1.34,2.17,-120.12,12.84,9.84,0.34,0.15,0.01,0.35,0.11,0.29
0.16,-105.83,68.83,175.16,0.05,1.31,-0.12,0.65,0.01,0.43,-98.51,82.24,4.62,0.09,1.06,0.21,2.12,0.27,0.38,-145.69,1.93,3.33,0.27,0.08,0.52,0.76,0.86,2.25,-119.8,12.74,9.82,-0.07,0.0,-0.21,0.55,0.12,-0.0
0.17,-106.07,67.31,175.63,0.1,1.23,0.24,2.27,0.49,0.13,-98.41,81.35,11.92,-0.04,1.29,0.01,1.82,0.4,0.21,-145.21,2.35,2.96,0.38,0.23,0.41,0.65,0.6,2.23,-120.0,12.6,9.78,0.12,-0.02,-0.03,0.46,0.04,0.2
0.18,-106.1,65.81,176.37,0.19,1.33,0.06,2.3,0.3,0.11,-98.15,80.06,18.01,0.18,1.32,0.13,1.96,0.42,0.17,-144.89,2.31,2.5,0.33,0.16,0.52,0.64,0.32,2.59,-119.82,12.72,9.68,0.1,0.07,0.13,0.5,0.41,0.16
0.19,-106.39,63.99,176.64,0.16,1.5,0.19,1.82,0.15,0.04,-97.87,79.04,23.0,-0.1,1.66,0.12,1.84,0.16,0.73,-144.58,2.37,2.21,0.54,0.11,0.08,0.62,0.03,2.76,-119.76,12.75,9.77,0.05,-0.17,-0.06,0.48,0.17,0.04
0.2,-106.27,62.43,176.87,-0.2,1.81,0.03,1.57,0.07,0.22,-97.65,77.29,26.86,-0.14,1.59,0.08,1.9,0.13,0.8,-144.24,2.76,1.85,0.47,0.21,0.13,0.61,0.61,3.28,-119.84,12.96,9.64,-0.17,0.03,-0.04,0.65,0.48,0.61
0.21,-105.93,60.47,177.17,0.29,1.95,0.06,0.63,0.4,0.04,-97.18,75.56,30.23,0.05,1.75,-0.06,2.23,0.38,0.62,-144.18,2.85,1.49,0.43,0.25,0.32,0.68,0.67,3.45,-119.55,12.7,9.58,-0.08,-0.01,0.11,0.66,0.01,0.86
0.22,-105.08,58.53,176.95,0.35,1.94,-0.04,1.36,0.2,-0.06,-97.35,73.97,33.0,0.28,1.81,-0.06,3.24,0.84,0.31,-143.58,3.05,1.36,0.28,0.22,0.25,0.65,0.42,3.4,-119.78,12.51,9.52,-0.03,0.1,0.11,0.95,0.3,1.57
0.23,-104.32,56.38,176.54,0.17,1.76,0.01,1.52,0.28,0.03,-97.39,72.23,35.4,0.02,1.79,0.14,3.22,0.8,1.05,-143.22,3.17,0.79,0.47,0.25,0.29,0.46,0.6,3.82,-119.85,12.18,9.61,0.15,0.07,0.0,0.75,0.37,1.76
0.24,-104.0,54.42,176.81,-0.06,1.91,0.14,0.49,0.73,0.3,-97.29,68.73,38.69,0.31,2.05,0.1,3.05,0.33,0.68,-143.16,3.44,0.63,0.39,0.06,0.28,0.57,0.47,3.74,-119.86,12.1,9.51,0.13,0.1,0.06,0.71,0.16,2.21
0.25,-104.31,52.48,177.08,0.2,1.96,-0.03,1.11,-0.15,1.41,-97.03,66.51,40.32,0.02,2.09,-0.01,3.1,0.27,0.53,-142.64,3.51,0.29,0.29,0.17,0.47,0.43,0.35,3.71,-119.72,11.88,9.19,0.22,0.05,0.0,0.81,0.09,2.23
0.26,-104.54,50.63,177.34,0.14,1.38,-0.1,0.05,0.05,1.79,-96.6,64.19,41.98,0.09,2.18,0.03,3.15,0.57,0.5,-142.38,3.92,0.12,0.61,-0.01,0.53,0.38,-0.16,3.25,-119.59,11.87,8.92,0.1,0.32,0.08,0.49,-0.09,2.36
0.27,-104.13,49.71,177.49,0.14,1.41,0.24,0.6,-0.08,1.45,-96.59,61.48,43.56,0.25,2.69,0.09,2.85,0.08,0.25,-141.63,3.83,0.36,0.39,0.09,0.54,0.16,0.22,2.8,-119.33,11.52,8.63,0.26,0.53,0.42,0.41,0.22,2.43
0.28,-103.88,48.78,177.19,0.36,1.5,0.07,0.44,0.09,1.23,-96.5,59.83,44.08,0.44,2.63,0.1,2.51,0.08,0.12,-141.68,4.12,0.5,0.13,0.13,0.32,0.17,0.03,2.45,-119.0,11.14,8.57,0.42,0.33,0.16,0.39,0.1,2.43
0.29,-103.59,48.22,177.25,0.19,1.62,-0.01,0.71,-0.08,0.91,-96.54,58.61,44.69,0.38,2.64,-0.07,2.29,0.14,0.32,-141.23,4.03,0.65,-0.05,-0.14,0.49,0.05,0.04,2.08,-119.05,11.1,8.27,0.19,0.36,0.08,0.15,-0.1,2.32
0.3,-103.08,46.05,177.22,0.12,1.8,-0.02,1.46,0.65,1.48,-96.72,55.89,46.02,0.21,2.47,0.04,1.14,0.17,0.79,-140.74,3.87,1.02,0.02,0.01,0.48,0.22,0.13,1.37,-118.53,10.96,8.05,0.36,0.18,0.28,0.25,0.13,2.63
0.31,-103.23,44.08,177.29,0.23,1.46,0.02,0.15,0.24,0.96,-96.68,53.0,46.79,0.25,2.52,0.06,0.88,-0.06,0.03,-140.4,3.92,1.11,0.11,0.04,0.25,0.44,0.03,1.45,-118.35,10.71,7.5,0.24,0.05,0.08,0.16,0.25,2.93
0.32,-103.23,42.83,177.12,0.5,1.46,-0.09,0.36,0.0,1.45,-96.51,49.91,47.54,0.21,3.15,0.17,0.66,0.08,0.51,-140.14,3.94,1.25,-0.03,0.25,0.52,0.15,0.05,0.47,-118.27,10.49,7.33,0.17,0.11,0.05,0.32,0.38,3.47
0.33,-102.92,41.09,176.98,-0.09,1.6,0.1,0.33,0.2,1.58,-96.6,46.99,48.26,0.0,2.49,0.25,0.74,0.12,0.11,-139.79,3.81,1.14,0.07,0.09,0.31,0.19,0.07,0.21,-118.39,10.48,7.08,0.32,0.34,-0.03,0.24,0.42,3.39
0.34,-102.77,38.96,177.11,-0.08,1.76,0.03,1.42,0.05,1.92,-95.76,44.55,48.65,0.18,2.02,0.07,0.53,0.14,0.51,-139.17,3.76,1.31,0.01,-0.07,0.4,0.65,0.23,0.12,-118.36,10.16,6.94,0.28,0.27,-0.15,-0.03,0.23,3.68
0.35,-103.1,36.91,177.61,0.13,1.82,0.16,1.54,0.32,1.75,-95.65,42.22,49.25,0.04,2.29,0.14,0.23,-0.01,-0.11,-138.42,3.59,1.17,0.05,0.15,0.63,0.64,0.12,0.09,-118.03,9.95,6.51,0.24,0.23,0.05,0.23,0.38,3.61
0.36,-103.16,35.45,177.53,0.09,1.4,0.11,0.81,0.17,0.72,-95.3,39.39,49.51,0.2,2.52,0.17,1.15,0.05,0.86,-137.89,3.47,0.79,0.17,0.19,0.53,0.37,0.07,0.14,-118.09,9.86,6.19,0.22,0.12,0.06,0.18,0.21,3.62
0.37,-103.3,34.02,177.82,-0.2,1.36,-0.03,1.66,0.09,0.59,-95.34,37.08,49.9,0.08,2.22,0.27,0.13,0.46,1.11,-137.03,3.27,0.87,0.04,0.08,1.03,0.58,0.43,0.51,-118.0,9.5,5.67,0.19,0.22,0.2,0.2,0.18,3.15
0.38,-103.22,32.04,177.75,0.19,1.46,0.21,2.06,0.23,0.28,-94.71,35.94,50.17,0.23,1.79,0.07,0.1,0.24,0.42,-135.97,2.94,0.44,0.03,0.27,0.71,0.63,0.14,0.65,-117.93,9.35,5.18,0.12,0.22,0.27,0.2,0.56,2.13
0.39,-103.38,30.58,178.03,0.18,1.34,0.13,2.19,0.2,0.12,-94.36,31.53,51.12,0.35,2.19,0.1,0.99,0.35,0.39,-135.31,2.87,0.21,0.49,0.0,0.63,0.32,0.91,1.0,-117.54,9.37,4.54,0.17,-0.09,0.45,0.34,-0.01,1.22
0.4,-103.86,29.3,177.98,0.18,1.12,0.21,1.78,0.51,0.48,-94.25,29.2,51.27,0.49,1.68,0.12,0.36,0.23,1.05,-134.64,2.51,0.03,0.35,0.15,0.46,0.34,0.59,1.31,-117.24,9.01,4.38,0.28,0.17,0.1,0.33,0.33,0.89
0.41,-104.0,28.17,178.12,0.1,1.13,0.19,2.74,0.78,1.18,-94.13,25.87,52.2,0.17,1.65,-0.04,1.28,0.05,1.66,-134.11,2.13,0.52,0.37,0.35,0.7,0.54,0.57,1.45,-116.96,9.22,3.91,0.4,-0.05,0.23,0.39,0.71,0.09
0.42,-104.01,27.52,178.01,0.27,1.17,0.09,2.83,0.97,1.42,-94.2,24.84,52.28,0.07,1.81,0.17,1.21,0.4,2.07,-133.56,2.0,0.72,0.24,0.25,0.59,0.63,0.56,1.93,-116.94,9.04,3.68,0.23,-0.14,0.0,0.1,0.58,0.21
0.43,-104.37,26.62,178.01,0.19,1.26,0.17,2.89,0.8,1.31,-94.16,23.96,52.43,0.03,1.65,0.15,1.09,0.8,2.56,-133.7,1.88,0.94,0.19,0.2,0.29,0.63,0.42,2.27,-116.9,9.2,3.56,0.3,-0.16,-0.06,0.06,0.64,0.34
0.44,-104.52,25.63,178.25,0.05,0.54,0.13,1.16,0.32,0.47,-94.27,22.16,52.59,0.21,1.39,0.06,1.27,0.47,2.42,-133.3,1.61,1.17,-0.05,0.44,0.23,0.35,0.57,2.48,-116.59,9.15,3.38,0.25,-0.11,0.1,0.31,0.71,0.1
0.45,-104.55,25.21,178.05,-0.08,0.48,0.03,0.77,0.1,0.45,-94.05,20.62,52.84,0.07,1.31,0.08,1.48,0.56,1.72,-132.66,1.15,1.92,0.45,0.25,0.43,0.54,0.53,2.73,-116.5,9.21,2.88,0.21,0.14,0.13,0.28,1.04,0.17
0.46,-104.73,24.16,178.32,0.01,1.01,0.05,1.45,0.35,1.29,-94.24,19.39,52.75,0.09,1.23,0.11,1.42,0.81,1.89,-132.48,0.64,2.35,0.44,0.09,0.53,0.4,0.29,2.79,-116.06,9.39,2.9,0.01,0.16,0.45,0.25,0.45,0.64
0.47,-104.62,23.26,178.01,0.15,0.6,0.1,1.52,0.27,-0.02,-94.24,17.87,52.96,0.06,1.14,0.08,1.23,1.23,2.16,-132.15,0.72,2.79,0.55,0.35,0.44,0.53,0.07,2.64,-115.35,9.73,2.63,-0.01,-0.09,0.53,0.31,0.26,1.01
0.48,-104.96,22.53,178.05,-0.13,0.49,-0.03,1.72,0.43,0.06,-94.41,16.74,52.99,0.11,0.94,0.12,0.89,0.41,1.94,-131.85,0.39,3.32,0.31,0.47,0.68,0.66,0.79,2.4,-114.77,9.83,2.49,0.17,0.1,0.44,0.32,0.19,1.16
0.49,-104.81,21.03,178.08,0.13,0.69,-0.12,1.73,0.45,1.02,-94.41,15.76,53.02,0.1,0.97,-0.09,0.65,0.22,1.85,-131.16,0.17,3.62,0.35,0.32,0.33,0.72,0.65,2.52,-114.34,10.12,2.16,0.01,0.21,0.52,0.5,0.32,1.13
0.5,-104.98,20.68,178.47,-0.01,0.13,-0.19,1.21,0.52,0.78,-94.35,14.83,52.7,0.08,0.68,0.25,0.57,0.3,1.95,-130.65,0.48,3.86,0.21,0.29,0.38,0.76,0.07,2.79,-114.07,10.49,2.3,-0.03,0.23,0.15,0.5,0.44,1.58
0.51,-105.09,19.88,178.03,0.25,0.11,-0.08,0.58,0.58,0.37,-94.03,13.82,52.78,0.09,0.74,0.24,0.75,0.12,1.88,-130.17,0.32,4.24,0.4,0.22,0.41,1.05,0.44,2.81,-113.89,10.89,2.32,-0.04,0.31,0.18,0.32,-0.04,1.98
0.52,-105.19,19.71,178.03,0.22,0.33,0.11,0.27,0.31,0.22,-94.17,12.97,52.89,-0.01,0.79,-0.0,0.77,0.1,1.44,-130.14,0.59,4.77,0.43,0.25,0.42,0.38,0.82,2.81,-113.55,11.09,2.29,-0.13,0.46,0.04,0.45,0.78,2.44
0.53,-105.24,19.5,177.59,-0.09,0.27,0.15,0.52,0.62,0.01,-94.2,12.54,52.72,0.17,0.59,0.15,0.53,0.27,1.24,-129.95,1.14,5.09,0.18,0.2,0.12,0.4,0.61,2.75,-113.68,11.43,2.25,0.13,0.14,0.27,0.51,0.27,2.87
0.54,-105.44,19.36,177.65,0.06,0.17,0.03,1.06,0.15,1.6,-94.21,11.79,52.66,0.04,0.79,-0.04,0.59,0.49,1.12,-130.77,1.23,5.7,0.54,0.11,0.43,0.47,0.67,1.63,-113.13,11.81,2.34,0.12,0.33,0.21,0.49,0.08,2.98
0.55,-105.41,19.24,177.49,-0.08,0.13,0.01,0.73,0.6,0.98,-93.89,11.35,52.55,0.14,0.36,0.03,0.67,0.08,0.53,-130.86,1.26,5.99,0.08,-0.06,0.2,0.36,1.18,2.29,-112.71,11.99,2.39,0.01,0.2,0.11,0.02,0.06,2.75
0.56,-105.35,19.22,177.7,0.07,0.31,0.05,0.59,0.37,0.52,-93.93,11.23,52.45,0.02,0.26,0.05,0.5,0.42,0.88,-131.27,1.22,6.21,0.05,0.06,0.49,0.37,1.19,2.19,-112.61,12.03,2.34,0.08,-0.03,0.41,0.14,-0.0,2.79
0.57,-105.41,19.51,177.71,0.0,0.14,-0.09,0.24,0.02,0.57,-93.9,11.02,52.51,0.19,0.36,0.06,0.69,0.09,1.2,-131.72,1.51,6.32,0.3,0.29,0.68,0.54,1.3,2.13,-112.59,12.22,2.58,0.11,-0.02,0.19,0.15,0.15,2.87
0.58,-105.55,19.48,177.52,0.07,0.14,0.23,0.49,0.01,0.16,-93.95,10.86,52.48,0.16,0.07,-0.05,0.64,0.51,1.51,-132.36,1.52,6.22,-0.0,0.26,0.65,0.15,2.18,2.38,-112.35,12.35,2.88,0.06,0.22,0.25,0.08,0.46,3.04
0.59,-105.6,19.49,177.72,0.03,0.08,0.17,1.13,0.59,0.66,-93.98,10.83,52.11,0.18,0.08,0.02,0.68,0.06,0.91,-133.34,2.02,6.41,0.04,0.16,0.82,0.09,1.87,2.56,-112.02,12.48,2.97,0.29,0.04,0.15,-0.04,0.04,3.29
0.6,-105.83,19.82,177.71,0.07,0.02,-0.06,0.96,0.33,1.34,-93.93,10.71,52.06,-0.1,0.09,0.05,0.2,0.16,0.51,-133.97,2.35,6.2,0.22,0.27,0.54,0.35,0.68,2.2,-111.79,13.07,3.46,0.11,0.12,-0.02,0.47,0.14,2.6
0.61,-105.92,19.84,177.73,-0.1,-0.04,0.15,1.05,0.44,0.3,-93.75,10.55,52.15,0.2,0.25,-0.07,0.33,0.06,0.84,-134.34,2.71,6.02,0.16,0.31,0.33,0.52,0.85,1.44,-111.94,13.3,4.15,0.32,0.39,0.1,0.32,1.06,2.33
0.62,-105.92,20.03,177.86,-0.01,0.15,0.02,1.0,0.72,0.86,-94.25,10.76,51.94,0.01,-0.05,-0.01,0.03,0.11,0.73,-134.51,3.18,5.95,0.39,0.5,0.09,0.29,1.43,1.46,-112.04,13.66,4.54,0.27,0.3,0.26,0.5,1.1,1.9
0.63,-106.25,20.19,177.79,0.0,0.16,0.04,0.76,-0.04,1.88,-94.1,10.97,52.47,0.25,0.39,-0.03,-0.01,0.26,1.36,-134.2,3.37,5.65,0.04,0.05,0.35,0.98,-0.11,1.1,-112.39,13.77,4.95,0.49,0.35,0.39,0.33,2.59,1.86
0.64,-106.36,20.57,178.17,0.36,0.03,0.01,1.24,0.95,1.61,-94.16,11.2,52.45,0.06,0.15,0.13,0.2,0.29,1.31,-133.9,3.22,5.22,0.07,0.06,0.2,1.17,0.48,2.15,-112.76,14.01,5.18,0.02,0.35,0.07,0.15,2.5,2.13
0.65,-106.59,20.77,178.38,0.3,-0.0,-0.02,1.31,0.22,1.34,-93.75,11.37,52.66,0.33,0.1,0.09,0.53,0.64,1.51,-133.82,3.41,5.47,0.11,0.25,0.23,0.99,0.48,2.89,-113.07,14.36,5.22,0.14,0.18,0.35,0.37,2.16,2.37
0.66,-106.77,20.63,178.24,0.27,0.09,0.1,1.4,-0.01,1.45,-94.05,11.35,52.89,0.36,0.16,0.28,0.13,0.66,1.91,-133.94,3.13,5.46,0.12,0.13,0.2,0.92,1.12,3.74,-113.81,14.49,5.64,0.05,0.18,0.62,0.42,0.33,2.2
0.67,-106.79,21.12,177.82,0.18,0.3,-0.07,1.51,0.48,1.79,-94.38,11.48,53.1,0.12,0.18,0.17,0.6,0.46,2.35,-134.61,3.05,5.59,-0.21,-0.03,0.71,0.57,1.73,4.46,-114.59,14.92,6.32,0.15,0.32,0.4,0.29,0.71,1.33
0.68,-106.74,21.42,177.85,0.1,0.53,-0.18,1.41,0.62,1.43,-94.53,11.67,53.09,0.14,0.14,-0.0,0.68,0.46,1.09,-135.54,3.03,5.65,-0.02,0.02,0.96,1.07,1.45,4.14,-114.95,15.57,6.32,0.17,0.31,0.21,1.12,1.9,1.04
0.69,-107.04,22.05,178.23,0.37,0.54,-0.15,1.65,0.12,0.83,-94.39,11.81,53.24,0.35,0.07,0.02,0.44,0.27,2.46,-136.34,3.09,5.54,0.21,0.08,0.94,0.88,1.31,3.72,-115.35,15.43,6.87,0.26,0.14,0.69,0.99,1.84,2.98
0.7,-106.92,22.17,178.17,0.33,0.52,-0.12,1.9,0.21,0.83,-94.46,11.92,53.68,0.12,0.22,-0.02,0.48,0.61,2.84,-137.03,3.25,5.45,0.26,0.21,0.84,0.76,0.62,3.91,-114.84,15.63,7.07,0.53,0.13,0.62,0.75,1.23,3.29
0.71,-107.1,22.32,178.38,0.08,0.53,-0.07,2.22,0.19,0.62,-94.34,12.18,53.77,0.42,0.2,0.06,0.66,1.05,3.01,-137.5,3.09,5.21,0.28,0.32,0.77,0.86,0.1,3.77,-114.47,15.64,6.89,0.33,-0.2,0.45,0.72,0.62,3.37
0.72,-106.98,24.61,177.67,0.2,0.96,0.09,1.4,0.73,0.82,-94.6,12.49,53.96,0.11,0.5,0.25,0.7,1.07,1.79,-137.83,3.3,4.95,0.69,-0.01,0.33,0.6,0.91,3.09,-114.06,15.62,7.33,0.22,0.42,-0.1,0.19,0.43,3.91
0.73,-107.07,25.74,177.88,0.42,0.87,0.11,1.71,0.24,0.29,-94.88,12.59,54.23,0.14,0.38,0.05,1.03,0.19,2.28,-137.49,3.31,4.17,0.75,0.05,0.19,0.51,0.14,2.95,-114.6,15.69,7.67,0.38,0.09,0.62,1.97,0.57,3.93
0.74,-107.26,26.27,177.87,0.11,1.16,0.11,2.02,0.24,0.1,-94.63,14.09,54.36,0.05,0.61,0.02,1.03,0.86,1.6,-136.46,3.3,2.75,0.6,0.18,0.39,0.31,0.92,2.47,-115.06,16.04,8.32,0.13,0.28,0.05,1.57,1.82,3.9
0.75,-106.99,27.5,177.68,0.48,1.41,-0.1,1.04,0.34,0.41,-94.56,15.06,54.33,-0.08,0.73,0.1,1.34,1.04,1.22,-136.26,3.23,1.98,0.8,0.05,0.33,0.29,1.26,2.54,-114.85,16.15,8.37,0.25,0.21,0.22,1.27,1.63,4.25
0.76,-107.35,29.22,177.29,-0.01,1.17,-0.0,0.88,-0.05,0.23,-94.64,16.7,54.27,0.25,1.11,0.11,0.76,0.42,1.12,-136.46,3.22,1.28,0.53,0.33,0.23,0.08,1.25,3.36,-115.33,16.71,9.17,0.21,0.32,-0.02,0.15,0.75,3.27
0.77,-107.46,30.29,177.28,0.32,1.04,0.03,1.79,0.1,0.68,-94.88,17.8,53.93,0.26,0.92,0.17,1.39,0.6,0.39,-136.95,3.65,0.41,0.72,0.34,0.28,0.13,1.24,3.26,-114.91,17.13,9.42,0.45,0.14,0.38,0.31,0.21,3.66
0.78,-107.59,31.72,177.41,-0.2,1.36,0.17,2.18,0.26,0.01,-94.99,18.89,54.01,0.19,1.04,0.18,1.29,0.39,0.78,-137.23,4.1,0.28,0.83,0.28,0.19,0.03,0.59,3.0,-113.66,18.04,9.94,0.37,0.44,0.27,0.8,0.38,2.76
0.79,-107.44,33.27,177.38,0.19,1.75,-0.07,1.05,0.35,0.26,-94.85,20.25,53.76,0.24,1.24,0.2,0.99,0.23,1.6,-137.49,4.07,0.84,0.85,0.17,0.3,0.24,0.32,1.53,-113.09,18.52,10.35,0.39,0.5,0.71,0.86,0.07,3.16
0.8,-107.49,35.08,176.92,0.09,1.77,-0.13,0.26,0.12,1.23,-94.98,21.85,53.51,0.03,1.5,0.09,0.52,0.58,0.82,-137.47,4.58,2.03,0.82,-0.09,0.09,0.23,0.26,1.54,-112.6,19.03,10.67,0.56,0.56,0.6,0.61,0.25,3.25
0.81,-107.79,38.97,176.82,0.23,1.53,0.09,2.09,0.36,0.84,-95.06,23.23,53.32,0.22,1.51,-0.02,1.15,0.23,0.05,-137.32,4.4,2.98,0.73,0.22,-0.07,0.56,0.51,2.61,-111.69,19.74,11.14,0.6,0.23,0.65,0.26,0.5,3.28
0.82,-108.07,40.84,176.56,0.18,1.94,-0.14,1.17,0.42,0.54,-95.15,24.91,52.98,0.21,1.49,0.03,0.62,0.03,0.04,-137.45,4.56,3.75,0.8,0.15,-0.09,1.16,0.63,2.3,-110.97,20.31,11.23,0.69,0.6,0.57,0.18,0.47,2.92
0.83,-107.99,45.58,176.03,0.17,2.19,-0.21,0.25,0.43,0.94,-94.92,28.77,52.89,0.06,1.96,0.14,0.21,-0.13,0.66,-137.07,5.48,4.99,0.62,0.46,0.14,0.52,1.53,-0.1,-110.44,20.98,11.76,0.49,0.55,0.59,0.36,0.07,2.17
0.84,-108.16,46.8,175.72,0.11,2.16,-0.06,0.89,0.7,1.14,-94.97,30.0,52.95,0.13,1.86,0.06,0.16,0.13,0.48,-137.21,5.79,5.39,0.56,0.57,0.06,0.87,1.3,0.25,-110.18,21.31,11.99,0.56,0.64,0.46,0.1,0.46,2.2
0.85,-108.15,48.01,175.66,0.19,2.36,0.06,0.68,0.71,1.24,-94.93,30.78,52.88,0.05,2.06,0.14,0.32,0.7,0.47,-137.49,6.01,5.98,0.83,0.48,0.32,1.33,0.96,0.29,-109.59,21.8,12.3,0.67,0.7,0.31,-0.21,0.74,2.34
0.86,-108.41,50.46,175.13,0.15,2.17,0.14,0.27,0.38,1.33,-94.83,32.91,52.99,0.08,1.82,0.01,-0.01,0.38,0.69,-137.86,6.74,6.35,0.61,0.44,0.25,1.03,0.29,0.19,-109.12,22.5,13.03,0.69,0.67,0.33,0.45,1.36,2.7
0.87,-108.62,52.78,174.91,0.07,2.14,0.03,0.4,0.12,1.85,-95.36,35.0,52.7,0.23,2.12,0.04,0.07,0.46,0.52,-138.37,7.36,7.06,0.77,0.82,0.68,0.62,0.98,0.4,-108.59,23.16,13.5,0.66,0.78,0.72,0.2,0.4,1.26
0.88,-108.54,55.14,174.34,0.19,1.96,0.01,0.05,0.44,1.64,-95.14,37.19,52.56,-0.01,1.9,0.13,0.22,-0.08,0.06,-138.9,8.31,7.62,0.6,0.82,0.5,0.97,0.58,0.78,-107.56,24.48,14.02,0.78,0.8,0.97,0.08,0.71,1.01
0.89,-108.55,57.53,173.73,-0.04,2.0,0.18,0.58,0.83,0.98,-95.34,38.51,52.39,0.06,2.06,-0.0,0.43,0.14,0.61,-139.52,9.28,8.07,0.23,0.76,0.79,0.73,0.93,0.48,-106.81,25.37,14.75,0.84,0.82,0.84,0.16,1.0,1.75
0.9,-108.71,59.67,173.58,0.09,1.94,-0.04,0.65,0.4,1.11,-95.46,40.8,52.21,0.25,2.09,0.08,0.14,0.88,1.21,-140.39,10.45,8.19,0.34,1.16,0.88,0.38,0.12,1.08,-105.05,28.16,15.74,0.79,1.23,0.31,0.47,0.44,0.64
0.91,-109.9,64.3,173.11,-0.04,1.88,0.1,0.29,0.18,0.9,-95.16,43.2,51.78,0.04,2.31,0.1,0.26,0.85,0.11,-141.08,11.78,8.26,0.11,1.01,0.86,0.29,0.73,1.83,-104.48,29.82,16.77,0.75,1.34,0.5,0.7,0.21,0.54
0.92,-109.95,66.52,172.65,0.14,2.17,-0.1,1.83,0.12,0.72,-95.3,45.91,51.51,0.36,2.42,-0.04,0.84,0.51,0.36,-142.12,13.25,8.42,-0.03,1.18,1.25,1.35,1.76,1.51,-103.71,31.68,17.18,1.02,1.56,0.72,0.45,1.01,0.14
0.93,-110.57,68.79,172.62,0.09,2.0,0.16,2.25,0.19,0.91,-95.23,48.69,51.09,0.1,2.35,-0.0,0.86,0.46,0.82,-144.45,16.11,7.97,0.23,1.05,0.86,0.7,0.63,2.09,-103.03,33.83,17.85,0.69,1.83,0.73,0.43,0.08,0.3
0.94,-111.21,70.88,172.21,0.02,1.86,0.18,1.65,0.37,0.87,-94.92,51.28,50.72,0.21,2.24,0.32,1.27,0.34,0.04,-145.5,17.51,7.35,0.21,1.54,1.08,1.17,0.43,2.54,-102.64,36.05,18.88,0.69,1.77,0.55,0.14,1.19,1.21
0.95,-111.86,72.56,171.97,0.13,1.64,0.22,0.68,0.58,0.0,-95.1,53.8,50.21,0.3,2.58,0.02,1.2,0.57,0.42,-148.57,21.26,5.04,1.0,1.49,1.39,1.56,2.18,2.29,-102.32,38.16,19.88,0.84,1.9,0.56,-0.04,1.58,1.27
0.96,-111.99,74.37,171.54,0.01,1.74,-0.01,1.56,0.25,0.22,-95.01,56.58,49.4,0.14,2.41,0.05,1.33,0.19,0.96,-149.88,22.82,3.38,1.02,1.61,1.53,1.68,1.8,3.03,-101.57,40.55,20.85,0.88,2.26,0.65,0.13,0.53,0.71
0.97,-112.45,75.87,170.67,0.15,1.42,-0.06,2.3,-0.01,0.06,-94.91,59.26,48.82,0.2,2.48,-0.03,1.35,0.29,0.55,-151.83,24.33,1.17,1.13,1.38,1.75,1.25,1.74,3.04,-100.44,44.71,22.32,0.66,2.45,0.66,0.95,0.53,1.1
0.98,-112.67,76.73,170.01,0.16,1.45,-0.05,1.96,-0.05,0.06,-94.77,60.52,48.32,0.03,2.37,0.14,1.89,0.25,0.6,-152.68,25.05,1.11,1.22,1.32,1.82,1.05,2.3,3.03,-100.0,45.89,22.97,0.75,2.45,0.59,0.83,0.91,0.78
0.99,-112.51,77.36,169.4,-0.11,1.18,0.04,1.62,0.08,0.12,-94.83,61.86,47.89,0.24,2.43,-0.03,2.07,0.7,0.55,-153.33,25.92,0.83,1.29,1.36,1.78,1.19,2.59,3.31,-99.93,47.32,23.6,0.84,2.71,0.62,0.9,1.28,0.76
1.0,-112.37,77.95,168.41,0.05,0.77,0.15,0.76,0.07,1.03,-94.59,64.56,46.58,0.15,2.32,0.01,2.23,0.57,0.65,-154.77,27.33,3.49,1.35,1.34,1.79,0.88,2.42,2.83,-98.45,54.03,27.08,1.06,3.04,0.59,1.44,0.33,2.44
1.01,-112.5,78.97,167.15,0.18,1.1,0.06,1.18,0.01,0.42,-94.31,67.2,45.36,0.07,2.43,0.22,2.43,-0.0,1.28,-156.06,28.76,6.33,1.52,1.51,1.71,0.7,1.94,2.71,-97.74,56.98,29.65,0.99,3.06,0.51,1.41,2.08,1.62
1.02,-112.99,80.04,166.3,0.31,0.98,0.06,1.45,0.48,0.04,-94.35,69.43,43.85,0.14,2.18,-0.08,2.24,0.02,0.66,-157.54,30.25,9.18,1.82,1.47,1.57,0.3,2.01,2.31,-97.48,60.67,32.86,1.0,3.27,0.49,1.83,0.68,2.07
1.03,-113.24,80.94,165.47,0.03,0.75,-0.03,1.41,0.49,0.72,-94.24,71.55,42.24,0.07,2.22,0.21,2.66,0.56,0.8,-158.86,31.56,12.7,2.02,1.37,1.46,0.57,2.17,1.49,-96.52,64.12,36.69,1.21,3.31,0.72,2.32,0.24,2.16
1.04,-112.95,81.75,164.24,0.04,0.47,0.06,0.74,1.27,0.37,-94.04,73.81,40.17,0.21,2.1,0.03,2.82,0.44,1.07,-160.22,32.58,16.43,2.32,1.49,1.7,0.53,2.05,1.21,-95.56,67.44,36.66,1.14,3.51,0.65,1.86,0.44,1.5
1.05,-112.72,81.91,162.97,0.11,0.29,0.11,0.56,1.14,0.68,-94.0,75.68,37.65,0.13,1.73,-0.04,1.86,-0.14,0.43,-161.43,33.6,20.12,2.29,1.42,1.47,0.42,2.15,0.8,-95.05,70.66,44.08,1.15,3.29,0.51,2.22,0.21,1.43
1.06,-112.46,82.32,161.85,0.18,0.22,-0.16,0.82,0.47,0.04,-93.78,76.47,36.15,0.24,1.49,0.15,1.17,0.22,0.52,-162.6,34.72,24.37,2.47,1.55,1.36,0.4,1.93,0.06,-94.11,73.16,53.56,1.03,3.38,0.47,1.88,0.26,1.48
1.07,-112.25,82.62,161.45,0.4,0.32,0.22,0.53,0.61,0.08,-93.43,78.18,32.34,0.08,1.21,0.02,1.24,0.32,0.78,-163.24,35.56,28.6,2.31,1.52,1.1,0.47,2.04,-0.14,-93.05,75.57,66.24,1.21,3.32,0.66,1.19,0.47,1.42
1.08,-111.53,82.73,161.37,0.24,-0.06,-0.01,0.18,0.6,0.29,-93.2,79.48,28.1,0.18,1.54,0.33,1.26,0.94,0.64,-164.02,36.54,32.71,2.54,1.47,1.04,0.97,0.87,0.18,-92.18,76.91,82.34,1.26,3.45,0.39,0.66,0.05,1.46
1.09,-111.34,83.05,161.37,0.45,0.07,0.26,0.35,0.43,0.27,-92.63,80.76,23.23,0.18,1.32,0.09,0.95,0.78,0.62,-164.67,37.2,36.73,2.19,1.55,0.92,0.73,1.21,0.27,-89.91,75.95,82.47,1.24,3.24,0.83,1.18,0.76,1.11
1.1,-110.95,83.06,162.12,0.27,0.08,-0.08,0.11,0.07,0.22,-92.48,81.75,23.05,0.36,1.23,0.11,0.69,0.52,0.68,-164.77,37.87,40.91,2.54,1.49,0.74,0.95,1.63,0.66,-88.78,74.5,82.29,0.85,3.06,0.74,-0.03,0.52,0.75
1.11,-110.71,83.1,162.1,0.33,-0.01,0.1,0.42,0.58,0.18,-92.3,82.85,16.78,0.25,1.1,-0.02,1.26,0.35,0.06,-165.03,38.95,45.23,2.47,1.76,0.58,0.92,0.25,2.09,-88.05,72.32,92.3,0.89,2.82,0.69,1.07,0.29,0.39
1.12,-110.74,83.16,162.31,0.15,-0.11,0.14,0.19,0.5,0.06,-91.91,82.86,16.78,0.4,1.11,0.13,1.21,0.39,0.09,-165.02,39.71,47.3,2.48,1.78,0.42,0.77,0.8,1.74,-87.34,71.4,95.99,0.84,2.95,0.65,0.8,0.25,0.32
1.13,-110.48,83.33,162.16,0.28,0.11,0.14,0.25,0.8,0.19,-91.75,83.43,16.66,0.44,1.1,0.21,1.11,0.29,0.14,-165.22,40.29,49.41,2.54,1.85,0.21,0.72,1.03,1.46,-86.64,70.2,100.27,0.88,3.07,0.81,0.57,0.26,0.27
1.14,-110.36,83.4,162.36,-0.07,0.3,0.06,0.09,0.9,0.26,-91.48,84.07,16.38,0.4,1.05,0.2,0.79,0.46,0.2,-164.61,41.4,53.49,2.51,1.83,0.01,0.28,1.33,0.77,-84.97,67.71,106.91,0.79,2.73,1.04,-0.04,0.24,-0.07
1.15,-110.47,83.87,162.65,0.09,0.17,0.12,0.16,0.74,0.22,-90.92,84.48,16.38,0.57,0.88,0.09,0.29,0.39,0.52,-163.95,42.74,58.02,2.48,1.81,0.2,0.27,1.16,1.46,-84.04,65.4,111.99,0.73,2.52,0.81,0.56,0.01,0.98
1.16,-110.59,84.04,162.75,0.06,0.21,0.2,0.05,1.27,0.33,-90.27,84.78,16.77,0.38,0.92,0.07,0.5,0.42,0.51,-161.69,45.5,57.85,2.5,1.47,0.64,0.96,1.39,1.0,-82.8,63.04,115.14,0.53,2.18,0.75,0.09,0.66,0.64
1.17,-110.9,84.1,163.2,0.12,0.03,0.3,0.07,0.88,0.47,-89.94,84.67,16.64,0.47,0.84,-0.11,0.09,1.03,0.71,-160.17,46.68,62.45,2.78,1.69,0.65,0.11,0.44,1.13,-80.2,59.21,120.91,0.59,1.84,0.82,1.03,0.59,0.93
1.18,-110.86,84.05,163.09,0.11,0.02,0.04,0.32,0.77,0.43,-89.53,84.36,16.88,0.38,0.95,0.09,0.18,0.9,0.47,-158.6,47.86,66.85,2.49,1.62,0.69,0.27,1.2,0.6,-78.78,57.33,122.95,0.21,1.44,0.74,0.68,0.43,0.68
1.19,-111.12,84.1,163.37,0.16,-0.02,0.27,0.47,0.25,0.25,-89.56,83.76,16.93,0.13,0.86,0.04,1.01,0.9,0.43,-157.11,48.98,71.35,2.4,1.59,0.65,0.42,0.35,1.14,-78.85,56.14,124.07,0.18,1.35,0.57,1.05,0.46,0.32
1.2,-111.74,83.92,163.47,0.13,0.19,0.2,0.64,0.15,-0.01,-89.72,83.28,17.14,0.03,0.56,0.19,0.55,1.37,0.8,-156.6,49.52,73.22,2.52,1.57,0.67,1.52,0.88,0.79,-78.49,54.76,124.58,0.25,0.99,0.0,1.64,1.57,0.24
1.21,-111.79,83.7,163.49,0.31,0.3,0.31,-0.02,1.15,0.75,-89.64,82.99,17.19,0.24,0.41,0.19,0.19,1.45,0.69,-155.18,50.01,78.19,2.34,1.79,0.44,0.61,2.86,1.5,-78.27,54.32,124.69,0.16,0.7,-0.14,1.16,-0.02,0.42
1.22,-111.68,83.63,163.52,0.17,0.44,0.05,0.97,0.78,1.05,-89.93,83.01,17.1,0.1,0.55,0.28,0.44,0.81,0.82,-153.73,50.65,82.78,2.17,1.6,0.56,0.95,3.06,0.19,-78.63,53.71,125.13,-0.12,0.65,0.81,0.35,1.7,0.24
1.23,-111.21,82.77,161.21,0.34,0.42,0.29,0.1,0.2,0.85,-90.41,82.8,17.28,0.28,0.06,-0.11,-0.05,0.03,1.4,-153.03,51.33,87.3,1.94,1.71,0.73,1.14,0.42,0.9,-78.38,52.7,126.27,0.78,0.61,0.99,1.56,2.63,0.6
1.24,-111.09,82.76,162.15,0.21,0.28,0.31,0.22,0.12,0.89,-90.48,82.88,17.05,0.2,-0.15,0.15,0.09,0.12,1.3,-151.35,51.98,91.59,1.81,1.28,1.02,1.08,0.41,0.12,-79.68,52.14,126.44,0.76,0.31,0.01,1.73,0.01,1.47
1.25,-110.77,82.46,163.45,0.29,0.18,0.29,0.06,0.8,0.8,-90.33,82.7,17.12,-0.11,0.16,0.12,0.39,0.06,1.12,-149.98,52.67,95.26,1.73,1.12,1.1,1.69,1.76,0.28,-81.06,52.16,125.69,0.34,0.16,0.01,0.43,0.88,2.11
1.26,-110.81,82.25,163.51,0.31,0.32,0.1,0.15,1.06,0.89,-90.53,82.77,17.22,0.2,0.07,0.07,0.47,0.15,0.72,-149.12,53.12,97.11,1.53,0.97,1.07,1.52,2.14,0.39,-81.26,51.97,125.74,0.47,0.08,0.38,0.42,0.88,2.24
1.27,-110.88,82.1,163.11,0.14,0.27,0.13,0.4,0.99,1.17,-90.53,82.76,17.34,0.2,0.28,0.15,0.52,0.3,0.46,-148.02,53.67,98.84,1.38,1.2,0.86,1.59,2.74,0.27,-81.85,51.87,125.69,0.57,0.1,0.38,0.91,1.05,2.39
1.28,-110.82,81.68,161.78,0.09,0.22,0.04,0.26,0.51,1.31,-90.44,82.6,17.11,-0.05,0.44,0.04,0.28,-0.04,1.13,-146.49,53.87,102.73,1.42,0.95,0.65,1.48,1.14,0.24,-82.77,51.64,125.71,0.64,0.28,0.61,2.09,1.0,1.6
1.29,-110.72,81.48,160.36,0.16,0.26,0.3,0.22,0.45,1.33,-90.45,82.84,17.21,0.15,0.13,-0.02,0.41,0.23,1.06,-145.68,53.73,105.88,1.28,1.11,0.54,0.34,1.26,0.17,-83.82,51.3,125.09,0.66,0.31,0.09,1.71,1.66,1.52
1.3,-110.79,81.0,159.87,0.34,0.25,0.1,0.31,0.26,1.01,-90.22,83.13,17.21,-0.02,0.16,0.07,0.36,1.14,1.03,-144.63,53.61,109.26,1.19,1.25,0.54,1.75,0.34,0.59,-85.3,51.16,124.64,0.68,0.28,-0.09,1.48,-0.0,2.02
1.31,-110.31,80.93,159.62,0.36,0.25,0.02,0.35,-0.02,1.24,-90.48,83.37,18.25,-0.05,-0.01,0.06,0.36,0.62,-0.16,-143.88,53.62,112.49,1.17,1.27,0.62,1.48,0.69,0.69,-85.95,50.89,124.41,0.64,0.36,0.18,1.82,1.18,1.51
1.32,-110.19,80.49,159.47,0.08,0.23,0.05,0.72,0.37,1.94,-90.49,83.5,18.0,0.1,0.18,-0.06,-0.04,0.47,0.83,-142.67,53.45,115.15,1.01,0.53,0.48,2.53,2.22,1.01,-87.13,50.47,124.27,0.47,0.28,0.22,2.16,0.92,0.17
1.33,-109.75,80.52,159.28,0.28,0.31,-0.03,0.34,0.15,1.75,-90.37,83.52,18.01,0.12,0.28,-0.07,0.04,0.67,1.3,-141.29,53.51,117.39,0.89,0.47,0.4,1.9,2.03,0.16,-88.34,50.08,123.56,0.82,0.09,0.13,2.09,0.3,1.18
1.34,-109.48,80.12,159.69,0.1,0.21,0.05,0.21,0.34,1.66,-90.32,83.77,18.12,0.17,-0.02,-0.1,0.4,0.35,1.17,-140.71,53.27,119.26,0.98,0.53,-0.02,1.08,1.39,0.52,-89.91,49.8,123.09,0.41,0.21,0.43,1.98,0.45,1.81
1.35,-108.8,79.82,160.38,0.54,0.4,-0.11,0.32,-0.17,2.43,-90.07,83.84,18.24,0.17,0.19,-0.14,0.91,0.62,0.73,-140.33,53.01,120.98,0.82,0.78,0.1,1.7,1.77,0.08,-91.1,49.77,122.69,0.48,0.18,-0.04,2.6,1.48,1.04
1.36,-107.34,79.02,162.49,0.36,0.47,0.01,0.75,0.29,1.22,-90.31,84.26,18.32,0.2,0.23,0.16,0.01,0.79,2.01,-140.23,52.46,122.31,0.56,0.61,0.04,0.96,2.23,-0.15,-92.29,49.31,122.26,0.49,0.13,0.3,2.55,0.1,1.14
1.37,-106.77,78.61,163.34,0.47,0.17,-0.08,0.37,0.47,0.41,-90.45,84.13,18.26,-0.1,0.25,0.01,0.71,0.36,1.34,-139.49,52.09,123.96,0.61,0.56,-0.13,1.1,0.99,0.39,-93.92,49.09,121.41,0.41,0.14,0.27,1.33,0.17,1.64
1.38,-106.01,78.54,163.99,0.4,-0.08,-0.1,0.12,0.45,1.43,-90.07,84.64,18.37,0.16,0.12,0.11,0.67,0.17,0.33,-139.1,51.79,125.16,0.43,0.45,0.36,1.74,0.39,0.95,-94.8,48.79,120.92,0.24,0.15,-0.09,2.0,1.23,0.93
1.39,-105.52,78.72,163.7,0.38,0.2,0.37,-0.03,0.29,1.78,-90.43,84.62,18.56,0.17,0.19,0.09,0.51,0.36,0.33,-138.64,52.16,126.46,0.41,0.16,0.48,1.91,0.14,0.98,-95.47,48.69,120.39,0.48,-0.09,0.14,2.4,1.71,0.1
1.4,-105.28,78.63,163.35,0.61,0.19,0.06,0.39,0.4,1.38,-90.31,84.35,18.52,0.0,0.25,-0.04,0.88,0.25,0.34,-138.08,52.33,127.11,0.29,0.22,0.46,1.88,0.62,0.99,-96.17,48.76,120.36,0.33,0.2,0.23,2.45,1.24,0.15
1.41,-104.96,78.74,162.9,0.47,-0.05,0.19,0.49,0.37,1.49,-90.46,84.48,18.66,0.17,0.06,-0.09,0.73,0.28,0.87,-137.6,52.46,127.3,0.3,0.03,0.67,1.84,1.36,0.59,-96.83,48.86,120.34,0.18,0.07,0.12,2.52,0.62,0.2
1.42,-104.07,78.75,162.15,0.6,0.09,-0.04,2.1,0.32,0.96,-90.4,84.42,18.58,0.13,0.11,0.02,0.6,0.36,0.99,-136.99,53.04,128.53,0.25,0.33,0.71,0.87,1.3,0.06,-97.24,49.04,119.9,0.09,0.11,0.04,2.46,0.16,0.08
1.43,-103.61,78.73,161.23,0.68,0.18,0.11,1.15,1.84,-0.01,-90.29,84.91,18.64,0.13,-0.02,0.06,-0.08,0.64,1.07,-136.61,52.84,129.57,0.28,0.44,0.3,2.5,0.76,0.31,-97.33,49.03,119.81,-0.03,0.17,0.08,2.21,1.66,-0.02
1.44,-103.36,78.56,162.03,0.07,-0.1,0.15,1.02,1.59,0.14,-90.23,84.66,18.8,0.16,0.1,0.07,0.77,0.59,0.61,-136.12,52.77,130.12,0.22,0.28,-0.11,1.59,1.95,0.11,-97.22,49.17,119.9,0.05,0.19,0.11,2.17,1.25,0.26
1.45,-103.99,78.59,163.84,0.19,-0.04,0.25,0.06,0.39,0.14,-90.1,84.59,18.74,0.22,0.24,-0.02,2.14,0.53,0.2,-136.64,52.19,130.07,0.43,0.21,0.54,0.36,1.97,0.96,-97.73,49.34,119.92,0.21,0.21,0.07,1.85,0.69,0.09
1.46,-103.85,78.33,162.85,0.42,0.14,0.19,0.82,2.37,0.1,-89.9,84.41,18.99,0.1,-0.04,-0.16,1.95,0.5,0.12,-137.23,51.82,129.76,0.21,0.18,0.36,0.73,1.11,1.1,-98.29,49.6,119.58,0.11,0.19,0.08,1.45,1.72,0.26
1.47,-102.93,78.33,163.8,0.75,0.15,0.07,0.71,1.15,0.51,-89.55,84.41,18.91,0.21,0.01,0.1,0.44,0.24,0.44,-137.72,51.31,129.36,0.16,0.08,0.44,0.45,0.27,0.75,-98.21,49.65,119.14,0.01,0.09,-0.01,1.28,1.88,0.34
1.48,-101.64,78.16,162.44,0.56,0.16,0.15,0.32,0.49,1.09,-89.45,84.19,19.01,0.29,0.04,0.03,0.18,0.13,0.11,-138.29,51.42,129.06,0.09,0.06,-0.07,0.39,0.8,0.74,-98.83,49.91,119.13,0.09,0.26,0.51,1.44,0.25,-0.1
1.49,-101.03,78.3,161.58,0.46,0.02,0.08,0.64,1.03,0.13,-89.43,84.48,19.08,0.17,-0.08,0.3,0.41,0.53,-0.12,-138.86,51.71,128.1,-0.02,0.12,0.14,0.94,0.12,0.48,-98.76,50.32,119.12,0.21,0.31,0.27,0.94,0.78,0.8
1.5,-100.39,78.04,161.1,0.29,-0.04,-0.07,0.08,0.1,0.3,-89.13,84.33,19.07,0.27,-0.08,0.02,0.27,0.12,0.19,-138.22,52.09,128.16,0.1,0.09,0.18,0.2,0.93,0.5,-98.47,50.7,119.09,0.25,0.32,0.03,0.78,0.1,0.56
1.51,-100.04,78.01,160.94,0.1,-0.22,-0.11,-0.06,0.09,0.39,-89.06,84.64,19.46,0.49,-0.04,0.15,0.67,0.01,1.08,-137.82,52.46,127.93,0.04,0.22,0.11,0.88,0.16,0.38,-98.08,51.01,119.38,0.22,0.4,0.17,0.24,2.41,0.19
1.52,-100.01,78.24,160.2,-0.09,0.04,0.17,0.44,0.26,0.11,-88.88,84.53,19.68,0.37,0.1,0.19,0.13,0.1,0.41,-138.23,52.55,127.77,-0.07,0.26,0.24,0.45,0.2,0.1,-98.19,50.99,119.45,0.21,0.26,0.66,0.36,1.07,0.05
1.53,-100.01,77.86,160.01,0.01,0.04,0.0,0.5,0.83,0.83,-88.5,84.46,19.67,0.31,0.1,-0.05,0.35,0.02,0.53,-137.76,53.11,127.37,0.13,0.19,0.15,0.64,0.33,0.69,-97.4,51.77,120.38,0.07,0.28,0.46,0.96,0.92,0.37
1.54,-99.72,77.88,159.88,-0.02,0.31,0.09,0.51,0.67,0.42,-88.49,84.78,19.7,0.37,0.14,0.15,0.32,0.04,0.78,-137.66,53.18,127.37,-0.01,0.3,0.17,0.57,0.48,0.78,-97.29,51.68,120.69,0.02,0.26,0.26,0.59,1.4,0.29
1.55,-99.87,77.73,160.16,-0.02,0.19,0.09,0.56,0.69,0.56,-88.47,84.93,19.57,0.42,0.19,0.02,0.32,0.08,0.83,-137.49,53.29,127.35,-0.03,0.39,0.12,0.41,0.65,1.05,-96.92,51.84,120.98,-0.06,0.3,0.06,0.19,1.82,0.06
1.56,-99.85,77.34,160.33,-0.02,0.15,0.12,0.45,0.47,0.79,-88.27,85.08,19.76,0.16,0.12,0.01,0.5,0.29,0.67,-137.36,53.56,127.04,-0.06,0.32,0.12,0.88,0.25,1.15,-97.12,52.17,120.86,0.13,0.48,0.37,0.28,0.65,0.41
1.57,-99.79,77.02,160.38,0.2,0.29,0.14,0.43,0.16,0.53,-88.1,85.39,19.8,0.33,-0.11,0.23,0.53,0.45,1.24,-137.77,53.34,125.77,0.22,0.38,0.47,0.13,0.59,1.39,-97.02,52.65,121.36,0.27,0.24,0.1,0.94,0.52,1.39
1.58,-99.74,76.69,159.98,0.26,0.26,0.13,0.22,-0.05,0.81,-87.82,85.23,19.64,0.33,-0.02,0.1,0.12,0.25,0.24,-138.4,53.16,125.17,0.07,0.05,0.41,0.39,0.13,0.62,-98.46,53.44,120.86,0.34,0.29,0.02,0.01,0.54,1.36
1.59,-99.59,76.64,159.89,0.14,0.15,0.13,0.14,0.3,0.54,-87.69,85.51,19.96,-0.0,0.25,0.07,0.46,0.15,0.57,-138.48,53.48,124.83,0.1,0.35,-0.04,0.96,0.11,0.01,-98.86,53.83,120.75,0.12,0.25,0.01,0.26,0.63,1.42
1.6,-99.61,76.4,159.84,0.08,0.1,-0.06,0.2,0.59,0.23,-87.78,85.54,19.89,0.03,0.11,-0.05,0.6,0.68,1.0,-138.39,53.75,124.33,0.03,0.52,0.13,0.29,0.11,0.77,-99.53,54.28,119.95,-0.07,0.27,0.17,0.18,2.24,0.93
1.61,-99.35,75.97,159.73,0.26,0.04,0.15,0.04,0.24,-0.03,-87.37,85.79,19.91,0.04,0.28,0.1,0.21,0.44,0.69,-137.94,54.12,124.17,-0.14,0.22,-0.03,0.76,0.34,1.33,-100.17,54.54,119.74,0.01,0.17,0.13,0.38,1.29,1.07
1.62,-99.28,76.09,159.39,0.09,0.05,0.08,0.25,-0.09,0.13,-87.29,85.92,20.06,0.09,0.19,0.08,0.16,0.03,0.39,-138.36,54.12,123.58,0.18,0.2,0.09,0.43,0.29,0.61,-99.87,54.74,120.05,0.19,0.47,0.21,0.04,1.01,1.43
1.63,-99.23,75.97,159.12,-0.03,0.22,0.13,0.54,0.21,0.09,-87.54,86.07,19.91,0.3,0.38,-0.08,0.08,0.59,1.0,-138.46,54.36,123.32,0.05,0.29,0.17,0.39,-0.03,1.97,-100.26,55.34,119.36,0.04,0.28,0.24,0.44,1.58,1.09
1.64,-99.18,75.75,158.92,-0.02,0.15,0.13,0.19,0.04,0.09,-87.64,86.43,19.65,-0.07,0.2,0.13,-0.11,0.06,1.01,-138.62,54.32,122.6,0.23,0.1,0.45,0.71,0.84,1.65,-101.16,55.56,119.04,0.13,0.48,0.21,0.77,0.96,0.84
1.65,-99.17,75.63,158.58,-0.04,0.03,0.03,0.31,0.28,0.04,-87.27,86.42,19.55,-0.09,0.43,-0.06,0.11,0.46,0.92,-138.6,54.18,122.35,0.16,0.31,0.05,0.1,-0.1,0.8,-101.6,56.01,118.86,0.32,0.43,-0.04,0.65,0.5,1.35
1.66,-98.98,75.38,158.21,0.05,0.1,0.19,0.19,0.35,0.42,-87.24,86.52,19.32,0.04,0.35,0.12,0.26,0.18,0.86,-138.63,54.55,122.18,0.21,0.48,0.23,0.13,0.29,0.79,-102.16,56.74,118.19,0.2,0.4,0.1,0.41,1.28,1.44
1.67,-98.87,75.28,157.92,-0.16,0.16,0.07,0.43,0.29,0.32,-87.32,86.92,19.19,0.06,0.39,0.09,0.06,0.32,1.16,-138.57,54.82,121.63,0.09,0.21,-0.17,0.4,0.14,1.47,-102.77,56.99,117.34,0.17,0.55,0.43,0.43,1.16,1.05
1.68,-98.96,74.96,157.93,-0.08,0.03,0.06,0.13,0.08,0.44,-87.4,86.91,19.25,0.26,0.31,0.07,0.1,0.24,0.75,-138.44,54.79,121.19,0.05,0.42,-0.01,0.35,0.19,0.87,-103.17,57.36,117.18,0.14,0.3,0.14,1.44,1.66,0.92
1.69,-98.85,74.98,157.62,-0.03,0.14,0.07,0.06,0.1,0.3,-87.25,86.96,19.27,0.04,0.24,0.17,0.22,0.05,0.58,-138.25,54.96,121.27,0.13,0.13,0.16,0.24,0.7,0.34,-103.4,57.37,116.96,0.12,0.32,0.03,2.34,2.43,1.09
1.7,-98.92,74.81,157.53,-0.09,0.29,0.08,0.36,0.28,0.36,-87.17,87.09,19.28,0.02,0.26,0.03,0.04,0.13,0.87,-137.78,55.13,121.52,0.4,0.02,-0.13,1.07,2.02,0.96,-103.72,57.71,116.61,-0.01,0.06,0.03,3.19,3.63,0.49
1.71,-98.71,74.65,157.63,0.11,0.35,0.09,0.24,0.48,0.14,-87.41,87.25,19.23,0.08,0.32,0.13,0.06,0.18,0.49,-137.72,55.09,121.74,0.3,0.0,0.1,1.53,3.08,2.52,-103.36,57.72,116.81,0.02,0.14,0.18,0.15,0.46,0.3
1.72,-98.66,74.34,157.17,0.03,0.27,-0.01,0.19,0.34,0.55,-87.19,87.13,19.24,-0.1,0.25,-0.18,0.34,0.39,0.48,-137.75,55.19,121.82,0.07,0.14,0.51,0.54,0.63,0.35,-103.67,57.72,116.51,0.24,0.1,0.05,1.72,2.02,0.86
1.73,-98.25,74.37,157.09,-0.13,0.3,-0.13,0.1,0.37,0.7,-87.36,87.29,18.86,-0.05,0.23,-0.0,0.02,0.55,0.03,-137.05,55.66,122.25,-0.02,0.34,0.86,0.16,1.9,0.73,-103.69,58.06,116.94,0.1,0.23,0.46,1.13,0.81,3.06
1.74,-98.26,74.11,156.78,0.12,0.13,0.13,0.27,0.16,0.65,-87.21,87.2,19.06,-0.16,0.55,-0.1,-0.02,0.42,0.53,-135.44,56.77,123.01,0.09,0.34,0.79,0.74,0.85,1.27,-103.52,58.47,117.54,0.24,-0.01,0.45,0.2,0.06,0.96
1.75,-98.06,73.9,156.39,-0.08,0.09,0.2,-0.15,-0.03,0.43,-87.22,87.07,18.9,0.13,0.19,0.13,0.59,0.49,0.26,-134.22,57.72,123.57,0.06,0.41,0.79,0.67,1.13,0.98,-103.81,58.56,117.73,0.2,0.27,0.17,0.02,0.46,1.39
1.76,-98.43,74.01,156.24,0.24,-0.03,0.05,0.13,0.12,0.51,-87.38,87.12,19.03,0.22,0.2,0.12,0.28,0.78,2.04,-133.54,58.15,124.13,0.06,0.39,0.55,0.49,0.1,0.98,-103.86,58.54,117.6,0.33,0.06,0.07,0.18,1.19,1.1
1.77,-98.52,73.66,156.17,0.03,-0.03,-0.01,0.57,0.19,0.32,-87.26,87.04,18.81,0.07,-0.22,0.13,-0.04,0.98,1.25,-132.57,58.89,124.67,0.08,0.39,0.34,0.22,0.36,1.47,-104.08,58.76,117.7,0.12,0.12,0.35,0.41,1.8,1.37
1.78,-98.57,73.77,156.26,-0.05,-0.02,0.07,0.19,0.31,0.05,-86.98,86.82,18.54,0.06,0.17,0.06,0.09,0.41,1.52,-132.22,59.43,124.54,0.03,0.23,0.11,0.77,0.2,1.13,-104.05,59.0,118.48,0.21,0.23,0.76,0.32,-0.03,1.56
1.79,-98.61,73.86,156.24,-0.02,0.1,-0.03,0.01,0.18,0.37,-86.89,86.67,18.53,-0.01,0.14,0.02,-0.0,0.04,0.7,-131.77,59.63,124.84,0.2,0.35,0.07,0.15,0.13,1.97,-103.83,59.41,119.15,0.12,-0.0,0.36,-0.01,0.41,1.58
1.8,-98.45,73.89,156.07,0.17,-0.1,0.02,0.26,0.11,0.5,-86.96,86.67,18.14,-0.2,0.08,0.08,0.26,-0.0,1.43,-131.27,59.66,124.7,0.15,-0.01,0.33,0.41,0.92,1.67,-104.48,59.35,118.87,0.16,-0.01,0.17,0.6,0.63,1.11
1.81,-98.12,73.9,155.62,-0.03,0.16,0.12,-0.12,0.06,0.32,-86.87,86.45,18.38,-0.18,0.03,-0.09,0.51,0.13,1.39,-130.6,59.93,125.16,0.14,-0.19,0.33,0.42,0.43,2.14,-105.84,59.74,118.2,0.35,-0.03,0.41,0.51,1.44,1.88
1.82,-98.4,74.05,155.87,0.03,0.08,0.1,0.24,0.21,0.44,-86.85,86.45,18.27,0.06,-0.06,-0.12,0.18,0.22,1.0,-130.39,59.98,125.6,0.14,0.03,0.44,0.22,0.32,1.92,-105.66,59.9,118.82,0.35,0.08,0.79,0.68,0.89,2.14
1.83,-98.49,73.87,156.02,0.09,0.08,0.01,0.43,0.11,0.31,-86.76,86.4,18.33,-0.02,0.01,0.1,0.01,0.24,0.83,-130.04,60.12,125.8,0.05,0.08,0.53,-0.06,0.18,1.88,-105.45,60.02,119.37,0.34,0.1,0.72,0.64,0.25,2.01
1.84,-98.56,74.01,156.12,0.09,0.3,-0.05,0.12,0.35,0.45,-86.72,86.34,18.17,0.15,0.15,0.01,0.09,0.41,1.0,-129.4,60.62,126.15,-0.01,0.19,0.37,-0.04,0.83,2.13,-105.18,60.27,120.48,0.18,0.09,0.41,0.02,0.33,2.22
1.85,-98.46,74.3,155.88,0.02,-0.05,0.03,0.42,0.21,0.66,-86.52,86.16,18.25,0.03,0.08,0.34,0.16,0.47,0.86,-129.17,60.88,126.67,-0.24,-0.01,0.2,0.42,1.48,2.22,-105.46,60.49,120.76,0.26,0.19,0.38,0.76,1.77,2.68
1.86,-98.53,74.38,155.94,-0.11,0.28,-0.03,0.65,-0.07,0.75,-86.45,85.93,17.59,0.13,0.23,-0.05,0.09,0.2,1.04,-129.4,61.05,126.5,0.1,0.31,0.34,1.7,2.28,2.06,-105.73,60.81,121.04,0.3,0.07,0.04,0.71,1.93,3.38
1.87,-98.61,74.35,156.03,-0.18,0.09,0.17,0.77,0.19,0.86,-86.07,85.83,17.6,0.17,-0.06,-0.06,-0.03,0.18,0.94,-129.73,60.69,125.59,-0.13,0.2,0.49,1.01,2.42,2.41,-106.1,60.68,120.56,-0.01,0.04,0.3,1.41,0.58,2.37
1.88,-98.7,74.87,156.55,0.02,0.23,0.07,1.09,0.21,0.94,-85.98,85.8,17.59,0.02,0.17,-0.04,0.6,0.25,1.23,-130.4,60.66,124.33,0.34,0.33,0.56,1.28,1.74,2.66,-106.95,60.57,119.45,0.21,0.14,0.54,2.06,0.18,2.92
1.89,-99.18,74.89,156.97,-0.05,0.06,0.1,0.95,0.25,0.67,-86.35,85.96,17.56,-0.01,0.22,-0.02,0.88,0.4,1.03,-131.95,60.37,122.92,0.49,0.45,0.51,1.28,1.71,2.46,-107.18,60.48,118.93,0.24,0.19,0.3,2.11,0.77,3.01
1.9,-99.25,74.94,157.74,-0.14,-0.0,0.34,1.59,0.22,0.44,-86.21,85.87,17.76,0.16,0.11,-0.07,0.88,0.88,0.55,-133.08,60.05,121.21,0.69,0.63,0.45,1.79,1.38,2.12,-106.99,60.21,119.03,0.23,0.06,0.1,2.45,0.81,2.87
1.91,-99.55,75.16,158.06,0.25,0.12,0.07,1.88,0.02,0.38,-86.34,85.76,17.69,0.2,0.03,-0.01,0.84,0.42,0.21,-134.21,59.99,119.52,0.71,0.41,0.21,2.24,1.0,1.91,-105.65,60.23,120.3,0.32,0.05,0.58,3.51,0.35,3.27
1.92,-99.77,75.28,159.15,-0.0,-0.03,0.32,1.29,0.02,0.81,-86.26,85.83,17.78,-0.07,0.12,0.1,1.19,0.05,1.4,-134.99,60.8,117.2,1.16,0.83,0.13,2.33,1.86,1.5,-104.31,60.33,121.67,0.51,0.03,0.47,3.86,0.21,3.69
1.93,-100.42,75.14,160.22,0.34,0.05,0.2,0.65,0.28,1.11,-86.25,85.87,17.54,-0.0,0.1,-0.04,1.46,0.5,0.8,-136.02,61.34,114.43,1.3,0.85,0.06,2.52,2.68,0.97,-102.55,60.36,123.92,0.72,0.31,0.71,3.27,0.79,3.63
1.94,-101.04,75.05,161.21,0.18,0.14,0.13,1.48,0.05,1.03,-86.17,85.98,17.57,0.07,0.19,-0.03,1.61,0.97,0.39,-137.15,61.82,110.98,1.34,1.05,0.08,2.78,2.9,1.24,-100.72,60.22,125.33,0.77,0.28,0.33,3.61,0.41,3.29
