0.01,-142.81,81.79,162.98,0.15,-0.07,0.04,0.31,0.12,0.46,-113.08,83.87,174.85,0.16,0.24,0.04,0.7,-0.04,0.24,-154.81,3.88,3.88,0.2,0.09,0.73,0.8,0.8,3.79,-122.69,7.4,8.67,0.23,0.1,0.72,0.08,0.96,2.22
0.02,-142.98,81.72,163.2,0.11,0.11,0.02,0.29,0.64,1.71,-113.21,83.25,174.75,0.06,0.58,-0.0,1.05,0.29,0.42,-154.1,4.27,4.08,0.16,-0.02,0.75,0.83,0.64,4.36,-121.81,7.14,8.29,0.22,-0.01,0.58,-0.03,0.47,2.24
0.03,-143.1,81.56,164.19,0.03,0.38,-0.0,1.06,0.4,2.64,-113.16,82.59,174.86,0.11,0.85,-0.0,2.53,-0.08,0.08,-153.1,4.18,3.78,0.27,0.07,0.77,0.63,0.14,4.76,-121.36,7.36,8.02,0.2,0.15,0.58,0.26,0.35,2.25
0.04,-143.57,81.21,165.87,0.33,0.41,0.11,1.04,0.58,2.11,-112.85,81.04,174.79,0.2,1.16,0.04,4.01,0.37,0.55,-152.0,4.05,3.34,0.28,-0.15,1.04,0.46,0.09,5.38,-120.92,7.29,7.71,0.02,0.08,0.53,0.05,0.74,1.98
0.05,-143.64,80.35,167.45,0.26,0.83,-0.15,0.86,0.93,2.18,-112.64,79.73,174.51,0.16,1.4,0.07,4.08,0.16,0.74,-151.16,3.98,3.41,-0.0,0.12,1.04,0.46,0.24,4.84,-120.33,7.65,7.35,0.34,0.11,0.74,-0.04,0.77,0.95
0.06,-143.4,79.6,168.91,0.02,0.8,0.09,1.54,-0.07,2.38,-112.71,78.47,179.36,0.07,1.72,0.17,4.1,0.26,1.17,-150.18,3.9,3.31,0.18,0.22,0.74,0.61,-0.02,4.23,-119.58,7.74,6.94,0.17,0.35,0.51,0.29,0.85,0.83
0.07,-143.76,78.49,170.18,0.05,0.78,0.33,2.6,0.52,2.04,-112.09,76.63,182.82,0.16,2.0,0.08,4.74,0.4,0.5,-148.99,3.68,3.04,0.06,0.13,0.72,0.33,0.81,3.52,-119.29,8.13,6.65,0.05,0.35,0.61,0.33,1.09,0.5
0.08,-143.57,77.7,171.76,0.55,1.1,0.07,3.92,0.77,1.2,-111.71,74.84,185.21,0.08,1.72,-0.01,4.71,0.35,0.66,-148.55,3.36,2.75,0.12,0.02,0.78,0.24,0.7,2.75,-118.86,8.89,6.29,0.22,0.47,0.25,0.32,0.97,0.33
0.09,-143.21,76.29,172.99,0.46,1.19,0.33,4.53,0.77,0.75,-111.35,72.92,186.89,0.14,1.78,-0.05,4.27,0.25,0.03,-147.56,3.41,2.61,0.17,0.09,0.65,0.23,0.88,2.54,-119.3,9.5,6.07,0.4,0.56,-0.08,0.74,0.27,0.31
0.1,-142.53,75.05,173.89,0.43,1.59,-0.05,3.83,0.2,0.13,-110.95,70.92,188.62,-0.08,2.23,0.02,3.07,0.33,-0.02,-146.76,3.02,2.46,0.21,0.24,0.74,0.19,0.47,2.5,-119.16,10.11,5.83,0.3,0.6,0.01,0.94,0.47,1.01
0.11,-142.07,73.31,174.91,0.48,1.75,0.06,3.72,0.41,0.43,-110.44,68.4,189.79,0.34,2.32,-0.11,3.1,0.03,0.19,-145.95,3.07,2.28,0.28,-0.09,0.82,0.1,0.3,1.9,-119.23,10.4,5.68,0.38,0.49,-0.01,0.58,0.5,1.6
0.12,-141.88,72.41,175.19,0.44,1.65,0.23,3.31,0.12,0.33,-109.97,67.2,190.21,0.36,2.04,0.15,3.14,0.37,0.01,-145.56,3.12,2.08,0.16,0.14,0.88,0.07,0.5,2.1,-119.41,10.95,5.4,0.09,0.47,-0.03,0.88,0.34,1.85
0.13,-141.58,71.16,175.58,0.33,1.82,-0.02,2.55,0.15,0.39,-109.6,66.16,190.72,0.09,2.09,0.01,2.87,0.3,0.03,-144.87,3.02,2.05,0.13,0.19,0.87,0.05,0.92,2.25,-119.4,11.13,5.47,0.27,0.59,0.22,0.62,0.09,2.28
0.14,-141.65,69.01,176.64,0.23,2.11,0.32,1.64,0.24,0.54,-108.92,63.75,191.48,0.11,2.1,-0.07,1.57,0.93,0.66,-143.92,2.84,1.7,0.07,0.17,0.96,0.26,1.07,2.47,-119.34,11.61,5.11,0.38,0.56,-0.23,1.1,-0.0,2.15
0.15,-142.07,66.82,178.05,0.17,1.95,0.3,1.41,0.57,0.55,-108.14,61.23,192.18,0.26,2.65,-0.02,1.01,1.43,0.43,-143.05,2.51,2.14,0.06,0.42,0.92,1.0,1.1,2.12,-119.7,12.08,4.98,-0.28,0.34,0.21,0.55,0.28,1.69
0.16,-142.19,64.68,178.42,-0.1,1.8,0.12,1.57,0.46,0.15,-107.78,58.79,192.86,0.01,2.09,0.17,1.61,0.77,0.56,-142.17,2.2,2.07,0.16,0.23,0.75,1.01,1.05,1.39,-120.19,12.44,4.6,0.11,0.4,0.37,0.69,0.02,1.37
0.17,-142.18,62.74,178.98,0.03,1.73,0.25,1.71,0.4,0.07,-107.08,56.68,193.3,0.04,1.89,0.25,1.5,0.51,1.09,-141.36,1.67,2.34,0.13,0.31,0.75,0.97,1.35,1.23,-120.49,13.09,4.74,0.07,0.43,0.12,0.36,0.12,1.51
0.18,-141.99,60.77,179.33,0.14,1.79,0.16,0.92,0.9,0.3,-106.5,54.46,193.93,0.22,1.85,0.15,0.27,0.47,0.67,-141.03,1.11,2.52,0.2,0.43,0.39,0.88,1.25,0.84,-120.99,13.41,4.92,0.04,0.56,0.12,0.61,0.35,1.64
0.19,-141.67,58.93,179.32,0.08,1.66,0.11,0.98,0.18,1.47,-105.82,52.43,194.48,-0.03,1.8,-0.06,0.13,0.34,0.39,-140.65,0.37,2.92,0.15,0.63,0.28,1.0,0.7,0.14,-121.07,13.8,4.69,0.05,0.52,0.05,0.56,0.22,1.28
0.2,-141.61,57.17,179.5,0.1,1.51,0.32,1.61,0.01,2.25,-105.57,51.61,194.65,-0.04,1.55,-0.06,0.87,0.34,0.93,-140.59,0.36,2.99,0.22,0.86,0.17,1.26,0.33,0.27,-121.24,14.27,4.69,-0.01,0.56,0.17,0.11,0.78,2.34
0.21,-141.25,55.72,179.68,0.17,1.32,0.15,1.1,0.49,1.99,-104.83,49.87,194.66,0.19,1.28,0.05,0.85,0.5,1.41,-140.63,0.9,3.47,0.08,0.85,0.23,0.7,0.37,0.96,-121.49,14.95,4.83,-0.04,0.5,0.34,0.15,0.67,2.25
0.22,-141.23,54.34,179.49,-0.19,1.42,-0.04,0.3,0.49,2.1,-104.25,48.42,194.75,0.09,1.31,0.0,0.08,0.75,0.93,-140.32,1.67,3.73,0.42,0.71,0.05,0.8,0.08,1.8,-121.94,15.48,4.95,0.04,0.44,0.59,0.16,0.05,2.44
0.23,-141.63,52.61,179.82,0.02,1.54,0.18,0.18,0.5,2.91,-103.42,47.14,194.72,-0.01,1.15,0.11,0.76,0.16,0.2,-140.27,2.52,4.29,0.55,0.61,0.13,0.96,-0.02,2.06,-122.86,15.8,5.06,0.27,0.45,0.67,0.48,0.33,2.57
0.24,-141.47,51.75,179.81,0.18,1.47,-0.09,0.6,0.62,2.96,-102.8,46.02,195.08,0.04,1.3,0.08,0.8,0.43,0.83,-140.02,2.88,4.49,0.28,0.59,0.07,0.99,0.33,2.22,-123.18,15.78,5.07,0.13,0.47,0.5,0.55,0.34,2.89
0.25,-141.74,51.07,179.85,0.07,1.19,-0.04,0.88,0.72,2.74,-102.22,44.59,195.0,0.08,1.21,0.08,0.78,0.55,1.23,-140.16,3.14,4.86,0.3,0.62,0.15,0.7,0.48,1.76,-123.65,15.98,5.01,0.08,0.34,0.56,0.5,0.07,3.34
0.26,-141.31,49.73,179.8,0.14,1.03,0.12,0.55,0.35,2.52,-102.17,43.33,195.08,0.16,1.04,-0.08,1.46,0.03,0.17,-140.22,3.91,5.09,0.48,0.52,-0.11,1.01,0.98,1.51,-124.68,16.22,5.16,0.11,0.26,0.81,0.43,0.22,3.2
0.27,-141.23,48.31,179.71,-0.1,1.44,0.0,0.79,0.45,1.03,-102.12,41.92,195.5,0.24,1.04,0.19,1.72,0.38,0.02,-140.13,4.05,5.36,0.45,0.44,0.04,0.92,0.52,1.15,-125.56,16.73,5.27,0.09,0.43,1.17,0.15,0.75,2.99
0.28,-141.15,47.27,179.94,-0.03,1.07,0.1,0.88,0.66,1.06,-102.03,41.0,195.58,0.14,0.74,0.09,1.52,0.09,0.01,-140.19,4.95,5.82,0.29,0.45,0.16,0.67,0.1,1.43,-126.93,17.03,5.42,0.16,0.5,1.21,0.07,-0.03,2.8
0.29,-141.59,46.3,179.69,-0.0,0.88,0.05,1.99,0.47,0.02,-101.91,40.32,195.82,0.09,0.58,0.15,1.64,0.67,0.67,-139.9,5.15,6.18,0.27,0.38,0.25,0.46,0.84,1.41,-128.23,17.53,5.79,0.07,0.4,1.04,0.29,0.71,3.52
0.3,-141.82,45.6,179.73,0.17,0.65,0.22,2.8,0.28,0.02,-101.96,39.35,196.32,0.09,0.45,0.16,1.16,1.28,2.63,-139.86,5.82,6.37,0.23,0.45,0.24,0.22,0.56,1.57,-130.61,18.27,6.63,0.29,0.58,0.82,1.64,2.14,3.08
0.31,-141.98,45.33,179.51,0.13,-0.02,0.06,0.87,0.17,1.12,-101.79,39.28,196.23,0.05,0.56,-0.04,0.16,0.04,-0.1,-139.83,6.41,6.76,0.22,0.6,0.1,0.58,0.31,2.12,-131.34,18.73,7.72,0.89,0.61,0.85,0.57,1.05,2.97
0.32,-142.19,45.02,179.67,-0.12,0.11,0.08,0.37,0.51,1.85,-101.68,38.53,196.39,0.06,0.72,0.11,1.51,0.06,1.74,-140.1,6.74,7.04,0.39,0.39,0.3,0.36,0.01,2.18,-131.45,20.18,9.77,0.59,0.83,0.18,0.82,4.25,3.22
0.33,-141.71,45.1,179.65,0.02,-0.0,0.04,0.24,0.62,0.77,-101.76,37.56,196.46,0.14,0.67,0.11,1.7,0.07,1.37,-140.7,7.53,7.3,0.28,0.34,0.49,0.09,0.1,2.76,-131.4,21.15,10.48,0.86,0.95,0.67,0.77,2.89,1.83
0.34,-142.1,45.1,179.58,0.32,0.05,-0.03,0.93,0.57,0.13,-101.79,36.9,196.33,0.21,0.57,0.1,1.62,0.75,1.74,-141.15,8.12,7.78,0.47,0.59,0.7,0.16,0.13,2.86,-132.39,21.83,11.39,0.49,0.96,1.09,1.34,0.69,0.09
0.35,-142.04,44.85,179.45,0.13,0.22,0.27,2.01,1.78,1.15,-101.4,36.4,196.27,0.16,0.33,-0.06,1.55,0.57,1.7,-141.78,8.54,8.41,0.43,0.64,0.56,0.03,0.1,3.33,-133.6,21.99,12.6,0.69,0.29,0.91,2.01,1.41,1.77
0.36,-141.77,44.66,179.71,0.21,0.27,-0.02,1.76,1.68,0.79,-101.72,36.09,196.24,-0.07,0.43,-0.05,1.63,0.56,1.84,-141.91,8.67,8.7,0.3,0.64,0.51,0.1,0.06,3.16,-134.05,22.05,13.08,0.61,0.22,0.63,1.94,2.12,1.45
0.37,-141.42,44.7,179.98,0.21,0.11,0.38,1.9,1.67,0.91,-101.49,35.97,196.07,-0.19,0.5,-0.01,1.65,0.63,2.16,-142.35,8.91,8.78,0.22,0.75,0.74,0.01,-0.15,2.99,-134.64,22.02,13.74,0.78,0.04,0.79,2.05,2.81,1.49
0.38,-141.51,44.74,179.66,-0.03,0.17,0.26,1.17,0.31,0.41,-101.52,35.43,196.07,0.09,0.83,0.14,2.33,-0.03,1.84,-142.93,9.27,9.39,0.23,0.49,0.72,0.12,0.01,2.68,-135.02,21.72,14.9,0.92,0.28,0.41,0.23,4.12,2.1
0.39,-141.56,44.6,179.71,0.01,0.13,0.16,0.27,0.63,0.32,-101.68,34.94,196.28,-0.01,0.36,0.04,2.1,0.38,1.93,-143.81,9.87,9.65,0.17,0.53,0.44,0.01,0.79,3.19,-134.49,21.37,15.31,0.68,0.76,0.48,-0.07,1.27,2.74
0.4,-141.7,44.67,179.19,0.14,0.13,0.14,2.25,0.15,1.13,-101.73,34.73,195.93,-0.05,0.23,-0.03,2.01,0.12,1.7,-144.68,10.06,9.98,-0.1,0.27,0.7,0.2,0.36,3.38,-133.96,20.69,15.46,0.28,0.83,0.57,0.29,1.38,1.67
0.41,-141.73,44.71,179.01,0.09,0.0,0.18,2.74,0.86,1.66,-101.65,34.67,196.12,0.1,0.13,0.06,2.29,0.06,0.76,-146.17,10.21,10.32,0.19,-0.04,0.65,1.46,0.76,3.01,-133.19,20.17,15.57,0.24,0.88,0.74,0.37,3.11,4.1
0.42,-141.98,44.94,178.65,0.23,0.28,0.21,1.18,0.8,1.46,-101.62,34.57,196.15,0.13,0.03,0.07,1.47,0.5,1.97,-146.97,10.11,9.71,0.33,0.26,0.56,1.27,0.03,2.49,-132.16,19.03,15.11,0.18,0.61,0.3,1.76,0.08,1.94
0.43,-138.34,45.36,177.9,-0.01,0.49,0.2,1.13,0.08,0.95,-101.68,34.59,196.44,0.05,0.1,-0.09,1.25,0.01,1.82,-147.91,9.53,9.24,0.32,0.16,0.56,0.41,0.98,2.1,-131.84,18.34,15.22,0.25,0.3,0.35,0.56,1.21,2.5
0.44,-138.29,45.63,177.81,0.02,0.29,-0.01,1.39,0.45,0.56,-101.75,34.91,196.28,0.04,0.2,0.16,1.49,0.24,1.06,-148.67,8.9,9.09,0.28,0.18,0.55,1.82,2.09,1.9,-132.11,18.29,15.58,0.15,0.34,0.11,0.79,0.12,3.18
0.45,-138.48,46.04,178.09,-0.03,0.37,0.04,1.45,0.31,0.77,-101.8,34.93,196.21,0.07,0.03,0.14,2.14,0.11,2.13,-149.9,8.77,8.7,0.36,-0.13,1.17,2.5,0.21,0.79,-132.06,17.9,15.77,0.32,0.18,0.23,0.61,0.53,2.76
0.46,-138.63,46.56,177.99,-0.12,0.45,0.09,1.02,0.51,0.64,-101.82,34.88,196.71,0.35,0.18,0.2,1.65,0.08,2.2,-151.43,8.69,8.58,0.39,0.2,1.44,3.11,3.23,0.27,-131.53,17.65,16.16,0.48,0.11,0.35,0.67,0.26,2.82
0.47,-138.69,46.72,177.72,-0.07,0.48,-0.05,1.43,0.86,0.96,-101.72,35.28,197.02,0.22,0.17,-0.21,1.33,0.15,2.76,-152.91,9.26,8.55,0.37,0.49,1.2,0.33,5.31,0.85,-131.13,17.9,16.62,0.6,-0.04,0.43,1.18,0.91,2.37
0.48,-138.8,46.87,178.16,0.06,0.37,-0.17,1.83,0.49,1.03,-101.87,35.11,197.13,0.09,-0.04,0.06,1.37,0.32,2.4,-153.03,9.17,8.23,0.41,0.14,0.83,0.6,4.85,1.63,-130.67,18.12,17.05,0.59,0.16,0.43,1.28,1.31,1.6
0.49,-138.95,47.08,178.02,0.22,0.14,-0.14,2.34,0.17,1.27,-102.05,35.21,197.04,0.08,0.15,0.16,1.1,0.45,1.72,-152.97,9.15,7.9,0.48,-0.03,0.51,0.82,4.91,2.6,-130.65,18.22,17.47,0.75,0.02,0.13,1.27,1.73,0.89
0.5,-139.16,47.46,178.0,-0.07,0.28,0.07,1.96,0.24,1.43,-101.92,35.05,196.72,0.19,0.16,0.06,1.8,0.74,2.01,-152.18,9.08,7.74,0.1,0.21,0.91,1.25,0.8,3.35,-130.06,18.47,18.26,0.64,0.12,0.26,1.35,1.96,1.05
0.51,-138.72,47.98,178.03,0.2,0.51,0.11,1.3,0.31,1.09,-101.93,35.13,196.53,0.22,-0.01,-0.18,1.44,1.06,3.11,-149.64,8.41,7.68,0.38,0.28,1.06,1.21,0.69,1.45,-129.65,18.59,18.6,0.53,0.31,0.43,2.14,0.29,2.67
0.52,-138.34,48.33,177.48,0.25,0.34,0.11,1.67,0.25,1.45,-101.84,35.28,196.51,0.21,0.22,0.06,1.76,0.34,2.14,-148.71,8.32,7.52,0.0,0.37,0.77,0.38,3.43,1.7,-128.83,19.07,18.91,0.65,0.19,0.79,1.72,1.41,2.56
0.53,-137.87,48.5,177.08,0.2,0.19,0.3,1.83,0.14,2.59,-101.86,35.24,195.88,0.18,0.18,0.16,1.92,0.81,2.04,-148.76,8.07,7.45,0.08,0.22,0.3,0.92,2.52,1.53,-128.56,19.62,19.71,0.69,0.29,0.24,0.83,0.96,0.64
0.54,-137.51,48.83,176.9,0.11,0.31,0.07,1.41,0.15,2.42,-101.84,35.51,195.51,0.27,0.27,0.05,0.94,0.69,3.22,-148.91,7.5,6.96,0.32,0.35,0.49,0.14,1.4,2.17,-127.91,20.01,20.45,0.78,0.21,0.53,0.89,1.59,1.43
0.55,-137.11,49.01,176.79,0.31,0.17,0.21,1.35,0.92,1.96,-101.86,36.05,195.35,0.13,0.46,0.12,0.06,0.48,3.74,-149.4,6.98,6.46,0.56,0.26,0.31,0.07,2.03,2.4,-127.09,20.49,20.78,0.53,0.44,1.08,0.31,0.29,2.68
0.56,-136.61,48.89,176.16,0.14,0.14,-0.07,1.99,-0.04,2.36,-101.9,36.54,195.25,-0.03,0.29,0.12,1.34,1.02,-0.08,-149.75,6.61,5.84,0.65,0.35,0.16,0.33,1.56,1.97,-126.3,21.29,21.31,0.79,0.46,0.53,0.09,1.19,0.57
0.57,-135.7,48.68,175.88,0.36,0.16,0.07,1.81,0.07,1.97,-101.85,35.95,195.39,0.09,0.16,0.13,1.0,0.61,0.53,-150.1,5.95,4.87,0.66,0.37,0.36,0.62,0.98,1.95,-125.51,21.92,22.14,0.73,0.36,0.29,1.26,1.4,1.49
0.58,-135.5,49.03,175.87,-0.05,0.08,0.09,1.77,1.0,0.09,-101.86,35.83,195.16,-0.02,-0.07,0.05,0.37,0.53,1.24,-150.75,5.7,4.16,0.57,0.37,0.35,0.28,0.56,1.93,-125.3,22.45,22.25,0.75,0.56,0.94,0.57,1.4,2.77
0.59,-136.26,48.52,176.29,0.03,0.46,0.15,2.61,0.94,1.51,-102.09,35.86,195.2,-0.1,0.21,0.11,0.29,0.79,1.65,-150.69,5.01,3.3,0.89,0.58,0.13,0.27,0.52,1.79,-124.15,23.41,22.73,0.65,0.62,0.49,0.87,1.45,1.47
0.6,-136.44,48.34,176.65,0.11,0.24,0.02,3.31,0.39,3.3,-101.89,35.44,195.32,0.18,0.41,0.03,0.82,0.35,1.36,-150.59,4.84,2.85,0.84,0.5,-0.02,0.73,0.65,2.38,-124.02,23.87,23.38,0.77,0.61,0.22,0.71,1.93,0.86
0.61,-136.61,48.15,176.74,0.01,0.38,0.12,3.89,0.07,5.12,-101.78,35.44,195.53,0.21,0.65,0.09,1.35,0.05,1.34,-150.77,4.73,2.29,0.76,0.42,0.24,0.73,0.57,3.02,-123.72,24.23,23.75,0.82,0.75,0.18,0.55,2.66,0.01
0.62,-136.99,48.34,177.09,0.07,0.38,0.4,1.34,0.18,2.41,-101.77,34.5,195.96,0.51,0.62,0.06,1.7,0.38,2.05,-150.64,3.92,1.56,0.63,0.37,0.07,0.4,0.25,3.38,-123.15,24.9,24.71,0.69,0.47,0.56,0.79,0.83,1.1
0.63,-137.16,48.69,177.29,0.09,0.54,0.27,0.16,0.68,0.44,-102.13,33.82,196.56,0.37,0.64,-0.02,1.06,1.51,3.0,-151.14,3.78,0.84,0.63,0.33,0.17,0.67,1.15,0.92,-122.45,26.25,25.18,0.8,0.85,0.8,1.32,1.47,1.68
0.64,-137.63,48.51,177.85,0.09,0.19,0.25,0.2,0.32,0.85,-101.98,33.24,196.83,0.19,0.47,-0.11,0.2,0.07,1.89,-151.25,3.61,0.03,0.8,-0.07,0.43,0.34,0.17,0.57,-121.91,27.23,26.42,0.93,0.76,0.16,0.04,1.26,0.81
0.65,-138.22,48.17,178.23,0.05,0.42,0.36,1.0,0.3,1.76,-102.11,32.69,197.12,0.14,0.68,0.03,0.55,-0.04,1.69,-151.5,3.48,1.17,0.84,0.09,0.1,0.14,0.17,1.12,-121.88,27.85,27.48,1.0,0.83,0.19,1.37,0.05,0.78
0.66,-138.56,47.88,178.45,-0.0,0.27,0.41,1.73,1.54,2.16,-102.06,31.72,197.61,0.23,0.77,-0.02,1.02,0.4,1.53,-151.18,3.37,1.97,0.93,0.06,0.2,0.19,0.66,0.51,-121.09,28.87,28.34,0.72,0.8,0.44,1.27,0.39,0.29
0.67,-139.51,47.81,179.2,0.33,0.21,0.12,0.73,0.68,1.73,-101.86,31.38,197.76,0.18,0.71,0.07,0.52,1.08,1.22,-151.35,3.24,2.84,0.94,0.16,0.03,0.29,0.41,0.38,-120.77,30.06,29.07,0.55,0.81,0.36,0.48,0.3,0.69
0.68,-140.02,47.13,179.34,0.17,0.41,0.29,0.14,0.99,1.92,-102.07,30.8,197.74,0.1,0.55,-0.12,0.95,1.02,0.09,-151.24,3.11,3.88,0.74,0.28,0.28,0.56,2.15,1.48,-120.03,30.71,29.95,0.71,0.52,0.46,1.3,0.8,0.02
0.69,-140.62,46.75,179.75,0.13,0.52,0.17,1.25,-0.07,2.16,-101.84,30.23,198.16,0.02,0.47,0.14,1.08,0.34,-0.09,-151.84,2.96,5.05,0.94,0.13,0.32,0.8,2.66,0.9,-119.16,31.71,30.58,0.69,0.59,0.66,0.8,0.77,0.27
0.7,-141.39,46.12,179.47,0.07,0.32,0.28,0.59,0.14,2.06,-101.53,29.74,198.27,0.06,0.54,-0.05,1.04,0.46,0.48,-152.57,2.97,6.13,1.1,-0.03,0.68,0.38,0.43,1.11,-118.3,32.39,31.07,0.76,0.43,0.72,0.12,1.13,0.18
0.71,-140.52,44.73,178.66,0.1,0.75,0.09,0.36,0.36,0.95,-101.58,29.44,198.43,0.07,0.03,-0.03,0.91,0.65,0.95,-152.95,3.09,7.13,0.89,-0.25,0.62,0.59,0.17,1.26,-117.14,33.18,31.92,0.87,0.5,0.69,1.26,0.4,0.34
0.72,-140.47,44.37,178.48,0.07,0.85,0.24,0.63,0.29,1.23,-101.54,29.52,198.4,0.1,0.15,0.02,0.69,0.31,0.88,-153.33,3.14,7.78,0.98,-0.05,0.43,0.64,0.95,0.94,-116.83,33.64,32.21,0.83,0.46,1.06,1.21,0.54,0.31
0.73,-140.68,43.85,178.5,0.41,0.58,0.15,0.69,0.17,0.98,-101.39,29.21,198.53,0.08,0.19,0.17,1.08,-0.01,0.77,-153.62,3.08,8.17,0.92,0.05,0.39,0.72,1.46,0.57,-116.24,34.29,32.35,0.75,0.41,0.95,0.35,0.32,0.33
0.74,-140.49,42.42,177.78,-0.04,0.9,0.01,0.34,1.12,1.33,-101.7,29.13,198.57,0.12,-0.02,0.05,0.27,0.43,0.25,-154.05,3.0,9.13,0.98,-0.03,0.58,0.72,0.61,0.41,-115.46,34.78,32.68,0.68,0.54,0.92,0.56,0.3,0.42
0.75,-140.32,41.36,177.8,-0.01,0.74,-0.09,0.38,0.33,0.76,-101.23,29.12,198.55,0.12,0.19,-0.04,0.47,0.16,0.16,-154.8,2.93,10.21,0.76,-0.08,0.84,0.05,1.26,0.9,-114.18,35.64,32.93,0.56,0.59,1.17,0.44,0.42,1.0
0.76,-140.4,40.91,177.92,0.15,0.5,-0.05,0.07,0.08,1.64,-101.41,29.42,198.53,0.1,0.3,0.26,1.23,0.42,1.45,-155.12,3.24,10.53,0.93,0.31,0.26,1.15,0.37,1.14,-113.26,36.88,33.23,0.68,0.48,0.52,0.51,0.51,0.07
0.77,-140.47,40.19,177.41,0.1,0.3,0.02,0.07,0.33,2.76,-101.23,29.94,198.58,0.09,0.44,0.1,1.32,0.3,0.51,-155.46,3.24,11.68,0.87,0.2,0.31,0.75,0.37,1.72,-112.27,37.55,33.99,0.6,0.63,0.81,0.04,0.11,0.37
0.78,-140.06,39.76,177.39,0.41,0.43,0.11,0.59,1.1,2.05,-101.21,30.33,198.76,-0.09,0.52,0.07,0.36,0.44,-0.07,-155.92,3.43,12.58,0.94,0.08,0.31,0.77,1.46,0.79,-111.0,38.79,34.03,0.58,0.72,1.18,1.43,-0.06,0.28
0.79,-140.25,39.7,177.58,0.04,0.01,-0.2,0.85,0.13,1.58,-101.29,31.13,198.47,0.04,0.64,-0.03,0.14,0.09,0.37,-156.11,3.71,13.64,0.74,0.33,0.22,0.38,1.36,0.91,-110.08,39.94,34.78,0.92,0.71,0.8,1.21,0.51,0.26
0.8,-140.49,39.82,177.67,0.17,0.16,0.02,0.41,0.07,2.24,-101.14,31.87,198.35,-0.08,0.64,0.28,0.51,0.17,0.01,-155.8,4.63,14.84,0.59,0.32,0.45,0.18,0.62,0.73,-108.84,41.11,35.02,0.72,0.77,1.0,0.23,1.83,0.02
0.81,-140.37,40.28,177.56,0.05,0.45,0.13,0.41,1.21,1.71,-101.11,32.67,198.52,0.12,0.67,0.1,0.64,0.29,0.56,-155.38,4.71,15.67,0.55,0.39,0.25,0.4,0.29,0.69,-108.08,42.6,34.99,0.59,0.93,1.05,-0.02,1.58,-0.15
0.82,-140.53,40.8,177.63,-0.04,0.42,0.19,0.55,0.88,1.4,-101.12,33.47,198.61,0.28,0.75,-0.0,0.42,0.42,1.57,-154.86,5.97,16.38,0.32,0.75,0.08,0.12,0.74,0.49,-106.94,44.24,35.46,0.55,1.14,1.06,0.06,0.45,0.12
0.83,-140.46,41.26,177.6,0.11,0.68,-0.05,0.57,0.39,0.28,-101.24,34.55,198.77,0.06,1.11,-0.03,0.02,0.45,0.19,-154.75,6.6,16.81,0.17,0.52,0.08,0.37,-0.01,0.33,-105.97,45.97,36.26,0.63,1.46,1.24,1.52,0.45,0.42
0.84,-140.39,41.64,177.71,0.14,0.59,0.01,0.34,0.25,0.6,-101.21,34.96,198.48,0.35,0.87,0.0,0.4,0.41,0.23,-154.8,6.69,16.89,0.25,0.86,-0.07,0.74,0.29,0.31,-105.33,46.93,36.49,0.81,1.29,0.91,1.5,0.55,0.4
0.85,-140.44,41.89,177.76,0.22,0.69,0.25,0.29,0.21,0.93,-101.13,35.46,198.79,0.28,1.01,0.02,0.84,0.34,0.34,-154.76,7.32,16.99,0.16,0.88,-0.11,1.13,0.72,0.43,-104.58,47.85,36.76,0.89,1.55,1.01,1.44,0.3,0.18
0.86,-140.54,42.75,178.14,0.28,0.88,0.16,0.29,0.39,0.21,-101.49,36.23,198.64,0.04,0.68,-0.07,0.58,0.6,1.58,-154.64,8.07,17.15,0.18,0.51,-0.07,1.3,0.45,0.68,-103.58,49.91,37.7,0.66,1.49,0.97,1.24,0.24,0.39
0.87,-140.61,43.58,178.39,-0.24,0.71,0.31,1.5,0.12,1.51,-101.43,37.23,198.83,0.09,1.03,0.08,0.21,0.32,1.0,-154.47,8.72,17.35,0.25,0.66,0.03,0.34,0.95,1.35,-102.65,52.05,38.35,0.55,1.46,1.05,0.73,0.69,0.31
0.88,-141.02,44.32,178.51,-0.03,0.79,0.27,1.42,-0.06,1.05,-101.61,38.46,198.8,0.06,1.02,-0.09,0.21,0.56,0.56,-154.61,9.52,17.41,0.08,0.61,-0.01,1.44,0.8,1.15,-101.49,54.36,38.86,0.57,1.55,1.15,1.1,0.77,-0.0
0.89,-143.58,45.53,178.6,0.22,1.1,0.31,1.48,0.43,1.27,-101.62,39.74,198.8,-0.01,1.21,0.21,-0.09,1.05,-0.03,-154.48,10.55,17.54,0.22,0.95,0.33,1.34,0.07,0.55,-100.72,56.46,39.75,0.54,1.72,1.14,1.11,0.39,0.16
0.9,-142.59,46.61,179.16,0.04,0.92,0.3,0.78,0.57,0.45,-101.88,41.0,198.75,0.18,1.2,-0.0,0.28,0.09,0.02,-154.44,11.53,17.21,0.28,0.8,0.25,0.55,0.34,0.88,-99.87,58.76,41.34,0.53,1.81,1.12,1.54,0.3,1.36
0.91,-142.5,47.69,179.6,0.08,0.93,0.26,1.16,0.3,0.68,-101.79,42.31,198.82,-0.05,1.31,-0.06,0.16,0.37,0.4,-154.78,12.68,16.94,0.49,1.08,0.43,0.82,0.27,1.27,-98.76,61.24,42.67,0.46,1.76,0.92,1.86,1.53,0.89
0.92,-142.65,48.83,179.58,0.36,1.39,0.14,0.06,0.21,0.84,-101.93,43.69,198.62,0.16,1.31,-0.01,0.47,0.32,0.83,-155.23,13.77,16.44,0.56,1.18,0.77,1.5,0.88,1.07,-98.15,63.48,44.47,0.83,1.69,1.24,1.5,0.48,0.57
0.93,-142.11,50.4,179.96,-0.0,1.31,0.17,0.03,0.4,1.0,-101.92,44.56,198.7,0.25,1.13,0.03,-0.0,1.2,0.55,-155.58,15.06,15.58,0.43,0.99,0.51,0.9,1.02,1.7,-96.78,65.84,47.14,0.89,1.86,1.23,0.92,1.51,0.11
0.94,-141.64,51.95,179.28,0.17,1.33,0.19,0.07,0.76,0.15,-102.17,45.89,198.76,0.11,1.47,0.25,0.03,0.63,0.67,-156.17,16.13,14.99,0.59,0.86,0.67,0.83,0.19,1.48,-95.64,68.44,50.35,0.65,2.47,1.06,1.96,0.75,0.49
0.95,-141.54,53.37,179.17,0.13,1.36,-0.14,0.95,0.34,1.15,-102.48,47.42,199.18,0.1,1.68,0.08,0.34,0.29,0.1,-156.72,17.41,14.38,0.62,1.0,0.58,1.55,0.14,1.89,-94.52,71.1,54.25,0.75,2.36,1.0,0.48,0.98,0.19
0.96,-141.49,54.15,179.18,0.06,1.37,0.09,1.26,0.22,1.27,-102.69,48.15,199.1,-0.02,1.56,0.12,0.46,0.12,0.64,-156.99,18.07,13.72,0.67,1.13,0.7,1.69,0.34,1.44,-93.64,72.53,54.44,0.66,2.34,1.27,0.14,0.74,0.2
0.97,-141.66,55.03,178.96,0.09,1.4,-0.01,1.19,0.17,1.42,-102.98,49.25,198.75,0.0,1.5,0.05,0.51,0.23,1.01,-157.12,18.94,13.15,0.73,1.15,1.06,1.52,0.46,1.32,-92.92,73.79,54.35,0.74,2.49,1.31,0.08,0.48,0.58
0.98,-141.15,56.33,178.7,0.1,1.28,0.32,0.46,1.25,0.52,-103.15,50.89,198.95,0.13,1.69,-0.0,0.55,1.52,0.69,-158.1,20.4,12.18,0.75,1.03,0.95,0.55,1.2,1.51,-91.65,76.33,63.39,0.95,2.78,1.06,1.12,0.91,1.27
0.99,-140.47,57.76,178.0,0.1,1.41,0.18,0.91,1.41,0.17,-103.57,52.53,198.8,0.11,1.53,-0.1,0.84,0.02,0.35,-159.06,21.52,10.83,1.0,0.9,1.1,0.3,0.91,0.87,-89.43,78.46,76.6,1.25,3.02,1.37,1.18,1.06,0.19
1.0,-140.01,59.48,177.37,0.0,1.38,0.24,0.39,0.33,0.41,-104.22,54.31,198.71,0.24,1.73,0.2,0.89,1.32,0.94,-159.82,22.84,9.42,0.89,1.12,0.74,0.82,1.73,2.2,-87.72,79.79,94.51,0.98,2.79,1.34,1.03,2.15,1.04
1.01,-140.26,61.13,177.31,0.26,1.55,0.03,0.99,0.83,1.28,-104.71,55.95,198.71,-0.15,1.42,-0.03,1.01,0.15,0.66,-160.19,23.97,8.4,0.89,1.02,0.54,1.18,0.88,2.84,-86.93,79.88,94.5,1.05,2.75,1.44,0.82,0.88,0.37
1.02,-140.33,62.81,176.78,0.22,1.68,0.04,0.92,0.59,1.19,-105.27,57.78,198.91,0.38,1.44,0.19,1.05,0.89,2.12,-160.45,25.24,6.82,1.19,1.11,0.77,0.61,0.24,1.39,-84.9,79.98,94.4,0.7,2.55,1.71,1.51,0.68,1.0
1.03,-139.92,64.55,176.44,0.11,1.48,0.18,0.91,0.49,0.39,-105.63,59.49,198.61,0.0,1.56,-0.1,0.45,-0.14,3.48,-161.32,26.65,5.12,1.11,1.16,1.11,1.33,0.61,0.34,-83.21,78.86,112.14,0.55,2.47,1.39,1.2,1.0,1.61
1.04,-139.85,66.07,175.75,0.21,1.24,0.39,0.64,0.9,0.11,-106.02,62.31,198.72,0.02,2.11,-0.01,0.79,0.31,0.26,-162.21,27.71,2.9,1.49,1.18,1.14,1.67,1.47,1.31,-81.15,76.98,124.89,0.24,2.31,1.42,1.66,0.81,1.55
1.05,-139.56,67.52,174.82,0.1,1.37,0.3,0.49,0.58,0.83,-106.26,65.6,198.13,0.03,3.91,0.0,0.96,0.35,1.55,-163.01,29.12,0.69,1.43,1.27,1.04,0.22,1.64,2.14,-79.4,74.83,133.1,0.19,2.12,1.01,0.54,1.42,0.45
1.06,-139.23,69.16,173.68,0.0,1.49,0.28,1.55,0.56,0.63,-106.63,70.43,197.15,0.24,4.78,0.19,0.31,0.26,4.52,-163.73,30.72,1.7,1.72,1.28,0.92,0.16,1.52,1.32,-78.24,72.65,139.17,0.58,2.15,1.15,1.69,2.84,0.22
1.07,-139.43,71.13,172.55,-0.1,1.62,0.11,1.26,-0.11,0.81,-107.49,76.11,195.36,0.03,5.56,-0.08,2.21,0.96,5.25,-164.14,31.88,3.98,1.57,1.46,0.86,0.23,0.15,0.3,-76.1,70.42,143.69,0.29,1.96,1.15,0.68,0.94,0.32
1.08,-139.24,71.86,171.88,0.21,1.62,0.14,0.9,0.46,0.61,-107.73,79.69,198.34,0.15,6.19,-0.03,2.22,0.73,3.51,-164.67,32.36,5.51,1.71,1.32,1.15,0.23,0.19,0.57,-75.72,69.42,142.34,0.29,1.65,1.22,1.0,0.98,0.65
1.09,-139.32,72.65,171.17,0.16,1.43,0.07,0.41,0.64,0.48,-107.79,83.4,201.2,0.37,6.7,0.21,2.42,0.46,1.93,-164.98,33.03,6.68,1.65,1.36,1.1,-0.08,0.11,0.7,-75.19,68.33,141.04,0.07,1.73,1.21,1.38,0.8,0.63
1.1,-139.23,74.11,170.16,0.07,1.47,0.11,0.17,0.57,0.28,-107.52,85.77,201.12,0.41,1.66,-0.04,1.89,0.08,0.65,-165.8,34.34,9.68,1.67,1.53,0.97,0.14,1.33,0.42,-73.56,66.37,138.26,0.37,1.47,1.08,0.84,0.56,1.4
1.11,-139.48,75.98,168.88,-0.01,1.53,0.08,1.92,0.6,0.58,-107.16,85.74,201.14,0.37,0.23,-0.01,0.75,0.53,1.26,-166.23,36.06,12.26,1.75,1.55,0.64,0.31,1.93,0.01,-71.87,64.5,135.9,0.42,1.53,1.02,0.75,0.73,2.43
1.12,-139.06,77.4,166.69,0.37,1.31,0.02,1.67,0.97,0.16,-106.65,85.39,201.01,0.45,1.57,0.11,1.94,0.68,0.34,-166.53,37.51,15.12,2.02,1.56,0.9,1.16,1.58,1.27,-70.51,62.67,133.61,0.18,1.27,1.3,0.66,0.87,2.16
1.13,-138.56,78.65,164.11,0.18,1.32,-0.02,0.53,0.1,0.31,-105.8,82.27,201.16,0.47,3.16,-0.05,4.25,0.9,9.19,-167.09,38.66,18.71,1.86,1.52,0.9,0.67,-0.05,-0.04,-68.83,61.26,131.69,-0.13,1.29,1.11,1.34,1.87,1.57
1.14,-138.69,79.42,163.06,0.03,1.22,0.02,1.33,0.61,0.03,-105.54,80.78,203.27,0.34,0.43,0.15,0.4,0.32,0.81,-167.62,40.02,22.32,2.21,1.76,0.93,-0.12,0.17,0.59,-68.07,59.64,130.25,-0.02,1.33,1.14,1.49,0.77,1.69
1.15,-138.73,80.73,160.61,0.02,1.28,-0.04,1.72,0.05,0.47,-105.47,81.92,200.55,0.1,1.39,-0.07,0.38,0.46,0.17,-168.11,40.46,24.23,2.13,1.79,1.13,0.25,0.31,0.82,-66.37,58.07,129.17,-0.03,1.39,0.82,1.79,0.22,2.72
1.16,-138.43,81.96,157.89,0.1,0.92,0.03,1.23,0.45,0.6,-105.43,83.58,200.5,0.18,1.05,-0.19,0.58,-0.14,0.26,-168.64,41.7,28.07,1.89,1.7,0.87,0.24,1.12,0.06,-65.02,56.57,127.96,-0.09,1.22,0.9,1.66,1.12,2.0
1.17,-138.62,82.89,154.45,0.03,1.21,0.13,1.17,-0.0,0.02,-105.4,84.54,200.53,0.26,1.0,-0.03,1.48,0.2,0.48,-169.01,42.78,31.69,1.79,1.63,0.77,0.78,1.08,0.13,-64.22,54.91,127.29,0.01,1.18,0.76,1.55,0.67,0.26
1.18,-138.35,83.82,154.42,0.13,1.05,0.02,0.85,0.31,0.56,-105.43,85.1,200.61,-0.02,0.95,-0.09,1.62,0.53,0.38,-170.02,43.93,35.28,1.31,1.39,0.42,0.09,2.16,0.05,-63.18,53.4,127.04,0.25,1.19,0.65,1.39,0.18,0.34
1.19,-138.13,84.5,154.34,0.08,0.98,-0.04,1.07,0.43,0.41,-105.32,86.11,200.52,-0.01,0.99,0.07,1.0,0.96,0.59,-169.98,44.78,37.95,1.05,1.4,0.3,0.61,1.77,0.81,-62.46,51.99,126.82,-0.03,1.19,0.71,1.57,0.72,0.02
1.2,-138.08,84.83,154.26,0.04,0.94,0.06,1.05,0.41,0.42,-105.53,86.39,200.59,-0.03,0.99,0.09,0.43,0.46,1.04,-170.17,45.19,39.34,1.16,1.42,0.33,1.05,1.29,0.67,-61.93,51.19,126.99,0.14,1.43,0.49,1.61,0.98,0.27
1.21,-138.16,85.44,154.46,0.09,0.71,0.01,1.51,0.43,0.54,-105.7,87.08,200.89,-0.23,1.11,0.25,-0.01,0.25,1.51,-170.32,45.81,40.77,1.17,1.48,0.32,1.35,0.55,0.43,-61.68,50.41,127.01,0.23,1.12,0.42,1.76,1.23,0.78
1.22,-138.33,86.07,154.81,-0.02,0.66,0.18,0.14,0.57,0.52,-105.8,87.9,200.76,0.03,1.1,0.18,0.63,1.08,1.12,-170.65,46.71,43.61,1.27,1.5,0.64,0.99,0.48,0.47,-61.25,47.71,128.17,0.16,1.12,0.23,0.41,2.47,1.79
1.23,-138.42,86.66,154.55,0.19,0.48,0.02,-0.03,0.1,0.71,-106.15,88.1,200.69,0.04,1.0,0.22,0.33,1.11,0.93,-170.96,47.57,46.28,1.15,1.31,0.34,0.8,1.72,0.5,-61.47,46.12,128.85,0.49,1.24,0.33,0.57,0.57,0.17
1.24,-138.81,86.81,154.8,0.33,0.46,0.5,0.42,0.97,0.37,-106.32,88.0,200.64,0.17,1.08,0.23,1.17,0.17,0.88,-171.58,48.4,48.83,1.05,1.27,0.39,1.68,2.25,0.57,-62.35,45.17,130.06,0.3,0.94,0.35,0.53,2.68,0.35
1.25,-139.27,87.41,154.95,0.03,0.71,0.29,0.66,1.08,0.19,-106.35,87.3,200.38,0.22,0.59,0.18,0.72,0.1,1.05,-172.13,48.95,51.55,0.77,1.33,0.36,2.01,1.01,0.72,-61.78,44.55,130.27,0.21,0.94,0.14,0.24,2.33,2.01
1.26,-139.3,87.45,155.03,0.09,0.34,0.23,0.41,1.2,0.57,-106.15,86.82,200.41,0.15,0.62,0.21,0.25,0.23,0.84,-172.86,49.4,53.83,0.75,1.17,0.42,1.92,0.35,0.73,-60.97,43.37,130.25,0.2,0.99,0.31,0.12,2.29,2.6
1.27,-139.27,87.37,155.18,0.24,0.54,-0.16,0.57,0.92,1.3,-105.93,86.06,200.3,0.3,0.55,-0.19,0.14,0.35,0.8,-173.28,49.53,56.91,1.23,1.07,0.56,1.74,0.16,0.75,-60.7,42.15,130.96,0.37,0.93,0.66,0.26,2.59,1.18
1.28,-139.31,87.36,155.13,0.01,0.31,-0.02,0.07,1.32,0.78,-106.04,85.64,200.08,0.23,0.74,0.17,0.07,0.23,0.39,-173.77,49.81,59.81,1.61,1.13,0.66,1.28,0.06,0.61,-60.6,41.26,131.97,0.49,0.79,0.07,0.25,1.19,1.28
1.29,-139.2,87.22,155.08,0.02,0.41,-0.01,0.38,0.52,0.51,-105.75,84.81,200.14,0.26,0.46,0.15,0.77,0.17,0.21,-174.27,49.23,59.78,1.73,0.68,0.55,-0.1,0.83,0.54,-60.7,40.33,132.33,0.37,0.77,0.17,0.18,0.89,1.08
1.3,-139.51,87.15,154.89,0.03,0.42,0.27,0.63,0.05,0.53,-105.78,84.16,200.13,0.19,0.5,-0.1,0.14,0.33,0.56,-174.54,48.84,62.76,1.81,0.72,0.68,-0.04,0.58,0.3,-60.88,39.98,132.87,0.27,0.42,0.17,0.17,2.13,0.92
1.31,-139.69,86.94,154.5,0.15,0.34,0.01,0.09,0.89,0.25,-105.33,83.63,199.59,0.36,0.63,-0.05,0.25,0.05,0.23,-174.42,48.67,65.55,1.49,0.54,0.69,1.04,1.42,0.74,-61.95,39.79,133.34,0.31,0.03,0.51,1.04,2.94,0.98
1.32,-139.79,87.09,154.45,0.07,0.27,0.04,0.29,1.06,0.29,-105.22,83.4,199.99,0.3,0.55,0.01,0.35,0.27,0.27,-174.33,48.36,66.88,1.5,0.54,0.75,0.92,0.8,0.69,-62.24,39.5,133.63,0.44,0.13,0.44,0.92,3.73,1.04
1.33,-139.64,87.19,154.41,0.22,0.1,0.13,0.49,0.68,0.01,-105.09,83.18,199.88,0.16,0.71,0.02,0.47,0.41,0.2,-174.42,48.07,68.35,1.64,0.65,0.51,0.86,0.3,0.77,-62.67,39.48,133.83,0.81,0.0,0.32,0.89,4.34,0.84
1.34,-139.37,86.87,154.31,0.3,0.17,0.11,0.27,0.63,0.28,-104.66,81.47,198.92,0.27,0.88,-0.05,0.24,0.52,0.66,-174.12,47.6,71.22,2.0,0.41,0.67,0.64,3.85,-0.1,-63.28,39.95,134.46,0.48,0.38,0.36,1.14,3.94,2.64
1.35,-139.17,86.82,154.17,0.22,0.18,0.28,0.56,0.91,0.25,-104.38,80.66,198.15,0.07,0.57,0.11,0.17,0.03,0.71,-173.39,47.39,74.18,2.01,0.7,-0.12,1.38,0.76,1.23,-64.71,40.15,133.96,0.46,0.3,0.92,1.88,2.37,2.04
1.36,-139.35,86.72,154.3,0.15,0.3,0.3,0.63,-0.06,0.93,-104.31,79.86,197.67,0.1,0.72,-0.05,1.17,0.42,0.4,-172.43,47.77,77.66,2.0,0.82,0.03,1.37,2.32,1.42,-65.65,40.28,133.9,0.5,0.35,0.6,2.92,0.61,0.79
1.37,-139.3,86.55,153.73,-0.07,0.08,0.12,0.24,0.38,0.23,-103.84,79.23,197.34,0.3,0.45,-0.06,0.0,0.29,0.56,-171.15,48.26,80.87,1.93,1.14,0.3,2.15,0.61,1.6,-66.97,40.52,133.91,0.6,0.3,0.23,1.88,2.25,1.65
1.38,-139.5,86.41,153.65,0.33,0.08,0.16,0.37,0.88,0.6,-103.92,78.71,197.06,0.45,0.67,0.15,0.64,0.71,0.7,-169.88,48.72,84.69,2.07,1.01,0.18,1.29,0.08,1.96,-68.17,40.72,134.13,0.65,0.1,0.91,2.67,0.76,1.08
1.39,-139.37,86.52,153.49,-0.08,0.1,0.16,0.38,0.14,0.53,-103.57,78.28,195.98,0.29,0.67,0.27,1.73,0.21,0.38,-168.96,49.1,88.23,1.61,1.39,0.63,0.41,0.01,0.56,-68.88,41.04,133.91,0.46,0.1,0.4,3.74,1.9,1.18
1.4,-139.75,86.2,153.39,0.02,0.02,0.22,0.44,0.57,0.15,-103.55,77.47,194.9,0.32,0.45,-0.0,0.74,0.56,-0.14,-167.86,49.83,91.7,1.5,1.3,1.06,0.8,1.11,0.72,-69.47,40.9,134.45,0.63,0.16,0.09,3.03,0.95,1.29
1.41,-139.84,86.21,153.01,0.31,0.14,-0.01,0.25,-0.14,0.48,-103.0,76.97,194.65,0.31,0.16,0.03,0.57,0.6,-0.08,-166.32,50.49,95.8,1.82,1.64,0.84,1.05,2.52,1.24,-69.85,41.0,135.33,0.6,-0.09,0.01,3.09,2.2,0.49
1.42,-139.76,86.18,152.92,0.01,0.06,0.12,1.03,0.58,0.98,-102.52,76.7,194.16,0.3,0.12,0.23,0.15,1.02,-0.09,-165.35,51.05,100.25,1.54,1.85,0.87,2.01,0.62,0.2,-70.03,40.94,136.15,0.56,0.38,0.28,2.78,0.19,0.1
1.43,-139.63,85.97,152.74,0.21,0.18,0.18,1.34,0.31,0.27,-102.64,76.5,194.3,0.11,0.31,0.18,0.43,0.43,0.54,-164.0,51.76,104.4,1.13,1.82,1.24,2.1,0.67,1.5,-70.11,40.59,137.45,0.78,0.15,0.53,3.06,-0.07,1.89
1.44,-139.75,86.08,152.63,0.21,-0.02,0.08,1.05,0.48,0.65,-102.42,75.92,194.26,0.19,0.36,-0.01,0.48,0.54,0.56,-163.45,51.75,106.04,1.32,1.67,1.02,1.82,1.58,1.48,-70.31,40.46,138.03,0.97,0.15,0.25,3.06,1.24,1.45
1.45,-139.61,85.69,152.84,0.46,0.12,-0.08,1.03,0.35,0.71,-102.26,75.9,194.48,-0.01,-0.1,-0.06,0.54,0.81,0.73,-163.15,51.91,108.17,1.09,1.65,1.16,1.88,2.5,1.99,-70.12,40.3,138.47,1.22,0.18,0.01,3.19,2.57,0.9
1.46,-139.01,85.85,152.67,0.63,0.1,-0.02,0.43,0.45,1.65,-102.34,75.81,194.01,0.0,0.14,0.01,0.05,0.75,1.07,-161.62,52.58,111.77,0.99,1.16,1.23,2.35,-0.02,0.31,-70.6,40.15,139.55,0.72,0.36,0.05,1.53,0.48,0.15
1.47,-138.58,85.87,152.68,0.19,0.11,0.08,1.28,1.12,0.69,-101.94,75.98,194.11,0.18,-0.08,0.16,1.74,0.56,0.46,-160.69,53.2,114.69,0.92,1.06,0.88,0.88,1.61,0.09,-70.93,39.82,140.31,0.66,0.18,0.29,1.2,0.66,0.19
1.48,-138.59,85.59,152.6,0.0,0.2,-0.13,0.18,1.19,0.13,-101.67,75.8,193.63,-0.02,-0.04,-0.01,1.59,0.98,0.29,-159.83,52.96,117.32,1.12,1.17,0.26,2.23,3.98,1.18,-72.67,39.79,141.03,0.63,0.17,0.5,1.58,0.83,0.4
1.49,-138.41,85.63,152.87,0.3,-0.03,-0.04,0.13,0.46,0.86,-101.78,75.83,193.16,0.13,0.22,0.12,0.48,0.93,0.53,-159.37,52.5,119.76,0.72,0.86,0.2,3.84,1.87,1.83,-73.46,39.89,140.85,0.08,0.03,0.47,0.71,0.75,1.28
1.5,-138.08,85.13,152.79,0.17,0.14,-0.09,0.59,0.15,1.71,-101.52,76.41,193.38,0.05,0.56,0.1,0.39,2.02,1.2,-159.17,51.97,121.3,0.53,0.69,-0.11,3.03,0.5,1.46,-74.37,40.04,140.22,0.26,0.07,0.2,2.35,0.25,0.18
1.51,-138.16,85.24,152.89,0.35,0.15,0.13,1.89,0.25,0.58,-101.43,76.85,193.68,0.03,0.42,0.06,1.35,1.51,1.55,-158.5,51.74,122.38,0.92,0.5,0.25,2.44,0.82,0.87,-73.86,40.0,140.27,0.24,0.09,0.59,1.06,2.23,1.14
1.52,-137.67,85.24,153.05,0.24,0.29,0.14,0.65,0.37,1.19,-101.6,77.24,194.69,0.23,0.22,0.25,0.2,0.14,0.68,-158.31,51.54,123.26,0.55,0.33,0.38,1.93,1.25,-0.05,-73.2,39.85,140.65,0.29,0.07,0.58,0.06,1.53,0.09
1.53,-137.91,85.98,153.28,0.06,0.6,0.2,-0.02,1.52,1.06,-101.57,77.5,194.92,-0.16,0.11,0.01,0.73,0.14,1.63,-158.38,51.0,123.65,0.47,0.39,0.84,2.09,3.06,1.46,-72.4,39.99,140.6,0.33,0.12,0.69,0.7,0.48,1.35
1.54,-138.19,86.18,153.44,-0.17,0.39,-0.07,0.82,1.11,0.5,-101.62,77.42,195.31,0.3,0.31,-0.04,-0.01,0.21,2.73,-158.8,49.99,124.05,0.58,0.08,0.51,0.14,2.15,1.24,-71.38,39.77,141.11,0.2,0.09,0.9,1.51,0.74,0.87
1.55,-138.26,86.51,153.55,0.09,0.23,0.04,1.26,0.04,0.69,-101.37,77.84,196.52,-0.08,0.36,0.24,0.92,0.08,1.3,-159.3,49.29,124.3,0.54,0.27,0.82,1.14,0.52,1.21,-70.65,39.76,141.67,0.16,0.06,1.08,1.89,0.41,0.24
1.56,-138.32,86.92,153.4,-0.07,0.22,0.3,1.26,0.19,0.75,-101.52,77.98,196.87,0.05,0.08,0.02,1.1,0.34,1.11,-159.46,48.79,124.23,0.63,0.29,0.63,1.42,1.4,0.91,-70.01,39.9,142.08,0.13,0.02,1.13,1.27,1.71,0.72
1.57,-138.27,86.97,153.54,0.06,0.21,0.16,1.24,0.28,0.91,-101.48,78.26,196.97,0.03,0.02,-0.07,1.24,0.75,0.98,-159.86,48.31,124.37,0.48,0.22,0.44,1.55,2.28,0.9,-69.64,39.8,142.57,0.11,0.0,1.03,0.66,3.09,1.55
1.58,-137.75,87.49,153.11,0.25,0.42,0.14,0.15,0.54,1.12,-101.35,78.16,197.04,0.16,-0.11,0.09,1.19,0.11,0.13,-159.62,47.97,124.89,0.24,0.25,0.07,0.72,2.91,1.18,-69.26,39.89,142.82,-0.04,0.01,0.13,0.91,0.66,0.33
1.59,-137.58,87.52,153.28,0.09,0.22,0.29,0.35,0.17,1.38,-101.3,78.44,196.67,0.16,0.03,0.25,0.64,0.13,1.57,-159.09,47.99,125.37,0.25,0.15,0.26,0.18,1.9,0.13,-69.71,40.25,142.58,0.04,0.41,0.22,0.83,0.99,0.83
1.6,-137.89,87.68,153.68,0.07,0.2,0.17,0.77,0.55,1.29,-101.11,78.63,196.53,0.15,0.38,0.13,0.7,0.41,0.76,-159.03,48.2,125.85,0.06,0.06,0.09,0.52,1.04,0.84,-70.72,40.72,142.15,0.04,0.29,0.67,1.85,1.13,1.25
1.61,-137.9,87.99,154.02,0.1,0.03,0.05,1.01,1.11,1.48,-100.76,78.55,195.52,0.44,0.18,0.08,1.61,1.41,1.0,-158.39,48.57,126.22,0.09,0.33,0.5,0.92,1.92,0.13,-71.04,40.81,141.82,0.06,0.36,0.39,1.14,0.46,0.31
1.62,-138.16,87.85,154.04,0.02,0.28,-0.03,0.08,0.15,1.08,-100.72,78.83,195.06,0.3,0.09,-0.1,1.18,1.46,1.84,-157.98,49.06,126.09,0.24,0.17,0.14,0.03,2.4,-0.02,-71.65,41.13,141.38,0.14,0.03,0.49,0.93,0.57,0.63
1.63,-138.01,88.1,154.08,0.16,0.22,-0.07,0.2,0.8,1.05,-100.15,79.31,195.62,0.24,0.33,0.11,0.03,0.7,2.26,-158.78,48.45,125.49,-0.09,0.1,0.73,0.34,-0.05,0.51,-72.72,41.38,141.01,0.04,0.4,0.72,0.34,0.03,0.12
1.64,-138.01,88.17,154.13,0.26,0.22,0.15,1.44,0.17,0.41,-100.26,79.58,195.84,0.19,-0.01,0.14,0.64,1.01,0.82,-159.44,48.07,125.13,0.14,0.04,0.49,0.85,3.49,0.89,-73.49,41.89,140.2,0.1,0.32,0.85,1.21,1.24,0.1
1.65,-137.74,88.35,154.14,0.14,0.5,-0.08,0.4,0.42,1.21,-99.55,79.85,196.56,0.2,0.39,0.01,1.34,0.97,2.15,-160.03,47.55,124.66,0.17,0.07,0.57,1.12,0.23,1.29,-74.7,42.13,139.45,-0.01,0.45,1.0,0.95,0.73,0.24
1.66,-137.27,88.67,154.1,0.6,0.04,0.15,0.45,0.2,0.55,-99.38,79.96,196.72,0.25,0.18,0.07,0.78,0.08,0.18,-160.04,47.59,124.12,0.04,0.66,0.31,0.84,-0.1,0.44,-75.5,42.75,138.59,0.1,0.6,0.62,1.92,0.04,0.54
1.67,-136.22,88.61,153.92,1.07,0.25,0.2,0.08,0.43,0.77,-99.16,79.95,196.06,0.3,-0.15,0.04,0.54,0.1,0.14,-159.81,47.39,123.67,0.24,0.26,0.46,2.35,0.7,1.83,-76.34,43.46,138.03,0.14,0.45,0.9,0.75,1.7,1.63
1.68,-135.7,88.78,153.66,0.56,0.25,0.1,0.47,0.64,0.79,-99.06,80.11,195.65,0.41,0.05,-0.0,0.25,0.39,0.29,-160.32,47.15,123.52,0.13,0.17,0.58,1.99,0.58,1.59,-76.82,43.56,137.76,0.17,0.48,0.64,0.58,2.16,1.65
1.69,-135.28,88.84,153.89,0.41,0.41,0.09,0.71,0.67,0.51,-98.83,80.14,195.34,0.31,0.11,0.04,0.16,0.4,0.44,-160.51,46.82,123.32,0.13,0.3,0.33,1.21,0.35,1.39,-77.4,43.64,137.41,0.3,0.31,0.4,0.76,2.11,1.92
1.7,-134.93,88.99,153.92,0.84,0.06,0.07,1.65,0.09,0.83,-98.61,80.56,195.17,0.13,0.3,0.08,1.39,0.26,0.4,-160.61,46.67,123.3,0.12,0.07,0.05,1.68,0.96,0.58,-77.47,43.91,137.79,0.06,0.34,0.12,1.36,0.31,1.27
1.71,-133.68,89.07,154.0,0.65,0.1,-0.02,1.24,0.3,0.31,-98.34,80.62,194.67,0.52,-0.01,0.3,1.26,0.58,0.41,-160.04,47.08,123.16,0.16,0.37,0.2,1.24,0.17,0.73,-77.72,44.34,137.52,0.6,0.14,0.43,0.44,0.19,2.22
1.72,-132.93,88.86,153.87,0.78,0.27,0.11,0.09,0.17,0.02,-97.88,80.22,193.79,0.53,0.05,0.3,1.2,1.25,1.04,-159.68,47.64,122.88,0.09,0.39,0.13,0.15,0.47,0.85,-77.81,44.73,137.39,0.51,0.51,0.53,0.25,0.74,0.1
1.73,-132.62,88.28,153.69,0.47,0.17,0.29,0.55,0.27,0.06,-97.75,80.67,194.54,0.26,0.12,-0.13,0.12,0.4,0.28,-159.24,48.21,122.81,-0.03,0.47,0.05,0.08,1.32,0.08,-78.57,45.55,137.2,0.45,0.56,0.45,0.76,0.24,0.34
1.74,-132.19,88.41,153.38,0.33,-0.03,0.17,0.44,1.52,0.62,-97.58,81.17,195.44,0.36,0.4,-0.04,0.65,0.45,0.81,-158.96,48.53,122.52,0.03,0.39,0.25,0.6,0.6,0.56,-79.6,45.9,137.15,0.24,0.36,0.34,0.37,0.58,0.81
1.75,-131.97,88.34,153.38,0.47,-0.0,0.21,0.49,0.48,0.02,-97.58,81.04,197.09,0.22,-0.12,0.25,0.69,2.04,0.39,-158.77,48.69,122.15,0.28,0.28,0.25,0.67,1.26,0.71,-80.14,46.12,137.4,0.43,0.25,0.11,0.91,3.01,0.15
1.76,-131.35,88.22,153.06,0.04,0.13,0.15,0.55,0.47,0.1,-97.85,80.87,197.62,0.27,0.04,0.03,0.39,1.23,0.4,-158.53,49.04,121.61,0.06,0.39,0.44,1.47,0.27,1.07,-80.78,46.38,137.52,0.22,0.49,-0.02,0.95,1.29,0.42
1.77,-131.53,87.95,153.04,0.09,0.19,0.09,0.37,0.18,0.4,-97.94,81.04,196.75,0.39,0.29,0.1,0.15,0.32,-0.03,-157.82,49.92,121.14,-0.05,0.51,0.59,0.57,1.25,1.57,-80.77,46.9,136.94,0.13,0.43,0.56,0.85,0.55,1.49
1.78,-131.68,87.66,153.14,0.3,0.11,0.31,0.19,0.09,0.15,-98.13,81.44,196.64,0.24,0.29,0.08,0.34,0.4,0.11,-157.2,50.3,120.91,0.34,0.5,0.18,1.69,1.9,0.53,-79.66,47.1,135.97,0.14,0.36,0.64,1.24,0.9,0.78
1.79,-131.33,87.64,153.06,0.12,0.29,-0.09,1.05,0.18,0.22,-98.55,81.71,196.68,0.4,0.1,0.08,0.52,1.22,-0.15,-157.13,50.84,120.06,0.48,0.61,-0.02,0.71,2.79,0.65,-79.23,47.04,135.47,0.22,0.4,0.27,0.25,0.43,1.2
1.8,-131.27,87.64,152.94,0.23,0.27,0.08,0.53,0.62,0.25,-98.8,81.95,196.15,0.18,0.18,0.2,0.55,1.52,0.02,-157.27,50.83,119.86,0.25,0.47,0.2,1.27,2.6,0.85,-79.13,47.39,135.5,-0.06,0.36,0.12,0.89,0.7,1.35
1.81,-131.11,87.68,153.14,0.14,0.26,0.07,0.3,1.14,0.24,-98.61,81.94,195.96,0.24,0.19,0.11,0.84,1.9,0.03,-157.35,50.97,119.46,0.05,0.39,0.2,2.0,2.36,0.96,-79.12,47.49,135.5,0.39,0.43,0.32,1.75,0.76,1.26
1.82,-131.5,87.44,153.22,0.16,0.23,-0.06,0.26,0.84,0.64,-98.87,82.22,196.12,0.1,0.27,0.11,0.77,0.42,0.48,-157.24,50.72,119.32,0.2,0.11,0.0,0.14,0.44,0.44,-79.43,48.09,135.16,0.15,0.46,0.22,0.59,0.2,0.79
1.83,-131.66,87.32,153.34,0.21,0.04,0.1,0.43,0.5,1.08,-99.15,82.55,195.81,0.17,0.45,0.24,0.93,0.12,0.42,-156.92,50.9,119.31,0.16,0.12,0.39,0.67,0.43,0.75,-79.87,48.45,134.75,0.3,0.57,0.35,0.54,1.01,1.1
1.84,-131.65,87.39,153.4,0.53,-0.05,0.21,0.09,-0.1,0.27,-99.06,82.56,193.96,0.07,0.15,0.05,0.41,0.39,0.51,-156.73,51.11,119.27,-0.06,0.08,0.27,0.73,0.92,0.14,-80.32,48.69,134.28,0.04,0.36,0.42,0.22,0.32,1.05
1.85,-132.24,87.5,153.41,0.38,0.18,-0.08,0.62,0.84,0.13,-99.44,82.73,193.77,0.14,0.11,-0.07,0.04,0.2,1.1,-156.47,51.33,119.36,0.25,0.19,0.17,0.55,0.54,0.23,-80.55,49.22,133.76,0.15,0.37,0.33,-0.02,0.49,1.23
1.86,-132.68,87.01,153.54,0.29,-0.0,0.08,0.02,1.04,0.42,-99.35,83.09,193.52,0.08,0.05,-0.03,0.17,0.34,1.2,-156.07,51.62,119.43,0.33,-0.07,0.31,0.92,0.15,2.09,-80.62,49.65,134.08,0.36,0.02,0.2,0.08,1.02,0.14
1.87,-132.69,86.96,153.64,0.02,0.22,-0.04,-0.15,0.5,-0.06,-99.45,83.38,193.28,0.3,0.38,0.0,0.13,0.26,0.08,-155.12,52.05,119.94,0.17,0.06,0.36,0.32,2.86,1.57,-81.05,49.63,133.97,0.27,0.31,0.02,0.88,0.63,0.36
1.88,-132.74,86.95,153.86,0.08,0.12,0.11,-0.04,0.26,0.12,-99.29,83.79,193.35,-0.03,0.35,0.07,0.09,0.65,0.35,-154.76,52.22,120.29,-0.05,-0.02,0.29,1.66,0.44,1.31,-80.95,49.92,134.03,-0.08,0.38,0.32,0.28,-0.03,1.58
1.89,-133.27,86.5,153.74,0.21,0.25,0.16,0.51,1.0,0.17,-99.01,84.09,193.2,0.19,0.36,-0.06,0.11,0.17,0.65,-154.68,52.56,119.95,-0.01,0.13,0.27,0.36,2.11,1.31,-80.89,50.07,133.32,0.06,0.14,0.28,0.45,0.33,1.83
1.9,-133.19,86.3,153.92,0.25,0.29,-0.17,-0.04,0.72,0.02,-98.66,84.4,193.49,0.17,0.08,0.01,1.07,0.66,0.29,-154.64,52.96,120.06,0.05,-0.0,0.4,0.76,0.74,1.58,-81.07,50.33,133.37,0.05,0.27,0.09,-0.1,-0.03,1.71
1.91,-133.05,86.13,153.67,-0.05,0.24,0.09,0.27,0.93,1.99,-98.4,84.41,193.4,0.2,0.18,0.01,0.5,0.9,0.26,-153.83,53.59,120.34,0.03,0.23,0.48,0.7,0.72,1.28,-80.65,50.39,132.89,0.17,0.15,0.09,0.84,0.25,1.35
1.92,-133.21,85.99,153.77,0.0,0.27,-0.23,0.04,0.9,1.19,-98.49,84.68,193.39,0.16,0.42,-0.03,0.53,0.71,0.51,-153.4,53.72,120.51,0.08,0.2,0.64,0.77,0.6,1.4,-80.44,50.64,132.68,0.16,0.09,0.04,0.82,0.11,1.31
1.93,-133.22,85.99,153.89,-0.02,0.02,-0.01,0.09,0.66,0.8,-98.49,84.63,193.41,-0.03,0.31,0.25,0.43,0.36,0.65,-153.09,53.96,120.43,0.09,0.17,0.46,0.61,0.96,2.0,-80.46,50.55,132.64,0.21,0.24,0.05,0.73,0.64,1.44
1.94,-133.25,85.83,153.87,-0.06,0.14,0.07,0.41,0.26,0.74,-98.26,84.96,193.44,0.05,0.4,0.11,1.46,0.08,0.98,-152.04,55.02,121.29,0.0,0.18,0.27,0.96,0.59,0.27,-80.22,50.73,132.54,0.08,-0.01,-0.09,0.41,0.34,1.33
1.95,-133.22,85.77,153.9,-0.03,0.27,0.05,0.34,0.48,0.33,-98.26,85.38,193.66,0.04,0.21,-0.0,1.16,0.08,0.15,-151.68,55.08,121.18,0.06,0.16,0.23,0.2,0.28,1.01,-80.15,50.77,132.52,-0.07,0.3,0.29,1.32,0.81,1.1
1.96,-132.61,85.67,154.25,0.17,0.37,0.31,0.76,0.62,0.06,-98.27,85.71,193.58,0.08,0.34,-0.06,0.25,0.57,0.61,-151.19,55.47,121.24,0.08,0.01,0.07,1.03,0.51,1.23,-80.04,51.03,132.52,0.16,0.17,0.37,1.3,0.9,1.27
1.97,-132.38,85.17,154.35,0.05,0.11,0.07,1.18,0.14,0.19,-98.25,85.83,193.64,0.22,0.22,0.02,0.51,1.21,1.52,-151.16,55.35,121.08,0.29,0.1,0.16,0.39,0.35,1.25,-79.89,51.24,132.18,-0.0,0.14,0.31,0.72,0.25,1.74
1.98,-132.3,84.91,154.64,0.07,0.29,-0.06,0.43,-0.03,0.36,-98.25,85.93,193.95,0.05,0.02,0.13,1.11,1.3,0.72,-150.79,55.71,121.74,0.18,0.05,0.27,0.64,1.32,0.89,-79.45,51.33,131.67,0.22,0.18,0.09,0.29,0.93,1.75
1.99,-132.12,84.59,154.63,-0.06,0.4,0.02,0.67,0.23,0.59,-98.37,86.21,194.22,0.11,0.33,0.08,0.71,0.26,0.36,-150.12,55.96,121.79,-0.06,0.33,0.41,0.58,0.74,1.87,-79.12,51.6,131.29,0.26,0.3,-0.06,1.12,1.56,2.11
2.0,-131.99,84.18,154.69,0.28,0.34,0.28,1.05,-0.06,0.61,-98.08,86.5,194.09,0.0,0.33,-0.04,1.03,0.53,0.37,-149.81,56.77,121.84,0.15,0.23,0.43,0.35,0.09,2.15,-79.17,51.69,131.5,0.29,0.3,0.55,0.75,0.27,1.29
2.01,-131.48,83.94,154.98,0.22,0.33,0.1,0.21,0.06,0.63,-97.95,87.0,194.15,0.15,0.13,-0.06,0.83,0.28,1.09,-149.19,57.19,121.61,0.08,0.21,0.34,0.21,0.2,1.58,-79.47,52.31,131.92,0.19,0.21,0.78,0.24,0.14,1.26
2.02,-131.32,83.62,154.63,-0.07,0.15,0.16,0.63,0.11,0.61,-97.79,86.86,194.05,0.16,0.17,0.07,0.81,0.21,0.72,-148.73,57.84,121.94,-0.12,0.37,0.45,0.38,0.26,2.04,-79.68,52.72,132.51,0.0,0.35,0.01,0.45,1.11,1.8
2.03,-131.32,83.41,154.53,0.12,0.21,0.08,0.75,0.13,1.36,-97.65,86.77,194.31,0.14,0.44,0.15,0.46,0.11,0.46,-148.25,58.14,122.21,-0.07,0.23,0.53,0.41,0.04,1.65,-80.18,53.13,132.36,0.23,0.17,0.14,-0.04,0.81,1.78
2.04,-131.3,83.31,153.48,0.33,0.43,-0.09,0.63,0.13,1.11,-97.8,86.99,194.29,0.05,0.41,-0.03,0.5,0.14,0.58,-147.99,58.29,122.12,0.17,0.33,0.41,0.52,0.33,1.8,-80.24,52.95,132.07,0.36,0.24,0.35,0.17,0.8,1.62
2.05,-131.44,82.91,152.32,0.11,0.03,0.03,0.37,0.2,1.03,-97.75,87.47,194.46,0.05,0.51,0.15,0.33,0.19,0.74,-147.67,58.81,121.88,-0.01,0.16,0.5,0.54,0.29,1.51,-80.42,53.15,131.97,0.4,0.11,0.52,0.26,0.73,2.09
2.06,-131.56,82.64,152.33,0.24,0.36,0.06,0.14,0.2,0.83,-97.77,87.8,194.49,0.18,0.21,0.1,0.01,0.69,0.62,-147.13,59.33,122.38,0.01,0.21,0.61,0.1,0.42,1.58,-81.04,52.81,131.47,0.5,0.06,-0.12,0.11,0.35,2.24
2.07,-131.26,82.52,152.82,-0.01,0.23,0.04,0.52,0.39,1.49,-97.92,87.84,194.31,-0.11,0.11,-0.08,0.18,0.34,1.34,-146.7,59.82,122.92,0.01,-0.13,0.57,0.17,1.54,2.14,-81.54,52.82,131.88,0.35,0.33,0.11,0.59,1.3,2.85
2.08,-131.61,82.11,153.21,0.32,0.32,-0.03,0.69,0.21,1.62,-97.99,87.85,194.51,0.03,0.18,-0.02,0.03,0.01,1.17,-146.54,60.0,122.99,0.22,-0.02,0.49,0.11,1.15,1.95,-82.61,52.43,132.84,0.21,0.55,0.32,0.51,0.71,2.22
2.09,-131.96,81.88,153.82,0.17,0.34,0.14,0.49,-0.03,1.08,-98.12,88.03,194.35,0.14,0.07,0.02,0.25,0.16,1.2,-146.48,60.82,123.57,0.35,0.09,0.58,0.62,0.23,2.03,-83.35,51.88,133.72,-0.06,0.38,0.67,1.2,0.77,1.86
2.1,-132.28,81.48,154.29,0.22,0.41,0.11,0.11,0.27,0.11,-98.22,88.1,194.34,0.11,0.06,0.22,0.66,0.95,1.38,-146.27,61.06,124.29,0.31,0.19,0.59,0.35,0.2,1.87,-84.23,51.5,134.81,-0.05,0.29,0.53,1.34,1.36,1.33
2.11,-132.56,81.26,154.71,0.08,0.32,0.18,-0.04,0.39,0.48,-98.18,88.15,194.56,0.22,0.24,-0.14,0.45,0.84,1.06,-145.53,62.22,126.09,0.59,-0.15,0.99,1.41,0.44,1.68,-84.55,51.47,135.57,-0.02,0.14,0.56,1.37,1.53,1.46
2.12,-132.51,80.91,154.0,0.18,0.24,0.26,0.36,0.24,0.77,-98.1,88.28,194.59,0.11,0.07,0.12,0.3,0.07,0.1,-145.48,63.01,126.57,0.29,0.04,0.61,0.86,1.0,1.87,-84.16,51.39,135.57,0.15,0.09,0.01,1.87,1.08,1.65
