0.01,-110.75,79.55,178.16,0.29,0.05,0.09,0.14,0.49,1.46,-101.43,81.09,147.71,0.17,0.56,0.08,0.95,0.1,0.29,-172.0,5.38,10.74,0.06,0.17,0.36,1.11,0.99,0.83,-120.59,2.8,11.77,-0.01,-0.08,0.26,1.12,0.7,2.26
0.02,-110.94,79.43,177.61,0.1,0.05,-0.18,-0.22,0.06,2.31,-101.39,80.45,149.13,0.21,0.65,0.25,0.69,0.56,0.1,-172.47,5.37,10.39,0.04,0.14,0.28,0.74,1.64,1.19,-120.63,2.9,11.69,0.07,0.25,0.23,0.79,0.52,3.63
0.03,-111.63,79.62,177.17,0.31,0.13,0.04,0.11,0.32,2.61,-101.7,79.87,150.3,0.29,0.55,0.22,1.28,0.31,0.4,-172.48,5.23,10.37,0.1,-0.05,0.03,0.89,1.92,1.3,-120.89,3.4,11.77,0.03,0.35,0.21,0.65,0.5,3.84
0.04,-111.8,79.85,176.87,0.33,0.09,-0.01,0.51,-0.13,2.12,-101.54,78.85,152.22,0.47,0.86,0.35,1.04,0.19,0.2,-172.51,5.09,10.11,0.02,0.12,-0.27,0.67,1.8,1.38,-121.16,3.29,11.78,-0.16,0.42,0.1,0.28,0.24,3.86
0.05,-111.76,79.79,176.9,-0.07,0.16,-0.07,0.13,0.22,2.57,-101.63,78.1,154.36,0.09,1.02,0.11,1.89,0.43,0.45,-172.64,5.15,9.96,0.15,0.03,-0.02,0.6,1.67,1.82,-121.22,3.75,11.7,-0.05,0.04,0.22,0.09,0.13,2.99
0.06,-111.55,79.52,177.28,0.16,0.08,0.19,0.04,0.04,2.6,-101.85,76.81,156.79,0.15,1.34,0.11,2.05,0.64,0.42,-172.36,4.96,10.11,0.09,-0.08,0.04,0.65,1.37,2.45,-120.98,4.01,11.73,-0.05,0.17,0.17,0.16,-0.02,2.86
0.07,-111.14,79.57,177.87,0.36,0.15,-0.08,0.62,0.46,2.76,-101.67,75.44,159.43,0.14,1.25,0.24,2.42,1.07,0.12,-172.36,4.95,9.79,0.03,0.02,0.2,0.86,1.23,2.33,-120.73,4.31,11.58,0.22,0.12,0.32,0.72,0.66,2.68
0.08,-110.76,79.49,178.47,0.33,0.08,-0.04,0.85,0.22,2.45,-101.74,73.71,161.78,0.29,1.73,-0.04,3.25,0.73,0.26,-172.19,4.77,9.66,-0.08,0.06,0.16,0.84,0.07,3.41,-120.76,4.49,11.3,0.1,0.15,0.19,0.61,0.72,1.56
0.09,-110.39,79.65,178.55,0.12,0.02,-0.01,1.6,0.22,1.66,-102.05,71.46,164.69,0.36,2.01,-0.07,3.74,0.43,0.49,-172.02,4.87,9.79,0.21,0.01,0.26,0.89,0.1,3.75,-121.06,4.5,11.25,-0.01,0.06,0.25,0.74,0.81,1.44
0.1,-110.29,79.42,179.01,0.01,0.33,0.08,2.86,1.07,1.24,-102.45,69.02,167.28,0.47,2.36,0.0,3.13,0.46,0.2,-172.07,5.05,9.52,0.03,0.01,0.11,0.55,0.26,3.57,-121.58,4.85,11.34,0.22,0.17,0.48,0.71,1.57,0.19
0.11,-110.08,78.56,179.85,-0.03,0.83,0.0,2.91,0.95,1.48,-102.92,66.43,169.42,0.44,2.4,0.18,2.35,0.46,0.41,-171.77,4.75,9.47,0.05,0.14,0.33,0.4,-0.06,3.26,-121.94,5.04,11.55,0.1,0.2,0.34,1.03,0.22,1.02
0.12,-109.98,77.04,179.61,-0.17,1.36,0.12,1.76,0.36,0.36,-103.75,63.7,171.18,0.61,2.5,-0.0,1.05,0.18,0.46,-171.15,4.69,9.51,-0.01,-0.05,0.21,0.13,0.72,2.71,-122.48,5.24,11.51,0.34,0.22,0.34,0.79,0.96,0.56
0.13,-110.01,75.78,179.67,0.16,1.37,0.05,1.2,0.28,0.18,-104.67,60.72,172.94,0.75,2.88,0.22,1.72,0.27,0.13,-171.01,4.57,9.76,0.02,0.08,0.23,0.08,0.92,2.76,-122.99,5.23,11.89,0.24,0.4,0.47,0.58,1.05,0.26
0.14,-111.24,72.72,178.93,0.15,1.04,0.09,0.72,0.42,0.58,-105.88,57.62,174.02,0.84,2.64,-0.02,2.27,0.95,1.18,-170.79,4.55,9.74,0.11,0.06,-0.02,-0.01,1.11,1.52,-123.39,5.76,12.11,0.24,0.54,0.38,0.7,0.92,0.11
0.15,-111.23,71.49,178.45,0.14,1.16,0.16,0.69,0.43,2.22,-106.85,54.71,175.52,0.83,2.72,0.03,0.85,0.65,0.7,-170.9,4.58,9.83,0.16,-0.04,0.15,0.09,2.22,0.77,-123.57,5.63,12.32,0.32,0.14,0.16,1.16,0.8,1.68
0.16,-110.61,68.61,178.45,0.35,1.18,0.13,0.85,0.31,1.0,-107.82,51.77,176.53,0.72,2.56,0.22,0.01,0.79,0.06,-171.28,4.64,10.3,0.22,0.11,0.31,0.21,1.69,0.16,-123.35,6.0,12.56,0.1,0.19,0.77,0.76,0.37,2.64
0.17,-110.25,67.42,178.92,0.28,1.08,0.14,2.53,0.05,0.84,-108.05,50.36,177.07,0.3,2.38,0.18,0.53,0.63,0.93,-171.27,4.6,10.25,0.04,0.03,0.2,0.2,1.97,1.1,-122.58,6.38,12.55,0.11,0.28,0.79,0.69,0.34,2.55
0.18,-110.02,65.75,179.41,0.07,1.65,0.04,1.95,0.27,2.0,-108.84,47.61,177.92,0.07,2.51,0.47,0.48,0.27,1.12,-171.66,4.49,10.34,0.09,0.13,0.69,0.02,1.89,0.9,-122.18,6.91,12.91,0.3,0.23,0.06,0.69,1.31,1.64
0.19,-110.15,64.71,179.33,0.01,1.89,0.23,1.18,0.36,2.06,-109.07,46.47,177.96,0.08,2.4,0.27,0.49,0.08,0.95,-172.25,4.58,10.41,0.16,-0.0,0.48,0.27,1.36,0.52,-122.0,6.92,12.99,0.28,0.36,0.18,0.9,1.0,1.6
0.2,-110.19,63.29,179.36,0.1,2.31,0.0,0.74,0.43,2.27,-109.27,45.25,178.44,0.22,2.35,0.12,0.54,0.14,0.47,-172.25,4.35,10.34,0.06,0.27,0.76,0.45,1.09,0.14,-122.17,7.27,13.23,0.42,0.58,-0.05,0.69,0.42,1.59
0.21,-110.89,60.84,178.9,0.57,2.41,0.07,4.58,0.63,1.6,-112.31,42.69,178.98,0.21,2.16,0.29,1.24,0.15,0.81,-173.09,4.28,10.19,-0.09,0.12,0.44,0.01,0.88,0.24,-122.24,7.63,14.02,0.77,0.51,0.4,0.72,1.19,2.6
0.22,-111.51,58.93,178.47,0.16,1.51,0.14,2.65,0.74,0.5,-112.53,39.97,179.42,0.24,2.23,0.25,0.94,0.5,1.01,-173.33,4.26,10.37,-0.19,0.21,0.12,0.42,0.67,1.24,-122.35,8.2,14.87,0.8,0.64,0.34,0.54,0.67,2.78
0.23,-111.71,58.4,178.38,0.25,0.99,0.24,0.39,0.39,0.82,-112.21,37.49,179.79,0.1,2.15,0.1,0.97,0.56,0.75,-173.5,4.15,10.34,-0.01,0.11,0.3,1.26,0.25,1.93,-122.0,9.0,15.87,0.73,0.71,0.31,0.25,0.0,3.39
0.24,-111.61,57.35,178.21,0.23,1.05,-0.03,1.78,0.79,1.82,-112.3,35.45,179.74,-0.13,1.84,0.21,0.82,0.34,0.75,-173.12,4.19,10.35,0.15,0.09,0.54,0.79,2.33,2.46,-122.28,9.59,16.57,0.71,0.83,0.33,0.45,0.11,2.59
0.25,-111.59,56.02,178.5,0.21,1.15,0.11,0.2,0.42,1.81,-112.0,33.61,179.87,0.18,1.67,0.11,0.34,-0.06,3.0,-172.93,3.89,10.22,0.18,-0.09,0.41,0.37,2.64,1.68,-122.64,10.54,17.27,0.83,0.91,0.31,0.64,1.61,1.17
0.26,-112.12,54.49,178.18,0.34,1.63,0.03,2.06,0.7,1.15,-111.98,31.79,179.62,-0.01,1.6,0.0,0.74,0.77,1.33,-172.7,3.99,9.74,0.3,0.05,0.13,0.37,2.42,0.95,-122.95,11.41,18.41,0.52,1.13,0.15,0.64,2.09,1.28
0.27,-113.06,52.58,177.85,0.36,1.46,0.24,2.61,0.6,0.13,-111.9,29.92,179.45,0.13,1.66,0.17,2.18,0.15,0.89,-172.66,4.07,9.36,0.28,-0.01,0.22,0.12,3.16,2.24,-122.74,12.54,19.27,0.88,0.78,0.1,0.6,1.37,1.63
0.28,-113.92,51.29,177.47,0.02,1.21,0.02,1.02,0.13,0.3,-111.8,28.38,179.6,-0.04,1.56,0.06,2.2,0.27,1.5,-173.23,4.21,9.11,0.33,0.02,0.54,1.11,0.89,2.06,-122.24,13.55,20.13,0.92,0.75,0.38,0.16,0.92,0.98
0.29,-113.96,50.23,177.66,-0.01,0.92,-0.03,0.07,0.81,0.74,-111.82,26.97,179.52,0.19,0.77,0.2,0.96,0.31,1.32,-173.96,4.09,8.83,0.14,0.19,0.59,1.11,0.31,2.27,-122.18,14.48,21.38,0.72,0.93,-0.02,0.54,0.86,0.39
0.3,-114.06,49.43,177.59,0.34,0.83,0.06,0.25,0.62,0.64,-111.61,25.95,179.29,0.13,0.67,0.09,0.1,0.09,1.98,-174.41,4.19,8.4,0.62,-0.01,0.66,0.58,1.4,2.2,-122.61,15.47,22.25,0.78,0.88,0.25,0.5,1.59,1.22
0.31,-114.92,48.69,177.49,0.13,0.66,0.18,1.62,0.2,0.1,-111.46,25.06,179.04,-0.02,0.82,0.09,0.76,0.24,0.83,-174.8,3.74,7.91,0.78,0.09,0.44,0.31,0.38,1.3,-122.47,15.81,23.1,0.58,0.52,0.16,0.42,0.1,0.37
0.32,-114.95,47.74,177.16,-0.02,0.73,0.09,2.52,0.17,0.49,-111.38,24.0,179.09,0.05,1.12,0.02,1.32,0.29,0.37,-175.42,3.93,6.91,0.21,0.17,0.53,0.11,0.63,1.26,-122.23,16.39,23.55,0.59,0.21,0.23,0.06,1.85,2.82
0.33,-115.18,46.91,177.4,0.01,0.61,0.14,1.05,0.64,0.33,-111.34,22.99,179.05,-0.02,0.63,0.01,1.21,0.17,0.35,-176.08,3.71,6.75,0.27,0.36,0.46,0.48,0.71,1.8,-121.59,16.57,24.24,0.5,0.31,0.04,0.28,2.19,3.89
0.34,-115.34,46.25,177.46,-0.0,0.44,0.03,0.52,0.71,0.31,-111.18,22.68,178.93,-0.07,0.4,0.02,0.31,0.32,1.0,-176.67,3.63,6.47,0.25,0.12,0.54,1.15,1.98,1.57,-122.02,16.96,24.98,0.4,0.53,0.29,-0.06,0.43,2.88
0.35,-115.38,46.01,177.03,0.05,0.32,0.23,0.77,0.6,0.6,-111.18,21.8,179.01,-0.1,0.57,0.08,0.44,0.42,1.22,-177.44,3.68,6.17,0.14,0.06,0.72,0.46,1.96,0.19,-122.35,17.57,25.89,0.59,0.65,0.29,0.45,1.28,2.05
0.36,-115.74,45.58,176.91,0.1,0.07,0.24,0.23,0.06,0.6,-111.07,21.29,178.89,-0.11,0.64,0.06,0.31,0.89,1.96,-177.42,3.83,6.2,0.23,-0.0,0.2,0.39,1.98,0.07,-122.48,18.06,26.19,0.46,0.21,0.24,0.64,0.31,0.85
0.37,-116.71,45.19,176.5,0.19,0.59,0.24,0.95,0.3,0.33,-111.02,20.8,179.06,0.17,0.7,0.11,0.66,0.13,1.11,-177.83,3.86,6.05,-0.0,0.3,0.28,0.32,1.38,0.13,-121.85,18.55,26.91,0.66,0.2,0.17,0.12,0.49,0.74
0.38,-116.51,44.81,176.53,0.14,0.52,-0.02,1.0,0.37,0.5,-110.86,20.52,178.89,0.08,0.4,0.15,0.62,0.15,0.72,-177.56,4.0,6.4,0.07,-0.07,-0.07,0.16,0.93,0.42,-122.12,18.66,27.23,0.53,0.37,0.17,-0.07,1.43,0.8
0.39,-116.7,44.49,176.53,-0.04,0.62,0.06,1.24,0.24,0.28,-110.79,20.28,178.99,-0.12,0.67,0.08,0.85,0.37,0.15,-177.6,3.91,6.08,0.18,-0.16,0.34,0.16,0.54,0.42,-122.02,18.72,27.56,0.47,-0.0,0.3,0.19,2.57,0.91
0.4,-116.92,44.05,176.4,-0.05,0.13,0.2,1.25,0.48,1.28,-111.06,19.77,178.87,0.05,0.26,0.04,0.41,0.57,0.06,-177.4,4.3,6.5,0.13,0.56,-0.04,0.48,3.18,1.77,-122.3,18.74,28.29,0.55,0.34,0.27,0.52,0.54,1.41
0.41,-116.79,43.59,176.43,-0.0,0.14,0.07,0.81,-0.13,0.47,-110.91,19.51,178.8,0.0,0.09,-0.12,0.18,-0.11,1.13,-177.35,4.74,6.34,0.18,0.44,0.11,0.53,2.38,1.86,-122.45,19.01,29.25,0.36,0.37,0.18,0.38,0.39,0.85
0.42,-117.01,43.51,176.52,-0.18,0.11,0.03,0.37,0.36,0.11,-110.55,19.6,178.72,0.11,0.04,0.24,0.02,0.66,1.33,-177.67,5.21,5.95,0.48,0.12,0.21,0.27,1.11,1.77,-122.88,19.34,29.97,0.4,0.42,0.35,0.84,1.47,0.52
0.43,-117.24,43.61,176.56,-0.03,0.14,-0.07,1.01,0.21,0.02,-110.52,19.56,179.12,0.16,0.13,0.1,0.25,0.25,0.88,-177.91,5.02,5.38,0.5,-0.12,0.26,0.21,0.37,1.57,-123.73,19.43,30.45,0.24,0.49,0.32,1.09,1.46,1.18
0.44,-117.39,43.68,176.6,0.06,0.02,0.18,1.59,0.32,0.78,-110.2,19.8,178.72,0.04,0.03,0.2,0.19,0.2,0.75,-178.18,4.8,5.18,0.25,-0.03,0.17,0.94,0.43,1.15,-123.89,19.56,31.07,0.29,0.31,0.38,0.91,0.73,1.0
0.45,-117.75,44.29,177.2,0.24,0.62,-0.06,0.5,0.08,0.17,-109.9,19.67,179.39,0.13,0.03,0.09,0.27,-0.09,0.4,-178.12,5.14,4.7,0.36,0.2,-0.08,1.36,0.98,0.51,-124.22,19.79,31.81,0.25,0.17,0.29,0.93,1.49,2.02
0.46,-117.85,44.84,177.53,0.21,0.54,0.01,0.48,0.11,0.25,-109.86,19.63,179.55,-0.04,-0.06,0.26,0.63,0.55,0.63,-177.82,5.09,4.38,0.13,0.17,0.29,0.86,0.22,0.88,-124.55,20.11,32.46,0.37,0.39,0.36,0.79,2.53,2.85
0.47,-122.3,45.34,177.56,-0.2,0.22,0.19,1.99,-0.12,0.24,-109.67,19.52,179.74,0.09,0.23,-0.03,0.56,0.28,0.66,-177.37,5.42,4.21,0.4,0.14,0.27,0.87,0.1,1.08,-124.64,20.19,32.78,0.68,0.41,-0.01,1.31,1.34,3.25
0.48,-122.45,45.57,178.05,0.15,0.6,0.4,1.65,0.27,0.53,-109.6,19.7,179.78,0.21,0.2,0.08,0.05,0.25,1.14,-177.39,5.75,3.91,0.23,0.1,0.13,-0.01,0.02,1.48,-124.57,21.03,33.96,0.67,0.73,-0.03,1.88,1.66,2.35
0.49,-121.75,46.13,178.44,0.3,0.57,0.1,0.54,0.69,0.72,-109.65,19.95,179.57,0.22,0.14,0.17,0.55,0.34,0.97,-177.53,6.12,3.55,-0.01,0.27,0.33,0.26,0.39,1.9,-124.7,21.55,34.62,0.87,0.73,-0.03,1.66,2.41,2.74
0.5,-121.53,46.89,178.54,0.16,0.46,-0.02,0.73,0.07,0.5,-109.51,20.03,179.67,0.24,0.22,0.16,1.04,0.37,0.57,-178.37,5.82,3.78,0.07,0.09,0.61,0.22,0.45,1.97,-124.3,23.03,36.52,0.57,0.72,0.4,1.4,2.13,1.26
0.51,-121.62,47.4,178.64,-0.03,0.39,0.11,1.69,0.07,0.18,-109.39,20.03,179.69,0.09,-0.04,-0.05,0.87,0.19,0.93,-178.87,6.09,3.68,-0.18,0.05,0.49,0.3,0.17,1.92,-123.98,23.86,37.63,0.9,0.7,0.14,1.51,2.04,1.58
0.52,-121.22,47.77,178.56,0.29,0.34,0.02,1.58,0.39,0.73,-109.48,20.19,179.45,0.19,0.08,0.02,0.76,0.26,2.23,-179.09,6.14,3.6,0.14,0.08,0.42,0.17,0.2,2.35,-123.87,24.62,38.9,1.19,1.03,0.22,1.17,1.4,1.41
0.53,-120.76,48.13,178.91,0.16,0.53,0.11,1.24,0.44,0.82,-109.6,20.31,179.52,-0.02,0.36,0.16,0.46,0.25,1.84,-179.48,6.14,3.37,0.12,0.11,0.15,0.16,0.47,2.6,-123.44,25.79,39.98,1.02,0.79,0.63,1.54,2.02,0.72
0.54,-120.48,48.7,178.8,0.04,0.49,0.07,1.22,0.21,0.22,-109.68,20.69,179.66,0.12,0.18,-0.02,0.78,0.43,1.5,-179.61,6.23,3.27,0.31,0.18,0.21,0.18,0.3,2.35,-123.08,26.65,41.19,0.82,0.88,0.67,1.54,1.37,0.04
0.55,-120.56,49.25,178.93,0.09,0.55,0.03,1.29,0.09,0.22,-109.78,20.84,179.82,-0.07,0.08,-0.12,1.49,0.63,1.02,-179.46,6.59,2.85,0.09,0.11,0.02,0.28,0.52,2.8,-122.45,27.71,42.35,0.9,0.79,0.51,1.43,1.11,0.86
0.56,-120.2,49.68,179.22,0.48,0.58,-0.0,1.49,0.36,0.57,-109.7,21.14,179.73,0.26,0.38,0.16,1.03,0.33,1.23,-179.64,6.64,2.77,0.3,0.06,-0.12,0.03,0.93,3.03,-122.26,28.23,42.92,1.0,0.72,0.75,1.68,4.72,1.07
0.57,-119.97,50.22,179.46,0.27,0.68,-0.04,1.11,0.32,0.35,-109.65,21.32,179.89,0.15,0.44,0.1,0.92,0.28,1.28,-179.75,6.66,2.55,0.1,-0.02,0.27,0.39,0.86,2.85,-121.63,28.98,43.59,0.8,0.84,0.84,0.68,4.59,0.5
0.58,-119.87,50.37,179.43,0.4,0.48,-0.06,0.94,0.48,-0.2,-109.71,21.68,179.94,0.27,0.58,0.01,0.63,0.29,1.26,-179.8,6.53,2.29,0.06,-0.19,0.25,0.23,1.14,2.69,-121.21,29.47,44.08,1.1,0.87,1.02,-0.1,4.12,0.09
0.59,-119.24,51.15,179.47,0.1,0.64,0.05,0.96,0.11,0.44,-109.71,21.93,179.75,-0.07,0.52,0.0,1.0,0.16,1.12,-179.95,6.54,2.25,-0.11,0.24,-0.11,0.65,0.5,1.94,-120.28,31.12,45.31,0.94,0.84,0.59,1.49,1.38,2.07
0.6,-118.92,51.64,179.75,0.17,0.47,-0.03,1.45,0.26,0.23,-109.66,22.45,179.69,-0.07,0.61,-0.16,0.78,-0.05,1.66,-179.94,6.66,2.25,0.14,0.2,-0.03,0.57,-0.11,1.74,-119.23,32.46,46.37,0.97,1.14,0.5,1.3,1.31,0.35
0.61,-118.73,52.67,179.87,0.22,0.7,0.11,1.04,0.47,0.24,-109.52,22.77,179.61,0.12,0.29,0.27,0.91,0.54,1.79,-180.0,6.73,1.93,0.02,0.13,0.37,0.09,0.88,2.03,-118.61,33.85,48.01,0.98,1.04,0.62,0.51,0.95,0.49
0.62,-118.41,53.61,179.89,-0.1,0.69,0.09,1.0,0.17,0.17,-109.61,23.48,179.59,0.09,0.61,-0.05,0.85,-0.07,1.47,-179.92,6.88,1.64,0.02,0.16,0.03,0.22,0.72,1.92,-118.07,35.15,49.19,0.81,1.11,0.44,1.01,2.11,0.22
0.63,-118.49,55.42,179.71,0.07,0.79,-0.08,1.06,0.36,0.38,-109.49,23.96,179.62,-0.06,0.38,0.17,1.02,-0.08,1.1,-180.26,6.67,2.07,0.02,0.26,0.09,0.36,0.47,1.4,-117.53,36.43,50.73,0.98,1.24,0.99,0.18,0.61,0.49
0.64,-118.07,56.7,179.3,0.21,1.11,0.16,0.42,0.55,0.19,-109.49,24.57,179.57,0.07,0.45,0.01,1.2,0.12,0.78,-180.39,6.34,2.37,0.08,0.3,0.13,0.34,1.54,1.19,-116.89,37.96,52.4,0.95,1.38,0.76,1.16,0.69,0.08
0.65,-117.38,59.38,178.82,0.04,0.93,-0.01,0.36,0.05,0.51,-109.54,25.25,179.67,0.05,0.51,-0.14,1.04,0.23,1.13,-180.38,5.96,3.01,0.27,0.37,0.32,0.66,0.82,1.0,-116.56,39.24,53.94,1.0,1.15,0.58,0.2,0.33,1.07
0.66,-117.16,60.44,178.5,0.15,1.03,0.22,-0.11,0.03,0.87,-109.54,25.78,179.37,0.12,0.6,0.09,0.65,0.24,1.09,-179.8,5.37,4.21,0.6,0.32,0.21,0.62,1.6,0.59,-116.48,40.45,55.65,0.76,1.36,0.38,1.12,1.28,0.2
0.67,-117.01,61.56,178.28,0.22,1.1,0.05,0.12,-0.1,1.17,-109.6,26.81,179.47,-0.11,0.77,-0.05,1.2,0.36,1.25,-179.83,4.61,5.17,0.7,0.43,0.16,0.59,0.19,0.34,-116.42,41.61,57.48,0.78,1.53,0.22,1.2,-0.07,0.5
0.68,-116.8,63.0,177.69,0.27,1.15,-0.0,-0.01,0.29,0.55,-109.63,28.27,179.54,0.0,0.76,0.12,0.46,0.04,0.11,-179.76,4.22,5.74,0.82,0.22,0.17,1.11,1.26,0.19,-116.2,43.04,59.69,0.98,1.63,0.29,1.27,0.37,0.42
0.69,-116.26,64.15,177.41,0.06,1.14,-0.1,-0.08,0.18,0.53,-109.76,29.38,179.37,0.15,1.15,0.05,0.41,0.25,0.72,-179.83,4.13,7.05,1.03,0.29,-0.0,0.66,0.1,0.15,-116.41,44.0,62.02,0.92,1.34,0.26,1.29,0.18,1.05
0.7,-116.12,65.29,177.16,0.23,1.14,-0.02,-0.08,-0.17,0.72,-109.84,31.95,179.39,0.13,1.15,-0.01,0.55,0.23,0.08,-179.91,3.77,8.38,1.01,0.28,0.19,1.21,0.77,1.27,-116.17,45.08,64.49,1.11,1.75,0.23,0.68,0.18,0.72
0.71,-116.01,66.51,176.87,0.01,1.05,-0.13,0.03,0.23,0.68,-110.13,33.22,179.21,0.29,1.25,0.09,0.27,0.03,-0.13,-180.0,3.21,9.47,0.94,0.21,0.15,1.24,0.49,0.91,-116.07,46.31,66.9,1.08,1.46,0.34,0.06,0.09,0.13
0.72,-116.0,67.3,176.57,0.22,1.16,-0.05,0.08,-0.06,0.85,-110.16,34.94,178.82,0.06,1.23,0.08,0.42,0.44,0.3,-180.58,3.0,10.78,1.09,0.31,0.4,1.39,0.0,0.9,-115.58,47.63,69.78,1.19,1.66,0.67,0.06,0.55,1.15
0.73,-115.9,68.32,176.52,-0.02,1.01,0.06,0.84,0.56,0.57,-110.17,36.27,178.46,0.07,1.45,0.2,0.73,0.4,0.05,-180.65,2.67,11.96,1.27,0.32,0.28,0.42,0.72,0.88,-115.26,48.85,72.91,1.3,1.7,0.42,0.62,0.53,0.42
0.74,-115.75,69.43,176.2,0.01,1.19,0.07,0.71,0.41,1.07,-110.15,37.9,178.37,0.11,1.41,0.04,0.28,0.26,0.33,-181.32,2.94,13.6,1.17,-0.13,0.23,0.51,0.2,1.68,-114.77,49.75,76.33,1.46,1.72,0.72,0.33,0.05,0.8
0.75,-115.55,70.22,176.13,0.15,0.81,0.18,0.11,0.18,0.33,-110.09,39.79,178.07,0.24,1.57,-0.0,0.42,0.13,0.92,-181.9,2.87,14.63,1.19,-0.03,0.35,0.63,0.04,1.3,-114.0,50.92,79.72,1.27,1.82,0.62,0.52,0.78,1.08
0.76,-115.61,71.3,175.85,0.05,0.71,0.01,0.32,0.25,0.39,-110.12,40.44,177.82,0.2,1.65,0.01,0.67,0.02,1.02,-182.14,2.91,15.17,1.22,0.18,0.16,0.69,0.23,1.16,-113.49,51.44,81.32,1.29,1.67,0.75,0.37,0.84,1.16
0.77,-115.51,72.18,175.71,0.14,0.83,-0.2,0.47,0.05,0.18,-110.09,41.36,177.62,0.4,1.31,0.31,0.61,-0.05,1.16,-181.96,2.85,15.87,1.23,0.15,0.2,0.76,0.3,0.78,-113.07,52.11,83.1,1.51,1.56,0.55,0.12,0.84,1.35
0.78,-115.5,72.92,175.38,0.04,0.72,-0.09,0.59,-0.01,0.18,-110.31,43.0,176.98,0.13,1.63,0.17,0.13,0.51,0.64,-182.34,2.9,17.32,1.45,0.11,0.31,1.03,0.4,0.09,-112.67,52.45,84.85,1.28,1.65,0.85,1.16,0.78,0.94
0.79,-115.27,73.8,175.21,0.0,0.89,0.03,0.47,0.26,0.44,-110.42,44.28,176.8,0.08,1.41,0.21,0.22,0.2,0.06,-182.57,2.51,18.79,1.32,0.21,0.1,0.84,0.38,0.37,-110.66,53.94,84.73,1.39,1.59,0.98,0.13,1.54,1.06
0.8,-115.15,74.91,175.32,0.29,0.91,0.1,0.91,0.19,0.2,-110.31,45.99,176.34,0.21,1.38,0.13,-0.01,-0.07,0.65,-182.88,2.43,20.38,1.37,0.29,0.22,1.15,0.39,0.3,-109.1,55.09,89.19,1.42,1.7,1.05,1.15,1.35,0.32
0.81,-115.13,75.79,175.07,0.2,0.73,0.28,0.25,0.45,0.16,-109.88,47.77,175.94,0.37,1.32,-0.17,0.4,0.2,0.41,-183.22,1.95,21.9,1.52,0.36,0.07,0.94,0.75,0.1,-108.15,55.56,93.63,1.37,1.86,0.61,1.14,0.39,1.1
0.82,-114.93,76.48,175.14,0.16,0.78,0.04,0.05,0.74,0.5,-109.46,49.24,175.37,0.1,1.52,-0.12,0.52,0.25,0.3,-183.28,1.48,23.8,1.52,0.55,0.29,0.88,0.6,0.33,-105.85,56.93,102.32,1.24,1.66,0.81,1.93,0.4,1.69
0.83,-115.24,77.19,175.49,0.23,0.76,-0.1,0.5,0.34,0.21,-109.0,50.6,175.12,0.22,1.52,-0.06,0.74,0.59,0.09,-183.05,0.86,25.06,1.32,0.32,0.26,0.01,0.13,0.8,-104.85,57.19,106.44,0.94,1.62,1.0,0.81,1.44,1.12
0.84,-115.24,78.49,176.08,0.04,0.49,0.14,0.3,0.38,0.08,-108.55,52.19,174.65,0.18,1.36,-0.19,0.57,0.43,-0.01,-182.83,0.23,26.45,1.41,0.55,0.61,0.2,0.57,1.3,-104.12,57.47,110.34,0.8,1.66,1.16,1.43,0.63,0.29
0.85,-114.82,79.13,175.84,0.4,0.63,0.16,-0.15,-0.24,0.89,-108.18,53.81,173.93,0.18,1.32,0.09,0.7,0.13,0.58,-182.46,0.44,28.23,1.33,0.62,0.46,0.66,0.49,1.45,-103.06,57.51,114.08,0.76,1.18,0.75,1.23,1.28,0.73
0.86,-113.71,80.21,174.48,0.38,0.6,-0.03,1.29,0.33,0.9,-108.3,55.36,173.76,0.1,1.58,0.08,0.72,0.36,0.43,-181.99,1.56,29.91,1.7,0.65,0.67,0.27,0.18,0.19,-101.92,57.34,117.31,0.74,1.13,0.68,1.25,0.85,2.66
0.87,-113.48,80.63,173.88,-0.03,0.38,0.11,1.27,0.16,0.4,-108.3,56.99,173.35,0.05,1.27,-0.05,0.84,0.6,0.16,-182.06,3.0,33.86,2.07,0.86,0.03,1.03,1.68,1.67,-101.28,57.33,119.86,0.7,1.1,0.44,1.31,0.19,2.19
0.88,-113.63,81.28,174.33,0.1,0.36,0.17,1.03,0.03,0.23,-108.26,57.58,173.22,0.13,1.39,-0.07,0.86,0.85,0.13,-182.38,3.8,36.23,2.04,0.76,0.05,0.61,1.27,1.41,-100.17,57.06,122.52,0.79,0.94,0.63,1.23,0.46,0.69
0.89,-113.79,81.52,175.34,-0.01,0.28,0.14,0.36,0.39,0.43,-108.32,59.09,172.61,0.38,1.28,-0.02,0.84,0.59,0.5,-182.34,4.59,38.92,2.21,0.85,0.17,0.35,0.37,0.49,-98.63,57.23,125.7,0.62,0.82,0.96,0.73,0.15,0.84
0.9,-114.0,81.67,175.88,0.02,0.08,0.25,0.26,0.67,0.01,-107.7,62.14,171.27,0.26,1.26,0.03,0.45,0.46,-0.03,-182.17,5.09,41.47,2.49,0.64,-0.17,0.5,0.77,0.6,-98.01,57.25,128.74,0.44,0.76,0.99,0.7,0.59,0.8
0.91,-113.62,81.63,175.66,0.29,0.42,0.21,0.86,0.33,0.76,-107.55,63.73,170.55,0.29,1.39,0.09,0.53,0.06,0.39,-182.78,5.87,44.15,2.15,0.81,0.09,0.24,0.23,0.56,-95.99,57.02,132.69,1.02,0.65,0.62,0.88,0.11,0.96
0.92,-113.12,81.72,176.75,0.1,0.14,0.31,0.3,0.86,0.56,-107.16,66.88,168.65,0.34,1.69,-0.1,1.11,-0.01,0.67,-182.55,6.67,46.3,2.02,0.53,0.27,0.52,1.55,0.52,-94.91,56.81,135.27,0.54,0.88,0.74,0.81,0.99,0.35
0.93,-113.39,81.84,178.3,0.31,0.32,0.2,0.41,0.58,0.18,-106.7,68.3,167.29,0.4,1.5,-0.03,1.28,0.19,0.6,-182.4,7.27,48.34,1.8,0.72,0.37,0.83,1.45,-0.05,-93.17,56.55,139.83,0.55,0.45,0.76,0.74,0.7,0.82
0.94,-113.04,81.9,179.03,0.42,0.09,0.02,0.06,0.21,0.71,-106.15,69.75,165.99,0.29,1.41,0.05,1.29,0.52,0.79,-182.37,7.71,49.41,1.86,0.78,0.66,0.24,0.67,0.21,-91.84,56.36,141.82,0.33,0.48,0.89,0.81,2.1,0.17
0.95,-112.76,82.2,178.97,0.39,0.15,0.16,0.08,0.13,0.64,-106.03,70.48,165.51,0.21,1.21,0.16,1.0,0.38,0.95,-181.9,8.36,50.4,1.72,0.64,0.61,0.54,0.65,0.23,-91.58,56.19,142.53,0.19,0.43,0.89,1.4,1.69,0.23
0.96,-112.34,82.26,178.67,0.38,0.14,-0.01,0.12,0.34,0.5,-105.96,71.26,165.12,0.26,1.03,-0.2,0.99,0.18,1.24,-181.54,8.76,51.29,1.78,0.62,0.61,0.63,0.89,0.21,-91.43,56.11,143.09,0.07,0.54,0.61,1.83,1.47,0.42
0.97,-112.31,82.19,179.28,0.28,0.29,0.11,0.04,0.37,0.43,-105.75,72.27,164.02,0.31,1.23,0.14,1.51,0.16,0.44,-181.2,10.33,55.44,1.88,0.9,0.43,0.59,1.41,0.53,-91.01,56.33,144.41,-0.15,0.41,0.59,1.83,0.77,0.35
0.98,-112.3,82.4,179.33,-0.13,0.08,0.25,0.45,1.02,0.16,-105.43,73.44,162.58,0.47,1.22,0.02,1.29,0.58,0.16,-180.87,11.56,57.71,1.94,0.73,0.52,0.44,0.56,-0.02,-90.71,56.33,145.63,-0.08,0.09,0.47,1.51,0.86,0.27
0.99,-112.2,82.32,178.11,0.26,0.04,0.11,0.16,0.48,0.74,-105.44,74.79,161.15,0.35,1.17,-0.02,0.77,0.37,0.29,-180.14,13.29,62.07,1.89,0.6,0.38,0.19,0.64,0.42,-90.89,56.07,146.29,0.11,0.12,0.55,1.4,0.5,1.12
1.0,-112.1,82.47,177.05,0.45,0.07,0.03,0.05,0.04,0.44,-104.89,75.65,159.38,0.18,0.73,-0.0,0.49,0.52,0.34,-179.91,14.01,64.19,2.06,0.81,0.5,-0.12,0.57,0.65,-90.84,56.25,146.79,0.23,0.28,0.27,1.47,0.01,1.39
1.01,-111.85,82.26,176.18,0.2,0.29,0.1,0.67,0.23,-0.0,-104.87,76.35,157.54,0.14,0.95,-0.03,1.07,1.18,0.32,-179.63,14.63,66.62,2.03,0.61,0.66,0.28,0.32,0.42,-90.81,56.5,147.4,0.04,0.41,0.21,1.54,0.32,1.38
1.02,-111.98,82.23,174.91,0.09,0.13,0.33,0.28,1.22,0.24,-105.2,77.53,156.22,-0.06,0.93,0.08,0.98,0.84,0.42,-178.96,15.63,68.61,1.92,0.59,0.75,0.09,1.19,0.21,-91.01,56.81,147.94,0.3,0.18,0.47,1.46,0.48,1.11
1.03,-112.2,82.17,173.4,0.12,0.18,0.24,0.12,1.29,0.36,-105.15,78.37,154.35,0.03,0.71,0.02,0.22,-0.08,0.28,-178.28,16.33,70.7,1.63,0.45,0.8,0.63,-0.02,1.0,-90.86,57.05,148.47,0.23,0.15,0.37,1.36,0.65,1.18
1.04,-112.42,81.79,171.68,-0.0,0.15,0.15,0.44,0.21,0.22,-105.22,78.86,153.05,0.12,0.72,0.05,0.16,0.38,0.1,-177.64,17.42,72.61,1.66,0.31,0.77,0.35,1.63,0.34,-91.14,57.08,148.92,0.24,0.18,0.39,1.08,0.93,0.94
1.05,-112.49,81.42,170.09,0.09,0.17,0.27,0.54,0.14,0.01,-105.19,79.83,151.62,0.16,0.67,0.05,-0.04,-0.15,-0.01,-176.81,18.27,74.2,1.63,0.41,0.66,0.19,2.08,0.05,-91.28,57.3,149.58,0.34,0.42,-0.03,1.26,0.49,0.77
1.06,-112.28,81.12,167.16,0.51,0.08,0.29,0.25,0.05,0.17,-105.03,80.28,149.75,0.19,0.49,-0.01,0.25,0.77,0.07,-176.49,18.84,75.93,1.24,0.6,0.42,0.03,0.8,0.17,-91.76,58.18,148.94,0.5,0.53,0.21,2.14,0.89,1.07
1.07,-112.26,80.91,166.23,0.28,0.15,0.09,0.99,0.77,0.66,-104.8,81.32,145.26,0.2,0.55,-0.09,0.24,0.54,0.7,-176.11,19.53,77.49,1.37,0.53,0.34,0.23,-0.13,0.15,-92.27,58.92,148.21,0.4,0.58,0.5,3.2,1.15,1.28
1.08,-111.91,81.01,165.8,0.14,0.02,0.34,1.08,0.84,0.84,-104.65,81.64,143.37,0.33,0.29,0.17,0.21,0.53,1.1,-175.64,20.3,79.02,1.09,0.43,0.6,0.7,0.82,0.12,-92.49,59.59,147.67,0.78,0.61,0.08,3.12,1.49,2.24
1.09,-111.79,80.92,165.66,0.3,0.16,0.0,0.15,0.06,0.27,-104.63,82.46,140.74,0.04,0.24,-0.05,-0.02,0.84,0.22,-175.41,21.1,80.79,1.22,0.53,0.28,1.5,0.09,0.28,-92.98,60.44,146.93,0.63,0.59,0.33,3.06,1.78,3.04
1.1,-111.05,80.75,166.63,0.46,0.31,0.19,0.39,0.19,-0.03,-104.53,82.76,138.91,-0.0,0.28,0.02,0.69,0.76,0.59,-174.52,21.74,82.41,1.2,0.35,0.63,0.81,0.05,0.52,-93.54,61.17,146.27,0.57,0.42,0.2,3.02,1.9,3.84
1.11,-110.59,80.52,168.39,0.53,-0.09,0.18,0.7,0.71,0.22,-104.74,83.26,139.05,-0.03,0.26,0.0,0.53,0.5,0.29,-174.39,22.24,84.13,1.31,0.7,0.33,0.16,0.24,0.03,-93.82,61.81,145.8,0.52,0.45,-0.08,3.01,2.47,4.74
1.12,-109.65,80.65,169.75,0.3,-0.02,0.18,1.41,1.16,0.27,-104.53,83.72,138.97,0.32,0.29,-0.0,0.43,0.51,0.24,-173.94,22.68,85.89,1.48,0.76,0.43,0.2,1.04,0.58,-92.07,62.11,148.23,0.67,0.9,1.09,0.14,0.74,10.31
1.13,-108.85,80.61,171.61,0.3,0.01,0.01,-0.02,0.44,0.54,-104.61,83.81,139.26,0.08,0.11,0.13,0.23,0.65,0.26,-173.3,23.16,87.68,1.32,0.47,0.46,0.41,1.07,-0.13,-90.87,61.97,150.69,0.15,0.38,0.21,0.12,5.45,6.82
1.14,-108.7,80.57,172.1,0.26,0.05,0.07,0.46,0.2,0.31,-104.43,83.97,139.26,0.1,0.21,0.05,0.31,0.53,0.61,-173.22,23.47,88.11,1.33,0.24,0.7,0.17,1.6,0.33,-90.85,62.04,150.6,-0.11,0.46,0.4,0.71,3.74,4.05
1.15,-108.36,80.67,172.6,0.4,0.12,0.03,0.91,0.4,-0.04,-104.47,83.97,139.36,0.28,0.18,0.24,0.53,0.57,0.78,-172.74,23.84,88.44,1.12,0.25,1.01,0.02,2.11,0.91,-90.59,62.13,150.39,0.08,0.21,0.54,1.56,2.12,1.75
1.16,-108.16,80.78,173.77,0.14,0.13,0.15,0.56,0.17,-0.11,-104.36,84.39,139.26,0.04,0.28,0.14,0.35,0.75,0.25,-171.74,24.55,89.97,1.08,0.51,0.85,0.94,0.52,0.98,-90.16,62.19,151.42,0.27,0.27,0.5,2.05,3.15,3.6
1.17,-107.94,80.72,174.36,-0.07,0.03,0.12,0.7,0.09,0.86,-104.22,84.53,139.68,0.12,0.1,0.13,0.24,0.81,0.26,-171.16,25.22,91.52,1.12,0.27,0.78,1.63,0.37,0.52,-89.62,62.28,152.1,0.09,0.1,-0.07,1.56,3.56,1.38
1.18,-108.26,80.91,173.94,0.4,0.36,0.02,0.15,0.27,0.96,-104.33,85.15,139.7,0.24,0.22,0.16,0.35,0.6,0.49,-167.74,27.3,93.49,0.72,0.72,0.94,0.71,6.95,6.46,-90.19,62.18,151.81,0.28,0.11,0.08,1.48,1.46,0.78
1.19,-108.55,81.26,173.65,0.32,0.36,0.32,0.6,1.53,0.43,-104.31,85.41,139.81,0.31,0.48,0.11,0.31,0.69,0.47,-166.97,28.0,93.76,-0.08,0.66,0.51,0.71,3.18,0.04,-91.07,62.24,151.2,0.39,0.1,0.14,1.39,0.68,0.85
1.2,-108.23,81.34,173.48,0.02,0.07,0.12,0.34,2.09,0.81,-104.18,85.77,140.11,0.3,0.3,0.12,1.09,0.16,0.38,-167.97,27.65,95.13,1.12,0.4,0.02,0.39,5.26,1.2,-90.99,62.73,150.75,0.15,0.54,-0.04,1.93,0.52,0.07
1.21,-107.87,81.22,173.92,0.28,0.23,0.18,-0.02,1.28,1.02,-103.79,86.32,140.38,0.31,0.47,0.12,0.55,1.04,0.2,-167.8,27.92,96.49,1.03,0.05,0.57,1.85,1.37,2.82,-91.42,63.15,150.23,0.44,0.51,0.31,2.45,0.48,0.46
1.22,-107.41,81.38,174.17,0.53,-0.05,0.13,0.39,0.42,0.29,-103.9,86.51,140.69,0.45,0.36,-0.03,1.24,1.04,0.88,-165.41,29.46,97.29,0.32,0.64,1.41,1.76,1.36,-0.04,-91.58,64.21,149.89,0.46,0.74,0.07,2.69,0.6,0.39
1.23,-106.98,81.44,174.01,0.19,0.03,0.13,0.48,0.34,0.24,-104.44,86.61,140.57,0.15,0.27,0.14,0.81,1.28,0.73,-163.13,30.71,97.81,0.55,0.25,1.29,0.24,2.63,1.73,-91.8,64.73,148.65,0.27,0.87,0.07,2.98,1.26,0.83
1.24,-106.74,81.52,173.29,0.17,0.08,-0.05,0.31,0.82,0.6,-104.48,86.68,140.49,0.04,0.03,0.08,0.28,1.36,0.23,-161.34,32.14,97.83,0.29,0.75,0.84,0.9,1.2,3.11,-91.82,65.8,148.28,0.18,0.81,0.56,2.38,0.28,0.07
1.25,-106.4,81.81,172.77,0.45,0.13,0.12,0.12,0.72,1.22,-104.51,86.86,140.51,0.33,0.29,0.1,-0.04,0.58,1.06,-160.04,32.8,97.8,0.39,0.51,0.11,0.39,2.41,0.99,-91.54,66.88,148.37,0.35,0.67,0.55,2.99,1.69,0.18
1.26,-106.46,82.09,171.93,0.03,0.23,-0.03,0.22,0.2,0.79,-104.24,86.96,140.53,0.26,0.07,0.06,0.06,0.26,1.65,-159.86,32.81,98.21,0.55,0.11,0.35,0.58,1.41,0.49,-92.03,67.55,146.74,0.26,0.95,0.29,3.32,1.28,-0.06
1.27,-106.57,82.18,170.8,-0.13,0.41,0.07,0.19,0.06,0.39,-104.29,87.06,140.81,0.3,0.17,0.18,0.32,0.39,0.68,-159.49,33.0,99.07,0.6,0.24,0.21,0.83,0.66,1.2,-92.98,68.56,144.58,0.45,1.06,0.47,0.71,-0.05,0.48
1.28,-106.69,82.35,169.35,0.13,0.22,0.12,0.31,0.21,0.68,-104.36,87.63,141.0,-0.0,0.03,0.08,0.6,0.95,1.39,-158.8,33.48,99.69,0.5,0.35,0.38,1.46,0.85,1.01,-92.82,69.21,143.79,0.45,0.73,0.21,2.72,1.31,0.45
1.29,-106.84,82.2,169.2,0.22,0.05,0.11,0.39,0.19,0.46,-104.61,87.73,141.45,0.09,0.41,0.16,0.97,0.38,1.17,-157.96,34.31,100.06,0.22,0.12,0.69,1.41,0.65,0.11,-93.0,69.53,143.62,0.33,0.09,0.29,0.53,0.45,1.06
1.3,-106.87,82.38,169.39,-0.11,0.11,-0.11,0.6,-0.01,0.45,-104.81,87.96,141.39,0.1,0.1,0.19,0.94,1.23,1.34,-156.96,35.17,100.56,0.26,0.15,0.74,1.5,1.05,0.66,-93.38,69.5,142.32,-0.05,0.11,0.61,2.25,3.19,1.08
1.31,-106.72,82.09,169.29,-0.05,0.02,0.13,0.4,0.1,1.05,-105.1,87.82,141.24,-0.13,0.14,-0.08,-0.01,1.18,0.35,-156.67,35.72,100.41,-0.17,0.32,0.72,1.5,1.66,0.16,-93.74,69.3,141.96,-0.0,-0.16,-0.05,1.73,0.51,0.62
1.32,-106.74,82.02,169.2,0.34,0.28,0.07,-0.0,0.23,0.32,-104.44,87.8,141.25,0.17,0.13,-0.08,0.25,0.57,0.53,-155.85,36.46,100.25,-0.04,0.13,0.24,1.18,1.54,0.34,-93.69,69.73,142.09,0.04,0.29,0.24,0.58,0.2,0.39
1.33,-107.04,81.66,169.56,0.21,0.25,0.21,0.04,0.54,0.11,-104.64,87.72,141.38,0.0,-0.1,0.16,0.34,0.31,0.38,-155.79,36.36,100.08,0.13,0.15,0.4,1.14,1.91,0.5,-93.61,69.8,142.02,0.14,0.39,0.14,0.69,0.93,0.58
1.34,-107.26,81.31,169.51,0.07,0.14,0.09,0.15,0.25,0.12,-104.64,87.84,141.35,0.2,-0.06,0.12,0.12,0.1,0.26,-155.76,36.28,100.15,0.02,0.08,0.11,1.07,2.37,0.38,-93.73,70.01,141.84,0.22,0.28,0.2,0.31,1.64,0.94
1.35,-107.33,81.33,169.56,0.13,0.26,0.1,0.22,0.26,0.07,-104.67,87.64,141.55,0.14,-0.03,0.19,0.39,0.46,0.13,-156.55,36.22,99.69,0.26,0.16,0.11,1.15,-0.03,1.41,-93.67,70.5,142.18,0.03,0.27,0.52,0.09,1.74,0.04
1.36,-107.48,80.65,169.41,-0.03,0.3,-0.11,0.17,0.08,0.19,-104.34,87.8,141.46,0.05,0.02,-0.07,0.56,0.83,0.07,-156.41,36.1,99.48,0.04,0.32,0.32,0.71,1.55,0.57,-92.93,70.84,143.66,-0.02,0.24,0.59,-0.07,0.57,0.22
1.37,-107.89,80.21,169.98,0.04,0.18,0.07,0.18,0.18,0.18,-104.95,87.96,141.42,0.47,0.39,0.18,0.26,0.08,0.1,-156.48,35.83,99.47,0.37,0.22,0.29,0.31,1.42,1.02,-92.96,71.55,144.67,0.23,-0.02,0.39,0.53,-0.15,0.36
1.38,-107.89,79.66,170.81,-0.04,0.12,0.05,0.12,0.03,-0.04,-104.92,87.42,141.36,0.34,0.32,0.22,0.46,0.4,0.77,-156.65,35.57,99.5,0.15,0.33,0.04,0.83,1.84,0.91,-92.77,71.63,145.29,0.33,0.27,0.17,1.07,1.06,0.25
1.39,-107.83,79.51,170.9,0.11,0.31,-0.21,0.5,0.11,0.03,-104.85,87.27,141.28,0.04,0.29,0.13,0.42,0.51,0.16,-156.23,35.77,99.55,0.33,0.14,0.17,1.19,2.3,0.22,-92.65,72.29,145.38,0.11,0.65,0.28,0.44,-0.02,1.27
1.4,-107.95,79.39,171.12,0.11,0.23,0.15,0.34,0.14,-0.03,-104.62,87.04,141.24,0.21,0.42,0.11,0.63,0.31,0.25,-155.71,35.92,99.74,0.43,-0.0,0.08,0.16,1.03,0.7,-92.79,72.24,145.5,0.37,0.48,0.37,1.3,1.6,0.16
1.41,-108.2,79.18,170.61,0.1,0.06,0.07,0.14,0.39,-0.14,-105.03,86.94,141.26,-0.01,0.41,0.01,-0.08,0.21,0.48,-154.88,36.27,99.83,0.44,0.08,0.43,0.43,0.48,0.2,-92.79,72.8,144.93,0.13,0.29,0.03,1.16,1.9,0.3
1.42,-108.49,79.03,170.22,0.08,0.21,-0.05,0.18,0.41,0.08,-105.07,86.36,141.3,-0.0,0.62,-0.08,0.07,0.22,0.41,-154.1,37.02,100.25,0.35,-0.12,0.56,0.57,0.91,0.13,-92.77,73.47,144.48,0.12,0.69,0.51,0.36,0.6,0.35
1.43,-108.41,79.18,169.94,0.06,0.13,-0.01,0.07,0.26,-0.1,-104.89,86.06,141.51,0.22,0.27,-0.11,0.24,0.66,0.91,-153.1,37.65,100.65,0.4,0.1,0.4,0.45,0.7,0.42,-91.92,74.36,145.56,0.18,0.5,0.7,0.8,0.59,0.2
1.44,-108.5,79.21,169.79,0.02,-0.02,-0.13,0.19,-0.07,0.11,-104.98,86.04,141.36,0.22,0.15,0.14,0.09,0.29,0.68,-152.12,38.29,101.29,0.38,0.09,0.56,0.34,0.79,1.28,-91.17,75.28,147.04,0.08,0.36,0.3,0.43,0.78,0.34
1.45,-108.37,79.04,170.22,0.26,0.27,0.1,-0.01,0.34,0.05,-104.86,86.16,141.52,0.03,0.14,-0.04,0.03,0.03,0.89,-151.92,38.59,101.79,0.48,0.21,0.11,0.55,0.75,0.81,-91.08,75.61,147.43,0.26,0.29,0.24,0.24,1.6,-0.02
1.46,-108.44,78.73,170.39,0.09,0.18,0.08,0.16,0.22,0.12,-104.9,86.01,141.4,0.01,0.33,0.03,0.22,0.27,1.06,-151.4,38.54,102.59,0.42,0.21,-0.08,0.29,0.95,0.74,-90.93,76.16,147.21,0.13,0.49,0.0,0.42,1.34,0.56
1.47,-108.22,78.53,170.84,0.24,0.21,-0.13,0.17,0.02,0.23,-104.78,85.99,141.43,0.18,0.2,-0.12,0.05,0.38,0.31,-150.86,38.81,103.34,0.8,0.16,0.13,0.22,1.21,0.56,-91.03,76.62,146.06,0.2,0.32,0.02,0.41,1.02,0.56
1.48,-107.99,78.43,171.0,0.06,0.16,-0.0,-0.03,0.23,0.18,-104.93,85.6,141.53,0.29,0.3,0.2,-0.01,0.25,0.44,-150.12,39.0,103.88,0.63,0.02,0.52,1.26,0.7,0.69,-91.48,76.99,144.38,0.18,0.41,0.22,0.34,0.23,0.78
1.49,-107.89,78.07,171.21,-0.02,0.25,0.11,0.23,0.04,0.31,-105.04,85.39,141.47,0.2,0.28,0.08,0.17,0.12,0.3,-148.94,39.78,104.54,0.46,0.43,0.72,1.71,-0.01,0.1,-91.5,77.14,143.58,0.02,0.38,-0.05,0.33,0.97,0.3
1.5,-107.83,78.23,171.32,-0.04,0.12,-0.04,0.12,-0.05,0.11,-104.97,85.2,141.3,-0.09,0.13,-0.07,0.37,0.24,0.2,-147.31,40.43,104.81,0.41,0.5,0.77,0.03,1.45,0.64,-91.56,77.23,143.25,-0.07,0.17,0.06,0.77,1.54,0.11
1.51,-107.84,77.9,171.67,-0.07,0.06,-0.03,-0.01,0.32,0.21,-104.73,85.19,141.48,0.15,0.3,0.07,0.26,0.15,0.17,-145.98,41.52,105.18,0.42,0.39,0.74,0.44,1.03,0.63,-91.41,77.4,143.73,0.14,0.06,-0.1,0.95,0.14,1.09
1.52,-107.92,77.84,171.68,0.14,0.2,0.01,0.05,0.05,0.26,-104.67,84.87,141.49,-0.04,0.21,-0.02,0.25,0.18,0.1,-145.09,41.87,105.97,0.38,-0.0,0.53,0.2,1.23,0.73,-91.12,77.52,144.26,0.03,-0.06,-0.05,0.76,0.25,1.04
1.53,-107.93,77.91,171.58,0.15,0.13,-0.03,0.1,0.42,0.03,-104.85,84.72,141.26,0.08,0.27,0.17,0.12,0.01,-0.09,-144.15,42.07,106.38,0.65,-0.01,-0.08,0.08,1.44,0.6,-90.63,77.69,144.76,0.12,0.06,0.17,0.7,0.2,0.9
1.54,-108.12,77.64,171.63,-0.09,-0.04,0.04,0.07,0.11,0.21,-104.68,84.6,141.29,0.12,0.07,0.04,0.18,0.14,0.07,-144.08,41.98,106.87,0.67,0.08,0.05,0.01,0.16,0.48,-90.53,78.06,145.4,-0.02,0.14,0.21,0.86,1.38,0.88
1.55,-108.18,77.78,171.62,-0.0,0.04,0.12,0.27,0.03,0.36,-104.73,84.45,141.4,0.11,0.04,-0.09,0.1,0.35,0.21,-143.45,42.07,107.1,0.44,-0.05,0.01,0.19,0.18,0.51,-90.65,78.03,144.3,0.03,0.24,0.46,0.4,0.54,0.6
1.56,-108.06,77.54,171.99,-0.16,0.16,0.07,0.17,0.13,-0.02,-104.85,84.31,141.33,0.06,0.31,0.01,0.65,0.22,1.19,-143.11,42.14,107.59,0.28,0.0,0.32,0.29,0.25,0.48,-91.0,77.87,143.47,0.25,-0.03,0.11,0.31,0.69,0.71
1.57,-108.03,77.36,171.96,0.01,0.07,0.14,0.3,0.27,0.29,-104.77,84.44,141.45,0.06,0.03,0.08,0.27,0.48,0.75,-142.07,42.75,107.71,0.19,0.11,0.48,0.54,0.29,1.11,-90.8,77.73,143.46,0.02,-0.11,-0.06,0.19,0.22,0.62
1.58,-108.19,77.61,172.09,0.09,-0.07,-0.05,0.07,0.04,0.16,-104.72,84.13,141.42,0.31,0.45,0.01,0.14,0.53,0.36,-141.44,43.37,107.78,0.22,0.38,0.34,0.43,0.5,1.41,-90.53,77.76,144.15,0.1,-0.13,0.12,-0.01,-0.16,0.28
1.59,-108.06,77.57,172.05,-0.04,-0.02,0.01,-0.02,0.14,-0.02,-104.86,83.98,141.25,0.19,0.22,0.2,0.29,0.01,0.16,-140.95,43.7,108.0,0.28,0.13,0.23,0.48,0.98,0.84,-90.47,77.67,144.71,0.07,0.02,0.13,0.63,0.36,0.53
