0.01,-111.64,74.72,165.66,0.19,0.92,0.19,1.94,0.59,0.34,-99.64,81.77,99.99,0.11,0.71,0.18,0.78,0.36,0.22,-156.04,3.31,8.5,0.08,-0.08,-0.02,0.22,0.01,0.05,-127.93,8.94,8.9,0.05,0.06,0.03,0.23,-0.04,0.22
0.02,-110.97,72.45,166.88,0.26,1.23,0.12,2.01,0.43,0.1,-99.52,80.99,105.3,0.12,0.91,0.25,1.48,0.29,0.19,-156.25,3.13,8.24,-0.03,-0.02,-0.1,-0.0,0.31,-0.16,-127.7,8.92,8.92,0.17,0.08,0.04,0.46,0.12,0.37
0.03,-110.54,70.28,168.04,0.03,1.37,0.09,1.84,0.49,0.24,-99.56,80.2,110.14,0.06,1.17,0.02,1.72,0.23,0.28,-156.4,3.08,8.31,0.28,0.2,0.25,0.46,0.2,0.23,-127.46,8.91,8.95,0.04,0.05,0.18,0.67,0.24,0.58
0.04,-109.98,68.29,169.34,0.06,1.3,-0.0,1.64,0.42,0.42,-99.59,79.14,114.84,-0.14,1.2,-0.12,2.25,0.4,0.36,-156.47,3.03,8.07,0.3,0.17,0.15,0.52,0.34,0.02,-127.37,8.85,8.84,0.17,0.04,0.36,0.71,0.4,0.93
0.05,-109.51,66.13,170.47,0.15,1.48,0.0,1.47,0.45,0.44,-99.38,77.83,119.55,0.03,1.55,0.01,2.69,0.25,0.38,-156.65,3.3,8.11,0.12,0.2,0.19,0.43,0.7,-0.06,-126.93,8.87,8.82,0.11,0.1,0.52,0.91,0.25,1.14
0.06,-109.2,64.19,171.46,0.14,1.72,0.3,1.59,0.53,0.51,-99.29,76.49,123.57,0.12,1.77,0.18,2.97,0.38,0.38,-156.69,3.01,7.82,0.09,0.03,0.35,0.4,0.93,0.0,-126.49,8.56,8.69,0.24,0.16,0.34,1.0,0.21,1.41
0.07,-108.74,62.13,172.44,0.11,1.9,0.08,1.38,0.46,0.59,-99.16,74.88,127.3,0.24,1.82,0.14,3.16,0.48,0.59,-156.53,2.88,7.79,0.02,0.28,0.28,0.61,0.76,0.11,-126.38,8.6,8.6,0.14,0.35,0.55,1.07,0.42,1.64
0.08,-108.38,60.11,173.3,0.22,1.89,0.34,1.22,0.52,0.58,-99.01,72.68,131.01,0.05,1.96,-0.04,3.09,0.38,0.69,-156.46,2.78,7.66,0.15,0.21,0.39,0.82,0.95,0.43,-125.67,8.5,8.32,0.09,0.17,0.51,1.12,0.39,2.36
0.09,-107.92,57.97,174.0,0.02,1.77,0.1,1.23,0.39,0.71,-98.83,70.5,134.01,-0.06,2.04,0.24,3.42,0.36,0.6,-156.05,2.86,7.57,0.1,0.2,0.37,0.76,0.92,0.5,-125.07,8.55,8.47,0.21,0.16,0.35,1.06,0.27,2.39
0.1,-107.55,56.07,174.71,-0.03,1.86,0.24,1.07,0.42,1.05,-98.71,67.75,136.68,-0.07,2.55,0.06,3.23,0.45,0.75,-155.96,2.78,7.15,0.2,0.1,0.39,0.96,1.03,0.62,-124.6,8.4,8.08,0.11,0.27,0.44,1.01,0.33,2.85
0.11,-106.99,54.03,175.14,0.16,1.66,0.23,1.3,0.32,0.86,-98.37,64.58,139.02,0.12,2.43,0.03,3.07,0.28,0.71,-155.46,2.84,6.87,0.09,0.01,0.66,0.99,1.16,1.09,-124.2,8.02,7.63,0.22,0.14,0.46,0.78,0.4,3.23
0.12,-107.0,52.15,175.65,0.14,2.09,0.28,1.2,0.36,0.93,-98.16,61.36,140.93,0.36,2.62,-0.05,3.08,0.43,0.65,-154.99,2.89,6.5,0.35,0.2,0.55,0.96,1.11,1.72,-123.75,7.96,7.65,0.14,0.28,0.53,0.78,0.45,3.56
0.13,-106.63,50.14,175.77,-0.03,1.81,0.3,1.04,0.31,0.9,-97.87,57.57,142.46,0.16,2.76,-0.02,2.61,0.39,0.49,-154.23,3.14,6.37,0.33,0.12,0.27,1.08,0.95,1.8,-123.29,7.79,7.36,0.11,0.05,0.36,0.57,0.44,3.61
0.14,-106.41,48.27,176.13,-0.15,1.99,0.12,1.27,0.17,1.21,-97.72,54.07,143.74,0.2,2.91,0.09,2.57,0.27,0.66,-153.73,2.88,5.93,0.39,0.03,0.58,1.03,0.95,2.2,-122.65,7.7,7.02,0.18,0.14,0.47,0.64,0.42,3.82
0.15,-106.32,46.15,176.38,0.06,1.69,0.3,1.26,0.29,1.02,-97.67,50.14,144.75,0.19,2.93,0.31,2.2,0.42,0.69,-153.05,3.07,5.54,0.48,0.39,0.6,1.15,0.77,2.76,-122.28,7.38,6.67,0.15,0.23,0.26,0.48,0.39,3.93
0.16,-106.19,42.58,176.74,-0.18,1.63,0.15,1.24,0.29,1.2,-96.97,42.39,146.31,-0.02,2.66,-0.08,1.67,0.67,0.71,-151.73,3.36,4.87,0.48,0.07,0.71,0.96,0.68,3.43,-121.34,7.34,5.94,0.29,0.06,0.3,0.44,0.28,3.89
0.17,-106.25,40.71,176.7,0.15,1.6,-0.04,1.38,0.22,1.14,-96.85,38.72,146.98,0.07,2.66,0.14,1.22,0.39,0.8,-151.28,3.64,4.57,0.4,0.17,0.42,0.97,0.5,3.67,-121.06,7.19,5.55,0.35,0.05,0.11,0.44,0.55,3.68
0.18,-106.01,38.95,176.97,0.17,1.42,0.04,1.62,0.15,0.93,-96.56,35.13,147.27,0.22,2.86,0.06,1.23,0.51,0.88,-150.66,4.02,4.14,0.34,0.16,0.39,0.84,0.45,3.81,-121.02,6.99,5.17,0.31,-0.12,0.32,0.24,0.4,3.32
0.19,-106.08,37.07,176.84,0.05,1.53,0.12,1.7,0.26,0.96,-96.41,31.74,147.48,0.18,2.45,-0.13,1.34,0.45,1.16,-149.99,3.92,3.65,0.22,-0.1,0.4,0.8,0.36,4.18,-120.81,7.44,5.02,0.25,0.07,0.1,0.39,0.42,3.12
0.2,-106.2,35.46,177.0,-0.0,1.43,0.1,1.54,0.17,0.82,-96.23,28.69,147.86,0.1,2.4,-0.14,0.89,0.4,1.12,-149.48,4.15,3.39,0.22,0.16,0.49,0.72,0.38,3.97,-120.91,7.15,4.71,0.26,0.13,0.03,0.25,0.55,2.74
0.21,-106.31,33.97,176.79,0.16,1.28,0.18,1.63,0.57,0.68,-96.09,25.93,148.11,0.21,2.23,0.07,0.94,0.27,1.34,-148.92,4.3,3.02,0.44,0.35,0.42,0.69,0.1,4.4,-120.61,7.45,4.37,0.34,0.11,0.31,0.26,0.27,2.59
0.22,-106.49,32.42,176.95,0.04,1.29,0.07,2.1,0.33,0.71,-96.01,23.41,148.34,0.08,2.19,0.08,0.87,0.29,1.59,-148.55,4.57,2.77,0.25,0.22,0.5,0.94,0.01,4.14,-120.5,7.49,3.96,0.25,0.03,0.2,0.24,0.35,2.17
0.23,-106.53,31.24,176.99,0.08,1.12,0.07,1.82,0.48,0.93,-96.01,21.06,148.45,0.29,1.92,0.02,0.93,0.45,1.54,-148.2,4.56,2.34,0.15,0.24,0.21,0.73,0.2,3.84,-120.64,7.53,3.52,0.31,0.19,0.05,0.33,0.26,1.84
0.24,-106.67,29.87,176.95,0.2,1.13,0.23,1.64,0.51,0.94,-95.67,19.0,148.96,0.08,1.83,-0.13,0.77,0.1,1.77,-147.59,4.69,2.14,0.35,0.13,0.64,0.78,0.15,3.55,-120.61,7.95,3.44,0.21,0.04,0.05,0.36,0.32,1.69
0.25,-106.93,28.8,176.97,0.03,0.97,0.17,1.81,0.43,0.81,-95.72,17.24,149.11,0.14,1.55,0.07,0.88,0.22,2.05,-147.23,4.66,1.97,0.19,0.08,0.4,0.59,0.05,3.4,-120.52,8.02,2.98,0.17,0.16,0.08,0.34,0.15,1.67
0.26,-107.15,27.71,176.94,0.03,0.89,0.12,1.76,0.52,1.1,-95.53,15.59,149.12,0.28,1.11,0.03,0.77,0.34,2.27,-146.97,4.51,1.76,0.23,0.34,0.2,0.74,0.32,2.91,-120.2,8.1,2.64,0.21,0.11,0.39,0.58,0.33,1.63
0.27,-107.19,27.16,176.97,0.16,0.31,0.04,1.72,0.61,1.05,-95.47,14.18,149.34,0.28,1.08,0.16,1.04,0.31,2.26,-146.65,4.57,1.5,0.16,0.07,0.33,0.27,0.22,2.53,-120.13,8.52,2.23,0.24,0.28,0.3,0.57,0.25,1.68
0.28,-107.25,26.31,176.8,0.28,0.48,0.11,1.89,0.67,1.24,-95.39,13.13,149.73,-0.03,0.94,0.02,0.95,0.47,2.37,-146.2,4.27,1.77,0.18,0.37,0.43,0.68,0.32,2.18,-120.01,8.75,2.2,0.15,0.24,0.22,0.6,0.26,1.83
0.29,-107.61,26.05,176.99,0.16,0.39,0.02,1.74,0.7,1.29,-95.54,12.1,149.78,0.22,0.76,0.03,0.92,0.36,2.5,-145.95,4.21,1.66,0.32,0.14,0.27,0.79,0.49,2.03,-119.34,8.87,1.86,0.08,0.12,0.26,0.59,0.24,1.99
0.3,-107.91,25.56,176.83,0.14,0.25,-0.07,1.91,0.59,1.49,-95.41,11.29,150.09,0.32,0.73,0.09,0.96,0.48,2.75,-145.28,3.82,1.63,0.09,0.26,0.27,0.85,0.46,1.73,-119.4,9.17,1.92,-0.02,0.18,0.45,0.74,0.22,2.3
0.31,-108.06,25.13,176.7,0.1,0.02,-0.03,1.47,0.69,1.43,-95.28,10.21,150.3,0.09,0.4,0.14,0.86,0.2,3.01,-144.4,3.21,1.71,0.26,0.24,0.56,0.95,0.34,1.43,-118.54,9.3,1.33,0.07,0.23,0.45,0.98,0.58,2.86
0.32,-108.48,25.23,176.61,-0.06,0.2,0.18,1.55,0.55,1.46,-95.33,9.64,150.56,0.07,0.42,0.18,0.94,0.26,2.9,-143.35,3.2,2.09,0.17,0.16,0.63,0.88,0.53,1.58,-118.07,9.28,1.4,-0.05,0.09,0.36,0.85,0.61,3.23
0.33,-108.64,25.47,176.81,-0.02,0.11,-0.1,1.74,0.69,1.58,-95.31,9.51,150.55,0.04,0.35,0.07,0.73,0.21,3.02,-142.8,2.71,2.36,0.22,0.43,0.52,0.85,0.69,1.42,-117.82,9.33,1.27,0.13,0.15,0.41,0.84,0.68,3.51
0.34,-108.93,25.55,176.73,0.05,0.34,0.02,1.76,0.5,1.37,-95.19,9.42,150.83,0.18,0.22,0.19,0.86,0.33,2.8,-142.04,2.37,2.45,0.09,0.19,0.43,1.0,0.69,1.71,-117.58,9.28,1.46,0.32,0.06,0.59,0.97,0.91,3.83
0.35,-108.74,25.97,176.75,0.21,0.19,-0.07,1.9,0.49,1.32,-95.38,9.65,150.93,0.13,0.19,0.13,0.71,0.31,2.81,-141.39,1.96,2.91,0.17,0.23,0.55,1.16,0.69,1.87,-117.4,9.22,1.42,0.11,0.1,0.62,1.02,1.08,4.19
0.36,-109.04,26.51,176.49,0.15,0.36,0.13,1.68,0.27,1.18,-95.33,9.74,150.99,0.06,0.31,0.01,0.85,0.25,2.61,-140.66,1.67,3.16,0.36,0.24,0.57,1.06,0.75,2.2,-117.12,9.28,1.66,0.35,0.1,0.44,1.12,1.17,4.45
0.37,-109.31,27.04,176.53,-0.09,0.38,0.05,1.64,0.45,0.96,-95.52,10.18,151.19,0.08,0.38,0.21,0.97,0.31,2.8,-140.01,1.43,3.41,0.23,-0.03,0.37,1.27,0.92,2.42,-116.98,9.54,2.03,0.05,0.17,0.58,1.19,1.37,4.64
0.38,-109.48,27.7,176.51,-0.07,0.48,0.07,1.74,0.48,0.99,-95.53,10.69,151.06,0.07,0.56,0.06,0.82,0.2,2.52,-139.31,1.39,3.64,0.08,0.11,0.55,0.96,0.91,2.79,-117.29,9.44,2.29,0.43,0.21,0.62,0.95,1.45,4.93
0.39,-109.56,28.41,176.33,0.36,0.72,-0.04,1.52,0.46,0.84,-95.64,11.45,151.24,0.04,0.67,0.07,0.85,0.36,2.2,-138.66,0.98,4.22,0.15,0.1,0.49,1.07,0.9,3.16,-117.47,9.59,2.66,0.3,0.18,0.88,0.94,1.58,5.13
0.4,-109.66,29.32,176.27,-0.12,0.86,0.13,1.49,0.35,0.8,-95.73,12.21,151.26,0.13,0.7,0.11,0.84,0.3,2.43,-138.31,0.81,4.29,-0.06,0.16,0.5,1.02,0.62,3.32,-117.61,9.62,2.87,0.42,0.32,0.45,1.17,1.62,5.06
0.41,-109.64,30.25,176.28,0.23,0.74,-0.1,1.58,0.45,0.61,-95.65,13.28,151.28,0.22,0.94,0.06,1.05,0.17,1.96,-137.58,0.57,4.53,0.12,-0.06,0.5,0.87,0.97,3.6,-117.92,10.1,3.67,0.32,0.29,0.59,1.06,1.64,4.8
0.42,-109.77,31.36,176.05,0.11,1.06,-0.02,1.38,0.15,0.53,-95.48,14.23,151.02,0.05,0.76,0.1,1.01,0.31,1.89,-137.65,0.51,4.85,0.19,0.13,0.66,0.73,0.98,3.93,-118.12,10.3,4.02,0.42,0.32,0.59,1.23,1.66,5.01
0.43,-109.92,32.47,175.87,0.21,1.26,0.07,1.49,0.15,0.54,-95.61,15.48,150.87,0.2,1.23,-0.02,0.91,0.25,1.58,-137.5,0.2,5.02,0.13,0.17,0.57,0.86,1.02,4.06,-118.73,10.65,4.48,0.53,0.29,0.57,1.18,1.62,4.86
0.44,-110.16,33.87,175.72,0.07,1.34,0.2,1.33,0.18,0.64,-95.66,16.86,150.81,0.27,1.17,0.12,0.85,0.2,1.38,-137.48,0.34,5.35,0.23,0.14,0.77,0.88,0.97,4.27,-119.11,11.48,5.07,0.41,0.76,0.34,0.9,1.43,4.67
0.45,-110.11,34.98,175.72,0.23,1.29,0.26,1.17,0.37,0.72,-95.56,18.16,150.53,0.26,1.28,0.01,0.7,0.34,1.26,-137.74,0.27,5.14,0.06,0.37,0.4,0.84,0.87,4.57,-119.4,11.66,5.74,0.63,0.58,0.4,0.75,1.18,4.58
0.46,-110.27,38.16,175.22,0.12,1.57,-0.01,1.15,0.17,0.62,-95.62,21.27,150.23,0.09,1.7,-0.06,0.65,0.46,0.9,-138.58,0.3,5.32,0.12,0.23,0.46,0.67,1.14,4.69,-120.28,13.1,6.62,0.62,0.79,0.38,0.55,1.1,4.0
0.47,-110.48,39.79,175.01,0.1,1.6,-0.05,1.08,0.15,0.72,-95.4,23.01,149.79,0.38,1.65,0.11,0.72,0.36,0.58,-139.22,0.23,5.03,0.18,0.2,0.61,0.52,1.02,4.64,-120.42,13.88,7.37,0.6,0.85,0.43,0.59,0.79,3.72
0.48,-110.43,41.44,174.75,0.01,1.57,-0.17,0.85,0.13,0.66,-95.22,24.86,149.43,0.27,1.67,0.0,0.61,0.16,0.41,-139.82,0.38,4.81,0.35,0.29,0.57,0.55,1.21,4.29,-120.9,14.66,7.86,0.41,0.91,0.41,0.51,0.81,3.2
0.49,-110.69,43.25,174.55,0.19,1.63,-0.07,0.78,0.07,0.79,-95.25,26.69,149.31,0.35,1.69,0.12,0.58,0.28,0.65,-140.64,0.75,4.82,0.26,0.39,0.58,0.48,1.25,4.59,-121.26,15.47,8.64,0.48,0.99,0.3,0.42,0.78,3.01
0.5,-110.75,45.36,174.3,0.38,1.7,0.21,0.91,0.05,0.77,-94.89,28.79,149.03,0.22,1.73,-0.07,0.18,0.33,0.34,-141.43,0.76,4.25,0.25,0.28,0.53,0.56,0.97,4.21,-121.48,16.52,9.1,0.37,0.84,0.34,0.37,0.56,2.63
0.51,-110.79,47.12,174.04,0.23,1.8,-0.02,0.55,0.45,1.12,-94.97,30.81,148.91,0.2,1.97,-0.11,0.39,0.13,0.13,-142.36,0.86,4.09,0.52,0.4,0.56,0.47,1.19,3.87,-121.93,17.54,10.07,0.48,1.04,0.32,0.48,0.41,2.34
0.52,-110.82,49.38,173.64,0.11,1.77,0.06,0.54,0.19,1.05,-95.24,32.58,148.64,0.33,2.06,-0.08,0.31,0.3,0.37,-143.03,1.1,3.63,0.48,0.24,0.6,0.62,1.34,3.86,-122.09,18.64,10.95,0.49,1.01,0.33,0.31,0.33,2.18
0.53,-111.04,51.42,173.02,-0.07,1.93,-0.01,0.66,0.29,0.89,-95.07,34.91,148.56,0.26,2.09,0.17,0.46,0.23,0.11,-144.06,1.28,3.17,0.63,0.41,0.73,0.6,0.95,3.45,-122.55,19.67,12.01,0.62,0.92,0.47,0.32,0.42,1.83
0.54,-111.31,54.0,172.54,0.01,1.75,0.11,0.67,0.33,1.03,-95.37,37.07,148.41,0.23,2.13,-0.12,0.33,0.29,0.34,-144.82,1.34,2.95,0.5,-0.05,0.61,0.58,1.16,3.0,-123.03,20.9,13.08,0.57,1.23,0.4,0.24,0.5,1.6
0.55,-111.8,55.78,172.05,0.14,1.86,-0.09,0.82,0.18,0.98,-95.44,39.51,148.53,0.2,2.13,0.1,0.34,0.27,0.32,-145.39,1.76,2.49,0.39,0.01,0.46,0.68,1.17,2.8,-123.17,22.49,14.37,0.42,1.33,0.4,0.26,0.61,1.43
0.56,-111.75,57.94,171.66,-0.06,1.86,0.0,1.04,0.19,0.83,-95.67,41.85,148.13,0.03,2.24,0.17,0.42,0.31,0.32,-146.48,1.6,2.56,0.41,0.24,0.58,0.59,0.82,2.35,-123.71,23.89,15.91,0.88,1.51,0.7,0.44,0.74,1.31
0.57,-112.23,60.11,170.95,0.13,1.83,0.16,0.95,0.28,0.89,-96.05,44.33,148.14,0.04,2.29,-0.03,0.53,0.17,0.47,-147.11,1.82,2.27,0.47,0.06,0.77,0.59,0.8,2.14,-124.37,25.36,17.29,0.76,1.43,0.42,0.43,0.86,1.07
0.58,-112.45,62.46,169.88,0.15,1.79,0.08,0.85,-0.01,0.85,-96.23,46.68,148.12,0.04,2.46,-0.01,0.83,0.47,0.26,-148.03,2.06,2.11,0.46,-0.05,0.58,0.96,0.91,1.77,-124.99,27.29,19.14,0.92,1.59,0.51,0.44,0.84,1.18
0.59,-112.59,64.43,169.08,0.12,1.75,-0.01,1.09,0.31,0.72,-96.83,49.26,148.04,0.32,2.35,0.11,1.03,0.11,0.51,-148.59,2.06,2.26,0.6,0.15,0.73,1.06,0.75,1.3,-125.59,28.86,21.05,0.91,1.86,0.45,0.51,0.96,1.21
0.6,-113.12,66.28,167.96,-0.0,1.5,0.38,1.13,-0.03,0.58,-96.96,51.92,148.31,0.15,2.45,-0.05,1.0,0.39,0.48,-149.44,2.12,2.21,0.33,-0.01,1.0,0.73,0.62,1.06,-126.31,30.93,23.18,1.15,1.94,0.49,0.54,0.85,1.31
0.61,-113.14,70.01,165.33,0.21,1.38,0.12,1.22,0.05,0.46,-97.8,57.22,148.28,0.1,2.5,0.05,1.45,0.21,0.44,-151.65,2.45,2.01,0.33,0.21,1.02,0.74,0.63,0.59,-127.34,35.39,27.66,1.32,2.13,0.54,0.47,1.22,1.22
0.62,-113.25,71.69,163.55,0.26,1.19,0.16,1.29,0.32,0.34,-98.26,59.9,148.3,0.19,2.33,0.2,1.77,0.39,0.72,-152.43,2.52,1.94,0.38,0.14,1.01,0.75,0.41,0.61,-128.07,37.45,30.23,1.47,2.36,0.41,0.76,1.08,1.28
0.63,-113.28,72.98,162.2,0.34,1.09,0.11,1.25,0.18,0.43,-98.49,62.58,148.28,0.21,2.28,0.08,2.07,0.32,0.39,-153.58,2.77,2.36,0.4,0.17,0.95,0.74,0.6,0.6,-128.16,40.11,32.94,1.91,2.41,0.35,0.71,1.1,1.39
0.64,-113.08,74.26,160.57,0.03,0.91,-0.02,1.22,0.03,0.26,-98.92,65.39,148.29,0.24,2.32,0.27,1.93,0.24,0.64,-154.34,3.02,2.25,0.38,0.13,1.09,0.49,0.44,0.59,-128.52,42.43,35.98,2.01,2.45,0.35,0.66,0.94,1.42
0.65,-113.1,75.61,158.87,0.32,0.86,-0.02,1.12,0.08,0.23,-99.01,67.68,148.08,0.24,2.22,0.11,2.16,0.45,0.51,-155.61,3.17,2.39,0.28,0.16,1.19,0.64,0.85,0.65,-128.59,44.8,39.02,2.05,2.73,0.29,0.78,1.3,1.52
0.66,-112.94,76.26,157.25,0.08,0.71,0.26,1.15,0.14,0.16,-99.37,70.35,148.42,0.29,2.09,0.05,2.23,0.19,0.5,-156.76,3.51,2.11,0.38,0.13,1.16,0.74,0.71,0.88,-128.85,47.02,42.47,2.27,2.81,0.35,0.76,0.91,1.36
0.67,-112.62,77.02,155.67,0.19,0.54,0.11,0.89,-0.04,0.09,-99.35,72.59,148.3,0.36,1.97,0.13,1.85,0.1,0.62,-157.94,3.96,2.18,0.32,0.24,1.19,0.53,0.72,0.76,-128.4,48.92,45.98,2.32,2.99,0.32,0.64,0.85,1.42
0.68,-112.34,77.72,154.17,0.18,0.54,-0.05,0.83,0.1,0.32,-99.15,74.55,148.13,0.42,1.89,0.02,1.95,0.24,0.26,-158.95,4.37,2.16,0.56,0.33,1.15,0.51,0.86,0.86,-127.97,51.21,50.27,2.52,2.92,0.33,0.54,0.98,1.22
0.69,-111.93,78.26,152.75,0.28,0.35,-0.05,0.79,0.16,0.24,-99.24,76.74,148.32,0.32,1.85,0.1,1.76,0.2,0.42,-160.0,4.81,2.18,0.84,0.44,1.2,0.57,1.36,1.02,-127.42,52.95,54.39,2.51,3.12,0.36,0.81,0.91,1.42
0.7,-111.8,78.76,151.8,0.14,0.35,0.13,0.55,0.09,0.37,-98.92,78.43,148.41,0.39,1.75,0.11,1.64,0.11,0.29,-161.07,5.05,2.67,0.72,0.41,1.1,0.37,1.24,1.35,-126.66,54.33,59.2,2.5,3.15,0.49,0.55,0.81,1.46
0.71,-111.34,78.93,150.66,0.14,0.16,-0.01,0.67,0.43,0.31,-98.83,80.08,148.29,0.36,1.66,0.13,1.55,0.35,0.44,-162.04,5.93,2.92,0.9,0.55,1.16,0.51,1.56,1.32,-125.49,55.48,64.39,2.62,3.13,0.43,0.51,0.64,1.33
0.72,-110.98,79.23,150.06,0.43,0.39,-0.02,0.47,0.26,0.23,-98.58,81.34,148.42,0.33,1.19,0.06,1.29,0.36,0.43,-163.11,6.54,3.65,1.27,0.67,0.78,0.5,1.53,1.44,-124.43,56.35,70.05,2.51,2.97,0.53,0.77,0.61,1.08
0.73,-110.55,79.29,149.67,0.3,0.21,0.19,0.41,0.43,0.28,-98.24,82.35,148.25,0.22,1.14,0.14,1.13,0.26,0.47,-163.98,7.36,4.53,1.67,0.6,1.06,0.43,1.66,1.4,-122.91,56.61,75.82,2.56,3.18,0.67,0.46,0.65,0.95
0.74,-110.26,79.45,149.15,0.19,0.11,0.0,0.52,0.52,0.41,-98.08,82.97,148.31,0.3,1.13,0.05,1.07,0.52,0.34,-164.67,8.55,5.55,2.0,0.76,0.77,0.63,1.7,1.51,-121.35,56.79,81.76,2.58,3.03,0.76,0.41,0.53,0.81
0.75,-109.93,79.31,149.31,0.47,0.24,-0.02,0.29,0.54,0.21,-98.02,83.49,148.66,0.4,1.1,-0.11,0.75,0.35,0.34,-165.6,9.37,7.17,2.13,0.73,0.62,0.4,1.72,1.53,-119.78,56.47,88.11,2.47,2.84,0.63,0.74,0.38,0.94
0.76,-109.38,78.8,150.1,0.24,0.37,0.02,0.35,0.53,0.56,-97.51,83.83,148.63,0.41,0.96,0.16,0.65,0.61,0.3,-166.4,11.61,10.83,2.53,1.18,0.46,0.57,1.65,1.2,-115.99,55.11,100.49,2.03,2.79,0.64,0.58,0.51,0.6
0.77,-109.17,78.8,150.73,0.1,0.32,-0.01,0.5,0.65,0.4,-97.34,84.01,148.55,0.23,0.63,0.14,0.55,0.61,0.26,-166.89,13.02,13.16,2.46,1.43,0.29,0.58,1.24,1.16,-113.85,54.08,106.33,2.03,2.53,0.88,0.77,0.61,0.7
0.78,-108.89,78.1,151.32,0.09,0.32,-0.0,0.54,0.69,0.62,-97.16,83.66,148.67,0.36,0.5,0.1,0.58,0.67,0.3,-167.2,14.32,15.75,2.64,1.49,0.33,0.59,1.13,1.29,-111.99,52.85,112.16,1.81,2.33,0.89,1.01,0.76,0.75
0.79,-108.47,77.87,152.12,0.23,0.43,0.25,0.6,0.62,0.47,-97.0,83.45,148.97,0.23,0.59,0.04,0.74,0.86,0.29,-167.59,15.57,18.86,3.05,1.51,0.45,0.47,1.15,0.88,-109.85,51.41,117.23,1.7,2.26,0.97,0.76,0.61,0.87
0.8,-108.22,77.56,152.97,0.14,0.56,0.02,0.44,0.74,0.55,-97.11,82.9,148.8,0.34,0.4,0.08,0.69,0.76,0.19,-167.44,17.11,21.94,3.08,1.52,0.3,0.45,0.88,0.87,-107.81,50.1,121.91,1.71,2.07,0.81,0.95,0.84,1.01
0.81,-107.77,77.48,154.09,0.21,0.38,0.12,0.64,0.81,0.59,-96.77,82.77,148.8,0.13,0.28,-0.03,0.65,0.89,0.29,-167.68,18.62,25.62,3.31,1.76,0.25,0.61,0.92,0.86,-105.97,48.82,126.18,1.36,1.63,0.65,1.21,0.87,1.03
0.82,-107.64,76.9,154.9,0.23,0.35,0.05,0.74,0.7,0.7,-96.34,82.37,148.95,0.01,0.56,0.08,0.56,0.72,0.33,-167.34,20.46,29.15,3.07,1.71,0.23,0.33,0.65,0.95,-104.12,47.6,129.96,1.18,1.53,0.76,1.39,0.97,0.91
0.83,-107.32,76.52,155.84,0.21,0.35,0.1,0.73,0.74,0.73,-96.51,82.15,148.99,0.07,0.17,0.14,0.81,0.62,0.5,-167.16,22.22,33.38,3.1,1.71,0.34,0.46,0.63,0.71,-102.5,46.39,133.29,1.04,1.21,0.76,1.38,1.21,1.07
0.84,-106.76,76.07,156.8,0.27,0.34,0.16,0.7,0.58,0.6,-96.27,81.98,149.03,0.21,0.25,0.01,0.76,0.48,0.47,-166.51,23.86,37.6,3.32,2.15,0.4,0.52,0.6,0.91,-100.94,45.22,135.89,0.98,1.01,0.76,1.54,1.11,1.34
0.85,-106.84,75.56,157.56,0.16,0.39,-0.07,0.42,0.35,0.72,-96.24,81.57,149.06,0.1,0.22,0.28,0.77,0.69,0.34,-166.16,25.66,42.27,3.28,1.82,0.47,0.37,0.43,1.17,-99.85,44.53,138.28,0.63,0.79,0.72,1.66,1.41,1.49
0.86,-106.77,75.1,158.09,0.16,0.4,0.16,0.45,0.47,0.85,-96.04,81.67,148.97,0.12,0.09,-0.11,0.59,0.59,0.44,-165.29,27.65,47.11,3.36,1.96,0.2,0.49,0.63,0.96,-98.87,43.73,139.72,0.56,0.57,0.77,1.93,1.38,1.8
0.87,-106.49,74.84,158.75,0.07,0.46,0.27,0.47,0.4,0.98,-95.96,81.5,148.92,0.06,0.11,0.03,0.74,0.44,0.48,-164.7,29.72,51.97,3.19,2.01,0.6,0.56,0.59,1.04,-98.16,43.46,141.43,0.56,0.53,0.64,2.18,1.45,1.96
0.88,-106.19,74.67,159.12,0.14,0.34,0.04,0.39,0.33,0.91,-95.59,81.53,148.88,0.26,0.03,-0.08,0.73,0.58,0.72,-163.75,31.79,57.14,3.19,2.04,0.75,0.4,0.57,1.0,-97.98,42.87,142.48,0.49,0.34,0.71,2.47,1.68,2.21
0.89,-106.4,74.18,159.39,0.24,0.39,-0.15,0.18,0.32,1.18,-95.46,81.45,148.79,0.19,0.07,-0.09,0.55,0.54,0.51,-162.49,33.69,62.62,3.15,1.92,0.65,0.65,0.74,1.11,-97.67,42.84,143.09,0.41,0.26,0.77,2.54,1.64,2.13
0.9,-106.33,73.98,159.48,0.25,0.14,0.39,0.36,0.17,1.18,-95.49,81.6,148.84,0.04,0.09,-0.04,0.63,0.38,0.5,-161.27,35.88,67.9,2.77,1.75,0.83,1.01,0.74,1.19,-97.94,42.82,143.9,0.47,0.04,0.61,2.66,1.58,2.49
0.91,-106.61,73.62,159.84,0.28,0.24,0.1,0.29,0.23,1.15,-95.28,81.74,148.85,0.14,0.08,0.03,0.43,0.25,0.74,-158.21,39.42,78.96,2.96,1.78,1.07,1.43,1.03,0.97,-98.51,42.98,144.65,0.25,-0.02,0.48,2.97,1.47,2.69
0.92,-106.78,73.43,160.09,0.31,0.2,-0.07,0.36,0.13,1.1,-95.22,81.74,148.76,0.15,-0.0,-0.02,0.33,0.61,0.74,-156.33,41.12,84.39,2.53,1.62,1.21,1.73,1.24,1.18,-99.14,43.16,144.61,0.17,0.02,0.74,2.98,1.45,2.37
0.93,-107.08,73.31,159.82,0.5,-0.06,0.08,0.33,0.28,1.37,-95.32,81.94,148.74,0.1,0.18,0.11,0.39,0.17,0.6,-154.74,42.83,89.54,2.46,1.62,1.1,1.76,1.13,0.98,-99.75,43.32,144.87,0.26,-0.19,0.36,3.04,1.31,2.29
0.94,-107.49,73.06,160.11,0.31,0.06,-0.03,0.25,0.44,1.07,-95.31,82.0,148.76,0.05,0.1,-0.11,0.29,0.43,0.59,-153.04,44.21,94.71,2.23,1.47,1.31,2.09,1.44,0.91,-100.69,43.6,144.66,0.3,0.23,0.36,3.24,1.22,2.15
0.95,-108.13,73.17,160.11,0.31,0.16,0.14,0.39,0.35,1.31,-95.48,82.07,148.87,0.05,-0.04,0.13,0.51,0.45,0.62,-151.13,45.32,99.26,1.95,1.37,1.19,2.31,1.48,0.83,-101.39,43.84,144.64,0.4,-0.01,0.54,3.31,1.05,1.98
0.96,-108.2,72.98,160.25,0.44,0.1,0.1,0.36,0.39,1.26,-95.85,82.39,148.74,0.24,0.06,0.03,0.35,0.19,0.77,-149.47,46.28,103.73,1.74,1.28,1.06,2.3,1.85,0.62,-102.2,44.37,144.8,0.05,0.3,0.28,3.02,1.02,1.83
0.97,-109.02,72.9,160.29,0.44,0.22,0.07,0.28,0.32,1.15,-96.06,82.36,148.68,0.17,0.18,0.05,0.34,0.27,0.77,-147.83,47.27,107.72,1.56,1.17,0.87,2.5,1.6,0.54,-102.9,44.6,144.58,0.27,0.24,0.32,3.16,0.73,1.52
0.98,-109.39,72.78,160.41,0.41,0.07,0.14,0.35,0.49,1.16,-96.38,82.5,149.04,0.18,0.09,0.03,0.28,0.25,0.62,-146.62,47.94,111.21,1.17,1.11,0.91,2.66,1.66,0.49,-103.67,45.08,144.48,0.45,0.18,0.33,2.8,0.92,1.4
0.99,-110.03,73.01,160.59,0.43,0.07,0.15,0.36,0.47,1.07,-96.6,82.74,149.05,0.06,0.07,0.04,0.34,0.26,0.78,-145.2,48.3,114.19,0.96,0.87,1.03,2.6,1.49,0.45,-104.66,45.37,144.65,0.23,0.21,0.19,2.78,0.64,1.0
1.0,-110.55,72.62,161.08,0.36,0.36,0.2,0.16,0.66,1.05,-96.92,82.65,148.98,0.29,0.0,0.12,0.55,0.52,0.88,-144.34,48.59,116.92,0.98,0.87,0.49,2.5,1.61,0.38,-105.15,45.78,144.47,0.41,0.39,0.35,2.6,0.74,0.79
1.01,-111.25,72.58,161.53,0.52,0.12,0.02,0.39,0.84,0.99,-97.53,82.81,149.45,0.18,-0.02,0.0,0.58,0.41,0.75,-143.29,48.86,119.23,0.78,0.72,0.61,2.45,1.48,0.44,-105.98,46.17,144.41,0.45,0.66,0.18,2.14,0.49,0.6
1.02,-111.66,72.25,161.91,0.44,0.08,0.04,0.45,0.55,1.05,-97.64,83.0,149.32,0.26,0.22,0.12,0.6,0.34,0.92,-142.31,48.9,121.05,0.57,0.49,0.39,2.44,1.32,0.33,-106.28,46.9,144.14,0.4,0.38,0.36,2.2,0.64,0.6
1.03,-112.31,72.28,162.47,0.42,0.17,0.05,0.26,0.52,0.81,-98.15,83.21,149.56,0.16,0.18,0.05,0.33,0.23,0.67,-141.77,48.9,122.64,0.44,0.54,0.56,2.22,1.22,0.23,-106.91,47.35,144.14,0.55,0.68,0.26,1.9,0.5,0.61
1.04,-112.73,72.21,163.18,0.33,0.37,0.14,0.34,0.68,0.82,-98.49,83.37,149.7,0.18,-0.02,0.21,0.5,0.32,0.7,-141.33,48.97,123.75,0.33,0.45,0.34,2.14,1.07,0.25,-107.27,48.03,144.01,0.25,0.61,0.49,1.82,0.53,0.37
1.05,-113.35,71.78,163.91,0.42,0.44,0.16,0.22,0.44,0.7,-98.73,83.51,150.11,0.07,0.04,0.12,0.44,0.19,0.46,-141.06,49.01,124.74,0.29,0.43,0.23,1.89,0.99,0.44,-107.84,48.76,143.96,0.25,0.46,0.16,1.65,0.61,0.31
1.06,-114.36,71.31,165.39,0.19,0.43,-0.09,0.43,0.46,0.57,-99.6,84.22,150.58,0.21,0.34,0.04,0.36,0.35,0.53,-140.73,48.68,125.63,0.06,0.08,0.09,1.63,0.89,0.27,-108.87,50.07,143.76,0.26,0.6,0.16,1.07,0.45,0.38
1.07,-114.92,70.86,166.06,0.4,0.41,0.14,0.37,0.34,0.54,-99.62,84.53,150.43,0.11,0.35,0.14,0.51,0.32,0.42,-140.66,48.67,125.85,0.26,0.3,0.05,1.55,0.74,0.4,-109.34,50.93,143.53,0.38,0.56,0.24,0.63,0.46,0.45
1.08,-115.31,70.79,166.9,0.37,0.48,0.12,0.35,0.3,0.32,-100.03,84.97,150.84,0.12,0.33,0.09,0.33,0.3,0.49,-140.84,48.74,125.93,0.02,0.07,0.17,1.29,0.7,0.76,-109.9,51.52,143.19,0.39,0.65,0.27,0.65,0.62,0.38
1.09,-115.8,70.34,167.89,0.4,0.19,0.22,0.57,0.07,0.56,-100.26,85.33,150.89,0.16,0.33,0.19,0.46,0.22,0.77,-140.91,48.8,126.17,0.14,0.35,0.18,1.09,0.58,0.46,-110.35,52.13,143.08,0.33,0.61,0.23,0.55,0.39,0.28
1.1,-116.23,70.12,168.33,0.39,0.32,0.21,0.39,0.33,0.19,-100.5,85.58,150.98,0.19,0.22,0.03,0.22,0.13,0.6,-140.86,48.87,126.12,-0.08,0.08,0.1,0.98,0.47,0.53,-110.87,52.63,142.8,0.24,0.56,0.26,0.43,0.43,0.35
1.11,-116.68,70.09,169.1,0.2,0.08,0.14,0.38,0.37,0.23,-100.62,85.89,151.43,-0.15,0.32,-0.03,0.39,0.19,0.64,-141.03,49.18,126.03,0.16,0.25,-0.02,0.83,0.46,0.51,-111.86,53.1,142.63,0.17,0.42,0.18,0.23,0.48,0.53
1.12,-116.98,69.63,169.85,0.37,0.1,0.2,0.37,0.19,0.13,-100.76,86.25,151.44,0.09,0.29,0.28,0.22,0.16,0.66,-141.19,49.34,125.9,0.1,0.07,0.04,0.81,0.43,0.63,-112.27,53.74,142.24,0.25,0.66,0.07,0.33,0.44,0.41
1.13,-117.59,69.62,170.73,0.16,0.35,0.2,0.21,0.42,0.15,-100.93,86.67,151.38,0.03,0.26,0.17,0.07,0.34,0.79,-141.44,49.61,125.89,0.12,0.2,0.24,0.96,0.53,0.6,-113.21,54.33,141.97,0.28,0.5,0.04,0.01,0.39,0.62
1.14,-117.88,69.3,171.47,0.35,0.15,0.37,0.24,0.21,0.03,-101.11,86.82,151.56,0.11,0.29,-0.06,0.39,0.39,0.95,-141.19,49.9,125.74,-0.03,0.1,0.2,0.64,0.41,0.9,-113.76,54.4,141.72,0.47,0.33,0.16,0.5,0.51,0.63
1.15,-118.29,69.12,172.17,0.15,0.06,0.14,0.27,0.37,0.2,-101.08,87.15,151.65,0.09,0.16,0.15,0.15,0.44,0.81,-141.18,50.12,125.83,0.19,0.14,0.15,0.52,0.46,0.6,-114.64,54.77,141.52,0.29,0.25,0.09,0.11,0.44,0.79
1.16,-118.59,69.03,172.72,0.19,0.06,0.37,0.18,0.16,0.23,-101.36,87.21,151.81,-0.01,0.17,0.18,0.32,0.38,0.88,-141.1,50.86,125.71,0.42,0.12,0.36,0.68,0.38,0.66,-115.51,55.26,140.94,0.55,0.22,-0.02,0.12,0.55,0.81
1.17,-118.81,68.73,173.43,0.2,0.12,0.1,0.43,0.26,0.15,-101.24,87.53,151.75,-0.02,0.14,0.01,0.24,0.55,1.05,-141.15,50.92,125.72,0.19,0.2,0.22,0.58,0.48,0.6,-116.32,55.72,140.86,0.53,0.28,0.16,0.11,0.5,0.84
1.18,-119.35,68.59,174.12,0.2,0.15,0.21,0.25,0.03,-0.08,-101.54,87.85,152.17,0.05,0.29,0.21,0.2,0.38,0.77,-141.09,51.36,125.94,0.23,0.04,0.25,0.45,0.42,0.67,-116.95,55.86,140.56,0.44,0.1,0.04,0.04,0.23,0.82
1.19,-119.67,68.59,174.63,0.02,0.29,0.21,0.14,0.34,-0.04,-101.69,87.81,152.03,0.07,0.44,0.17,-0.03,0.58,0.9,-141.23,51.53,126.11,0.21,-0.02,0.38,0.67,0.52,0.68,-117.82,56.16,140.34,0.46,0.24,0.23,0.28,0.36,0.82
1.2,-120.03,68.35,175.32,-0.05,-0.06,0.23,0.39,0.36,0.2,-101.67,88.02,152.14,-0.05,0.42,0.21,0.05,0.6,0.79,-141.27,51.83,126.06,0.3,-0.01,0.35,0.24,0.49,0.59,-118.83,56.5,140.13,0.38,0.3,0.29,0.26,0.29,0.85
1.21,-120.49,68.12,176.42,-0.01,0.08,0.14,0.13,0.28,0.16,-101.73,87.98,152.32,-0.05,0.07,0.19,0.22,0.46,0.82,-141.1,52.59,126.58,0.12,0.01,0.46,0.29,0.41,0.8,-120.65,57.4,139.57,0.64,0.2,0.14,0.19,0.32,0.97
1.22,-120.62,68.04,176.8,-0.01,0.17,0.15,0.24,0.26,0.18,-101.65,87.86,152.43,0.1,0.24,0.13,0.11,0.35,0.88,-140.98,52.93,126.68,0.1,0.15,0.38,0.27,0.47,0.7,-121.55,57.88,139.24,0.44,0.11,0.4,0.17,0.32,0.78
1.23,-120.68,68.03,177.29,-0.02,0.03,0.16,0.07,0.24,0.29,-101.76,87.71,152.52,-0.0,0.24,0.19,0.14,0.22,0.65,-141.11,53.13,126.87,0.24,0.02,0.44,0.22,0.27,0.69,-122.44,58.2,138.82,0.63,0.22,0.14,0.4,0.44,1.0
1.24,-121.18,67.77,177.6,0.02,0.13,0.12,0.13,0.33,0.22,-101.9,87.63,152.71,0.07,0.14,0.18,0.12,0.51,0.59,-140.97,53.35,127.26,0.17,0.18,0.42,0.3,0.23,0.78,-123.44,58.64,138.51,0.39,-0.06,0.3,0.27,0.4,0.86
1.25,-121.31,67.83,177.84,0.09,0.11,0.11,0.04,0.39,0.05,-102.09,87.67,152.86,0.16,0.03,0.13,0.2,0.39,0.65,-140.97,53.63,127.5,-0.02,0.08,0.58,0.22,0.16,0.83,-124.29,59.3,138.15,0.32,0.15,0.32,0.35,0.42,1.12
1.26,-121.61,67.59,178.45,-0.01,0.01,0.08,0.06,0.44,0.13,-102.11,87.69,152.89,0.05,0.02,0.05,0.24,0.5,0.93,-141.24,53.9,127.63,0.18,0.13,0.26,0.08,0.5,1.02,-124.87,59.65,137.88,0.27,0.09,0.12,0.29,0.56,0.93
1.27,-121.59,67.46,178.63,0.03,0.07,0.04,0.13,0.41,0.11,-102.33,87.62,153.04,0.12,0.05,-0.11,0.2,0.1,0.8,-140.99,54.22,127.8,0.1,0.03,0.29,0.07,0.17,1.0,-125.56,60.29,137.35,0.32,0.29,0.43,0.14,0.62,1.16
1.28,-121.81,67.69,178.87,0.04,0.02,0.01,0.15,0.35,0.2,-102.23,87.65,152.96,0.09,0.17,0.09,0.08,0.3,0.75,-141.16,54.33,128.09,0.09,-0.03,0.28,0.18,0.19,0.96,-126.43,60.68,137.28,0.18,0.12,0.21,0.27,0.61,0.94
1.29,-121.85,67.59,179.0,-0.03,0.07,0.11,0.11,0.18,0.29,-102.3,87.42,152.99,0.01,0.06,0.0,0.02,0.32,0.65,-140.99,54.58,128.4,0.13,0.25,0.4,0.2,0.32,0.91,-126.94,61.11,137.08,0.26,0.1,0.25,0.22,0.66,1.07
1.3,-122.09,67.64,179.05,0.19,0.28,0.04,0.15,0.33,0.23,-102.34,87.5,152.96,0.1,0.05,0.05,0.1,0.23,1.08,-140.92,54.88,128.49,0.11,-0.1,0.24,0.2,0.24,1.29,-127.7,61.42,136.65,0.29,0.39,0.28,0.35,0.69,1.29
1.31,-121.81,67.51,179.14,0.1,-0.04,0.05,0.18,0.17,0.19,-102.22,87.26,153.04,0.16,-0.04,0.05,0.27,0.14,0.92,-140.95,55.25,128.59,0.15,-0.03,0.25,0.25,0.29,1.27,-127.99,61.81,136.43,0.28,0.12,0.2,0.42,0.6,1.29
1.32,-121.71,67.74,178.96,-0.02,-0.1,-0.08,0.06,0.24,0.18,-102.15,87.37,152.89,-0.03,0.15,0.11,0.12,0.29,0.87,-140.79,55.55,128.96,0.14,0.25,0.36,0.29,0.48,1.2,-128.32,61.99,136.31,0.4,0.19,0.27,0.61,0.77,1.32
1.33,-121.6,67.72,178.83,-0.04,0.05,0.04,0.33,0.36,0.2,-102.24,87.38,152.75,0.08,0.27,0.03,0.01,0.25,0.98,-140.05,55.84,129.21,0.05,0.13,0.31,0.35,0.53,1.28,-128.53,62.31,136.46,0.05,0.2,0.26,0.6,0.73,1.42
1.34,-121.48,67.95,178.68,0.09,0.05,0.04,0.2,0.42,0.28,-102.09,87.59,152.83,0.03,0.13,0.07,0.18,0.64,0.63,-139.88,56.26,129.11,-0.01,0.14,0.33,0.49,0.5,1.43,-128.43,62.41,136.37,0.16,0.13,0.14,0.99,0.51,1.68
1.35,-121.33,68.19,178.52,0.06,0.12,0.06,0.17,0.13,0.16,-101.74,87.22,152.82,-0.07,-0.01,-0.0,0.39,0.64,0.69,-139.36,56.73,129.71,0.08,0.13,0.36,0.43,0.53,1.24,-128.27,62.71,136.57,0.24,0.2,0.18,1.15,0.84,1.73
1.36,-120.94,68.58,177.8,0.06,0.18,-0.08,0.43,0.35,0.2,-101.57,87.34,152.47,0.31,0.09,0.25,0.34,0.97,0.42,-138.35,58.04,129.88,0.04,0.09,0.14,0.57,1.05,1.25,-127.79,62.63,137.08,0.35,0.4,0.42,1.73,0.48,2.39
1.37,-120.67,68.8,177.54,0.3,0.21,0.24,0.62,0.15,0.23,-101.68,87.45,152.37,0.09,0.37,0.09,0.59,1.12,0.4,-137.52,58.36,129.87,-0.06,0.19,0.0,0.79,1.3,1.34,-127.37,62.88,137.47,0.65,0.26,0.27,2.09,0.51,2.63
1.38,-120.67,69.06,177.09,0.15,0.16,-0.03,0.51,0.11,0.11,-101.33,87.5,152.07,0.19,0.39,0.19,0.59,1.63,0.3,-137.07,58.85,130.22,0.12,0.13,0.2,1.0,1.62,1.19,-127.05,62.42,138.09,0.9,0.37,0.67,2.54,0.45,2.75
1.39,-120.38,69.33,176.55,0.03,0.4,0.25,0.81,0.08,0.21,-101.44,87.54,151.89,0.16,0.4,0.23,0.54,1.61,0.44,-136.5,59.42,130.55,-0.12,0.13,-0.06,0.96,1.64,1.14,-126.13,62.74,138.45,0.83,0.4,0.68,3.05,0.6,3.05
