0.01,-114.34,74.23,178.27,0.03,0.62,0.1,0.87,0.41,1.54,-101.85,84.53,175.86,0.11,-0.09,-0.24,0.29,-0.02,0.22,-156.29,1.46,2.76,-0.12,-0.0,-0.02,0.07,-0.02,0.2,-126.34,11.92,8.82,0.06,0.01,-0.05,0.1,-0.05,0.09
0.02,-114.28,73.48,178.22,0.08,0.74,0.18,0.96,0.41,1.32,-101.92,84.73,175.62,0.14,0.05,-0.0,0.18,0.15,0.24,-156.1,1.48,2.6,0.08,-0.02,-0.05,0.19,0.11,0.14,-126.58,11.84,9.12,-0.07,0.04,0.02,0.09,-0.03,0.01
0.03,-113.98,72.51,178.47,0.07,0.79,-0.02,1.16,0.32,1.21,-102.01,84.76,175.09,0.05,0.04,-0.0,0.13,0.29,-0.16,-156.0,1.43,2.79,0.03,0.11,-0.06,0.3,0.23,0.16,-126.6,11.94,8.77,0.01,0.15,0.04,-0.02,0.04,-0.02
0.04,-113.9,71.63,178.6,0.03,0.89,0.06,1.47,0.06,0.89,-102.0,84.7,174.75,0.1,0.13,-0.04,0.11,-0.0,0.3,-156.11,1.27,2.8,-0.08,-0.14,0.02,0.44,0.03,0.05,-126.54,11.78,8.89,0.04,0.07,0.12,0.28,0.08,-0.05
0.05,-113.74,70.63,178.46,0.17,1.08,-0.13,1.45,0.3,0.56,-102.14,84.84,174.43,0.08,-0.01,-0.03,0.25,0.23,0.3,-156.01,1.39,2.86,0.05,-0.04,0.01,0.36,0.08,0.38,-126.22,11.9,9.04,-0.1,0.08,0.02,0.34,0.04,0.01
0.06,-113.81,69.52,178.85,0.11,1.13,0.01,1.58,0.25,0.57,-102.12,84.8,174.48,0.16,0.15,0.14,0.33,0.15,0.07,-155.93,1.45,2.58,0.12,-0.01,0.1,0.63,0.27,0.25,-126.37,11.84,8.77,0.1,-0.04,-0.0,0.35,0.1,0.13
0.07,-113.66,68.67,178.5,0.17,1.26,0.19,1.73,0.35,0.31,-102.09,84.85,174.48,0.07,0.08,-0.07,0.48,0.16,0.22,-155.62,1.33,2.41,0.04,0.19,0.16,0.58,0.53,0.7,-126.05,12.08,9.23,0.17,0.05,0.1,0.48,0.08,0.08
0.08,-113.64,67.36,178.62,0.28,1.19,0.21,1.71,0.27,0.15,-102.19,84.64,174.56,-0.03,0.26,-0.01,0.66,0.1,0.17,-155.76,1.59,2.32,0.21,-0.1,-0.08,0.73,0.5,0.62,-126.25,11.77,9.04,0.02,0.01,-0.01,0.49,0.08,0.1
0.09,-113.49,66.12,178.7,0.23,1.26,-0.08,1.45,0.1,0.25,-102.18,84.41,175.13,-0.0,0.35,-0.05,0.57,-0.16,0.18,-155.63,1.37,2.25,0.09,0.1,0.18,0.82,0.6,0.67,-126.2,11.76,8.83,0.07,-0.05,0.26,0.33,0.28,0.23
0.1,-113.66,64.48,178.61,0.46,1.53,-0.08,1.6,-0.01,0.18,-102.1,84.18,175.91,0.16,0.11,-0.05,0.8,0.19,0.09,-155.31,1.47,1.98,0.02,0.09,0.16,0.6,0.61,0.97,-125.87,11.53,8.93,0.09,0.24,0.11,0.51,0.11,0.39
0.11,-113.84,62.98,178.35,0.22,1.42,0.14,1.2,0.24,0.19,-101.85,83.61,177.02,0.11,0.44,-0.03,0.92,0.27,0.1,-155.06,1.43,1.89,0.18,0.08,0.42,0.94,0.49,1.13,-125.46,11.75,8.87,0.03,0.11,0.15,0.66,0.16,0.5
0.12,-113.9,61.64,178.48,0.26,1.41,0.18,1.27,0.2,0.15,-101.76,83.38,178.4,0.17,0.57,0.13,1.22,0.08,0.06,-154.91,1.38,1.32,0.32,0.01,0.33,0.9,0.61,1.42,-125.44,11.87,8.84,-0.15,0.08,0.28,0.73,0.21,0.65
0.13,-114.1,59.89,178.08,0.3,1.47,0.19,1.03,0.31,0.37,-101.73,82.71,179.91,0.03,0.53,0.06,1.47,0.1,0.27,-154.56,1.4,1.34,0.16,0.02,0.31,0.7,0.53,1.47,-125.04,11.64,8.44,0.05,0.05,0.22,0.64,0.13,0.85
0.14,-114.08,58.3,177.98,0.3,1.64,0.08,1.06,0.16,0.48,-101.49,81.93,181.7,0.08,0.69,-0.07,1.65,0.04,0.33,-154.21,1.58,1.24,0.4,-0.02,0.37,0.72,0.73,1.62,-124.79,11.72,8.55,0.1,-0.03,0.23,0.7,0.23,1.14
0.15,-114.07,56.53,177.81,0.28,1.36,0.17,0.91,0.5,0.55,-101.15,80.95,183.89,0.08,0.99,-0.09,1.76,-0.14,0.26,-154.06,1.71,0.8,0.14,-0.03,0.37,0.6,0.68,1.78,-124.68,11.44,8.49,0.11,0.0,0.23,0.58,0.12,1.36
0.16,-114.2,55.15,177.65,0.28,1.71,0.12,0.78,0.19,0.69,-101.06,79.93,185.96,0.06,0.95,0.15,1.83,0.18,0.21,-153.53,1.77,0.67,0.44,0.12,0.2,0.33,0.68,2.14,-124.47,11.19,8.27,0.13,0.2,0.25,0.49,0.26,1.47
0.17,-114.32,53.05,177.32,0.06,1.4,0.06,0.54,0.27,0.78,-100.74,78.58,188.33,0.2,1.34,-0.07,2.01,0.15,0.45,-153.2,1.68,0.85,0.43,-0.11,0.39,0.42,0.69,2.18,-124.0,11.36,7.96,0.1,0.26,0.39,0.4,0.13,1.84
0.18,-114.28,52.53,177.53,0.17,1.52,-0.01,0.64,0.13,0.86,-100.64,78.21,189.25,0.18,1.29,0.17,2.13,0.12,0.26,-152.95,1.74,0.69,0.43,0.09,0.37,0.39,0.56,2.23,-123.66,11.31,8.12,0.34,-0.05,0.21,0.46,0.14,1.93
0.19,-114.39,51.51,177.28,0.28,1.7,-0.03,0.63,0.15,1.07,-100.36,77.56,190.54,0.18,1.26,0.08,2.13,0.15,0.04,-152.77,1.8,0.89,0.41,0.06,0.32,0.26,0.65,2.24,-123.84,11.12,7.81,0.29,0.28,0.35,0.28,0.12,1.92
0.2,-114.23,49.77,177.13,0.37,1.43,0.27,0.6,0.36,1.39,-100.19,76.16,192.82,0.36,1.35,0.0,2.19,0.21,0.21,-152.26,2.05,0.82,0.31,0.14,0.42,0.36,0.39,2.36,-123.47,11.21,7.44,0.23,0.1,0.22,0.1,0.16,2.11
0.21,-113.96,48.06,177.11,0.19,1.5,0.09,0.68,0.29,1.38,-99.99,74.76,195.13,0.34,1.58,0.13,2.22,0.33,0.27,-151.98,1.98,0.93,0.65,0.16,0.22,0.19,0.52,2.22,-123.05,10.89,7.29,0.18,0.26,0.31,0.33,0.02,2.25
0.22,-113.88,46.44,177.15,0.2,1.48,0.13,0.4,0.32,1.51,-99.84,72.96,197.08,0.13,1.78,0.25,2.12,0.16,0.35,-151.46,2.27,1.43,0.41,0.17,0.3,0.44,0.52,2.57,-122.58,10.99,7.18,0.1,0.24,0.33,0.02,0.2,2.35
0.23,-113.59,44.77,177.07,0.14,1.43,0.12,0.49,0.32,1.51,-99.69,71.3,198.84,0.35,1.54,0.03,2.0,0.18,0.31,-150.9,2.41,1.69,0.3,-0.06,0.22,0.18,0.38,2.7,-122.32,10.67,6.71,0.13,0.2,0.42,0.0,0.02,2.5
0.24,-113.18,43.33,176.92,0.12,1.33,0.09,0.68,0.42,1.77,-99.39,69.71,200.64,0.26,1.75,0.02,2.14,0.44,0.26,-150.48,2.36,2.07,0.16,0.22,0.44,0.04,0.32,2.29,-122.14,10.81,6.32,0.06,0.11,0.33,0.02,0.15,2.57
0.25,-112.76,41.98,177.02,0.08,1.31,0.08,0.82,0.61,1.66,-99.56,67.83,202.24,0.23,1.56,-0.02,1.95,0.29,0.32,-150.13,2.6,2.35,0.22,-0.04,0.56,0.11,0.54,2.33,-121.77,10.48,6.1,0.16,0.05,0.18,0.24,0.15,2.7
0.26,-112.33,40.59,177.16,0.19,1.1,0.14,0.81,0.6,1.5,-99.28,66.06,203.4,0.21,1.98,0.3,2.03,0.27,0.23,-149.38,2.99,2.71,0.29,0.15,0.36,0.14,0.4,2.39,-121.53,10.41,5.67,0.38,0.32,0.41,0.06,0.21,2.72
0.27,-112.04,39.25,177.1,0.18,0.85,0.05,0.92,0.4,1.88,-99.25,64.28,204.51,0.04,1.87,0.17,1.72,0.33,0.25,-148.94,2.93,3.04,0.22,0.09,0.28,0.13,0.39,2.33,-121.24,10.14,5.49,-0.0,0.22,0.19,0.02,0.18,2.61
0.28,-111.94,37.9,177.15,0.11,1.0,0.13,0.97,0.7,1.66,-99.31,62.24,205.39,0.29,1.74,0.06,1.44,0.11,0.37,-148.28,2.95,3.38,0.26,0.03,0.5,0.1,0.32,2.19,-120.99,9.97,5.23,0.19,-0.02,0.51,0.14,0.25,2.68
0.29,-111.68,36.81,177.29,0.21,1.02,0.28,1.12,0.65,1.72,-99.14,60.44,206.11,0.26,1.92,0.02,1.36,0.34,0.77,-147.84,3.09,3.91,0.15,0.01,0.52,0.08,0.27,2.08,-120.59,9.75,5.02,0.28,0.03,0.16,0.17,0.25,2.47
0.3,-111.57,35.94,177.05,0.1,0.77,-0.12,1.15,0.76,1.63,-99.35,58.5,207.01,-0.02,1.88,0.2,1.2,0.55,0.57,-147.27,3.03,3.62,0.05,0.06,0.38,0.14,0.1,1.78,-120.18,9.54,4.62,-0.02,0.2,0.24,-0.05,0.22,2.22
0.31,-111.45,34.85,177.12,0.3,0.81,0.07,1.24,0.78,1.53,-99.42,56.16,207.43,0.13,1.68,0.04,0.96,0.35,0.49,-146.53,3.01,4.08,0.21,0.09,0.48,0.27,0.39,1.56,-119.84,9.72,4.23,0.47,0.1,0.32,-0.09,0.48,2.07
0.32,-111.46,34.07,177.28,0.09,0.58,0.19,1.28,1.02,1.34,-99.32,54.41,207.79,0.36,1.68,0.01,0.99,0.29,0.53,-145.84,3.09,3.84,0.04,-0.05,0.51,0.34,0.43,1.43,-119.56,9.45,3.79,0.15,0.06,0.2,0.17,0.26,2.23
0.33,-111.53,33.66,177.1,0.09,0.56,0.29,1.41,1.03,1.25,-99.55,52.41,208.18,0.04,1.7,-0.12,0.76,0.25,0.41,-145.34,2.83,3.77,0.43,0.23,0.46,0.29,0.19,1.33,-119.26,9.11,3.58,0.09,0.03,0.36,0.06,0.32,2.02
0.34,-111.8,33.09,177.12,0.29,0.36,0.1,1.3,1.14,1.03,-99.59,50.08,208.53,-0.01,1.43,-0.03,0.83,0.27,0.36,-144.83,2.68,3.79,0.17,0.02,0.5,0.39,0.13,1.19,-118.87,9.14,3.2,0.02,0.0,0.29,0.16,0.49,1.82
0.35,-111.85,32.74,177.06,0.25,0.36,0.39,1.35,1.1,0.96,-99.36,48.15,208.5,0.21,1.65,0.07,0.84,0.12,0.53,-144.16,2.59,3.11,0.24,0.09,0.36,0.51,0.41,1.17,-118.44,9.13,2.86,0.14,0.11,0.33,0.05,0.28,1.92
0.36,-112.07,32.55,177.18,0.25,0.58,0.14,1.38,1.1,0.85,-99.4,47.13,208.84,-0.05,1.82,0.04,0.79,0.44,0.47,-143.66,2.44,3.26,0.18,0.06,0.66,0.38,0.22,1.26,-118.29,9.14,2.92,0.01,-0.25,0.33,-0.11,0.31,1.69
0.37,-112.11,32.45,176.83,0.36,0.37,0.01,1.55,1.25,0.98,-99.55,46.1,208.83,0.27,1.75,0.02,0.75,0.2,0.32,-143.54,2.13,2.99,0.3,0.3,0.59,0.38,0.3,1.34,-118.17,9.12,2.55,0.05,-0.14,0.34,0.13,0.53,1.88
0.38,-112.07,32.4,176.9,0.17,0.33,0.18,1.51,1.24,0.83,-99.38,44.26,209.33,-0.01,1.43,0.01,0.84,0.14,0.4,-143.03,1.93,2.61,0.39,0.28,0.26,0.78,0.31,1.1,-117.67,9.13,2.45,0.04,0.11,0.14,0.33,0.28,1.65
0.39,-112.36,32.46,176.82,0.28,0.19,0.13,1.56,1.26,0.71,-99.29,42.27,209.48,0.2,1.48,-0.01,0.77,0.49,0.39,-142.43,1.91,2.41,0.44,0.24,0.33,0.64,0.35,1.19,-117.7,9.07,2.36,0.09,0.12,0.24,0.24,0.38,1.3
0.4,-112.55,32.38,176.89,0.32,0.24,0.13,1.55,1.41,0.8,-99.37,40.51,209.7,0.05,0.95,0.03,0.73,0.32,0.48,-141.89,1.63,2.02,0.41,0.26,0.35,0.53,0.28,1.24,-117.15,9.3,2.21,0.11,0.12,0.34,0.34,0.32,1.47
0.41,-112.56,32.83,177.16,0.39,0.35,0.11,1.69,1.13,0.89,-99.38,38.75,210.0,0.06,1.17,0.01,0.91,0.42,0.47,-141.31,1.18,1.84,0.24,0.16,0.31,0.64,0.33,1.32,-116.95,9.65,1.89,-0.05,0.21,-0.03,0.26,0.37,1.32
0.42,-112.85,33.01,177.19,0.24,0.36,0.19,1.66,1.16,0.84,-99.15,37.46,209.98,0.08,0.82,0.16,0.94,0.38,0.5,-141.09,1.2,1.81,0.43,0.23,0.19,0.66,0.45,1.55,-116.42,9.86,2.14,0.18,0.22,0.09,0.3,0.45,1.45
0.43,-112.85,33.38,177.2,0.18,0.12,0.14,1.58,1.03,1.01,-99.21,35.9,210.25,0.03,0.93,0.16,0.98,0.28,0.56,-140.44,1.04,1.58,0.71,0.51,0.33,0.7,0.57,1.63,-116.62,10.27,2.23,0.19,0.29,0.29,0.25,0.43,1.58
0.44,-112.97,33.63,177.29,0.22,0.15,0.09,1.28,0.84,1.0,-99.02,34.81,210.46,0.04,0.96,0.09,0.92,0.39,0.72,-140.1,0.71,1.64,0.4,0.55,0.15,0.81,0.63,1.79,-116.17,10.55,2.04,0.27,0.23,0.21,0.19,0.57,1.43
0.45,-113.22,33.95,177.65,0.13,0.36,0.15,1.3,1.0,1.02,-98.87,33.65,210.54,0.01,0.69,0.27,1.03,0.62,0.91,-140.06,0.91,1.82,0.31,0.24,0.22,0.68,0.48,1.83,-116.0,11.04,2.33,0.07,0.31,0.17,0.13,0.51,1.66
0.46,-113.25,34.44,177.78,0.11,0.32,0.23,1.29,0.7,1.11,-98.78,32.79,210.57,0.08,0.61,0.27,1.05,0.49,0.84,-140.04,0.99,2.17,0.5,0.31,0.18,0.51,0.61,1.92,-116.13,11.31,2.31,0.34,0.36,0.16,0.54,0.58,1.8
0.47,-113.16,34.99,177.92,-0.04,0.27,0.13,1.24,0.63,1.22,-99.01,32.22,210.69,-0.07,0.42,0.04,1.28,0.58,1.18,-139.88,0.84,2.46,0.26,0.27,0.16,0.5,0.67,2.12,-115.93,11.89,2.53,0.14,0.37,0.13,0.31,0.38,1.83
0.48,-113.6,35.44,178.21,0.12,0.34,0.1,1.44,0.56,1.43,-98.98,31.69,210.76,0.04,0.42,0.02,1.07,0.59,1.22,-139.85,1.47,3.12,0.25,0.33,0.31,0.55,0.66,2.11,-115.81,12.38,3.05,0.06,0.47,0.18,0.43,0.43,1.79
0.49,-113.4,36.08,178.38,0.06,0.46,0.09,1.49,0.42,1.34,-98.74,31.29,210.82,0.16,0.39,-0.12,1.27,0.46,1.49,-140.0,1.78,3.38,0.47,0.12,0.28,0.4,0.66,2.17,-115.89,12.83,3.35,0.35,0.43,0.14,0.52,0.46,2.15
0.5,-113.5,36.31,178.7,0.15,0.36,0.08,1.36,0.28,1.56,-98.8,30.97,211.0,-0.06,0.41,-0.01,1.2,0.41,1.51,-140.17,1.81,4.1,0.29,0.27,0.48,0.2,0.76,2.05,-115.83,13.42,3.8,0.26,0.41,0.04,0.49,0.55,2.39
0.51,-113.83,37.11,178.67,0.13,0.33,0.06,1.26,0.52,1.57,-98.59,31.09,210.77,0.06,0.33,-0.05,1.14,0.3,1.7,-140.22,2.27,4.7,0.35,0.26,0.29,0.29,0.6,2.04,-115.8,13.76,4.24,0.13,0.5,0.03,0.36,0.82,2.26
0.52,-114.04,36.95,178.94,0.21,0.4,0.1,1.31,0.37,1.77,-98.66,31.1,210.73,0.1,0.29,0.01,1.21,0.22,1.78,-140.66,2.35,5.17,0.07,0.28,0.27,0.37,0.67,2.01,-116.17,14.46,4.72,0.27,0.49,0.0,0.33,0.55,2.4
0.53,-114.08,37.55,179.12,-0.01,0.16,0.05,1.42,0.17,1.83,-98.65,30.99,210.88,0.13,0.14,-0.12,1.27,0.32,1.78,-140.91,2.88,5.42,0.34,0.31,0.31,0.23,0.92,2.13,-116.38,14.84,4.98,0.24,0.12,0.26,0.59,0.62,2.24
0.54,-114.25,37.78,179.06,0.27,0.28,0.14,1.21,0.14,2.03,-98.77,31.32,210.9,0.13,0.06,-0.09,1.22,0.23,1.73,-141.13,3.08,5.77,0.25,0.3,0.38,0.17,0.63,2.09,-116.37,14.88,5.08,0.45,0.22,0.28,0.49,0.49,2.17
0.55,-114.2,38.08,179.07,0.05,0.4,0.05,1.46,0.47,1.88,-98.54,31.63,210.58,-0.15,0.24,0.09,1.14,0.39,2.01,-141.38,3.33,6.14,0.22,0.2,0.16,0.24,0.66,1.96,-116.41,15.28,5.53,0.46,0.32,0.31,0.5,0.84,2.32
0.56,-114.37,38.28,179.33,0.2,0.18,0.06,1.39,0.34,1.94,-98.8,31.72,210.81,0.16,0.22,0.01,1.23,0.12,1.82,-141.54,3.69,6.53,0.12,0.43,0.26,0.17,0.62,1.84,-116.7,15.53,5.89,0.34,0.3,0.08,0.58,0.53,2.22
0.57,-114.44,38.28,179.16,-0.06,0.24,-0.0,1.59,0.32,1.73,-98.88,32.09,210.53,0.34,0.11,0.14,1.21,0.23,1.91,-142.13,4.11,6.79,0.1,0.33,0.41,0.24,0.78,2.06,-116.9,15.93,6.34,0.29,0.46,0.17,0.62,0.73,2.06
0.58,-114.64,38.28,179.04,0.0,0.14,0.16,1.54,0.44,1.87,-98.88,32.43,210.55,-0.01,0.08,0.05,1.16,0.07,1.84,-142.5,4.38,7.29,0.25,0.25,0.17,0.28,1.01,2.17,-117.31,16.09,6.61,0.09,0.31,0.22,0.62,0.8,2.2
0.59,-114.67,38.61,178.93,0.13,0.26,0.08,1.64,0.46,1.66,-99.03,32.82,210.52,0.09,0.03,0.29,1.14,0.42,2.01,-142.96,4.75,7.57,0.3,0.43,0.29,0.43,0.94,1.93,-117.55,16.34,7.29,0.13,0.27,0.42,0.76,0.66,2.27
0.6,-114.78,38.66,178.75,0.0,0.35,0.03,1.83,0.56,1.8,-98.94,33.4,210.37,-0.07,0.19,-0.02,1.13,0.3,1.89,-143.21,5.3,8.33,0.06,0.38,0.38,0.41,1.1,2.08,-117.68,16.82,7.57,0.28,0.2,0.25,0.88,0.82,2.09
0.61,-114.93,38.45,178.54,0.18,0.38,0.08,1.82,0.58,1.61,-99.02,33.58,210.04,0.26,0.15,-0.03,1.03,0.26,1.98,-143.6,5.46,8.44,0.32,0.17,0.28,0.61,0.84,2.2,-118.26,16.94,7.91,0.08,0.24,0.3,1.05,0.77,2.0
0.62,-114.87,38.13,178.29,0.07,0.28,0.13,1.79,0.63,1.58,-99.16,33.81,210.08,0.17,0.21,-0.07,1.13,0.33,2.03,-143.99,5.94,8.92,0.08,0.21,0.44,0.74,1.13,2.15,-118.59,16.98,8.39,0.35,0.18,0.47,1.32,0.94,2.09
0.63,-115.05,37.93,178.03,0.3,0.35,0.19,1.79,0.55,1.35,-99.18,34.19,209.92,0.3,0.05,-0.01,0.98,0.4,1.93,-144.31,6.2,9.22,0.38,0.21,0.21,0.64,1.11,2.05,-119.15,17.32,8.64,0.24,0.15,0.26,1.53,0.94,2.38
0.64,-115.23,37.66,177.94,0.2,0.33,0.04,1.61,0.54,1.32,-99.31,34.36,210.14,0.09,0.03,0.19,1.06,0.37,2.05,-144.53,6.43,9.51,0.22,0.31,0.35,0.8,1.05,2.23,-119.49,17.71,9.0,0.35,0.11,0.32,1.48,0.89,2.08
0.65,-115.34,37.15,178.07,0.33,0.34,0.11,1.58,0.52,1.32,-99.6,34.52,209.99,0.07,0.17,0.35,1.03,0.4,1.96,-144.89,6.65,9.83,0.17,0.21,0.21,0.83,1.08,2.04,-119.91,17.66,9.35,0.29,0.39,0.38,1.56,1.03,2.22
0.66,-115.31,36.97,177.79,0.18,0.21,0.09,1.75,0.58,1.31,-99.58,34.53,209.83,0.03,0.38,0.06,1.11,0.48,1.99,-145.13,7.13,9.85,0.37,0.12,0.2,0.85,0.92,2.2,-119.94,17.91,9.83,0.23,0.25,0.43,1.68,1.08,2.02
0.67,-115.49,36.34,177.7,0.3,0.33,0.17,1.42,0.63,1.2,-99.9,34.5,209.99,-0.09,0.21,0.14,0.98,0.7,2.12,-145.24,7.31,9.97,0.11,0.2,0.29,0.94,0.97,2.07,-120.11,18.17,10.21,0.25,0.24,0.55,1.77,1.14,2.1
0.68,-115.38,35.95,177.55,0.28,0.25,0.08,1.24,0.36,1.01,-100.03,34.45,210.03,0.34,0.35,0.19,0.97,0.53,1.8,-145.29,7.41,9.88,0.18,0.24,0.2,0.86,0.84,2.01,-120.32,18.37,10.52,0.39,0.31,0.4,1.45,1.34,2.17
0.69,-115.58,35.65,177.34,0.29,0.31,-0.09,1.42,0.35,0.86,-100.1,34.21,210.23,0.06,0.28,0.11,0.96,0.74,1.7,-145.33,7.26,9.57,0.38,0.32,0.34,0.98,0.86,1.92,-120.66,18.67,11.07,0.36,0.1,0.42,1.38,1.36,2.3
0.7,-115.7,35.06,177.42,0.45,0.29,0.24,1.11,0.7,0.95,-100.25,33.84,210.33,0.04,0.03,0.18,1.17,0.66,1.8,-145.67,7.51,9.35,0.2,0.27,0.44,1.01,0.98,1.7,-120.47,19.06,11.27,0.3,0.22,0.59,1.53,1.43,1.82
0.71,-115.49,34.88,177.3,0.13,0.09,0.04,1.04,0.46,0.84,-100.22,33.54,210.42,0.16,0.23,0.09,1.01,0.45,1.62,-145.61,7.59,8.86,0.31,0.23,0.16,0.79,0.86,1.87,-120.59,19.31,11.63,0.15,0.37,0.41,1.59,1.44,1.91
0.72,-115.81,34.68,177.32,0.21,0.27,0.16,1.09,0.43,0.88,-100.27,33.56,210.28,0.28,0.3,0.07,1.16,0.51,1.76,-145.72,7.53,8.48,0.29,0.27,0.24,0.78,0.83,1.47,-120.64,19.33,11.79,0.35,0.3,0.44,1.35,1.45,1.9
0.73,-115.86,34.86,177.41,0.04,0.14,-0.05,0.86,0.32,0.87,-100.49,33.28,210.29,0.29,0.33,0.02,0.98,0.6,1.64,-145.6,7.55,8.29,0.47,0.26,0.25,0.85,0.89,1.45,-120.61,19.51,12.04,0.26,0.27,0.44,1.42,1.52,1.74
0.74,-115.6,34.47,177.24,0.28,0.31,0.06,0.85,0.51,0.93,-100.62,32.9,210.58,0.08,0.09,-0.07,1.08,0.67,1.58,-145.54,7.67,7.74,0.4,0.09,0.15,0.69,0.83,1.45,-120.26,19.92,12.28,0.35,0.03,0.61,1.25,1.66,1.78
0.75,-115.88,34.33,177.01,0.16,0.09,0.04,0.79,0.41,1.07,-100.52,32.43,210.62,0.32,0.28,0.11,1.18,0.72,1.4,-145.5,7.18,6.93,0.51,-0.03,0.4,0.67,0.74,1.38,-120.17,20.21,12.59,0.22,0.07,0.43,1.09,1.56,1.46
0.76,-116.1,34.19,176.95,0.17,0.1,0.13,0.63,0.36,0.78,-100.62,31.99,210.54,0.16,0.29,-0.04,0.91,0.66,1.36,-145.2,7.1,5.78,0.2,0.26,0.15,0.28,0.94,1.43,-120.11,20.4,12.92,0.23,0.13,0.53,1.1,1.64,1.41
0.77,-116.3,34.04,177.18,0.28,0.25,0.16,0.85,0.28,0.93,-100.48,31.64,210.76,0.02,0.43,-0.07,0.92,0.48,1.2,-145.0,6.99,5.08,0.64,0.23,0.26,0.36,1.16,1.5,-119.66,20.62,13.11,0.19,0.19,0.34,1.04,1.69,1.4
0.78,-116.3,34.14,177.02,0.34,0.29,-0.07,0.83,0.25,0.94,-100.51,31.35,210.8,0.18,0.13,0.01,0.88,0.44,0.93,-144.75,6.73,4.42,0.9,-0.01,0.37,0.4,0.95,1.48,-119.36,20.79,13.1,0.19,0.26,0.38,0.81,1.54,1.19
0.79,-116.36,34.3,176.98,0.27,0.27,0.3,0.94,0.41,0.71,-100.41,30.93,210.94,-0.15,0.23,0.03,0.71,0.53,0.68,-144.45,6.66,3.6,0.91,0.12,0.4,0.22,1.17,1.4,-118.99,20.82,13.23,0.28,0.22,0.31,0.64,1.64,1.07
0.8,-116.42,34.34,176.75,0.21,0.19,-0.11,0.72,0.41,0.85,-100.37,30.71,210.93,0.01,0.18,0.04,0.67,0.55,0.82,-144.22,6.21,3.13,0.85,0.16,0.24,0.16,1.17,1.47,-118.56,20.84,13.21,0.26,0.11,0.42,0.78,1.69,1.02
0.81,-116.51,34.71,176.97,0.35,0.27,0.13,0.9,0.37,0.86,-100.24,30.76,210.94,-0.09,0.08,-0.03,0.53,0.32,0.73,-143.84,6.01,2.79,1.06,0.16,0.21,0.07,1.24,1.46,-117.94,20.99,13.13,-0.0,0.24,0.36,0.49,1.42,1.16
0.82,-116.64,35.02,176.99,0.09,0.32,0.03,1.12,0.36,0.83,-100.25,30.9,210.76,0.21,0.01,0.14,0.78,0.08,0.72,-143.46,5.67,2.65,0.93,0.2,0.43,0.15,1.16,1.6,-117.43,21.0,13.05,0.15,0.19,0.47,0.59,1.35,1.13
0.83,-116.66,35.34,176.83,0.18,0.3,0.09,1.04,0.23,0.87,-100.31,30.66,210.84,0.17,0.31,0.16,0.72,0.22,0.73,-142.94,5.6,2.78,0.99,0.32,0.4,0.19,1.26,1.5,-116.49,21.15,13.33,0.21,0.36,0.36,0.59,1.55,1.23
0.84,-117.0,35.68,176.91,0.15,0.44,-0.04,1.06,0.27,0.76,-100.36,30.93,210.81,-0.11,0.23,0.19,0.54,-0.02,0.53,-142.66,5.34,3.42,1.02,0.16,0.27,0.31,1.19,1.46,-116.03,20.97,13.04,0.16,0.3,0.42,0.53,1.17,1.43
0.85,-117.2,36.23,176.96,0.25,0.37,0.06,1.13,0.09,0.79,-100.49,31.05,210.99,-0.11,0.2,0.1,0.73,0.16,0.62,-142.35,5.13,3.93,1.14,0.11,0.34,0.52,1.04,1.55,-115.25,21.13,13.03,0.27,0.33,0.7,0.58,1.11,1.74
0.86,-117.45,36.86,176.95,0.34,0.52,-0.05,1.09,0.29,0.9,-100.46,31.38,210.89,-0.09,0.11,-0.01,0.73,0.43,0.73,-142.19,5.16,4.95,1.02,0.11,0.33,0.42,1.08,1.49,-114.35,21.35,13.2,0.37,0.32,0.86,0.59,1.13,2.04
0.87,-117.67,37.62,177.31,0.2,0.56,0.08,1.2,0.25,0.88,-100.5,31.64,210.99,0.02,0.3,0.17,0.9,0.01,0.79,-142.07,5.0,5.86,1.17,0.05,0.32,0.56,1.24,1.48,-113.42,21.35,13.46,0.68,0.29,0.51,0.57,0.68,2.26
0.88,-117.92,38.34,177.39,0.06,0.78,0.11,0.94,0.25,0.69,-100.5,31.95,210.88,-0.01,0.43,0.06,0.58,0.11,0.84,-142.11,5.02,7.08,0.86,0.1,0.27,0.5,0.89,1.26,-112.65,21.71,13.6,0.59,0.3,0.92,0.55,0.64,2.22
0.89,-118.09,39.14,177.61,0.13,0.76,0.16,1.13,0.29,0.96,-100.63,32.64,210.66,0.17,0.26,-0.14,0.65,0.13,0.66,-142.19,4.95,8.32,0.89,0.11,0.53,0.55,1.01,1.12,-111.44,21.97,13.97,0.71,0.43,0.65,0.7,0.57,2.43
0.9,-118.07,39.76,177.7,0.24,0.83,0.2,1.03,0.43,0.63,-100.54,32.88,210.75,0.33,0.56,-0.12,0.86,0.26,0.81,-142.22,4.95,9.09,0.92,0.22,0.32,0.79,0.82,1.37,-111.11,22.05,14.17,0.78,0.35,0.93,0.75,0.6,2.24
0.91,-118.39,40.36,177.86,0.14,0.91,0.18,1.06,0.49,0.82,-100.72,33.21,210.87,-0.01,0.45,0.08,0.65,0.19,0.59,-142.12,4.9,9.55,1.01,0.05,0.38,0.68,0.93,0.97,-110.52,22.4,14.52,0.91,0.24,0.73,0.62,0.47,2.4
0.92,-118.58,41.35,178.43,0.18,1.22,0.21,1.07,0.58,0.91,-101.1,33.85,210.76,0.1,0.51,0.13,0.64,0.23,0.73,-142.6,4.83,10.6,0.73,0.11,0.41,0.87,0.73,1.22,-109.36,22.74,15.2,0.81,0.48,0.91,0.72,0.54,2.35
0.93,-118.71,42.74,178.25,0.38,1.27,0.2,0.93,0.8,0.82,-100.86,34.74,211.08,0.04,0.6,0.02,0.62,0.07,0.82,-143.15,5.12,11.74,0.78,0.26,0.28,0.84,0.67,1.08,-108.33,23.5,15.92,0.85,0.42,0.85,0.78,0.42,2.23
0.94,-119.08,44.25,178.52,0.22,1.36,0.25,0.86,0.62,0.78,-100.89,35.5,211.16,0.11,0.83,0.09,0.5,0.37,0.68,-143.72,5.42,12.4,0.5,0.27,0.55,0.89,0.87,1.01,-107.43,23.94,16.83,1.0,0.5,0.67,0.61,0.58,2.14
0.95,-119.2,45.94,178.74,0.12,1.34,0.13,0.95,0.67,1.07,-100.95,36.41,211.41,0.28,0.8,-0.01,0.46,0.52,0.65,-144.46,5.62,13.08,0.58,0.0,0.74,0.85,0.65,0.75,-106.62,24.67,17.93,0.96,0.42,0.69,0.56,0.37,2.06
0.96,-119.36,47.62,179.0,0.09,1.62,0.28,1.03,0.76,1.12,-100.79,37.57,211.55,-0.01,0.95,-0.06,0.44,0.52,0.72,-145.13,5.93,13.36,0.29,0.05,0.57,0.86,0.48,0.85,-105.81,25.71,18.83,1.22,0.58,0.69,0.57,0.55,1.84
0.97,-119.21,49.51,178.75,0.19,1.62,0.17,1.02,0.78,1.02,-100.42,38.63,211.71,0.38,1.17,0.01,0.39,0.53,0.83,-146.08,6.53,13.35,0.32,0.32,0.75,0.71,0.73,0.91,-105.17,26.38,19.88,0.71,0.8,0.39,0.47,0.42,1.55
0.98,-119.29,51.43,178.77,0.04,1.7,0.42,1.06,0.88,1.01,-100.2,39.9,211.92,0.18,1.17,0.25,0.52,0.71,0.51,-147.26,7.08,12.92,0.42,0.3,0.79,0.66,0.45,0.88,-104.39,27.44,20.85,1.05,0.81,0.41,0.6,0.67,1.36
0.99,-119.31,53.62,178.61,0.25,1.79,0.33,1.05,0.88,1.12,-100.09,41.5,212.21,0.14,1.45,0.21,0.56,0.69,0.65,-148.26,7.94,12.42,0.19,0.64,0.79,0.72,0.7,0.94,-104.19,28.47,22.13,0.8,0.94,0.54,0.34,0.46,1.3
1.0,-119.33,55.73,178.2,0.2,1.77,0.21,1.1,1.06,1.04,-100.03,43.04,212.15,0.03,1.55,0.02,0.48,0.86,0.62,-149.34,8.97,11.64,0.37,0.49,0.82,0.6,0.86,1.08,-103.58,29.45,23.22,0.98,1.05,0.55,0.29,0.75,0.98
1.01,-119.29,57.88,178.05,0.23,1.83,0.4,1.51,1.14,1.02,-99.62,44.94,212.61,0.08,1.81,-0.01,0.58,1.02,0.46,-150.67,9.82,10.65,0.5,0.5,1.15,0.5,0.9,1.14,-103.42,30.65,24.08,0.84,0.95,0.12,0.43,0.88,0.75
1.02,-119.33,59.99,177.62,0.24,1.81,0.21,1.44,0.89,0.93,-99.32,46.7,212.48,0.08,1.55,0.12,0.95,0.97,0.5,-151.94,11.37,9.49,0.52,0.9,1.17,0.44,0.92,1.11,-103.04,32.05,25.04,0.6,1.3,0.47,0.37,0.74,0.6
1.03,-119.21,62.18,177.06,0.14,1.78,0.18,1.51,1.01,1.04,-99.22,49.15,212.6,-0.05,1.81,0.2,1.11,0.68,0.44,-153.01,12.74,8.48,0.74,1.17,1.24,0.24,0.87,1.29,-102.7,33.45,25.86,0.78,1.23,0.26,0.21,0.98,0.57
1.04,-119.25,64.12,176.56,0.2,1.67,0.0,1.59,0.97,0.86,-98.94,51.16,212.05,0.19,1.98,0.15,1.22,0.86,0.73,-154.48,14.38,7.6,0.72,1.14,1.23,0.49,1.08,1.21,-102.46,35.0,26.24,0.84,1.46,0.11,0.2,0.95,0.33
1.05,-119.2,66.24,176.02,0.08,1.74,0.33,1.52,0.75,0.91,-98.74,53.62,211.56,0.04,1.98,0.3,1.35,0.82,0.49,-155.62,16.34,6.76,0.97,1.29,1.24,0.4,1.35,1.34,-102.62,37.11,27.04,1.06,1.6,0.32,0.14,0.81,0.52
1.06,-119.33,68.29,175.53,0.28,1.52,-0.04,1.55,0.81,0.78,-98.55,56.36,210.97,-0.16,2.02,0.11,1.53,0.73,0.67,-157.19,18.25,6.47,1.02,1.28,1.07,0.33,1.49,1.31,-102.08,39.06,27.6,0.85,1.69,0.32,0.09,1.07,0.54
1.07,-119.45,69.91,174.86,-0.04,1.36,0.23,1.55,0.72,0.75,-98.4,59.1,210.01,0.02,1.97,0.27,1.52,0.98,0.45,-158.53,20.61,6.38,1.44,1.7,1.2,0.38,1.63,1.26,-101.68,41.31,28.3,1.12,1.95,0.34,0.4,0.85,0.72
1.08,-119.7,70.81,174.59,0.22,1.33,0.14,1.53,0.97,0.7,-98.34,60.42,209.12,-0.04,2.23,0.27,1.71,0.94,0.69,-159.13,21.57,6.51,1.22,1.62,1.46,0.32,1.64,1.36,-101.35,42.74,28.65,1.04,1.8,0.59,0.22,0.84,0.54
1.09,-119.54,71.64,174.54,0.19,1.34,0.35,1.66,0.79,0.65,-98.4,61.8,208.76,0.08,1.99,0.17,1.64,0.76,0.62,-160.01,22.8,6.67,1.55,1.7,1.19,0.38,1.76,1.25,-101.38,43.82,29.17,0.96,2.01,0.44,0.48,0.59,0.67
1.1,-119.73,72.9,174.13,0.04,1.22,-0.07,1.47,0.66,0.57,-98.39,64.39,207.05,-0.01,1.87,0.02,1.76,0.68,0.52,-160.91,24.9,7.46,1.91,1.94,1.25,0.2,1.72,1.14,-100.71,46.71,30.48,0.81,2.16,0.66,0.33,0.77,0.64
1.11,-119.93,74.29,173.8,0.16,1.11,0.19,1.49,0.88,0.77,-98.3,67.34,205.06,-0.03,2.13,0.32,1.67,0.81,0.44,-162.41,27.27,8.67,1.87,1.84,1.27,0.39,1.81,1.25,-100.0,49.96,32.19,0.96,2.25,0.94,0.39,0.75,0.85
1.12,-119.86,75.39,173.45,0.22,0.93,0.1,1.37,0.64,0.75,-98.21,69.86,203.17,0.02,1.89,0.25,1.6,0.61,0.61,-163.3,29.3,10.42,2.19,1.92,1.1,0.21,2.0,1.1,-99.13,53.0,34.38,0.98,2.18,1.01,0.57,0.81,1.06
1.13,-120.25,76.5,173.28,0.17,0.73,0.14,1.29,0.66,0.46,-98.43,72.63,200.83,-0.14,2.0,0.09,1.83,0.81,0.36,-164.42,31.31,13.02,2.4,1.91,1.19,0.53,1.91,1.03,-98.08,56.31,37.47,1.15,2.49,1.11,0.68,0.87,1.06
1.14,-120.12,77.38,173.22,0.42,0.94,0.07,1.16,0.73,0.4,-98.43,75.09,198.69,0.16,1.77,0.09,1.6,0.8,0.31,-165.18,33.37,15.81,2.73,2.08,1.05,0.3,2.08,1.03,-96.66,59.89,41.66,1.13,2.67,1.2,0.57,0.67,1.09
1.15,-120.01,78.28,173.15,0.14,0.53,0.06,1.1,0.83,0.52,-98.23,76.95,196.3,0.1,1.75,0.11,1.43,0.57,0.29,-166.1,35.32,19.01,2.81,2.02,1.01,0.3,2.11,0.7,-95.31,62.92,46.83,0.99,2.77,1.37,0.73,0.71,1.07
1.16,-119.92,78.66,173.39,0.47,0.58,0.19,0.79,0.84,0.4,-98.21,79.19,193.87,0.24,1.84,0.13,1.44,0.71,0.32,-166.7,37.13,22.81,2.99,2.05,0.97,0.32,1.95,0.71,-93.8,66.01,53.02,0.99,2.7,1.76,0.67,0.92,1.24
1.17,-119.68,79.35,173.26,0.58,0.57,0.07,0.8,0.85,0.48,-98.11,80.71,191.92,0.21,1.64,0.03,1.03,0.65,0.43,-166.78,39.02,26.61,2.94,2.15,0.79,0.26,1.88,0.77,-91.97,69.07,60.34,1.13,2.85,1.52,0.69,0.79,1.22
1.18,-119.28,80.14,173.51,0.42,0.51,0.1,0.82,0.82,0.58,-97.9,82.47,189.93,0.53,1.39,0.2,1.0,0.66,0.55,-167.13,40.35,31.2,2.77,1.94,0.67,0.51,2.05,0.5,-90.1,71.52,68.59,0.91,2.96,1.68,0.95,0.9,1.08
1.19,-119.07,80.39,173.96,0.35,0.44,0.23,0.64,0.98,0.5,-97.55,83.35,188.23,0.32,1.48,0.27,1.34,0.89,0.36,-167.11,41.97,35.97,2.88,2.23,0.57,0.41,2.08,0.61,-88.06,73.8,77.77,0.93,3.0,1.59,0.87,0.81,1.1
1.2,-118.43,80.72,174.06,0.45,0.29,0.26,0.45,1.11,0.63,-97.33,84.14,186.9,0.37,1.27,0.07,0.82,0.78,0.31,-166.86,43.16,40.72,3.07,2.13,0.47,0.55,2.24,0.84,-86.34,75.32,87.85,0.85,2.81,1.6,0.69,0.89,1.56
1.21,-117.8,80.89,174.55,0.54,0.11,0.35,0.6,1.02,0.64,-97.09,84.75,185.57,0.47,1.16,0.06,0.94,0.69,0.45,-166.51,44.7,45.71,2.92,2.07,0.51,0.45,2.03,0.54,-84.29,76.58,98.17,0.63,3.03,1.52,0.95,1.06,1.16
1.22,-117.34,81.38,175.11,0.57,0.17,0.25,0.56,0.9,0.6,-96.42,84.95,184.85,0.52,1.2,0.19,0.69,0.62,0.39,-165.8,46.0,50.98,2.91,2.03,0.6,0.59,2.07,0.69,-82.26,76.88,108.57,0.79,3.19,1.61,0.78,1.24,1.02
1.23,-116.67,81.9,175.66,0.52,0.39,0.11,0.28,1.01,0.67,-95.93,85.4,184.54,0.48,0.95,0.05,0.69,0.72,0.41,-165.11,47.02,56.3,2.73,1.97,0.7,0.48,2.11,0.62,-80.44,76.78,118.71,0.68,3.02,1.37,0.88,1.33,1.11
1.24,-116.23,81.62,175.9,0.58,-0.01,0.16,0.42,1.02,0.72,-95.38,84.88,184.06,0.38,0.87,-0.07,0.56,0.89,0.32,-164.1,48.08,61.72,2.7,1.79,0.47,0.78,2.14,0.67,-78.47,76.12,128.16,0.47,2.93,1.37,0.76,1.64,1.02
1.25,-115.75,82.0,176.25,0.43,0.18,0.08,0.4,1.18,0.9,-94.88,84.88,183.95,0.58,0.64,-0.04,0.59,0.8,0.42,-163.09,49.28,67.17,2.59,1.81,0.58,1.04,2.07,0.6,-76.71,74.72,137.29,0.51,2.87,1.31,0.78,1.51,1.0
1.26,-115.65,81.94,176.26,0.53,0.21,-0.05,0.35,1.0,0.92,-94.83,84.7,183.97,0.7,0.64,-0.1,0.76,0.91,0.29,-162.17,49.84,70.02,2.49,1.89,0.66,1.05,2.27,0.72,-75.91,73.85,140.94,0.48,2.78,1.29,0.9,1.67,1.01
1.27,-115.18,82.2,176.35,0.47,0.28,0.2,0.5,0.93,0.77,-94.34,84.6,184.27,0.53,0.75,0.15,0.67,0.73,0.36,-161.77,50.14,72.64,2.46,1.9,0.96,1.06,2.06,0.97,-75.24,73.12,145.15,0.24,2.71,1.19,0.75,1.77,1.18
1.28,-114.91,82.09,176.49,0.44,0.15,0.22,0.48,0.9,0.96,-93.82,84.12,184.01,0.69,0.79,0.1,0.67,0.98,0.42,-160.63,51.32,78.1,2.28,1.81,0.7,1.24,1.98,0.82,-73.86,71.0,151.48,0.22,2.53,1.04,0.91,1.73,1.03
1.29,-114.38,82.14,176.67,0.57,0.14,0.24,0.56,1.17,0.89,-93.38,83.78,184.44,0.5,0.42,-0.08,0.54,0.88,0.31,-159.44,52.05,83.13,2.16,1.87,0.75,1.35,2.13,0.83,-72.61,68.73,156.79,0.38,2.32,0.92,1.11,1.82,1.13
1.3,-114.18,82.01,176.55,0.45,0.12,0.33,0.35,0.94,1.05,-92.87,83.45,184.69,0.15,0.55,0.05,0.74,0.93,0.54,-158.28,52.87,88.14,1.91,1.69,0.71,1.58,2.03,1.04,-71.6,66.1,160.49,0.34,2.29,0.88,1.07,1.77,1.06
1.31,-113.97,81.79,175.83,0.27,0.02,0.14,0.52,0.96,0.99,-92.66,83.03,185.02,0.28,0.32,0.02,0.77,0.94,0.58,-157.18,53.52,92.99,1.76,1.51,0.75,1.85,1.79,0.97,-70.77,63.6,163.26,0.29,2.12,0.83,1.15,1.92,1.12
1.32,-113.82,81.65,175.14,0.3,0.12,0.26,0.39,0.85,1.04,-92.38,82.87,185.41,0.15,0.22,0.02,0.67,0.64,0.69,-156.08,54.07,97.3,1.52,1.42,0.78,1.7,1.87,1.01,-70.17,60.94,164.82,0.25,1.91,0.67,1.31,1.91,0.9
1.33,-113.87,81.53,174.63,0.23,0.09,0.22,0.31,0.94,1.2,-92.08,82.41,185.54,0.08,0.19,0.06,0.68,0.75,0.84,-155.23,54.48,101.27,1.3,1.19,0.54,1.9,1.68,0.95,-69.8,58.69,165.37,0.38,1.7,0.71,1.54,1.9,1.05
1.34,-113.92,81.03,173.73,0.15,0.13,0.47,0.48,0.78,1.51,-91.9,82.35,185.82,0.08,0.06,0.17,0.53,0.77,0.7,-154.23,54.63,105.15,1.31,1.29,0.5,1.9,1.76,1.0,-69.86,56.23,164.95,0.41,1.65,0.37,1.74,1.8,1.03
1.35,-114.08,80.93,172.73,0.23,0.28,0.18,0.52,0.91,1.52,-91.99,82.34,185.91,0.14,0.02,0.22,0.65,0.63,0.67,-153.59,54.74,108.1,0.92,0.86,0.44,1.93,1.39,1.09,-69.78,54.17,164.38,0.51,1.37,0.68,1.8,1.55,1.18
1.36,-114.16,80.69,171.76,0.25,0.09,0.12,0.56,1.0,1.59,-91.72,82.39,185.88,-0.03,0.06,0.19,0.78,0.65,0.91,-153.0,55.01,110.84,0.88,0.91,0.44,1.79,1.44,0.97,-70.27,52.39,163.16,0.36,1.3,0.33,2.04,1.43,1.04
1.37,-114.44,80.19,170.47,0.02,0.09,0.26,0.45,0.63,1.65,-91.95,82.45,186.07,0.36,-0.04,0.09,0.75,0.74,1.06,-152.82,54.74,113.2,0.66,0.7,0.4,1.8,1.39,1.04,-70.98,50.89,162.05,0.41,0.8,0.64,2.3,1.4,1.03
1.38,-114.54,79.98,169.54,0.12,0.21,0.23,0.44,0.75,1.91,-91.95,82.5,185.92,0.06,0.06,0.17,0.75,0.65,0.8,-152.29,54.68,115.05,0.55,0.6,0.26,1.61,1.34,1.1,-71.83,49.57,160.84,0.51,0.82,0.48,2.58,1.11,0.97
1.39,-114.42,79.37,168.48,-0.05,0.28,0.16,0.57,0.45,1.94,-91.98,82.94,185.81,-0.02,0.02,0.16,0.84,0.59,0.87,-152.05,54.37,116.47,0.55,0.49,0.27,1.7,1.3,1.19,-72.86,48.79,159.97,0.37,0.55,0.5,2.65,1.1,1.35
1.4,-114.58,79.37,167.53,-0.03,0.22,0.26,0.86,0.63,1.89,-92.15,83.17,185.88,0.14,0.04,0.16,0.74,0.59,0.98,-152.02,54.25,117.34,0.25,0.23,0.23,1.68,1.27,1.34,-73.96,47.92,159.12,0.47,0.4,0.44,2.77,0.89,1.06
1.41,-114.39,79.0,166.51,0.06,0.47,0.18,0.7,0.45,1.98,-92.16,83.67,186.01,0.11,0.3,0.17,0.66,0.77,1.04,-151.93,53.94,118.24,0.15,0.37,0.2,1.56,1.35,1.24,-75.45,47.56,158.71,0.65,0.44,0.32,2.93,0.65,1.19
1.42,-114.4,78.61,165.93,0.27,0.34,0.15,0.62,0.52,2.0,-92.29,84.0,185.74,0.24,0.19,0.26,0.63,0.69,0.89,-151.86,53.74,118.52,0.33,0.15,0.23,1.58,1.64,1.62,-77.02,47.18,158.75,0.44,0.3,0.32,3.02,0.62,0.86
1.43,-114.31,78.45,165.24,0.1,0.36,0.08,0.65,0.42,1.95,-92.42,84.52,185.85,-0.26,0.26,0.12,0.62,0.53,0.88,-151.87,53.55,118.94,0.26,0.21,0.08,1.51,1.83,1.81,-78.41,47.03,159.06,0.68,-0.05,0.21,2.96,0.59,1.01
1.44,-114.06,78.27,165.16,0.17,0.19,0.1,0.75,0.33,1.67,-92.36,84.65,185.63,0.32,0.38,0.35,0.54,0.64,0.94,-151.78,53.5,119.1,0.34,0.12,0.26,1.57,2.07,1.48,-79.04,46.84,158.82,0.54,0.16,0.38,3.0,0.61,0.87
1.45,-114.08,78.14,164.99,0.4,0.12,0.12,0.67,0.46,1.76,-92.37,84.81,185.6,0.03,0.24,0.09,0.55,0.49,0.88,-151.91,53.41,119.17,0.34,0.22,0.13,1.45,1.99,1.71,-79.96,46.84,159.28,0.65,0.14,0.29,2.84,0.76,1.07
1.46,-113.64,78.08,164.5,0.43,0.01,0.19,0.71,0.37,1.75,-92.39,85.21,185.59,0.08,0.28,0.12,0.77,0.79,0.69,-151.79,53.17,119.23,0.18,0.24,0.09,1.68,2.26,1.99,-81.35,46.86,159.73,0.5,0.01,0.13,2.78,0.86,1.04
1.47,-113.23,78.0,164.46,0.47,0.32,0.2,0.88,0.35,1.62,-92.35,85.5,185.71,0.07,0.22,0.26,0.6,0.79,0.73,-151.77,52.92,119.46,0.3,0.13,0.2,1.63,2.62,2.02,-82.78,46.87,160.36,0.43,0.09,0.18,3.05,0.81,1.03
1.48,-112.93,77.74,164.47,0.43,0.1,0.23,0.93,0.54,1.54,-92.26,85.99,185.7,0.3,0.34,0.08,0.84,0.8,0.78,-151.72,52.87,119.4,0.02,0.11,0.23,1.56,2.75,2.2,-84.08,46.8,161.16,0.42,0.03,0.31,2.7,1.16,1.21
1.49,-112.59,77.53,164.45,0.23,-0.01,0.32,0.73,0.52,1.26,-92.17,86.4,185.65,0.33,0.35,0.2,1.01,0.73,0.82,-151.78,52.62,119.55,0.29,0.36,0.43,1.69,2.93,2.08,-85.26,47.05,162.25,0.3,0.22,0.23,2.93,1.27,1.01
1.5,-112.02,77.52,164.94,0.28,0.07,0.23,0.85,0.57,1.35,-91.83,86.7,185.88,0.25,0.12,0.0,0.62,0.72,0.73,-151.71,52.4,119.8,0.19,0.19,0.4,1.73,2.91,2.12,-86.39,46.9,162.6,0.28,0.25,0.21,2.84,1.71,0.96
1.51,-111.43,77.51,165.18,0.24,-0.13,0.17,0.65,0.79,1.11,-91.71,86.94,185.8,0.16,0.2,0.18,0.6,0.85,0.9,-151.69,52.13,120.04,0.27,0.35,0.35,1.71,3.16,2.08,-87.04,47.07,163.32,0.34,0.21,0.2,2.66,2.02,1.25
1.52,-111.13,77.22,165.64,0.29,0.22,0.08,0.75,0.58,0.95,-91.43,86.89,185.76,0.23,0.17,0.06,0.81,0.77,0.94,-151.59,51.9,120.1,0.32,0.24,0.59,2.06,2.99,2.11,-87.45,47.21,163.62,0.4,0.34,0.01,2.62,2.75,1.18
1.53,-110.51,77.2,166.34,0.6,-0.08,0.1,0.49,0.77,0.89,-91.15,87.1,185.78,0.13,0.12,0.11,0.82,0.84,1.12,-151.46,51.86,120.79,0.18,0.49,0.48,1.77,2.87,2.01,-87.83,46.77,163.95,0.43,0.5,0.07,2.87,3.25,1.38
1.54,-110.18,77.24,167.13,0.23,0.06,0.2,0.83,0.85,0.94,-91.19,87.12,185.92,0.23,0.08,0.15,0.88,0.69,1.29,-151.55,51.83,121.14,0.34,0.22,0.57,1.8,2.76,1.75,-87.7,46.8,164.06,0.43,0.4,0.13,2.91,3.62,1.55
1.55,-109.64,77.1,167.93,0.34,0.18,0.07,0.63,0.81,0.73,-91.05,87.02,186.01,0.23,0.21,0.2,1.1,0.88,1.38,-151.33,51.35,121.89,0.48,0.31,0.72,1.57,2.55,1.8,-87.73,46.41,163.84,0.36,0.47,0.3,2.76,4.13,1.67
1.56,-109.43,77.22,168.76,0.18,0.05,0.25,0.67,0.62,0.92,-90.76,86.99,186.07,0.31,0.24,0.05,0.88,0.65,1.41,-151.33,51.01,122.51,0.39,0.34,0.63,1.71,2.23,1.56,-87.4,46.12,163.42,0.39,0.6,0.32,2.59,4.34,1.89
1.57,-108.9,77.07,169.88,0.23,0.15,0.24,0.66,0.72,0.93,-90.7,86.97,186.11,0.41,0.27,-0.09,0.99,0.6,1.7,-151.35,50.85,122.82,0.23,0.39,0.58,1.52,1.81,1.47,-86.97,45.92,162.82,0.45,0.39,0.27,2.57,4.62,2.01
1.58,-108.61,77.04,171.05,0.23,0.03,0.18,0.57,0.44,0.72,-90.64,86.72,186.05,0.27,0.33,0.2,0.89,0.69,1.57,-151.15,50.75,123.38,0.42,0.08,0.63,1.21,1.53,1.39,-86.51,45.69,162.22,0.39,0.51,0.39,2.8,4.39,2.28
1.59,-108.35,76.95,172.0,0.11,-0.02,0.23,0.62,0.47,0.99,-90.78,86.54,186.33,0.0,0.25,0.16,0.97,0.4,1.82,-150.96,50.62,123.71,0.46,0.22,0.71,1.11,1.14,0.97,-85.85,45.03,161.31,0.49,0.53,0.22,2.55,4.42,2.42
1.6,-107.95,77.11,173.2,0.19,0.15,0.03,0.77,0.74,0.98,-90.71,86.16,186.28,0.05,0.26,0.13,0.81,0.5,1.95,-151.1,50.61,124.21,0.12,0.01,0.59,0.98,0.98,0.9,-85.6,44.73,160.83,0.43,0.44,0.35,2.61,4.36,2.37
1.61,-107.84,77.16,174.38,0.06,0.07,0.07,0.68,0.7,0.92,-90.56,85.82,186.16,0.12,0.39,0.24,1.12,0.49,1.74,-150.91,50.55,124.34,0.35,0.18,0.58,0.98,0.91,0.72,-85.14,44.01,159.92,0.46,0.37,0.35,2.32,3.9,2.37
1.62,-107.6,77.0,174.66,0.2,-0.13,0.08,0.37,0.72,0.96,-90.66,85.71,186.32,0.1,0.28,0.17,0.77,0.68,2.16,-151.08,50.42,124.51,0.26,0.12,0.37,0.93,0.69,0.81,-84.93,43.66,159.68,0.26,0.59,0.53,2.16,3.74,2.37
1.63,-107.42,76.93,175.48,0.02,0.21,0.18,0.49,0.61,0.91,-90.65,85.21,186.37,0.11,0.36,-0.01,0.85,0.49,1.93,-150.91,50.6,124.35,0.19,0.11,0.38,0.86,0.44,0.61,-84.78,43.73,159.24,0.29,0.55,0.41,2.19,3.42,2.17
1.64,-107.26,77.26,176.28,0.26,0.28,0.13,0.62,0.49,0.77,-90.7,84.81,186.41,0.02,0.19,0.15,0.76,0.61,1.92,-150.97,50.49,124.65,0.18,0.04,0.23,0.63,0.4,0.42,-84.42,43.15,158.68,0.33,0.34,0.51,1.96,2.82,2.16
1.65,-107.05,77.12,177.41,0.08,0.08,0.24,0.68,0.48,0.7,-90.53,84.29,186.49,0.11,0.34,0.08,0.74,0.46,1.75,-150.81,50.6,124.63,0.05,0.13,0.31,0.81,0.19,0.51,-84.51,42.51,158.08,0.37,0.42,0.41,1.91,2.53,2.01
1.66,-106.87,76.97,177.93,0.17,0.12,0.06,0.43,0.37,0.87,-90.81,83.77,186.37,-0.02,0.33,0.24,0.72,0.46,1.76,-150.63,50.58,124.54,-0.01,0.34,0.29,0.81,0.33,0.63,-84.58,42.17,157.4,0.4,0.26,0.49,1.76,2.01,1.75
1.67,-106.64,77.08,178.64,-0.02,-0.11,0.09,0.56,0.4,1.06,-90.62,83.57,186.52,0.01,0.49,0.08,0.6,0.34,1.72,-150.65,50.92,124.57,0.17,0.25,0.12,0.86,0.5,0.5,-84.76,41.93,157.29,0.4,0.1,0.27,1.51,1.7,1.57
1.68,-106.3,76.76,179.22,0.16,0.2,-0.04,0.43,0.31,0.61,-90.59,83.16,186.34,0.18,0.44,0.07,0.54,0.71,1.41,-150.35,50.94,124.19,0.07,0.15,0.0,0.72,0.4,0.41,-85.06,41.68,156.92,0.28,0.33,0.37,1.31,1.15,1.55
1.69,-106.08,76.7,179.09,0.06,0.03,0.08,0.62,0.28,0.74,-90.62,82.9,186.39,-0.05,0.41,0.11,0.43,0.41,1.28,-150.02,51.18,123.86,0.13,0.21,0.29,0.59,0.62,0.63,-85.18,41.6,156.92,0.4,0.13,0.34,1.47,0.97,1.31
1.7,-105.85,77.02,178.98,0.01,0.2,0.16,0.54,0.08,0.62,-90.63,82.39,186.24,0.23,0.33,0.12,0.63,0.48,1.25,-149.81,51.5,123.41,0.05,0.22,-0.03,0.81,0.82,0.67,-85.45,41.37,156.8,0.04,0.27,0.2,1.34,0.53,1.34
1.71,-105.39,76.99,178.6,0.19,0.16,0.18,0.46,0.28,0.58,-90.49,82.08,186.6,0.0,0.37,0.2,0.56,0.67,0.92,-149.86,51.63,123.26,-0.1,0.42,0.06,1.07,0.96,0.78,-85.79,41.53,156.94,0.11,0.17,0.23,1.3,0.41,1.1
1.72,-105.1,77.05,178.3,0.12,0.24,0.12,0.59,0.14,0.26,-90.44,82.09,186.38,0.13,0.31,0.16,0.49,0.58,0.99,-149.56,51.73,122.79,-0.05,0.32,0.05,0.77,1.08,0.76,-86.46,41.7,157.23,0.18,0.17,0.42,1.28,0.7,0.68
1.73,-104.63,76.84,177.76,0.28,0.07,0.2,0.25,0.04,0.46,-90.3,82.01,186.66,-0.03,0.24,0.23,0.62,0.5,0.63,-149.44,51.99,122.35,0.17,0.18,0.31,0.82,0.95,0.82,-86.48,41.63,157.24,0.24,0.2,0.41,1.41,0.55,0.68
1.74,-104.28,76.73,176.81,0.37,0.25,0.17,0.34,0.3,0.69,-90.0,82.41,186.46,0.25,0.44,0.06,0.58,0.46,0.51,-149.14,52.21,121.92,0.03,0.44,0.12,1.13,1.06,0.92,-86.63,42.06,157.73,0.13,0.2,0.3,1.18,0.69,0.65
1.75,-103.84,76.61,175.8,0.23,-0.01,0.14,0.52,0.28,0.51,-89.89,82.39,186.71,0.08,0.27,0.1,0.43,0.51,0.49,-148.78,52.55,121.31,-0.12,0.55,0.17,0.83,1.11,1.04,-86.99,42.42,157.7,-0.02,0.2,0.23,1.11,0.87,0.73
1.76,-103.46,76.36,174.58,0.17,0.25,0.23,0.36,0.29,0.44,-89.5,82.55,186.5,0.14,0.25,0.13,0.51,0.38,0.23,-148.61,52.5,120.63,0.17,0.47,0.09,0.86,1.0,0.97,-86.88,42.8,158.09,0.18,0.24,-0.01,1.18,0.76,0.65
1.77,-102.94,76.32,173.6,0.28,0.2,0.25,0.42,0.29,0.37,-89.45,82.77,186.64,-0.21,0.24,0.13,0.38,0.5,0.41,-148.29,52.86,120.5,0.12,0.64,0.25,0.79,1.2,1.0,-87.03,43.43,158.49,0.17,0.25,0.17,1.19,1.03,0.39
1.78,-102.25,76.02,172.44,0.22,0.21,0.02,0.39,-0.01,0.47,-89.02,83.19,186.55,0.36,0.24,0.15,0.24,0.63,0.29,-148.15,53.01,120.11,0.22,0.5,0.34,0.92,1.3,1.13,-87.24,43.89,158.72,0.19,0.38,0.14,1.4,1.38,0.49
1.79,-101.74,75.79,171.4,0.23,0.02,0.11,0.54,0.22,0.7,-88.82,83.56,186.74,0.1,0.35,0.45,0.58,0.56,0.34,-147.29,53.28,119.73,0.2,0.47,0.32,0.97,0.83,1.03,-87.06,44.56,159.13,0.1,0.33,0.21,1.26,1.4,0.69
1.8,-101.41,75.7,171.01,0.14,0.21,0.08,0.44,0.28,0.61,-88.61,83.71,186.49,0.29,0.45,-0.12,0.55,0.43,0.61,-147.5,53.34,119.66,0.22,0.32,0.24,0.81,0.96,0.92,-86.87,44.89,158.99,0.21,0.36,0.37,1.36,1.32,0.7
1.81,-101.42,75.54,170.46,0.28,0.28,0.14,0.57,0.19,0.82,-88.49,83.88,186.76,0.35,0.28,0.22,0.65,0.34,0.42,-147.29,53.42,119.69,0.16,0.35,0.3,0.86,0.94,0.92,-87.11,45.06,159.52,0.12,0.4,0.3,1.3,1.56,0.78
1.82,-100.76,75.32,169.43,0.19,0.11,0.06,0.44,0.46,0.56,-88.07,84.48,186.86,0.1,0.31,0.05,0.48,0.57,0.45,-146.78,53.65,119.63,0.24,0.54,0.26,0.74,0.92,0.89,-86.89,45.71,159.52,0.22,0.41,0.3,1.18,1.72,0.65
1.83,-100.22,75.0,168.62,0.23,-0.01,0.12,0.52,0.26,0.54,-87.83,84.81,186.8,0.27,0.4,0.1,0.3,0.62,0.41,-145.87,53.99,119.41,0.25,0.33,0.38,0.71,0.91,0.81,-86.87,46.11,159.97,0.05,0.59,0.28,0.96,1.92,0.57
1.84,-99.76,74.91,168.08,0.14,0.3,0.08,0.38,0.4,0.55,-87.58,85.14,186.95,0.23,0.29,0.31,0.32,0.87,0.38,-145.47,54.3,119.55,0.23,0.2,0.39,0.6,0.59,0.68,-87.04,46.94,160.14,0.09,0.33,0.15,1.12,1.75,0.72
1.85,-99.51,74.58,167.45,-0.01,0.21,0.21,0.57,0.4,0.88,-87.34,85.54,186.93,0.16,0.19,0.04,0.36,0.6,0.54,-144.97,54.67,119.65,0.22,0.07,0.38,0.75,0.79,0.59,-87.05,47.39,160.21,0.11,0.36,0.26,0.71,1.9,0.84
1.86,-98.86,74.3,166.87,0.26,0.34,0.14,0.68,0.47,0.9,-87.09,86.03,187.03,0.08,0.3,-0.02,0.26,0.74,0.61,-144.15,55.05,119.82,0.3,0.39,0.37,0.81,0.75,0.59,-87.12,47.91,160.29,0.05,0.19,0.19,0.67,1.8,0.77
1.87,-98.53,73.93,166.6,0.11,0.33,-0.01,0.39,0.13,0.63,-86.86,86.32,186.98,0.13,0.44,0.04,0.58,0.6,0.56,-143.47,55.39,120.15,0.43,0.28,0.22,0.64,0.45,0.29,-87.2,48.4,160.21,0.17,0.46,0.15,0.76,1.49,0.85
1.88,-98.36,73.38,166.28,0.06,0.14,0.13,0.52,0.41,0.74,-86.59,86.7,187.11,-0.05,0.28,0.17,0.46,0.74,0.53,-142.53,55.74,120.56,0.3,0.07,0.47,0.61,0.77,0.31,-87.41,48.81,160.23,-0.02,0.31,0.23,0.56,1.39,0.84
1.89,-98.11,73.29,166.02,0.17,0.14,0.11,0.5,0.32,0.56,-86.44,86.74,187.07,0.2,0.32,0.09,0.53,0.72,0.6,-142.28,56.22,121.05,0.39,0.1,0.35,0.86,0.61,0.46,-87.56,49.23,160.58,0.05,0.55,0.22,0.57,1.23,0.69
1.9,-97.88,72.92,166.1,0.06,0.23,0.12,0.66,0.34,0.84,-86.42,86.98,187.02,0.09,0.42,0.0,0.36,0.7,0.44,-141.34,56.74,121.37,0.19,0.12,0.45,0.89,0.82,0.53,-87.6,49.85,160.53,0.26,0.34,0.39,0.56,1.32,0.59
1.91,-97.49,72.45,166.02,0.11,0.07,0.13,0.61,0.11,0.7,-86.16,87.35,186.94,0.08,0.32,0.08,0.45,0.61,0.43,-140.4,57.1,122.07,0.28,0.09,0.43,0.79,0.89,0.33,-87.99,50.21,160.49,-0.1,0.43,0.17,0.35,1.01,0.74
1.92,-97.3,72.18,166.05,0.11,0.31,0.02,0.61,0.29,0.73,-86.16,87.4,187.3,0.2,0.26,0.24,0.38,0.73,0.35,-139.79,57.32,122.51,0.33,0.08,0.31,0.96,0.89,0.51,-88.39,50.55,160.58,0.04,0.51,-0.01,0.43,0.84,0.8
1.93,-97.12,71.87,166.25,-0.04,0.28,0.02,0.67,0.18,0.64,-85.96,87.37,187.2,0.0,0.35,0.02,0.28,0.66,0.45,-139.08,57.87,122.91,0.34,0.03,0.18,0.7,1.03,0.32,-88.55,51.23,160.41,0.12,0.48,0.16,0.45,0.81,0.76
1.94,-97.11,71.46,166.28,-0.16,0.19,-0.06,0.57,0.41,0.55,-86.04,87.59,187.08,0.08,0.31,0.2,0.44,0.84,0.42,-138.17,58.32,123.55,0.23,-0.06,0.29,0.77,1.02,0.41,-88.96,51.63,160.71,0.03,0.43,0.21,0.42,0.49,0.73
1.95,-96.94,71.34,166.38,0.05,0.07,0.07,0.41,0.22,0.79,-85.84,87.46,186.95,-0.0,0.19,0.37,0.34,0.69,0.43,-137.35,58.87,124.03,0.19,0.06,0.63,0.72,1.12,0.86,-89.39,51.92,160.78,0.11,0.31,0.14,0.46,0.6,0.81
1.96,-96.73,71.0,166.48,-0.02,0.14,-0.01,0.52,0.32,0.6,-85.72,87.4,186.93,-0.08,0.54,0.0,0.26,0.35,0.37,-136.54,59.24,124.62,0.21,0.07,0.19,0.88,1.17,0.77,-89.72,52.47,160.74,0.18,0.46,0.07,0.46,0.62,0.74
1.97,-96.79,70.49,166.73,0.09,0.3,0.12,0.47,0.64,0.76,-85.65,87.18,187.01,0.17,0.22,0.11,0.31,0.43,0.37,-136.11,59.8,125.41,0.27,0.27,0.52,0.81,1.27,1.08,-90.52,52.96,161.01,0.34,0.53,0.17,0.58,0.66,0.96
1.98,-96.9,70.7,166.98,0.11,0.19,-0.03,0.67,0.49,0.58,-85.54,87.29,186.97,0.16,0.35,0.05,0.28,0.6,0.54,-135.71,59.99,125.52,0.34,0.16,0.54,0.73,1.24,1.14,-90.78,53.29,161.16,0.21,0.53,0.13,0.37,0.83,0.87
1.99,-96.78,70.54,166.94,-0.13,0.31,-0.01,0.54,0.24,0.65,-85.55,87.0,187.0,0.14,0.31,0.1,0.36,0.52,0.38,-135.35,60.02,125.93,0.31,0.07,0.72,0.75,1.05,1.22,-91.28,53.55,161.18,-0.01,0.37,0.31,0.76,0.7,1.23
2.0,-96.64,70.37,167.21,0.05,0.29,0.19,0.48,0.3,0.76,-85.37,87.13,186.85,0.07,0.31,0.18,0.41,0.51,0.6,-134.54,60.59,126.48,0.24,0.32,0.62,0.78,1.22,1.67,-91.69,53.94,161.54,0.25,0.52,0.13,0.68,1.09,1.12
2.01,-96.77,70.24,167.37,0.12,0.21,-0.07,0.44,0.44,0.5,-85.61,86.86,186.92,0.15,0.32,0.01,0.36,0.64,0.6,-133.85,61.09,127.29,0.33,-0.12,0.35,1.06,1.24,1.61,-92.69,54.5,161.71,0.37,0.34,0.16,0.58,1.05,1.21
2.02,-96.69,70.08,167.4,0.13,0.09,0.24,0.27,0.36,0.77,-85.34,86.9,186.71,0.14,0.49,0.08,0.3,0.43,0.96,-133.17,61.87,127.8,0.28,0.4,0.42,1.07,1.14,1.86,-93.57,55.3,162.16,0.24,0.55,0.15,0.74,1.44,1.42
2.03,-96.99,69.79,167.51,0.17,0.18,-0.06,0.22,0.34,0.64,-85.49,86.66,186.72,0.1,0.42,-0.05,0.22,0.44,0.65,-132.5,62.47,128.1,0.19,-0.1,0.34,1.01,1.15,2.08,-94.43,55.77,162.62,0.25,0.45,0.16,0.73,1.68,1.62
2.04,-96.79,69.67,167.82,0.02,0.12,-0.16,0.31,0.23,0.76,-85.28,86.49,186.49,0.18,0.28,-0.04,-0.02,0.19,1.02,-131.71,63.07,128.91,0.06,0.24,0.33,1.27,1.18,2.34,-95.2,56.18,163.22,0.37,0.24,0.37,0.8,1.92,1.5
2.05,-96.71,69.73,167.8,0.1,0.02,0.05,0.04,0.05,0.92,-85.21,86.24,186.53,0.26,0.07,-0.05,-0.05,0.12,1.11,-131.1,63.77,129.43,0.26,0.14,0.29,1.42,1.09,2.32,-96.18,56.68,163.5,0.42,0.32,0.39,0.63,2.22,1.65
2.06,-96.52,69.4,168.07,0.08,0.03,0.09,-0.09,-0.17,0.53,-85.22,86.37,186.41,0.02,0.32,0.06,0.25,0.2,1.11,-130.55,64.42,129.96,0.27,0.08,0.36,1.49,1.0,2.46,-97.24,57.43,163.94,0.53,0.52,0.59,0.78,2.55,1.74
