0.02,-6.354033740037117,85.21520070349547,177.8743119332447,0.0986790307644894,0.017169859891769,0.1094768003659821,-86.94963202732762,82.70676656860927,14.57201648034769,0.1110276479589356,0.2685792762746782,0.3430212832357094,-176.13345765721456,5.9868755358317225,6.464574451346457,0.0007102142572166,0.0813259166763906,-0.2603863223590573,-132.16289062643185,18.99931467491624,12.429842383237045,-0.098384019243973,0.0421439716921771,-0.0039914371988526
0.03,-6.512094308870497,85.13243424676958,177.65939984386682,-0.0262678818551692,-0.0580056943963271,0.0199396024023829,-86.92725582570381,82.79711940905518,14.714883287015606,0.1668202234008093,0.0723472590228401,0.056731043314169,-176.26706799243996,5.923761620154057,6.64297667481366,0.2503758918996609,-0.0722231967567585,-0.0388697522459973,-132.0953837023531,18.67971107254289,12.672909500018347,0.0960174063782521,0.1814193121364352,0.0663259055279093
0.04,-6.751747775192163,84.91207488191583,177.96388783210614,-0.1699298363209206,-0.073757256367371,-0.2428320434960484,-86.8331121409105,82.78943196019719,14.554457126769035,0.1317976700554206,0.2196404645659886,0.4544252952660139,-176.07251538354376,5.914692898326528,6.533934880706004,-0.040237430047178,0.1947912054782538,-0.1629560202557848,-132.11065721113152,18.71867467538125,12.643839952039622,0.0374297113027971,0.0279332062229413,0.2271515479445342
0.05,-6.542256691992769,84.99948971690263,177.69690528372567,0.0206375136755416,-0.0162352298235885,0.052318983265413,-86.68753345713426,82.69597738528212,14.94206836702628,0.22821329475838,0.0505483300034923,0.1200459935783139,-176.42282178507344,5.811613506566319,6.45089908727816,0.2285267916379799,0.1954986122689231,-0.0043267155916361,-132.05756760737748,19.074593259684296,12.557024430146855,0.0739556615983197,0.0735946339300393,0.1419197902187377
0.06,-6.53618673827204,85.04577237925756,177.75644311062263,0.1419274052526842,0.0058511754896322,0.0231957079911372,-86.85269969686924,82.66948754288707,15.089138240493972,-0.0064488608714741,0.1015145993646909,0.3523115254474413,-176.2784894515331,5.755987633384434,6.5831233427180464,0.139545617469516,0.1690715986323922,0.0728138927867947,-132.11506579009404,18.839957635063357,12.507560338711718,0.129970998396646,0.012845683993581,0.0248630464608761
0.07,-6.5466957184743855,84.97169695311847,177.8627459887491,0.1085129726807113,0.0463762397894948,0.2867055029618527,-86.87099320456471,82.7847257078284,14.975632573717675,-0.0578643737504113,-0.0480535090395884,0.1030941634692368,-176.3263718595922,5.8154483753803845,6.620420451882144,0.1100485510589197,0.1849880092060791,-0.1029777905850344,-132.2282081702033,18.848682916822536,12.632805362380996,0.0332893550257368,0.0464585231388603,0.0764760076348171
0.08,-6.568946516299541,85.26907836836618,177.75837961355273,0.135232254914306,-0.1145420821977264,0.1045392488596151,-86.75710743692798,82.93696828484026,15.124759688802346,0.1236455424364811,0.0375089142520832,0.0820849910319579,-176.31633329662031,5.926446367477537,6.576719745201595,0.0645974569185126,0.0256150437481562,-0.0249116699410411,-132.05106220960718,18.869846791873314,12.75556255695146,-0.0596054388219762,0.1485573081764786,0.1118537479340646
0.09,-6.423982813694249,85.13048271242904,177.85972527295814,-0.1193997858720554,0.2205917539613222,0.1321361960668312,-86.79619900573948,82.78333546690203,15.124661600789016,-0.0974619461681136,0.0377454776966032,0.0352119499573954,-176.28403148658944,5.7007986307058935,6.53166043161061,0.1251778757266992,0.1672463959087695,-0.1197525845509146,-131.95617889049265,18.85868709272265,12.552962702610094,0.0564427979735471,0.1782523666742551,-0.1202404145051131
0.1,-6.447422941400297,85.24467511688276,177.84774631219767,-0.0659487496463075,0.0702567689621344,-0.0854197977234822,-86.81528591066163,82.89180165246506,14.957267793407304,0.1217069706419412,-0.2161454276903668,0.2462271010172139,-176.19421838497036,5.980764438254592,6.656343427685207,0.117907285170667,0.2078091077638807,-0.075986841904855,-131.96602796439672,18.744661824279355,12.465366481494764,-0.0916583070749705,-0.0145392693275389,0.0449603486375706
0.11,-6.530100052677163,85.28612772149884,177.81208198494969,-0.031247649483283,0.1486946348075742,-0.1214024987516705,-86.74152024370814,82.88332933140305,15.19512998862533,-0.0424231079446045,0.0119984383323915,0.1207182749701541,-176.11926223185858,5.963151672132583,6.655608060337612,0.2062665150982066,0.2147742618524286,0.0862845054642775,-131.95210196775216,18.925947747540533,12.632095677303749,0.1726721721116995,-0.0039024307814696,0.1132778524547421
0.12,-6.416139283886976,85.07782370120032,177.73054363969112,0.0987621593672072,0.0097512248190067,0.1705164449255984,-86.80697702751897,83.05825903982569,15.262138568040234,0.0592291272668011,0.2671609059066555,-0.0149209153072486,-176.19564660378492,5.826568054433329,6.586065705664991,0.0025769863364818,0.268075462693234,-0.1289442414499271,-131.93823607007985,18.868972672634847,12.58597743251842,-0.0013353283605622,0.2318947112870577,0.00119405994218
0.13,-6.322734490342717,85.20612327476194,177.89911599925344,0.1288150379463679,0.1490155935752642,0.0480660512381345,-86.84619770830346,82.98624035759153,15.373470785612078,0.2424020999144247,0.2903336741802089,-0.0385234370807894,-176.25042033072893,5.874699955795379,6.457459197149064,0.1127859824778519,0.0273147947733732,-0.1015310358287777,-132.12039603092234,18.770594565436777,12.585897837805753,-0.0371870089620083,0.1993213126484748,0.0843810071210233
0.14,-6.565731059233627,85.25042493115541,177.8900545710363,-0.0495638154575615,0.0814891576452825,0.1365136718414616,-86.83165662662464,82.92123161240904,15.286038193944607,0.2559124497999812,0.1182131037678321,-0.0293983884306171,-176.2124682092112,5.909951738598775,6.765259024627035,0.2804127269307701,-0.0438618892487461,-0.0905947276960466,-131.98503596776823,18.92159792679676,12.630374622837175,0.0900832869973147,0.0416348182750454,0.0547038273743249
0.15,-6.579571553284985,85.09749597112767,177.9315147260203,-0.1123780558551165,0.1060410879840467,0.108407375047246,-86.76815221196699,83.09949709790004,15.287329858487835,0.2722233905024992,-0.1504980727714109,0.064314700964847,-176.1215138511435,5.923924053421484,6.558830623218968,0.3216272572736513,0.1297252097060549,0.1625792506943094,-131.9710493698079,18.947828466922,12.546344534017171,-0.1420018089504003,0.0876853617577643,-0.0087488389866109
0.16,-6.599711912346807,85.3641164321101,177.68475695247503,0.0881753920492531,-0.0163104945707767,-0.0256443493586651,-86.79008145922383,83.07210695292416,15.322769211514665,0.0647483879756037,0.0401577908918309,0.1253059359757388,-175.96576693880036,6.10765315999755,6.632938073810822,-0.039894439867459,0.1729040509363986,0.0114541788150354,-131.90827543713948,18.985387642332213,12.627034862186584,0.2303296051795985,0.0812272353134939,-0.1110162633809689
0.17,-6.422854486500194,85.34865084575472,177.89691436271002,0.192796783295111,0.1328652847071053,0.0400082869904862,-86.82533016636499,82.8955943104596,15.397129565104017,0.1338885777015522,0.1172223088065992,0.2933290798335968,-176.173382268206,5.86469105980292,6.602053993091396,0.0431578532336085,0.1927654134700328,0.0157959859901482,-132.24753614061692,18.780925753720723,12.656653066485609,0.0806534985794007,0.1482106321011644,0.0124698437343345
0.18,-6.511479260247408,85.13840688208167,177.8861665263745,-0.0058456847747231,0.1026709377058087,0.1836987980166169,-86.84637890730424,82.93268753149871,15.365725113651717,0.2390734883758404,-0.1113424889381158,0.1101532565453001,-176.15710984111828,5.887029138068917,6.628791874593897,-0.0744850314547088,0.0894040397883788,0.233798136343092,-131.84376235762065,18.71229792230028,12.578407002862027,0.1271312092383666,0.0540649483284476,0.0535947158818756
0.19,-6.349471863741431,85.3780631093669,177.88969571709882,-0.0133770898870628,-0.123857273142821,0.1714619994742372,-86.86167956500181,83.08361197492347,15.437803684716457,0.2070692625944454,-0.1113041114802397,0.1122252382853148,-176.24284619695746,5.749123988426559,6.750497240268641,-0.0247208079902358,0.1988971240495265,0.0185555118963049,-132.17957393113878,18.62579859221596,12.60681243637092,0.2451655705130482,0.0306999530083784,-0.0747979736938184
0.2,-6.358275123094591,85.4245444362444,177.98927095784083,-0.0083581383339706,0.0461133516683139,0.0753181060391721,-86.97810674146614,83.01239372557265,15.422152577089603,0.0746632120077146,0.0289817728810193,0.1027282899854809,-176.08083872628245,5.89903091026621,6.4854214659961205,-0.0926866042571993,0.1009771651530796,-0.0293548389303321,-131.97296154915864,18.842343399443696,12.515496568248858,0.1538008670545032,0.1993598625080203,0.1023461542718729
0.21,-6.497199402185367,85.21991087242165,177.86448331283157,0.0901467747451336,-0.0504911667874644,0.1583842457223503,-86.77153898886091,82.97253550258569,15.310951598054766,0.1617739104014087,0.1020163485348906,-0.0056739242411585,-176.01700770624305,5.879767046329404,6.684274404619488,0.1807247883421942,0.1198728312903222,-0.0307665103998249,-131.91975553298815,18.803227895772995,12.623058675829403,0.0551504788273493,0.1550227660002668,0.1219937143714056
0.22,-6.496195984632317,85.45134702950025,177.77062443245626,0.020533774958224,-0.0298401856159016,0.052035607866539,-86.7985305743396,82.90566541708192,15.30852345562834,0.143253545204512,0.0237905699668848,0.2173378913987921,-176.23872790709245,5.826343797689562,6.67590084182459,0.130204395598064,0.0952923529497394,-0.0715878163254876,-132.0204070927821,18.915210874192077,12.678419517107487,0.0863877204082212,0.1642147372195709,-0.0924656024970771
0.23,-6.437152440197547,85.24174248783851,177.94112457568096,0.0502923392851639,-0.0749206131053482,0.0065740575851203,-86.89033601593685,82.99810157657726,15.336264398281749,0.1127730793529518,0.1491955184197314,-0.0011406427015456,-176.24268957907202,5.817125506212265,6.57668112467619,0.2359907021351703,0.0551821941447434,0.0805007764198732,-132.06294334159125,18.972931314048843,12.648944197165545,-0.1012207625853134,0.1804200669463959,0.0221820893040933
0.24,-6.549790211760998,85.32488470367038,177.75425691084956,-0.0934403688268058,0.0673735904799261,-0.0850883331553433,-86.76734156460864,82.90273882001877,15.340901293169914,-0.0732847166606364,0.1170129417034742,0.1177565078710863,-176.2127033271742,5.954490823366913,6.697262542310866,-0.0726940833524804,0.1678871557907162,-0.000369933720334,-131.93738011062695,19.04225744921775,12.564929502644135,-0.0127079568108319,-0.078515396094762,-0.0493276893415248
0.25,-6.502589348267648,85.3422510822762,177.94811216489182,-0.002664690863047,0.1405981930069399,0.1459815115837089,-86.84165750213039,83.12361387506691,15.439178004784512,0.1388528598318901,0.0919141518210669,0.3542105235319351,-176.1138661716931,5.579823188926318,6.745209860723121,0.2995539861296882,0.0806845088328286,0.1089898689411372,-131.9015471096161,18.982689547778094,12.511280779246093,-0.0028799870435303,0.242291230110878,-0.0784696815270536
0.26,-6.423164770661344,85.12938566977876,178.07085607584378,-0.0875694276154353,0.0805110543169977,-0.1091002548807312,-86.7189071591483,82.85259475950755,15.34914392103341,0.0310667857246823,-0.0962834756273665,0.0769024337011113,-176.1221277924419,5.694051684161536,6.7014227728577165,-0.0217946846967915,0.2388308820498921,0.0463881922579469,-131.80106758501515,18.73072918209176,12.591705533350332,0.0794829415439991,0.1026831905783336,-0.0326855973490664
0.27,-6.419066817467596,85.42533273905285,177.9004598886537,0.2102834237146124,0.0071530191396305,-0.0841757651932054,-86.85717473597431,83.0336900989875,15.32612256341782,0.1528877676490115,0.2701166875821587,0.1480739739640265,-176.06472730967107,5.682426765300258,6.653563627158377,0.0615294071172679,0.3119116445728509,0.0620962347192347,-131.63926054202042,18.85261030508187,12.599570711777035,0.1087231690151538,0.2598365004757393,0.0259044547803918
0.28,-6.318257130414377,85.47704385925924,178.09067819736254,0.2375473859639813,0.0009592421001671,0.0207831237766687,-86.73877198511533,83.14049010328587,15.43777263779893,0.1602617927302054,0.0486634223048555,0.0354591099503963,-176.12116486487142,5.649422948084424,6.478087242735255,0.0120457070169472,0.1217814557420831,0.1683478408752303,-131.76684947352757,18.90460829416894,12.436531609053963,0.011055753418699,0.0262898892002519,0.0198526007621404
0.29,-6.429870340964491,85.40760697271378,177.72598905632012,0.0519039023048044,0.2015334375761662,0.1010872112091693,-86.78169217860828,82.91136937293636,15.403853048954025,0.0247012988561001,0.2481766261815376,0.0518023656320515,-176.10076592313274,5.600263367363173,6.7250528229920015,-0.0198592568804166,0.1492764979173814,-0.0582262993315089,-131.78748746071395,18.859919569820324,12.451236447933438,-0.0899508867095359,0.2353164362748237,0.2807182747178964
0.3,-6.3286001103741,85.25287782269587,178.06466700812453,0.1109746396651724,-0.1648509090404148,-0.0293941851346635,-86.77469122842969,82.98705732150059,15.464777764460605,-0.0059059591170767,0.2784753217789734,-0.0542950060822645,-176.04184459363714,5.921551505355911,6.554092734581505,0.3807518873737479,0.0888175040109326,-0.0401859788952064,-131.9128687675326,18.91598980421047,12.719030787438362,0.1297453468989422,0.0156205947960304,0.0914919752260559
0.31,-6.38837303159953,85.4827424907379,177.79097550828683,0.0205335046225524,0.0733869120228094,0.1047101709118393,-86.82721607771987,82.99712705189515,15.403905585318114,0.0758630068638714,0.1746991634383094,-0.0139216354308177,-176.06259488648834,5.841284429399432,6.537848520460734,0.1395731113807367,0.2329934625264006,-0.0450847976936369,-132.18163701286585,18.836228577097334,12.62922728240612,-0.2584800604148051,0.0435550554544197,0.1271802552529109
0.32,-6.3273963975857725,85.4446839609888,177.6690467359421,0.0841456418937072,-0.0083486376311142,0.0351448734740094,-86.69459783485176,83.40158758722845,15.39693512110908,-0.0255719465594558,0.2138045993434625,-0.1177754092578799,-175.9592266987242,5.8593592044014,6.630825209164235,0.0568562912472516,0.1196428819296701,-0.0340754426941708,-131.8045321873155,18.84205580704471,12.808236700293186,-0.0692989889411324,0.1774251298364672,-0.0234955779873707
0.33,-6.426985116240215,85.16318700084081,177.85360988683496,0.253131480085577,-0.0918625434899892,-0.0349428600119004,-86.64902672988728,83.323902333664,15.371388921146682,0.1837979919810014,0.1166133202296627,0.2679176150437886,-176.09354399939872,5.916957589437468,6.63990678465122,0.1358675407121402,-0.0844916551783071,-0.0111628515783005,-131.86913464187597,18.87870248175684,12.759213270560794,0.06459780119003,-0.0302764443119493,-0.1981145579857265
0.34,-6.388385391765104,85.32470112240141,177.74062492344223,-0.0621104023669207,-0.188767592165514,-0.0509370786776882,-86.67350794642667,83.17162004614698,15.298702589588771,-0.0024098588027139,-0.0518246936285024,0.209304634608801,-176.12223189755994,5.900916273070173,6.585807757836293,0.0392850675474805,0.0462530357452572,0.0636402455969247,-131.75941989688332,18.976953624547384,12.596888975924005,-0.0490408512723064,0.0272780265211527,-0.0772148362382146
0.35,-6.450273978096969,85.37079172481107,177.9941422869096,-0.0526834339807256,0.1849901240917458,-0.0793480152081135,-86.64069929618792,83.06526415018118,15.404251081193935,0.2376507068842303,0.0254969526406151,0.2643615517828231,-175.90530850337603,6.009685205996519,6.797688442121303,0.1283677752580789,-0.0526430868171865,0.0452862343993281,-132.01330480411067,18.91432782017449,12.696676530466998,-0.1231287602942839,0.1050824096645173,-0.055983867511487
0.36,-6.378980390060876,85.4088729981646,177.80268271905928,0.0365345800761667,0.1434678544880948,0.0532350607076115,-86.82830410067065,82.97225926234219,15.280885710188436,0.0037629349915483,-0.1842465323798495,0.1981047978026928,-175.91189026609496,5.952193767534428,6.527422388737112,0.0309818213248517,0.1203065667993166,-0.0182287855433002,-131.78587711746516,18.90818600554396,12.670928708365572,0.101713875770348,0.2422368132117306,-0.0017792765656008
0.37,-6.313711394505358,85.4137291304839,177.80963907766514,0.055209794308848,0.0706593386241414,0.0693423465726167,-86.83259068282938,83.33842970754158,15.120902173294464,0.1107074566759569,0.0676564375279314,0.3969847423712369,-176.26109357152112,5.863756163585542,6.654018417279285,0.3085421510015842,0.2444370975556801,-0.0670109811463862,-131.8355624368353,19.065721201251844,12.785496554462476,0.0789105283354435,-0.0202758926824754,0.0179397226297165
0.38,-6.370142168112757,85.39146024047072,177.83929134155187,0.0544675261202309,-0.10821382083473,-0.0376510316711803,-86.5720327866592,83.57052765181787,15.229187894357882,0.124570016853886,0.0008516417140888,0.2330848394100551,-175.95192781745695,5.823533122359167,6.525965275453073,0.1934722959114747,0.1840785593054096,0.0154470576975118,-131.83999448628182,18.823001785620903,12.676739393726088,0.1649187343567337,0.1115350661083427,-0.0184641454639253
0.39,-6.425468184690208,85.3277846156278,177.6495006464281,0.0559086892505738,0.1935416766220401,0.2171104624362858,-86.66273174112777,83.46291868643863,15.179676750258173,0.200087125255996,-0.0415966230476877,0.1149328763231333,-175.9910087428416,5.924781491247573,6.616600487226201,0.0141161164341845,-0.0204755776270046,0.0380687943866403,-131.92949532333566,18.958466400826616,12.528603806400527,-0.0232861818881484,0.0427318836346054,0.0003621813124032
0.4,-6.457960424414277,85.43367386211962,177.75549065640067,0.1284299616794073,0.1138923169940607,-0.0057793005505375,-86.47723645598612,83.45995114933471,15.251088651046713,-0.0819598396609446,-0.0791398842633839,0.1623798954023113,-175.79907237640316,5.798626101479106,6.493937755364074,-0.0713545303464869,0.1844196829976448,-0.1473658584018604,-131.82482420585862,18.890723491660665,12.518824779717884,-0.0728121310648211,0.2926851165684556,-0.0846767902190252
0.41,-6.435816489391563,85.26296834453218,177.8999179193372,0.0554439271538741,-0.0931457090520609,-0.014253688263023,-86.49784575964158,83.53738614164979,15.144992142245748,0.1750954429411887,0.1157165861569791,0.070970313119173,-175.86075603797147,5.877612526981961,6.531725995197045,0.0962130880742777,0.0707649887582964,-0.0617996393768606,-132.0170379673314,18.74148356259177,12.62163941637388,0.1342881489253903,0.1296723073946261,0.0845777823924531
0.42,-6.237494474399303,85.53767056787855,177.73800197119365,0.0872495946454953,-0.104828025768365,-0.0029622087397182,-86.43627399511742,83.46509917549245,15.1130251420771,0.0973388458767166,0.1030558933166588,0.2742877072427402,-175.8905045411805,6.123335692392246,6.587289551968647,0.0048421429439171,-0.0205612060648469,-0.3383540648997148,-131.96458525173875,18.75733100107168,12.842790049403687,0.3187536329076451,0.1754398883219076,-0.1211848491450639
0.43,-6.310172968255927,85.33737826624821,177.91177128151386,0.0104465559483434,0.12210723579786,0.1705003881247009,-86.67492642382305,83.5789502390178,15.214455110576166,0.1635709804264593,-0.0071261125727661,0.1708918630151754,-176.0485406617949,6.058478324702179,6.574797697806858,0.1010079932118281,0.1637394281533228,0.0313792228633253,-131.63637672513988,18.83913126807663,12.655594346499694,0.0509465858345913,0.0186101958757109,0.0870361873229241
0.44,-6.229556094503442,85.37857863542953,177.96473153625365,-0.0384362700245501,0.0670822399523902,-0.1282259712895837,-86.36505287972119,83.55742941367019,15.115750189462087,0.0663317296069021,0.154187664998102,0.1216766009018024,-175.7803321679052,5.907704602728201,6.533515793722458,-0.0563084729605239,0.1721717553524021,0.0094431624055132,-131.87859788792468,18.852113020505463,12.721295879593836,0.2569929491476276,0.2304095982204893,0.1266570531720164
0.45,-6.273474737852793,85.60482880752384,177.898400115296,0.1166875939511328,0.1433761552236619,0.0950279864830839,-86.51483427973484,83.73791246021202,15.224503129573655,0.1445377918083942,0.2284503532456142,0.2396283140387529,-175.84544164242925,6.061208214098633,6.478139406254722,0.0038611084545556,0.2458292963064934,0.2490625246605785,-131.45656193091494,18.883851265329746,12.451214057797964,0.4510763435751187,0.0463236134316337,-0.0271660873754969
0.46,-6.208687005308697,85.675847354559,177.9186584279059,0.1643640487077099,0.1556541139393533,-0.0256816181025224,-86.50567944236589,84.05598866262163,15.279073863193156,0.0648901503475007,0.3099833095940836,-0.0409030698374282,-175.65385265492722,5.998682636129948,6.5340541627659805,-0.0284991123190446,0.2496508639319429,0.0902542157412999,-131.43716984666216,18.88995711832492,12.375083928759503,0.5218938587041506,-0.183424123149226,-0.1278059078006306
0.47,-6.11219810968736,85.62262148693185,177.77747098597897,-0.1230122818601128,0.2068295234801949,0.064779056187855,-86.83630400884257,84.19061908921985,15.437382329881828,0.2125187553036718,0.3042019785124074,0.1023332150801624,-175.63998208066616,6.034036965498673,6.599896458767802,0.0638512835399628,0.318875571872127,0.2595598644661575,-131.24155391786294,19.20810383817491,12.471048767460989,0.5452900036661881,-0.0364283727503055,0.018468712026536
0.48,-6.227080544129713,85.75966117509095,177.88352616317465,-0.0063690572356181,-0.000605783783597,-0.036089478648136,-86.64941376388944,83.86139784893996,15.438710176424095,0.2717198181775996,0.0610413821681191,0.0884096478025422,-175.2520933510712,5.923569250435058,6.344042457375563,0.1654249799905546,0.13277332351143,0.0570923078480698,-130.91455531737432,19.206563468338928,11.969215871686446,0.7394896915916388,-0.016908775901581,-0.1049506432178171
0.49,-6.136493253128594,85.44599632111075,178.05438918911548,0.074697408868978,0.1611344249233977,0.0210690698230718,-86.97520169267472,84.3677600780636,15.455129398031536,0.0773005836042664,0.286304171413853,0.1615177019121142,-174.88702018550055,5.956921553552584,6.361685891786783,-0.029834570261911,0.1669240720703471,-0.0629871707569724,-130.9324030835752,19.34971781764105,11.884270251497052,0.408282004227005,0.0863229659506624,-0.0094783045798881
0.5,-5.987048970764384,85.62584427435328,178.00041693447494,0.0447560216219648,-0.0552217749085535,0.0970926453667469,-87.1875280803558,84.44117806674791,15.379226970232152,0.2413328050062198,0.2102195618180933,0.143659498495312,-174.4012402601182,6.039525497533139,6.404628524162834,0.0346476809567219,0.1659398915052843,-0.0257097754801012,-130.5062522178733,19.58167550837981,12.075513227394076,0.505503801345049,-0.0900154136118171,0.045288958229668
0.51,-6.100747045050333,85.72671093229376,178.11130017925683,0.1714200109782063,0.0676347806402927,0.2218973197872851,-87.16517655948519,84.66642358519472,15.543776514206366,0.1156091756705176,0.2087116321502595,0.0371851728201329,-174.01372375084256,5.671686137726077,6.2672525626331295,0.203942376896386,0.1336054659493129,0.123375571288443,-130.61491530335186,19.941982858964018,11.830962277113365,0.1372070815544146,0.070611459884553,0.0437491202879287
0.52,-6.023482506758213,85.4628521374548,177.9070964846611,0.1939402161945106,0.073104952111979,-0.0469533591714364,-87.41623874460528,84.75322598651191,15.528016839970556,-0.0994253006689452,0.2559721550511491,0.0654392860249666,-174.10825197494248,5.6969192261703885,6.194540972994936,0.0924670509586607,0.1893033373144598,0.1568496448737628,-130.63534908971036,20.07781972991116,11.893208403121852,0.5201735256718002,0.0524340174306511,-0.070879550142026
0.53,-6.069825241482934,85.46414688737303,178.08733411775128,0.0741420251364605,0.1858534991224967,-0.0654257903875521,-87.40211740084139,85.20533285975475,15.581908194690184,0.0395035362747478,0.2141097037534412,0.2574367331308218,-173.57840856823933,5.471423167148441,6.436850659515103,0.0124495327401099,0.187258980365884,0.0495167645708431,-130.42426799851745,20.143934348574405,11.788146485011117,0.1798265739516707,0.0773385708130282,-0.1127596420647245
0.54,-6.029423958919037,85.53494630817526,177.977921961196,0.1852718138052422,0.1237474561293326,0.0919129426391694,-87.59162877039222,85.61478936330604,15.582347017597543,0.0053475378878452,0.0157985481731198,0.1604083791527465,-173.35913654319236,5.188870917825837,6.366445246101444,-0.0666296821106244,0.0877138592628476,0.271655491554637,-130.4770521124698,20.516840198629072,11.751763330919156,0.0261352475828972,0.011337365095016,-0.0165532725820249
0.55,-5.970070365166592,85.56374656983138,177.99876139693586,0.0410981684097628,0.1551093065791201,0.097279322825362,-87.83444407185497,85.98657246673238,15.534857725429529,0.1198559579215545,0.0750622115905158,0.2398924332862046,-173.2287404459463,5.312960761697928,6.528796638054056,0.0379244355055647,0.2436355459070587,0.177001613083409,-130.62629762184034,20.55473785451667,11.894557228716744,0.0205200129079277,0.0289806578609385,0.1296313826085658
0.56,-5.874349391154207,85.5578746040843,177.61402378447377,0.1047334093715024,0.0362950585943384,0.2156324841490537,-88.14311682659027,86.0975259292619,15.459439939073802,-0.0011504890254493,0.1171904672591962,0.1864679961857922,-172.709618260345,5.22115288031958,6.537717992828529,0.0058159882202246,0.1648582710710952,0.164342034087734,-130.60650365678043,20.73071899064989,11.730361548723836,0.170718599419623,0.0698748742410453,0.090348198648978
0.57,-6.208844830613118,85.44919848477572,177.95645714265206,0.0199844817389368,0.0364471437095103,0.1293665965033007,-88.44013923668098,86.54092685487574,15.426489663793404,0.3418531300439676,0.051780885140488,0.214333038846807,-172.95017606295275,4.790530083038552,7.025666664058317,-0.1774830605040357,0.0121583071278053,-0.0593978669881101,-130.7855220670263,20.92071146931833,11.736883105405672,0.0147781824811827,0.0554319490525,-0.0940728275114618
0.58,-6.36138194131833,85.31147250169514,177.73284222434748,0.193797332775197,0.1068041396476095,0.1780183638700779,-88.76528314386282,86.58295841285259,15.433440261896653,0.3903738825592854,0.3216246827671182,0.1425226977149923,-172.77760159655196,4.814925347745225,7.205678079535063,-0.0092260444127456,0.1581576064528946,0.1156856756413488,-130.6440183509169,21.107367387302364,11.987894659223567,0.0089813779737904,0.1096347255660358,0.1246779873767745
0.59,-6.23942505849493,85.10098325830046,177.9104848121641,-0.1068713736164002,0.3501573638719099,-0.1384382410368312,-88.94140584989127,87.1657694915463,15.451220728973764,0.2832029078248431,0.0315720281941672,-0.0550123236065916,-172.47244520731877,4.699606974352198,7.006694941378776,0.2022841642790845,0.1673027943027764,-0.1540155106347225,-130.92285422257572,21.522878407043923,12.104575623774346,0.0877617548558001,0.2043468360059183,0.2168100691828611
0.6,-6.555409299905855,85.00462123357175,177.72658450433994,0.0722133637006286,0.0007548680210268,0.0676870353473599,-89.09094429471217,87.53659343967978,15.422500779831704,0.1612029089945001,0.0763788591179373,0.0628130711522355,-172.24538913833433,4.553298216063718,7.159366378822583,0.0588543068775581,0.2439234188135589,-0.0668875455389636,-130.99002634749814,21.88231494226927,12.060594715006218,0.1769001164744711,0.0021081512387132,0.2076965354344016
0.61,-6.555953853780854,84.92423615778489,177.7992100346877,0.1455849243836581,-0.0794407699118971,0.2371641491191503,-89.25722356347924,87.68946632346268,15.253315218041084,0.0763891034043657,0.011001741934242,0.2362099466906133,-172.1532358954385,4.498243201698375,7.165573561547817,0.0607123370436442,0.2308528637885341,-0.0498237857416756,-130.95229610471452,21.655470148570444,12.07979517518322,-0.0036066424540755,0.1809096071131412,0.2759507988515928
0.62,-6.945657131915009,84.75748101828619,177.96817775198826,0.1845714924963603,-0.018012718396152,0.0011867681408992,-89.41174174678164,87.8114656989548,15.346990478443477,0.1561086064448643,0.1593953557645588,0.0727038979635783,-171.9923923251777,4.4393563256035184,7.139430426523518,0.2853869787928127,0.1270255696394002,0.2106313720227717,-130.74777787188,21.70614908136842,12.174445608719656,-0.0171176004739277,0.4619556704360007,0.4656688214361481
0.63,-7.150946379655765,84.53471572789114,177.74549816237882,0.061480845940258,0.0104945097736082,0.2331538139778585,-89.72558052298933,88.30223811695899,15.29498165234907,-0.1312496397319291,0.1630583176570096,0.2552070927175018,-171.84007066084797,4.051441604644596,7.046683255573874,0.3042271838838268,-0.0399604260567801,0.2138600551553868,-131.03710462642928,22.171901006497546,12.012926397881476,0.1032959015735539,0.2685616762102093,0.1591909070137916
0.64,-7.388108782522295,84.37645380486067,178.02840815165206,-0.0465739453356149,0.032534736376634,0.1191468609200737,-89.89920354988007,88.1381105488037,15.286860328152256,0.2546065907674543,-0.0853421403430448,0.2938307535634313,-171.7804521906019,4.059192802644513,7.118386948169019,0.3243974929365843,0.0958081595952113,0.2082612052848252,-131.13168259301597,22.275979783579743,11.987986537904252,0.1919082914961492,0.0471903146990458,0.0210597249661628
0.65,-7.552719433306428,84.32703929048296,177.98756532040878,0.116032205968371,0.1858861316063141,0.3399440568193533,-90.13252491409152,88.09896408984824,15.41730736955861,0.3220721590805639,-0.1428960180903166,0.2874639406916381,-171.9676632842838,3.893380683374029,7.178198672578532,0.2936943599709473,0.337526705481438,0.0827305349490873,-131.30233866194837,22.15839446874087,11.910521788095815,0.3317989942229813,0.1052783950536923,0.0079951427544964
0.66,-7.7746242064439075,84.160989598491,178.07345273131622,0.2636389836572015,0.4588440425707284,-0.0294568665187115,-90.45616639866758,87.74744077135435,15.296995365994492,0.1426818550804533,-0.0689517439146983,0.2229607853057839,-171.72322573976,3.886780573305488,7.23267274365701,-0.0869935527280856,0.106569991956542,0.132499020741842,-131.63479966408417,22.465659635542327,11.71764326620594,0.0488709025988755,-0.0422802640993328,0.1296557960183742
0.67,-7.827293204400667,83.97335367886876,177.84512131737702,0.3816131992831768,0.2307904961812972,-0.0565180774338205,-90.737820503373,87.43961228778161,15.428670035979684,0.3716753883442816,-0.0077560483088509,0.3505840105297836,-171.6486519002489,3.7149853438413416,7.372142860103435,0.0634604418852754,0.1037588655245147,0.1065686332688903,-131.78804960725373,22.298847930687792,11.670894548556433,0.2943833708401432,-0.0165022958711395,0.3007279593774323
0.68,-7.915861563967077,83.83275128343506,178.04566854849534,0.0416407609278496,0.1798433922992317,0.0468077919363982,-90.40769500067192,87.3517185451146,15.34461312213539,0.4174524710009106,-0.0694849498699431,0.5287643806584184,-171.73890506404766,3.785563014747457,7.569708933980011,-0.0716829092637217,0.1517888767877758,0.0809403902456126,-132.06766462665885,22.366209983490048,11.796772715628636,0.1371873107962384,0.1902644509092917,0.2865967722306748
0.69,-8.044334130620197,83.7906348833455,177.98388436532366,0.0254418749290224,0.2254388018991876,0.2645668913251583,-90.54640866821669,86.9990233943579,15.27494078778093,0.468635725200597,-0.0514629125116008,0.4521397291686597,-171.6448066037305,3.9828945994587537,7.329554154520004,0.1205308607482422,0.3916969286669505,0.2062655219784467,-132.36245304119254,22.766773311538007,11.791524460360552,0.1329937051930263,0.174020786336811,0.303393847750727
0.7,-8.044746471873827,83.50602907358085,178.13656443139556,-0.0027647108459872,0.0175827091104741,0.1551820612270766,-90.75626549157742,86.56651760035834,15.709962127151856,0.5101896262286619,0.1351886438960949,0.2926169925886329,-171.47715837794385,3.774882390132503,7.508729079281823,0.0775131631808137,0.4115387635891842,-0.0979043898198255,-132.59160445659666,22.4504413711156,11.895945653175216,0.2377185946401908,0.0178718216947706,-0.0151703510880177
0.71,-8.113213939843575,83.09844018323618,177.98860434531423,0.2306027101456751,0.0895192700545899,-0.0417980566937206,-90.72102033698287,85.86065692721505,15.506921831345275,0.5032058632478007,0.33815576327798,0.2352943119501296,-171.43547717790227,3.9718775995938262,7.546174596163068,0.0247098342707329,0.3392958755685079,0.1987491486884796,-133.12866938058554,22.47109340126411,11.659691976864975,0.2358129238150276,-0.0355343813897184,0.1124173236791533
0.72,-8.558109852136072,82.87908601842959,178.71928222036908,0.184713271258694,0.0307050709020965,-0.1270330667817301,-90.65104464407209,85.03589264415396,15.8638816125674,0.5441516104527829,-0.0013998413652664,0.4278340556869551,-171.25058296765445,3.990098541567276,7.290309802395564,-0.1673538609602128,0.2551000019967622,0.135152561719479,-133.3233764446033,22.237785767885025,11.857905705122148,0.1109482223883952,0.2297267736232218,0.1698755483470262
0.73,-8.487000769200863,82.14253311909172,179.44946007834938,0.1380239507110233,0.0804229316268721,0.2649150666740943,-90.710836426752,84.20135367988695,15.741134985657776,0.5843871138492671,0.0116794169907153,0.2473439479919855,-171.198052797718,4.003925914573993,7.588248638984309,0.0513648677967925,0.0102518236010338,-0.0102411254402723,-133.49503717148,22.312917702610758,11.773139065152716,0.2154105955659743,0.0524791405715254,0.2100863457652776
0.74,-8.947351307218531,82.08570189919907,179.84489739337602,0.1027718180484322,-0.0025466393943186,0.2029075528538272,-90.49681334682867,83.21441954544059,16.160495246066713,0.531262595146097,-0.0014136276004851,0.6109100074887095,-171.55450015519452,4.143251097217603,7.802141409948226,0.1200909703912901,0.1695939223691354,0.1772646021562672,-133.4582410525924,22.506277618406724,11.987890676761683,0.1201785699503072,0.0768468474129333,0.3533869600309536
0.75,-8.841503677146699,81.92651940571008,180.64766890397183,0.298989660212158,0.1848695899595767,0.3433501415263189,-90.59602635013408,81.97696752212596,13.676893390280878,0.7722421645420737,0.0530303961358993,0.2337921711388142,-171.66060747512591,4.190242658309804,7.807122521287325,-0.1277657200379751,0.4981622540770746,0.1466980702622939,-133.65818680172202,22.33571817456344,11.903244127013467,0.1304054718045693,0.1077942661690631,0.3563001095574146
0.76,-8.989538993342114,81.40595178883105,181.1336667808486,0.4568337112297832,0.1429932941178697,0.3367126834791714,-90.38394016167985,80.6160684827916,11.110235289250664,0.7534851778095403,-0.1646167246780475,0.2071188024593226,-171.7873427506614,4.2901261127825245,7.666592512345234,0.1830003715092809,0.565928116280813,0.285455639346453,-134.0070320489695,22.197358992360066,11.933143424578262,0.0811691576531,0.2475430971011507,0.3827813820322328
0.77,-9.234424089308966,81.0584954238332,182.0930998478118,0.3006726726815286,-0.0010803758942311,0.3090580010683082,-90.2154975511624,79.77891863223536,12.686274374289964,0.721196076748277,-0.103102214458232,0.1672596901315181,-171.80019789127687,4.451270142264619,7.703282860331268,0.0555702675911631,0.6865888410952304,0.296955929116048,-134.1440643554694,22.21540074325467,12.10031207809256,0.1604288054034064,0.0064877655052393,0.6814793707191737
0.78,-9.285487418359429,80.5860044835606,182.83896592456867,0.3478751515705222,0.1288083473157776,0.3899773902603326,-89.96232943461222,78.84235551072713,13.999674724700329,0.8445633318969524,-0.1050739305959493,0.1358990088997385,-171.8719712889438,4.655677914429645,7.572943656452186,0.163901365026938,0.8502574841174698,0.5557077248216888,-134.42870018832886,22.207155508911377,12.02542337217339,0.0232322975315161,-0.0651494051093629,0.9146733639480304
0.79,-9.29328968667821,79.82555804841046,183.7412623222141,0.1847329836824103,0.1136240841399251,0.6875728570641375,-89.6310676015661,77.78789298725562,15.4539238269785,0.6928635481815617,0.1551442827246579,0.0663593316536638,-171.18324600294412,4.934642144221676,7.32023203658999,0.0652506795644345,0.5537746562053554,0.6931318432383644,-134.6071146819024,21.82999035284466,11.92584950453426,0.08241365720038,0.2184380255775904,1.0950217819434855
0.8,-9.138978010431943,79.53208129385425,184.56823853467188,0.636815060668938,0.3573398769114316,0.8464013381290958,-89.39512900923964,76.59242779059686,16.56803238887359,0.8209691100643862,-0.0690626906899512,0.4463341913873763,-170.67467490696012,4.938504951713934,7.2063278095835965,0.4259455419864709,0.6488105350682621,0.773217546651422,-134.44862504635722,21.695633018694213,12.224617976126805,0.1889993317068127,0.1031843395251812,1.0614300438396602
0.81,-8.923798663651253,78.68722776209277,185.67116825416647,0.8894111031758815,0.45959843170845,0.332791767739677,-88.80793726644133,75.56756945766367,16.607364149791024,0.557503536193442,0.1169950579924338,0.3814589636640359,-169.84493108230404,5.198299592401956,7.017073555805059,0.2330242790859144,0.6789568193711345,0.7885601960638533,-134.84984415761144,21.719686600700975,11.714274432109429,0.3334283200373145,0.0208181634246498,0.8257588531170548
0.82,-8.862389273565787,77.6957265281245,186.67628953160556,0.7926521650436795,0.4305985542008461,0.1718920855562202,-88.41369018465632,74.56616475405842,15.892550956007405,0.2751431023952976,0.3771515134478567,0.2730724414031103,-169.33623455789143,5.712743910012549,6.722202786183904,0.1395901284703051,1.0650841386940086,0.9648175403597852,-134.7984572924857,21.765574412440237,11.77705084598684,-0.090267311097836,0.160541981787111,1.0045464425995256
0.83,-8.732280099604782,77.03016204822738,187.9684233399672,0.4867411020819309,0.3173750853569158,0.3791018876326986,-88.21851920196032,73.79074853250546,15.889514934001372,0.3659653584886401,0.2118750871042545,0.3522549741146035,-169.1351534898315,5.831444854830579,6.228790506892075,0.3039215388003192,0.8123614823777077,0.826779977043717,-134.76994258958166,21.568981981714582,11.663077568332833,0.3483680700666962,0.2971843669318325,0.4808912365105632
0.84,-8.312985655175552,76.11489726831691,189.38773527854903,0.6370020921670133,0.1228822105480723,0.0786173631638568,-87.90892292910327,73.16151151674947,15.334074383511505,0.5068498874909366,0.1802878565799054,0.0392800041257714,-168.9731073905971,6.354791457635757,6.008480023227553,0.3784420740475394,0.3851258222611979,0.7573706616666047,-134.97772318483072,21.28571235926869,11.425918018677486,0.4423718358473005,0.1832556234148024,0.6548620694331946
0.85,-8.034127512553303,75.49861267245912,189.88104244823987,0.6114780663145818,0.130973117480689,0.0769868878600055,-87.67397851666837,72.47347705508541,15.096852836136303,0.6571905499746276,-0.0100780987834286,-0.0550931079346304,-168.73884635977,6.076421997915426,6.204681796308378,0.1560762852437743,0.9047265402561416,0.6534674646196652,-134.95621477225689,21.16384703699292,11.528173760847698,0.168693807546691,0.2049098476942866,0.7181931436867446
0.86,-7.772032978298561,74.99319894652038,190.36756866059983,0.4378356668457717,0.1088628018122307,0.0933222103988355,-87.80499291849246,72.08814629848578,14.961586794380963,0.4451155118679162,-0.0382337510997978,0.1369967039565078,-168.90748966965958,6.484981004707066,6.128625795864682,0.0598430483506491,1.2051241953988838,0.6477795646232942,-135.43259551703176,21.208933390371165,11.292636242434796,0.0842065924640781,0.364399564831973,0.9523915092554156
0.87,-7.419938634667247,74.15413423490789,191.35693599992413,0.6744499532309615,0.151653204973444,0.2139545356792535,-87.33476082556501,71.078029476431,14.53578020119773,0.2411400674507622,0.0547656728927378,0.1332995712754773,-168.62258518645467,6.540701016924595,5.901014944949433,-0.0894587163193192,0.2081961704095858,0.8468404362578239,-135.70696584891726,21.210539925226318,11.307440831307837,0.18319390566428,0.3971159046139226,0.7155341289020036
0.88,-7.056799024084817,72.80746150575,192.33922279582055,0.6655292527882819,-0.0358302019543446,0.0377999918592405,-87.17145507482175,70.16357530313998,14.198011222574513,0.1736291908633384,0.2655708944355556,0.0358373784208262,-168.36696101291565,6.58861938553176,5.821506918479595,0.4351653293916089,0.012657003587925,0.6106585289192912,-136.1963939790444,20.928873781666933,11.021328239712624,0.2913025264370919,0.360575300961882,0.320897560816183
0.89,-6.32784964763873,71.51971307802262,193.06872428582705,0.4620730091283622,0.1478790575373878,0.0161321427889264,-86.69318695612947,69.43444020985147,13.623765905783095,0.1655999262843928,0.0226253284239542,0.0833349616173211,-167.68201425252883,6.885818661762472,5.83144273192798,0.2442394020062367,0.4113728114587669,0.7008835740382983,-136.60558365575514,20.933229233023468,11.22546174242777,0.1517392453938289,0.3820411683223843,0.3654235131927721
0.9,-6.084493980226804,70.4339469583664,193.69751614136575,0.1097505259314592,-0.0117140509887335,0.2145748144875898,-86.28456607808101,68.74896558560485,13.482999038531023,0.1932609209654238,0.1882430623864758,-0.1981719032911179,-167.22800113205062,6.875599330312882,5.573177335119688,0.0944570573799482,2.455962425775809,0.2059498485971449,-137.18468628045946,20.68132666867773,10.994042733907923,0.3078804338442164,0.4353585841643035,0.5361113092439971
0.91,-5.445585568308653,69.0181218183901,192.9704404084414,0.0219686270220088,0.4751410842456806,0.1477220360996501,-85.96601749010395,68.28943135382558,13.036168298199426,0.2965436142037451,0.4549350733187925,0.1125367665195901,-167.2781599229125,7.275199225311297,5.575045111474386,0.2443143199559513,0.0120503188418752,0.3935363692681017,-137.4978099429657,20.506515400354875,11.172089776792449,0.4462057654156525,0.2223769389824533,0.5770123820959137
0.92,-4.848372241599549,67.64185260468003,192.2816846897914,0.3602161329632367,0.3808085843844065,0.0264435048270715,-85.72230268025615,67.64394308337742,12.95183029346268,0.3764384911593825,0.0313800755570123,0.1952611687512616,-167.345417903749,7.468007858207045,5.395678397726207,0.3464041666644351,0.2699511427837194,0.3039885600047264,-137.6828768862563,20.375417636142902,11.265534907074374,0.1488376818818818,0.3529967871904567,0.4186988793826984
0.93,-4.279081894144353,66.6987757377102,191.79307009413304,0.4038869214156783,0.1406674841868191,0.1441841396360315,-85.26472194481678,67.28321510616576,12.67705456502195,0.5834503498964126,0.1255674558167213,-0.10857452977898,-167.44207907652586,7.548712445166362,4.958236455632757,0.7768291126554011,0.7573416347997562,0.7465309516792681,-138.01628549018295,20.324993599254032,11.11265822421495,0.1787532005812447,0.6278506673322495,0.0616182693425476
0.94,-4.060241809568105,65.61338903935864,191.27838398397,0.0544701893158872,0.2082647015792182,0.6055788974297873,-85.22230533297265,67.02843312215106,12.488797617471766,0.7894353461842377,-0.0736339679295053,0.1829803625091108,-168.00923898530183,7.90261655912529,5.063327213817713,0.3680987306960113,0.6993708235534544,0.5258769468499829,-138.23597097966112,20.24453947968614,11.271352072259528,0.4394711137506287,0.1840679170021757,0.3486246396302395
0.95,-3.431349852710446,64.51908416349603,190.81936273022535,0.3302245408102029,0.4502801635550073,0.6425652421407928,-85.2289079524585,66.87713393598433,12.20656448908884,0.6270562025012225,-0.0964285018691771,0.1548155497994659,-168.68346160021457,7.986832578948441,5.074932693755375,0.220896730379919,0.1135223889371427,0.0293445138693562,-138.73551502482798,20.207761022318632,11.31769655970582,0.424019087865908,0.6813753236353545,0.0605796729388873
0.96,-3.3183678567903394,63.45946463917786,190.3979822908808,0.418776732519557,0.0450846369319859,0.6505640005633737,-84.74105657675676,66.45146417866592,12.06674589641768,0.2767262227741013,0.2003605455144302,0.1104624260822789,-168.8692711821421,7.940702939472349,5.603169440618151,0.4082105049248195,0.4506945265679826,0.0152665396822875,-139.51232196789724,20.27906948474154,11.392240655690594,0.3350965068317245,0.567909510900609,0.0514215779157579
0.97,-2.4036034863653013,62.36514850175537,189.9670530609917,0.3283970044175571,0.3191711786901174,0.4735129847948875,-84.70811550149641,66.23059187820763,11.964329620563966,-0.1154098204781021,0.0347875422225463,0.2725017781395665,-168.48884101061998,7.899290536369326,5.448224070026507,0.4753818675550519,0.9998265594067418,0.0992292323414691,-139.93511037618734,20.33284290030025,11.658291791598606,0.1166983308492594,0.2620799010848635,0.489724322476503
0.98,-2.037606483735116,61.50366071926663,189.6059793646481,0.3642099237375411,0.3807861822108841,0.6287477883364624,-84.65728272627614,66.00478536632829,11.819454176869847,0.0820425498907631,0.101454580705323,0.135741708289317,-168.70400708179614,7.976749973306236,5.599776047502786,0.1058670411873555,0.4843507303051911,0.2765025773158543,-140.49213113687736,20.161728816642803,11.778646764512231,0.2773746249678357,0.2238974869898367,0.7339217511281994
0.99,-1.6430041437220448,61.00198174887098,189.04945614136184,0.7408211617127072,0.2509037501631384,0.6998621514989927,-84.63294346778777,65.52377934689214,11.653498096520154,0.235025647685614,0.0632914515367987,0.107602873304338,-168.73602139018615,8.039771507493843,5.627583428389948,0.2874754051615101,0.8902790300268777,0.7407671413950271,-140.95716171938034,20.05213603409348,11.863123765303616,0.0639575194617413,0.2329206183776933,0.8469069719564478
1.0,-1.2448875174406449,60.30357993964662,188.90551036455815,0.813802029255584,0.3106109139881352,0.2740918753189776,-84.63991377896829,65.22764174379284,11.993588492573831,0.196033030496707,0.0544960826048464,0.1162644782902022,-168.97605698065038,8.322771088702892,5.818031356259683,0.6706811763101006,0.8506393287292562,0.932517682562573,-141.26360904167845,20.181710154875265,11.950930621286387,0.1329640821146349,0.2004959152240926,0.8046310298717072
1.01,-0.9672796855674552,59.612671001442685,188.45531987608908,1.1896661704717413,0.2970051099196493,0.2810059796360066,-84.93576097456399,65.06115289918493,12.16140725705675,0.2324539690636707,-0.0261113900616132,0.0740065277740666,-168.9966166531386,8.268317782902038,5.855178250974618,0.3494140039947514,0.5358760345161313,0.885299994443702,-141.55582509235884,19.94465366608358,12.182577083945796,0.0243607697671866,0.3426604760850275,0.7145655472497396
1.02,-0.6985145614072695,59.21782363743487,188.4817569539877,1.3371609660911747,0.4224414124596043,0.1768238051645675,-84.97144536189785,65.12357084309834,12.149854543220972,0.2022908481620275,0.0791529095983841,0.1452228485687031,-169.49509549154277,8.276653794958753,6.047151277377379,0.260831568433317,0.527465999342914,0.7572892122977408,-141.60976791699608,19.855307937800383,11.977556489694088,0.0745755798335572,0.2526088584076612,0.4208178750912313
1.03,-0.457884886603942,58.89599270106889,188.36621589261392,1.150625739606408,0.1810343262492663,-0.0130125185509041,-85.05978016792547,65.01746325656043,12.256665446098884,0.0884296313586688,0.0526575186024545,0.2149183667762255,-169.4507483126877,8.5716590864501,6.052448673393965,0.2453588575328965,0.4891365242551145,0.4335920283120504,-141.7638006103208,20.150307770566844,12.254797327547433,0.2490582982027195,0.4197244886678744,0.4074397275550786
1.04,0.1818125386109969,58.44175394198352,187.82689195341615,0.7262080797754994,0.0404183644535765,0.3314271235924051,-85.04971348046105,64.79494648217376,12.443774618669998,0.686866080121158,0.3702679641532407,0.0064158278027841,-169.8175669225393,8.410214306002292,6.075897031294564,0.1243950168641955,0.1356823687248117,0.4328874069182313,-141.88152702001153,19.96899804761432,12.293689485316524,0.0527357502948329,0.3312457996715269,0.2943173288544918
1.05,0.3346812676244048,58.24661195111785,187.6732161326438,0.3776787422823992,0.1709653893322727,0.3608294952781553,-85.57608749229925,64.58715371230588,12.638073423474747,0.3736618779543895,0.4973392525417305,0.0981221716899693,-170.1640502248246,8.314109529011374,6.176510686598342,0.1523694063829412,0.1028756239465585,0.1102650859338644,-142.135912875772,19.999558591144563,12.258123614542292,-0.001966603882309,0.3899435170492021,0.3005788698877992
1.06,0.7762208635320518,57.89836493805905,187.55646490787527,0.1041941156603389,0.2022424101707886,0.5327049024756924,-85.6360780007865,64.39333291723136,12.919961561372908,0.299572155640198,0.0476936079129998,0.2728014449631514,-170.23068887261775,8.248624074299448,6.332284010549165,0.2412604465961793,0.1890912168188912,0.2904136052693709,-142.03356441767698,20.000538010655788,12.392939164838433,0.1110703805452075,-0.1067665792415206,0.3075424052167324
1.07,0.9754506712654452,57.687226076530365,187.3153492630705,0.2815671141103573,0.1512052682724979,0.3597328467028808,-85.78969920186248,64.44059561855053,13.201821662987582,0.4859256240642853,-0.0065072624404214,0.1114725338028578,-170.3353753905279,8.413433279730375,6.359342625899207,0.2790353500459464,0.0442409425296474,0.67141018562355,-142.36263332774936,20.160663837001398,12.626189592170707,0.179971434744468,0.2028113291116155,0.3253469608140671
1.08,1.0684051850176968,57.34236197199496,187.2811918562231,0.5663369881599467,-0.12407464582527,0.0476340766750729,-86.48058702238609,64.30480078662782,13.627633253311618,0.2340231597538747,0.0567157914629207,0.0235990869725221,-170.42622590496313,8.526524962195419,6.397015475245624,0.1220596232411503,-0.0430073548569237,0.4595867139078335,-142.13289711759936,19.93391749743613,12.469159263004144,-0.0003878529390041,0.141193962655056,0.2301744291200482
1.09,0.8132870054934281,57.03064416721831,187.42128067593436,0.7748794093839853,0.081748508803437,0.1499081110951922,-86.47050738221485,64.60553099560074,13.644614951201556,0.1440298964303288,0.0976739116637178,-0.0112746145086807,-170.39014850415975,8.264688573328826,6.402893831746479,0.2700702747138974,0.1474047520364277,-0.1094451455310209,-141.9447556297745,20.02195184988734,12.394633635356676,0.4079023944633904,0.3427733426159159,0.2194175618665806
1.1,0.7715450840582141,56.548121567071554,187.59805372943023,0.4541744400092313,0.0330957116447626,0.3908041875917549,-86.69487014484238,64.55352840955177,13.9223095884949,0.5738417547589622,0.2758452633438114,0.3778512707655957,-170.46153582820017,8.261806661926773,6.158175242835353,0.2209160928891152,0.0520920939552601,0.427600556424961,-141.78523785830612,20.09354757706489,12.154237737517072,0.0733465892135148,-0.1328007348094248,0.1336157197166653
1.11,0.7167232524158413,56.273743128903725,187.68466544169544,-0.0209936178197271,0.0483076222401104,0.1114801666522746,-86.83602103680192,64.34451492841228,13.82060260100744,0.624432335816135,0.2422959025214892,0.573409301199356,-170.28374674639085,8.308759207419723,6.374473193606377,0.3409795332468232,0.1178594693221291,0.2774171435744754,-141.82690445483388,20.174184544179116,12.087416943167614,0.3631139482855572,0.4393077609305949,0.3986632108113005
1.12,0.4542725169691539,56.2310104121067,187.70162966171512,-0.0252568238363357,0.2496742389917218,0.0978529117576116,-87.13138950923742,64.55434807277076,13.9574087037033,0.8539749628910503,0.2361065087876852,0.3376952137268183,-170.22978353977786,8.270219712778944,6.240011268965047,0.1020862155011245,0.1172638933457996,0.9816608001089496,-141.46538747663183,20.19642133714607,12.378450476139284,0.3562143981563584,0.1003231651546558,0.2685706170962575
1.13,0.0289222869159697,56.15516914324119,187.8309058992828,0.7813025550629216,0.2806279025421404,0.094928556709325,-87.011832313159,64.42988960686765,13.962526246337832,1.0010370905365191,0.3687954823812169,0.363285759308328,-170.1330528740073,8.264060348823666,6.399217485276344,0.0030042154060172,-0.0731976758946207,0.8172710626578312,-141.5028811240035,20.06493169433594,12.12778082708397,0.2095948081959111,0.3181259954026846,0.0281111211984736
1.14,0.1197157762056438,55.713322921536,187.87149481600864,0.91242710459984,0.1931620404938371,0.06646987313814,-87.05514753731154,64.27795541067194,13.71915473671612,1.0722037807344766,0.0979089395870361,0.6122963477376908,-169.97774628232247,8.202858132929597,6.289557876389899,0.5905623044775931,0.0481631981363531,0.1047964551480999,-141.3567431697354,19.8437487282702,11.97377036531302,0.291628504375047,0.4746168986970919,0.2852635200823296
1.15,-0.3499314129998057,55.45787783654939,188.21357471691917,0.7662880723045211,0.3621550917997435,0.2577355338164591,-86.99687931260925,64.22325314862327,13.628833847411368,0.6382021817636427,0.1869814158289967,0.3915750286844596,-169.89842051192693,8.259619593193174,6.395756267389396,0.2601890143126735,-0.0040847973341649,0.4312980687051442,-141.07512293441133,19.83929035893783,11.62986586866657,0.2670434665555338,0.8926008165802283,0.5693070009081513
1.16,-0.3381336914998225,55.31206412535759,188.3455551229777,0.1245157219929037,0.2950558243669037,0.1245048463913762,-86.72464553705588,64.6727897231284,13.452899302726228,0.1751961460587825,0.2470620665061239,-0.1822166503379778,-170.03923461921613,8.333966920911312,6.227410176748557,0.2327602198873158,0.065483630040539,0.6353073939385717,-140.96985180150102,19.474306116259807,11.699625835556065,0.6285248618427668,1.059273480833226,0.6640836530874721
1.17,-0.4653094593859855,55.190766612431446,188.4094366178854,0.0737141546590821,0.2340142077010911,0.0333923837429813,-86.66031440889915,64.76642935347259,13.067514799311253,0.0140032768386589,0.1471715752695566,0.0912710861181408,-169.9591536120927,8.455167894556753,6.523842976578099,0.1885583349381795,0.3050343363621751,0.916916351745968,-140.4336142351269,19.48227054766509,11.56196027193764,0.9935343344256338,0.7729725307565035,0.3803564760882108
1.18,-0.5835249057803513,55.0919556820752,188.1647334480898,0.6264276904176529,0.1801708101200059,0.5346268998450383,-86.46121835067461,65.06912653453739,12.824708257676845,0.1161109684718925,0.2532873827519987,0.1898745834853832,-169.97811086184774,8.472534382941069,6.383287731712176,0.519116912479102,0.3856448042784426,0.8834050154410774,-140.3541729539137,19.14620860096136,11.70764958703935,0.7786845768910905,0.7654916207353337,0.4627382162356647
1.19,-0.6482727624893936,55.023151301600606,188.26009913971748,0.6651171401329663,0.3367461497062495,0.242896894419733,-86.49039521032124,65.05433194653583,13.15097649591537,0.172845903216929,0.1089378248815964,0.1760301170190693,-169.72519885278683,8.423529591466973,6.4206670787626114,0.7463326771188044,0.5975524822100299,0.2654036807947635,-139.80599287371493,19.171093532132897,11.797664038247186,0.5895716789647031,0.6282903138624162,0.4183199790835614
1.2,-0.9403186825934384,54.71780511144749,188.17981502381664,1.1732442358640571,0.217494924621871,0.2738726282267547,-86.55532228755246,65.03394915615253,13.134456147858424,0.1104084141138358,0.1381278953140121,-0.2164896764598476,-169.58703475589138,8.351957720029153,6.390071974379995,0.6912333749500605,1.105823363695391,0.1516384275722463,-139.32026740265948,18.883450991256364,11.75857909556744,0.4608681861109883,0.3962766884544469,0.4276750277005091
1.21,-1.0482622566818491,54.65253991404921,188.5382614358099,1.3005491294606135,0.7416528174109862,0.0327827076721645,-86.50107497577451,64.96509544781505,12.926495986377256,0.3588334601102951,0.0536020601156111,0.1460792281300865,-169.24103662060037,8.701367962234823,6.461603731765331,0.5819313903226829,0.9890840772989432,0.070490566004733,-138.79068249456876,18.571500330194745,11.841460706267592,0.014638919750321,0.7486307021378727,0.8466999419027913
1.22,-0.8794287302876856,54.46007296773311,188.5943499104801,1.1906287998666971,0.3674563108533484,0.1767407715441277,-86.41674508933639,65.02853159047051,13.011570379047123,0.4451271686688233,0.3074968281754047,0.0198747573884781,-168.65094996827204,8.838091943975474,6.176987548837021,0.8313100333380766,0.5504157845210349,0.0516983375565518,-138.12899077628586,18.45569616768668,11.838620398778582,0.533051741003821,1.218308724502127,0.6717380214060051
1.23,-0.9025253777408052,54.51624402660044,188.3626582906124,1.1452582985068531,0.2615450925929006,0.3288560820177278,-86.49196501114164,65.15310394521853,12.818741907478548,0.5625665976907819,0.2364465571484965,0.2018990207610665,-167.96633709086004,9.14308284313934,6.166860665232802,0.8895254177150038,0.0257279540372223,0.0319083091870338,-137.53211349680575,18.31395883919674,11.54012812870351,0.1241462440362477,0.7388305126486556,0.4460103586545501
1.24,-0.744382973600232,54.49481432859642,188.26308315040416,0.295180840288112,0.4718878783068831,-0.1771294426929086,-86.35303807830563,65.2348095599531,12.685724069997784,0.3120159661799953,0.1960762861103316,0.23484443557146,-166.64759803887367,9.535337433762331,6.08244766561032,0.6517375023213904,0.56478364818449,0.1138368305899209,-137.49519202851602,18.263934506450592,11.187465067284744,-0.1548681459687594,0.6951843516207501,0.4783603022728528
1.25,-0.6787697368922556,54.85186278619108,188.0611157391131,0.0014890056285632,0.4113384915711051,0.2320325876621735,-86.25553531218559,65.52411489516226,12.275205102377786,0.5809068790353662,0.4012442085524769,0.32687013487855,-165.70469909821344,9.872645746818474,5.984873100139902,0.4897087468976072,1.5456041403373757,0.6613598506685775,-137.58961312427616,17.92599408196808,11.342187655540558,0.3521221073412779,0.689995406182983,0.291615797805278
1.26,-0.6645399032859269,54.99707800141938,188.039893000954,-0.008669088857988,0.1049643756758668,0.313211885787695,-86.06704506389367,65.5041189445135,11.903360286866048,0.5083208614210658,0.2592857049100397,0.1177439318086563,-164.9802850215264,10.22593006734338,5.810973520445891,0.1138183209148156,2.600238356293024,1.1818736129875933,-137.6334606970537,17.581823750373776,11.54224919744932,0.8297969547528813,1.0524943676422158,0.3024021475908549
1.27,-0.5175956696326418,54.83259994581042,188.0342465238137,0.1740397208040379,-0.0970809385063836,0.2750415194696839,-85.42789634904577,65.48004412038505,11.83305560983198,0.6237385297141987,0.2106150103761685,0.243239633885623,-165.00565202120418,10.55546808106896,5.992219843348825,0.1665485080393731,2.262523705727624,0.8867168037567525,-138.11563136715253,17.1614272290377,11.833542430930468,0.977520663919368,0.5204384564061671,0.95867565454739
1.28,-0.5133924998469076,54.61465080713084,187.8208161262691,0.5337659685195101,0.3184649600229277,0.1580410275664768,-85.42645926107095,65.43973228901311,11.776966789085872,1.0013761920750115,-0.0721874608574657,0.5267244876226647,-166.04085132483863,10.61893882836622,5.824284951898545,0.2834340480371509,1.715052123258388,1.0420679318814443,-138.33877363754698,16.91189500215758,12.22063441041021,0.9036418878227904,0.0304541320270065,1.058974396896711
1.29,-0.5302572897182856,54.655185921246805,187.7950291898979,0.762611388135501,0.1260011107182483,0.0806343872724827,-85.31225509828599,65.83994623228884,11.414143036933082,1.59872886252953,0.1544485144061454,0.8095013207708293,-167.0282697750921,10.640951235267092,5.951384581441597,0.4423628805741554,0.725525698686774,0.9307150362681236,-138.24584898887545,16.76790067564413,12.359500924765884,1.15226949923164,0.5402702290442063,1.2649111261852064
1.3,-0.4059649377766407,54.5885209888008,187.7482846834648,0.8068972575932896,0.2456274910958777,0.1212084028309082,-84.92679317249194,65.92691496881815,11.522424771275237,1.9979944653399524,0.3039804899377483,0.6850841385389831,-168.21510909317234,10.66007434448956,6.365753088276642,0.2859735830051228,1.1065052390213626,0.7947617563788907,-137.71989902093767,17.140940765360376,12.689682631143723,0.700782058952834,1.2453976008331928,0.9552897303823868
1.31,-0.4473147408352376,54.86810661015325,187.8609491941521,0.7326358939384797,0.5161503535179678,0.0377838727146813,-85.05451733766115,66.343667226821,11.492115571701246,1.97503070723828,0.4438036333738086,0.6893520600399933,-169.1879224027269,10.572114409678573,6.210845966933478,0.3728186562402036,0.773407246607372,1.2275311461677942,-137.03366830733296,17.259499243530083,12.975755288110555,0.891898793761015,1.4541845058337286,0.6998521709670714
1.32,-0.594820831234596,54.7780893421948,187.7752133276225,0.7802334433634819,0.4398689603892995,0.3103224953317345,-84.92945588697204,66.60614608081566,11.222328095469084,2.421619031928412,0.5347469032731941,0.9910949520579752,-170.76906291638724,10.332083703492804,6.335534152799179,0.01140826577906,0.1517739514657649,1.3912070795647768,-136.39339022125137,17.71600258913188,13.482236806089263,0.7705426974386705,1.321819345450427,1.1984286230845365
1.33,-0.3301543234960274,54.89196615341534,187.60197585635208,0.7687475600123147,0.2373196899067329,0.2450901654068571,-84.60847081887671,67.24948783407034,10.993188334590776,2.195158654970816,0.3746216206212155,0.4639746164334898,-171.36509244072954,10.433121468520284,6.124968568804277,0.6644989524353349,0.6821778995103063,1.8137528161609884,-136.1682106142361,17.736014234794208,13.690562950933284,1.0601202322047607,0.5977531652738338,1.5648166547779514
1.34,-0.1456406674367037,54.99218807700275,187.5183080405492,1.0933069126266408,-0.0118571881771488,0.2152566866585496,-84.38658732378568,67.82560053336898,10.88006695895509,1.900458577163495,0.4400293355081036,0.4519942311661377,-171.79680802362265,10.22580469787926,6.280696927744285,0.1421874415777478,0.2390952871764812,1.71460435630629,-136.28778787717243,18.09192792398608,14.204433346201364,1.3245428452848926,0.5276945311046985,1.413228957442367
1.35,0.1313077559182565,55.10785420688768,187.55752420650816,1.3149975281783135,-0.1410272491963919,0.1682284814417243,-83.992270928372,68.48517038258365,10.412596926511808,1.8055586605121008,0.2290049752781034,0.2667247986318395,-172.20964386620773,9.616763112721806,6.064856968206599,0.1409805683875237,0.102857388131521,1.852687613287319,-135.78060903752618,18.53527089589605,14.914303635166291,1.3256865015281432,0.6777035278819113,1.6569609302569095
1.36,0.3667763047192282,55.24663849248126,187.3198563596581,1.3529241907301133,0.3203186421021489,0.1447815306941515,-83.7249630708535,69.25208117399362,10.090483002976262,1.559895111818774,0.175336351706598,0.2544125209544017,-171.8078333594493,9.295308578104615,5.7658094138015,0.0445322387631107,0.3611061489952026,1.9275883346573928,-135.71090172006794,18.26829076865413,15.196353925343937,1.4236806685857664,0.8219524274292958,1.869912200921178
1.37,0.2881784180746582,55.364654807459296,187.20218477148964,1.269594584463273,0.1746391678902411,0.3374115396453737,-83.77456484838567,69.2211646017739,10.002596040250909,1.6174940737386296,0.0728797446425356,0.2722752804350521,-171.64228739475217,9.124880440185544,5.701029141492022,-0.060037419390732,0.4671432456208568,2.009892932694047,-135.39337311115935,18.386761397420894,15.403662657002458,1.3443120477962325,0.7399245475985953,2.142321434587733
1.38,0.2963652255994491,55.54183279834624,187.33040449100096,1.863740171644164,0.4609381529578563,0.3427096300749876,-83.15262970304954,70.03093065107598,9.652042130023974,1.3252165643618945,0.1371209363279588,0.2937262107898974,-171.31366587930256,8.50190313802686,5.319728461610259,0.0300770621494801,0.8461803291371768,2.146739037181913,-134.10274691577175,19.01761659489914,15.558406972852303,1.210519223641369,0.2065599347414883,2.2191570234608933
1.39,0.4747592031173825,55.92480755472361,187.28203760576656,2.095903551716429,0.4814268114733135,0.3725451877095745,-82.63115538408036,71.00535987662246,8.941520965362132,0.7023969079024553,0.0883834227177806,0.2857490046304893,-170.33552174715143,7.604155641444079,5.3814643473218124,0.3559612410677509,0.1100888026952023,2.4498105495318976,-132.99358533695272,19.6348670360197,15.352098582724576,0.8364854175393543,0.3522231228333554,2.452576279549917
1.4,0.488514455292391,56.23768983147742,187.1105991623321,2.6720238535443466,0.7042044074617805,0.2727154762687803,-82.26129410324994,71.97220376665166,8.80192726107308,0.5816759915754023,0.0654175405966666,0.0049928422407212,-169.66296171231232,6.909797580269172,5.18567293746856,0.7418880836002537,0.7057350572182421,2.657508475494629,-131.68701238240277,20.29326496672268,15.238493825114448,1.335965309292504,1.3395829727613775,3.143618316548577
1.41,0.7089029303294756,56.73911908343635,187.34748468274407,2.6393663671496963,0.8174379401937273,0.4680594496405029,-82.17100432753129,73.02934290105169,8.026327162215193,0.3931667495902359,0.164799928295371,0.1666150327631687,-168.97763702732414,5.9563400415174295,4.966896140233385,0.8504354872179422,1.3081048168409948,2.258856550166552,-130.90999149328923,20.77875724444384,15.017658957888676,1.3709596038499083,1.1810442432856116,2.932020902168166
1.42,0.8829592990741145,57.25688537863358,187.129860103174,1.873617631761224,0.4549039552039214,0.4666306374179164,-81.7218873641852,74.15232448421379,7.607968282335401,0.2822286033942632,0.063995039959679,-0.1847394261511886,-168.08672773367908,5.0801820103723525,5.210902225759113,1.0431842719126756,1.7582598322424785,1.670848065597049,-130.62745693711227,21.585828562073317,15.487894884207313,0.5541346053296278,0.3311060508389928,2.683153491328941
1.43,0.9320357077818932,58.17877682961244,186.89504088566997,1.5694310383614825,0.2796814503039044,0.0270125310881616,-81.8054456478751,75.11205618207784,7.14855941401273,0.4442464864652352,0.27784516173608,0.1136067636141597,-167.83140655742417,4.102304223813735,4.870942183782812,0.5470630138435901,1.6206989373002851,1.9531121777588611,-130.67797215309025,22.02253246136236,15.53722536723832,0.4439555806725002,0.188534108027947,2.4581121321175567
1.44,1.0980173111252427,59.24512183051954,186.81280490382085,1.3360394726273743,0.1289999264048167,0.0238150248932941,-81.60519578189427,76.21800098198048,6.875358842022196,1.1338117474298857,0.1867387906695939,0.1404363525255608,-168.16904576677103,3.7273592391509673,4.576928141300958,0.1121212642575576,1.74932669003702,2.255198916800754,-131.11923496871654,22.372142553968715,16.681265679325428,0.0464945222821016,0.5483050589421916,2.581762924497956
1.45,1.4887572691839095,59.70359565821764,186.5269414474751,1.3158319137303998,0.2340216624857612,-0.0224220317001945,-81.82487242599824,77.37063524286954,6.775868572085825,0.8612957997156319,-0.0530726044113309,0.2135138852854747,-168.72803024427583,2.9243597354985247,4.400315998326477,0.4057423015154864,1.76359175680217,2.108863309391056,-131.38050825741976,23.16046793638607,17.47888115487593,0.0821276900538408,0.3642153621287652,2.1429284792967778
1.46,1.8152924735910456,60.91210928512262,186.54650020291973,1.3176900528144384,0.5522360656940813,0.2816980678733689,-82.13412896978639,78.73842053636076,6.764480704803721,1.753910394101274,0.2538442761057954,0.0946633792233964,-169.6361900607993,1.6435515743537126,4.617762396549235,0.5781130800653203,1.7296370233801848,1.6179967582413384,-131.49555219988767,23.86818232509681,18.649246607798645,0.1155287067273103,0.3677755117338179,2.1929944128121743
1.47,2.096777519189967,61.686879683651625,186.00628117355555,0.7623439508051923,0.0858543570101918,0.2445114554447587,-82.09265285897973,80.12189961734968,6.669546569284299,1.747742371467128,0.2854173030062298,-0.1265333568731534,-170.80443607383427,1.0582529645067331,4.697837624373611,0.4237744991124114,1.5970824226411828,0.6993445531178175,-131.44860130635612,24.578011644055078,19.88497254937044,0.2160647775738244,0.759744480274415,1.649622135726191
1.48,2.4320734941949285,63.03730062570994,185.7537442159455,0.3360967664932649,0.262274775135886,0.3252333510255628,-82.26104397870604,81.31197653723459,6.730609987169944,1.5815874160502037,0.3589655948408405,0.0044413915452553,-171.7403902678436,0.3087493205446141,5.215875507259595,0.3819050353603445,1.4229962629376227,-0.0370983438049553,-131.11382860806435,25.562681195330764,21.15537356932461,0.0478938108621867,0.4386449514635745,1.0045393844343828
1.49,2.6451446299336125,64.1307226682942,185.48253768281103,0.0495544558577196,0.2364687297067186,0.4324519117664719,-82.7522101770501,81.79512345116832,6.851495838065892,1.455944428694691,0.3052982218466847,0.2120680741837022,-173.08228435945165,1.3755569738498057,5.22585690622132,0.0842690541887386,0.6172747636875594,0.2601614775007766,-130.27067396622724,26.844496813475573,22.82603259072475,0.0385510510167861,0.4020366280925788,0.6154181981229684
1.5,2.873043115625308,65.59390652601618,185.40482275968907,0.4516948152823526,0.2283430258716227,0.4938245761987307,-82.71797183812456,82.94354390901938,6.948176721378306,1.3133442100391994,0.2612331206545341,0.1032361087325395,-174.10273397632136,2.44383366006935,5.721403912632043,0.1210348598111655,0.1892815561126152,0.5252283967912474,-130.03727388422757,28.137973828425856,24.348335063247507,0.3050708242324065,0.0938741693896177,0.0995176778048517
1.51,2.834907599432177,66.73238204327507,185.14027451248904,0.6604239535275076,0.192832258630339,0.4576186725456553,-83.17443841642486,83.96863185376537,7.080116716113062,1.2532257990573996,0.2748088789664267,0.1480743871895988,-175.05380359607128,3.643456544821887,6.274580058089055,0.0515288103899249,0.034454088888793,0.8784835387772203,-129.0941453511571,29.33732436923549,26.09536433429321,0.2065624030916377,0.3735657565672682,0.3823272854503586
1.52,2.691340342725936,68.174695128319,184.967834469583,1.2340685085004208,0.2142985726112884,0.4199813314435493,-83.68254045151554,85.24434056774486,7.134885618225532,0.7965422564120367,0.1787653467109395,0.28353646935262,-176.13750248933405,5.433040497861147,6.694477273790489,0.2633874109068836,0.2814242972240099,1.3220905358362949,-127.92287693495692,31.02400477021108,27.39729129508322,0.2088548089638032,0.0132601227714715,0.64901023336645
1.53,2.660155737560466,68.77500306828604,185.26394895652516,1.1668636216714432,0.1584237873396227,0.2084280407604463,-83.59541540531154,85.84322494983807,7.250743892057596,0.5347619918968631,0.2560635652811551,0.1076263334782242,-176.4680812349305,6.0779220413348,7.010850269674594,0.3311726636300979,0.5407732151071932,1.3566800750063055,-127.0124236580785,31.73483657076713,28.33191788715513,0.4002809028684431,0.2745866368800184,0.6847388572977745
1.54,2.656680291477432,69.46631944668901,185.0507038945765,1.4895491936105334,0.1565660774300835,0.197428731724001,-83.74672897310874,86.49123463171628,7.44128561994615,0.5454902318649982,0.0995698168459545,0.1154568572226269,-176.9092912881916,7.143346358305232,7.433096437350693,0.7354398996308171,0.5706828816317101,1.7007557785065246,-126.10933037632712,32.77369872018515,28.687013330854587,0.2734391142531088,0.1206222444041409,0.7266345609696705
1.55,2.271679483725676,70.98819758316094,185.11087784525603,1.412606752226713,0.2514735010393139,0.0601069122854585,-83.89950009345857,87.37252411092663,7.522067689117214,0.3237887780271338,0.1020848050228812,0.2457707032386197,-177.49505459068973,8.725947513868272,8.026325470288137,0.8947752479429936,0.5317672424718902,1.4410533219348287,-124.59645874415146,34.74317137386976,29.7308817990064,0.5582621922141704,0.3400932254462972,0.7135231169021058
1.56,2.3217017109889797,72.23334301340005,185.3434565861736,1.5244665554802177,-0.0205908269601203,-0.1483427321619715,-84.37070725563663,88.39180570730866,7.738056748750105,0.1174899948798081,0.3130822036142634,0.087493831249211,-177.62092419921098,10.194758895732445,8.871047019424195,0.9677377633048316,0.5737611884255001,1.3575863761873523,-122.70489959912724,36.682431494469725,30.703442343020303,0.7280770703678927,0.956017059020808,0.967497713326502
1.57,1.7379906968545424,73.48046955129715,185.7806684219612,1.5935193264604002,0.1367997121370322,0.1984718473777968,-84.65936518067384,89.49850554584864,7.795154594963245,0.175376204323685,-0.1823254203165903,0.2968117682895497,-177.66083700957685,12.019128252543837,9.91986066873287,0.9953917149822368,-0.063785465940646,1.6412233871282926,-121.10959679559784,38.71583746270899,31.525734516261284,0.7088877472570202,0.3964638089049164,0.6148666589470906
1.58,1.5669725603612712,74.64925334288169,186.4271840064856,1.2457152404086482,-0.0873394402428253,0.1069146428793336,-85.00834999354068,89.56586194730467,7.772232502528146,0.088182604416231,0.3442855028608615,0.7054151308129165,-177.837117923784,13.543300684976844,10.893302839645388,0.8595332023843567,0.5250509567123415,1.2072742481367127,-120.08298795208454,40.84588123152287,32.619537303033674,0.8758402429066616,0.1663426108229289,0.3982606183382902
1.59,1.1652196505077146,75.73822812691694,186.99995545959365,1.1537046113684006,0.1928114862766212,-0.0614546808733966,-85.04641221484955,88.32076661250662,7.906233472800348,0.227502701760226,0.3484697124819175,0.8097089191165183,-178.24102115394462,15.059071635054678,11.988789647417258,1.2262713998828647,0.5605750329011903,0.8127698663733336,-118.65408051291983,42.91316857356431,33.54294384717278,1.1634346022797897,0.3185602274173051,0.3650480655852356
1.6,0.7744650520478894,76.65357978754014,187.40999063635107,0.7636322496092757,0.3338696435657177,0.1632440812705726,-85.19721423332562,87.03808887858966,7.883929614641345,0.6603084248832486,0.1346006632431984,0.2522961650502325,-178.63250768526373,16.435192513327234,13.269133087104755,1.3522539999136032,0.3116304100593818,0.8572109956934326,-117.5138574983922,44.89183206406388,35.00257872956426,1.286873170223841,0.2201191763772748,0.2369844261170378
1.61,0.4908624220925839,77.5680976407925,188.03303790103624,0.1971859195405613,0.1018334879547221,0.0093885153689154,-84.98109608498135,85.98052016896384,8.011468661259263,1.2948168360893546,0.2926708739213399,0.0858302057819486,-179.20890266391535,17.90181697068937,14.723472707211938,1.7054808950340348,0.1857144872716022,0.9548973712007768,-116.6668261398378,46.69983455382846,36.59159747246847,1.103498329067714,0.1965278576680526,-0.0616543241357433
1.62,0.4695483156016871,78.46836881445344,188.6647770433861,-0.0655145086568852,-0.0326884816448827,0.1294829216751732,-85.25633596663512,84.6983938094772,8.241772924416752,1.142446532706642,-0.0410698998184562,0.0038282800978663,-180.2100113968093,19.05395138239528,16.427903742041092,1.5131699021418847,0.5183139030109115,0.9212273349329674,-115.98315102992832,48.5444646779556,38.8329890260558,0.2265481012925782,1.2644330344344217,0.5724174345944811
1.63,0.4071682701151238,79.5254674639698,189.4947788864788,0.2684398455249426,-0.0934810716520693,0.7991682455852711,-85.42723269147633,83.69909652754002,8.258272907755439,1.1255448194344733,0.1489008256829993,0.1088748226791049,-181.411827086993,19.91227671557576,18.44152636992926,1.3215834361417882,0.0120672726643008,0.6954201716988869,-115.50672101000607,50.38586327109388,41.370761105405535,0.282446432925149,1.6271867595162146,0.255748054728773
1.64,0.0353702352317928,80.21281625947236,190.19191541290164,0.3899520116005994,0.1504505896524143,0.5729701363066234,-85.46068391051286,82.95246485492208,8.263410519216091,1.351193898699932,-0.0178473755859937,0.2965756472147507,-182.6155029854128,20.863915746078195,20.44583317115,1.4402670586177266,0.1259164111502183,0.6764906988877588,-115.10697947014462,52.39667790883684,44.0770788008841,0.9947959322006454,0.6078203566312094,0.0568724727709715
1.65,-0.093180943964296,81.01287690093869,190.6402557373299,0.1228913564193215,-0.0628841975385876,0.2791707266523126,-85.52738270650586,82.05020377549633,7.828160057945295,0.5912377335794761,-0.0219906447492652,0.7272072764167382,-183.938198302189,21.04882837944737,22.614131112686064,0.3575008840688463,0.2314853273820368,0.5822135399998624,-113.99291430700993,54.524304516451856,47.18773088782918,0.8043664455074312,0.517184341282801,0.9356080402515216
1.66,-0.1437547234678822,81.97421385314595,191.02457453358463,0.2559861399732834,-0.0698960282414142,0.117941213668153,-85.36691862893605,81.80961288725207,7.581593300328284,0.054250346265453,0.2307473717010761,1.0626839935604424,-185.3636589401168,21.551315721962425,24.971789213328695,-0.0107409371578406,0.376853008770068,0.5862309649099149,-113.05664375311386,56.57203285947281,50.27974009251724,0.5847975100851023,0.7621765109522017,0.8282419012324841
1.67,-0.1471104572662227,83.14461950937333,191.33895266809455,0.560588740328209,-0.0781766084776257,0.2017159830220962,-85.19401549818484,81.12399793556224,7.456796896577824,0.0704381818505643,0.2913931542925994,0.6164641293922043,-187.1987787845104,21.66514744043764,27.78375496041065,0.4723139419020458,0.9548667443592516,1.175274282879619,-111.9064753529426,58.40948333512219,53.57183692739327,0.585642224791905,0.1541605790989002,0.7600197352075657
1.68,-0.1825819088295683,84.08567241978899,193.80949990860876,0.992908152583207,0.1182010797479768,0.1519143730579099,-85.30610376477624,80.26306439942147,7.733210814506495,-0.0740491628012195,0.1793054891745046,0.1753721490344057,-188.1458995891398,22.07113709509929,30.572334803898933,0.4375569257922757,0.889935261035133,1.5833415115482792,-110.75371839427682,60.47498087566704,53.5348994413285,0.3823295747809701,-0.010365967030168,0.4436954490092634
1.69,-0.4341898154304739,85.06733738987135,193.61227966068807,1.409673072090006,0.3484715388563845,0.0696309126847374,-85.10394493270108,79.72273225918296,7.610511214045167,0.1955990500539873,0.1434633069694427,-0.0096377527991704,-188.96405251480675,22.38633138220084,32.911402427286546,0.3142493657656156,0.9293404430981356,1.037209673768369,-109.8278647573538,62.57741619084553,53.51594305894443,0.4546215155518249,0.2183906840007141,0.2073069432747011
1.7,-0.3738824568158831,85.4953790665666,193.40817130623853,1.187832581320932,0.3456779431868508,0.1781262937767331,-85.29573979150463,79.54980602728011,7.7010806819229725,0.242069580165588,0.3185609851650616,0.1567448646728401,-189.30097452257945,22.28181498990547,34.048368118624886,0.0873571148721304,0.8088157461968073,0.715921027198886,-109.0058665472107,63.61302920286961,55.81252503235073,0.5208598911598471,0.0919198853689034,0.4369642308708522
1.71,-0.6291536704239078,86.1061704203471,193.42515976980815,1.4316437334623011,0.4633040048829504,0.341777877525195,-85.21500555798158,79.15766997772833,7.901280955314676,0.4501355555211752,0.2141892554311777,0.1988780072356797,-189.5364641891865,22.423558445231084,35.51428304722052,0.045418049032553,0.7382853945112465,0.4439272966326337,-108.49298695320095,64.65628676947227,58.27552630549327,0.6289193919400481,0.3691084797736922,0.5025512337868161
1.72,-0.6557767241373222,86.69652088836173,193.33734437690205,0.8601184559878009,0.2282423563781742,0.5371724448417781,-84.97566078934929,78.7081822196783,7.951777424874697,0.8301696516529203,0.0336260384448478,-0.0647000341824884,-190.08386640334908,22.94715121915924,37.8443857018798,0.0890119505589446,0.6896754191477257,0.4504375265296516,-106.8478007030485,66.41191572905473,63.73827432757362,0.3598556875842997,0.3137815462448454,0.735653876998648
1.73,-0.6066288326611635,87.20393272309498,193.3420336958825,0.223201235193318,0.1416091068121699,1.059873375050386,-85.0396365406076,78.69623439869244,8.13989701861225,0.6147001307835317,0.2427541681729327,0.0564549376513844,-191.03694551313416,23.13672021350376,40.41311920885642,0.307934257878293,0.4894122309768701,0.3790659332561282,-105.45449750892942,68.29861123659134,69.23098027839596,0.4403567456399175,0.2976324417676325,0.7317257708281822
1.74,-0.3927066987854203,87.81851035966164,193.2300285927972,0.5114391392111624,-0.059247504169935,0.6380758969030857,-84.95473182501873,78.43442093628344,8.28400972424853,0.2714747743433025,0.1205343123477459,-0.172332243122549,-191.4582548534389,23.393314607549996,43.07342648262297,0.5111223113276384,0.1868289203593243,0.1532351505140159,-104.08328979953464,69.47753043017796,75.94814808827674,0.5246624362384373,0.6296720497985453,0.6439779648053533
1.75,-0.2395396252925239,88.42620217403407,193.28360067371057,0.20910633339283,0.2872187777059183,0.5205845137712671,-84.64637887739433,78.09341983030603,8.535910607787093,0.1316721443024124,0.3558952593851799,-0.0500831331517209,-191.8002736875196,23.63452952154252,45.11280283645259,0.6574523740467682,0.1352580275495241,-0.0188718373503927,-103.28428334505833,70.27623242768146,83.58889549713639,0.6692933239792218,0.249416399897016,0.1252191080505909
1.76,-0.3254017549002987,88.57259217771222,193.12218981539704,0.5936666866541526,0.094580849236208,0.3738520195103266,-84.55957996859057,78.00075023592389,8.203335955861716,0.4182236612005569,0.1298981605968021,0.1310907438500577,-192.4744598285904,23.381030827988614,47.56777378212725,0.3525540055463658,0.3613154569574798,0.0932589532909562,-101.96152222567348,70.79118189908989,91.43568944316672,0.428538901890969,0.3461737487101124,-0.0368156440251952
1.77,-0.5193325982211743,89.02937585994388,192.91992145430257,0.6811051588366026,0.3419630699937404,-0.0137989420916878,-84.54447838034635,78.00803060762549,8.093359181977787,0.1197847433426578,0.1661148505557901,0.1411249303028552,-193.384941522424,23.390478274269068,49.68950337090276,0.2544151595558331,0.7686251945731011,0.2131287745347418,-100.62301736893276,71.21052179759376,99.21918091940564,0.7925095675844465,0.4287532453387817,0.3036496046143995
1.78,-0.1208328194491107,89.0218219430549,193.0431727108299,0.5952139303383885,0.0401733206975451,0.1407360117907246,-84.55599563614624,77.61375958137647,7.976005175615944,0.0320955691322984,0.0075109789514671,0.1261356180311331,-193.70149004890337,23.33486376053388,51.34440847637201,0.2848626207730013,1.0281141419856583,0.5317207605613523,-99.55818951741684,71.01658607902898,106.7001830357263,0.5237656707586741,0.3202565400350701,0.2646577361484707
1.79,-0.1415331394687118,89.0349821534694,192.96875494068024,0.4005336281761091,0.3548058785662629,0.1721906797400694,-84.32216554282455,77.51679603998834,7.839849379535988,0.1160645543901893,0.1465729723396306,0.183277208523707,-194.19414866263995,22.92393044093138,52.9759717903205,0.271168246924812,1.5021655078356009,0.9114467548810946,-98.28639981726862,70.38032633240329,113.48617616783685,0.2519511310001058,0.5056358944184619,0.0986892018116121
1.8,-0.0008377945366551,89.26984606163633,193.2200720570169,0.3922188456668402,0.2766882575744437,0.1421726671762523,-84.1850564023874,77.5120861091071,7.64803684438063,0.2026719460400209,0.3660507990628366,0.1461805131158664,-194.5411104254813,23.03129698667073,54.627020273392894,0.3268704417501605,0.9272473469307908,0.7436706784508957,-97.2529321908741,69.89259907630648,120.0472624963465,0.499217794778601,0.3759917201732307,0.0169762026902235
1.81,-0.0041170510374066,89.2429452802863,193.1032460665228,0.0803290976883355,0.0958561785759523,0.1344874138200442,-83.91741023482922,77.43778839395341,7.883458949601217,0.3746125796646329,0.4864804802211521,0.0406503185681966,-194.6271792046655,22.628255298459035,56.641821284726994,0.397068346937258,0.9850229278451204,0.2762886267712996,-95.93770979645905,69.54812857907903,126.37538067444126,0.3027937169970934,0.453813805771827,0.2271293580552369
1.82,-0.0118015995357839,89.16623646221339,193.11226056018944,-0.0931896645951634,0.0251498829634561,0.1300257762680833,-84.12063632085831,77.41878892687264,8.11515963073058,0.3781098442394488,0.6795344454761031,0.4647037360787299,-194.72813165026545,22.59907087198993,58.62319428755222,0.3513451674320295,0.7674003234532358,0.0477092239328115,-94.6365229659576,68.4276296430506,132.0487795133752,0.3004387473868567,0.258912940630801,0.3724856594353625
1.83,-0.1959279531471145,88.6818100767233,193.17943393475636,0.0084856761664403,-0.0334773001916453,0.0143570454466054,-83.80361775465086,77.4934539293625,8.228691911879356,0.1886975472188497,0.7796434450263614,0.5860900244041665,-194.6609165098583,22.613332231627865,60.44861498922442,0.6325461165926294,0.8389580303338546,-0.0177461808608407,-93.88436895926694,67.57066017810811,136.82140133994392,0.2885087664821589,0.0471232334009784,0.4544855117801856
1.84,-0.0883839402044277,88.58939752163478,193.1230656355565,0.5672669360772212,0.1274111099234997,0.2680368124152201,-83.84341614191669,77.71340861018973,7.982719979505575,0.6157453652134566,0.6578721833904939,0.0178403984580367,-194.6860006650565,22.7615847814804,62.53186646233719,0.7841820451250103,0.7671602480229531,0.0847175475976991,-92.80048331440628,66.73026428138824,141.17283531579196,0.8989973976024194,0.6839494478551433,0.9342343769695908
1.85,0.1197645125798013,88.86361122147953,193.16768573700344,0.1163703637429071,0.0873824459665174,0.0986390935889435,-83.79664170840825,77.8030971677812,7.967477695012485,0.3662117352024988,0.6020606401885267,0.1268145858685466,-194.2836556372652,22.673968709848182,64.31566981797997,0.4338532611203951,0.8803148273592162,0.0880308161465748,-92.17217835054537,66.32131916323844,143.06525242368662,0.6088214820134383,0.8443530682487911,0.7453670201033461
1.86,0.2866435283628873,88.71979674013839,193.02389350222597,0.3460070964612305,0.0027858786030048,0.2309717208570454,-83.68096383979415,77.87565869047945,7.859816344748544,0.2783762430771182,0.5175384593288456,0.0780009874687734,-193.962063313961,22.497853783502237,65.98374669392508,0.1607327354691282,0.9113658823996182,0.3667516967545688,-92.025402233214,65.13428417035503,146.16118608440834,0.6464730218392892,-0.0070309042064374,0.2498201669546257
1.87,0.4498724736598341,88.71603618171214,193.13690219550156,0.3878794131599156,0.1093889510112842,0.327814406062874,-83.5967442010678,77.94424723963793,7.811683595703439,0.1263617971061342,0.8255152170985067,0.3225202995697515,-193.7764729638917,22.500202336907734,66.95473658547982,0.0495300942973132,0.6069832994994802,0.1024154440469558,-91.62899536451626,64.83706876960832,147.096749363173,0.6386915480537565,-0.0598334122270545,0.322647974449142
1.88,0.4793539838507042,88.7278333205682,193.1305895705156,0.1872702405418804,0.2384996430744545,0.5086641701603476,-83.76412801799017,78.07736288517061,7.577927178792121,0.3127496623441747,0.8322053648584475,0.1041803405923434,-193.52219289811976,22.53041861010024,67.97708114587323,0.149773254875753,0.4996519595264443,0.1481816622129806,-91.59723121583288,64.21275972145956,148.00409573351763,0.5881309607238953,0.340720388892729,0.5861405378812611
1.89,0.5251838360320762,88.55474554579908,193.10404925885263,0.2050763745339877,0.2582126346839596,0.3846127049174406,-83.76000249305163,78.50369983274126,7.206132393089959,0.1132535133350487,0.2990626544476161,0.0696769956852848,-192.8254262221816,22.5084840274716,69.6900810995435,0.3565483010165042,0.2097650496970156,0.0458514590331462,-91.75770289045585,63.3671263224291,149.87767336718088,0.7507520724852469,0.0261474158702299,0.3323715230312558
1.9,0.6616734962281977,88.4516947523804,193.0676028691864,0.3819455753955917,0.7016327717893037,0.1441911044857921,-83.83068520267511,78.62262488536199,6.702707205082287,0.3002345405341157,0.0613474262039556,0.1837060289435347,-192.21439313158996,22.524625511540933,71.61845053719225,0.365372151197709,0.0823006814502315,0.0574870138088275,-91.32618488582604,62.21416505128154,151.35950868331332,0.6171562281789644,0.0777306183600161,0.4349702062552278
1.91,0.6428395000572367,88.54904661736086,193.14333930664932,0.3534291211206669,0.4179933480066953,0.2107086363177121,-83.8877363715828,79.03838969886722,6.27395223370318,0.1623994815696459,-0.0239894028490703,0.1132028543322426,-191.47464828186503,22.24863017114533,73.35119650652348,0.3601734388793782,0.1411222776879614,-0.0446249015936692,-91.40088947278208,61.324816756191424,152.45606870202658,0.4263874420457298,0.427522541349572,0.6653447584855035
1.92,0.6665290702890446,88.67028456617177,193.13743796093476,0.4951326442956328,0.6422088677444192,0.1528173419546589,-84.25108732392043,79.49415897252541,5.808053324629594,0.0876574558661516,0.0178149101522456,0.2934793742190549,-190.8693324416921,22.27902201914216,74.83567812970468,0.5879178747360639,0.494306149335891,0.0987688866460498,-91.14267181634088,60.54841270271481,153.77590633418268,0.4072402468521112,0.5084425736873163,1.4576228287138862
1.93,0.8774223003864483,88.58766732120537,193.0593779450377,0.4979469349138447,0.669386642333773,0.2573447137089016,-84.2028217971627,79.884687552811,5.305363477480854,0.0728278462003264,0.0982956990870732,0.0248764087145653,-189.9362433338115,22.589411009075125,76.04808240813935,0.3608874100975881,0.0700836333540419,0.2846211296650658,-91.86612627201237,59.66094203051136,154.1561779342964,0.3463305388975342,0.3564694276320201,1.4449269099915465
1.94,0.6409788680728895,88.49803667353677,193.55182378081383,0.1681895015555997,0.5144432124540708,0.3090171464430929,-84.26327497588242,80.3181887905375,4.842799150291579,0.0635850305530756,0.2403087955926869,-0.0232694393128934,-188.98256800003355,22.80905493298688,77.46842880422919,0.0854565944480971,0.4016489445758499,0.6749053235290833,-92.29232989461929,58.30361820368504,154.63077984790132,0.4485838534259594,0.5911654132796296,1.2406034780955095
1.95,0.724891359148884,88.57522983034285,193.44513455791116,0.0827311256620357,0.2778919228954425,0.5687459428787291,-84.51633946832547,80.5865300164076,4.478418058084846,0.2436424715616907,0.1730871143365582,0.0932338108303368,-188.2513845299728,23.06527085809359,78.83196163704098,0.0626867830635064,0.4769013822627505,0.6294353147309303,-92.49044598330195,57.47898354342093,155.7879362840619,0.47508225036396,0.5392068693017593,1.1924654144155593
1.96,0.3495971896021285,88.59556322893515,193.37309203993604,0.206260647608601,0.3048066178268565,0.2742293942302127,-84.48240348275338,80.82643996347976,4.256182106542852,0.2276940185457205,0.0810421037794633,0.0216362851025766,-187.38114704952437,23.194387376893868,80.00304504198434,0.2780631290305872,0.6187257362040708,0.2087526036105196,-93.48170394775042,56.16125557108328,155.9155371395213,0.8194331255588835,0.2468052258457188,0.4723534598388438
1.97,0.3489237437141889,88.67617646515241,193.3923962120104,0.1138153570495549,0.2943961918575225,0.4101944161850875,-84.66025722321812,80.88304705376439,3.7896039577219938,0.1268535527960179,0.0151200934137006,0.0983690391481903,-186.76650880299132,23.05781908266004,81.28751094657586,0.8507125432810294,0.7981741844783907,0.4245600961695133,-94.59770008492634,54.66853323434139,155.56375692681996,1.2704851112226407,0.216372582034828,0.4362887943251042
1.98,0.1335101985695756,88.59217655216992,193.53903507965947,0.1427153907794211,0.2742550200432372,0.201956378563781,-84.77805918429233,81.27050035621664,3.1793499226303403,-0.0287953651987665,0.2083219902586877,0.3949795595875067,-186.40529698344008,23.0173040412674,82.44215716956104,1.226067747445007,0.5751995473367644,0.4739295709826377,-95.29617190698282,53.599533291467054,155.8152499315217,0.6294700468900024,0.1256832462944517,0.9582935642744708
1.99,-0.0108880934406783,88.72519751266407,193.3738084132226,0.1889902179743656,0.17008540125359,0.2448442069255735,-85.01057246643937,81.28057008846186,2.83892446515071,-0.0013761918225582,0.0948127560817651,0.1926676445901604,-186.7129847741948,22.55726224506428,83.8501370750455,0.7483053795917914,0.3782526247504578,0.6280303307094367,-95.82588029244832,52.81223471710478,155.75144645987544,0.4626188111886722,0.2233923639854735,1.1147131117183762
2.0,-0.2752033423774548,88.9089871267609,193.44467894104912,0.1321529759148328,0.2358883329294356,0.1975285751093568,-84.81181175518539,81.66890761763769,1.9669009091029472,0.1432954726922027,0.1479842767637887,0.117833067645252,-186.34448821765912,22.43386962667817,85.06212122728171,0.7352726088032481,0.3409612292790064,0.185706062065862,-96.03075534332277,51.938559852021285,155.65734957605375,0.5992017923896708,0.5432352263934735,0.3920224740206512
2.01,-0.2920123723949487,88.93581887504044,193.3075712786201,0.1069737451981418,0.2927985614981482,0.2064829714613045,-85.03258521910863,81.82483750652187,2.254183728776101,0.2788051488131794,0.1655383046116716,0.1026468579352341,-185.96733946162755,22.30517408222115,86.15475359746777,0.6596461104287862,0.0150321544847242,0.0731495095531081,-96.9439029865381,51.21861039411952,155.96027722134698,1.2746795450342714,0.2877296695821722,0.4129899742515983
2.02,-0.5105777144724444,88.91970434091688,193.375513420608,0.0811146460159006,0.3938778197585952,0.2279358576456654,-84.87008359502043,82.22952430430163,3.155964063965294,0.1965048170159551,0.1950850456627992,0.3100493228670032,-185.4297889877909,22.55377915605313,87.04461207492977,0.6810841947624356,0.5616201064573312,0.1347916378838748,-97.74411920942896,50.5168128758962,155.75239788923628,0.9650230180343936,0.3780044080021856,0.5257684932851594
2.03,-0.5271498417549799,88.99133970115498,193.26733562987775,0.1589852436532249,0.0743725457953797,0.2162977853038737,-84.6435526515124,82.43202029390868,3.7174911062591134,0.1842241035942228,0.1297487829954484,0.0277134688147274,-184.59041851020112,23.03897449964963,87.8357186250699,0.7580626333176346,0.4735966337680269,0.0973737143134627,-98.64321621787268,49.90143342805213,155.86386890035493,0.4045619151644106,0.4079564108653092,0.7649892079452378
2.04,-0.781435502726054,89.17257966289091,193.17251153246968,-0.0029699210423636,0.2014764701216256,0.0395881018961519,-84.58328998349498,82.78311827854466,4.415547799130225,0.022614969226558,0.0696593990271717,-0.0292484760753594,-184.1892758547688,23.30475765129574,88.39415210278995,0.3817667686898272,0.285163665768145,0.1067962306800855,-99.19835902545069,49.335855570933546,155.83744648900606,0.4503355211738615,0.1998786077414352,0.6273530926960623
2.05,-0.7786742517370872,89.18466639890735,193.6133452772081,0.2323332772260108,0.2553381933316796,-0.0555185997069814,-84.62077459090678,82.69993275775239,4.65450476498069,0.1273104373960638,-0.0216509444993387,-0.0388701377263819,-183.725453581917,23.507423770468066,88.61998601574102,0.7355841913560018,0.4932790153302216,0.2091081420147732,-99.71961120776432,48.88863449189555,155.66672622311145,0.7925594027209832,-0.0178255729414145,0.3157775078597712
2.06,-0.8971108082942801,88.99740017385771,193.2012065424906,-0.0179226982208978,0.2861723553607105,0.1010967529445339,-84.5636050733403,82.95546746789039,5.745393839991678,0.0919462128079919,0.1241031901653391,-0.0529480778176062,-182.2527989884212,24.26915843522235,89.44623818259313,0.5792582767081507,0.5107034429795367,0.0052193334025259,-100.6897173329667,48.15080127489584,155.64098117215502,0.9552655173243988,0.3147106399145309,0.0797073571912491
2.07,-0.9812540661996014,89.02275095684702,193.18169672495625,0.1786393863795509,0.0625509228454985,-0.1132588863876236,-84.26194319726322,83.2621154150161,4.025897065703681,0.1022175575721754,0.315746057828098,0.0573354357226408,-181.07054265332485,24.7185742724853,89.8655223599989,0.2742706310049263,0.7400220817493445,0.3784092212357456,-101.89209677672194,47.44329275449975,155.24351332263558,1.0752349385067648,0.0874442600864504,-0.209494779772723
2.08,-0.7324891204537901,89.30840359434515,193.4672187732757,0.2183786806326615,0.2746373783257275,-0.1106072935516858,-84.31788016543214,83.61905385119714,2.649570015027856,0.3646951167449461,0.1094545188652894,0.0858847040862118,-180.15162126588265,25.058481820577686,90.5651689938562,0.4404656978110277,0.6062321734501054,0.2562559568211696,-103.41155579240092,46.72048443610954,154.79950310484776,0.4491291819029144,0.1867908898775056,0.2372109025617914
2.09,-0.8007640368619559,89.28413257899822,193.64829652610788,-0.0373631950075941,0.177863110042959,0.0889377306860504,-83.99751590368325,84.04480573552728,2.7003913093873417,0.1097995953203324,0.157949254607252,-0.0657701989307246,-179.12679312909532,25.557184663945,91.4496795504245,0.5299902992352347,0.2919847580272999,0.1764342940862336,-105.15122666493669,45.962143626091866,154.31060213395506,0.583381085350659,0.2233848876258918,0.1919892356451019
2.1,-0.7721238388625151,88.94156249215168,193.84465810036352,0.1999295005900221,0.3277826159686821,0.3258443801946084,-83.94100380875972,84.52647868783309,2.863921918166122,0.3122466737859423,0.0876481852460304,0.1772983646119312,-178.46149094661672,25.51120437569303,92.22880516854173,0.5070087349229202,0.3906148520531299,0.1931009898721013,-106.84104429691364,45.38598542256773,154.03197900190682,0.6475320637201398,0.0917490678042833,0.4514722674683494
2.11,-0.5263045222666327,88.94337052064408,193.763276417978,-0.0776486726323939,0.0893992576619668,-0.0079267666293041,-83.88751880319451,85.1176222777271,2.934633750759451,0.3813291173128227,0.256519826431529,0.0728101042404125,-177.81604762646418,25.285018660299315,93.13238504822992,0.0766830161884303,0.233995434610653,0.2166502366351858,-108.36920375099533,45.28927341567952,153.14339250259,0.4787436658587913,0.2996771053086552,0.7011577651438817
2.12,-0.0519777979506647,88.77137751455402,193.62170636119205,0.0773765376217531,0.0897315856010406,0.0923221211475632,-83.59940496936211,85.61198239497868,3.071823694542619,0.2213255467414787,0.0744102430899805,0.2706382663776379,-177.4454630156196,25.105589937426597,94.38381785411757,0.2396712378004157,0.5110962642313933,0.1588519743892005,-109.98255909961829,44.533443282382336,152.53536068126488,1.3394666984372097,0.1529148807079525,0.7931252691950192
2.13,-0.0616245762528832,88.77550606365314,193.9608897517428,0.0243401555120201,-0.0197867151292137,0.0694293281045443,-83.55579723872717,86.07944362118141,3.2911168887685784,0.1437210715583148,0.0361402105195118,0.276028107605324,-176.68000522328504,25.00140901226347,95.0337473827005,0.1425864379685427,0.5814497820670849,0.2096801744845163,-111.22844459213226,44.31496439765888,151.9439465518559,0.8439899666198625,0.3133560652814432,0.4887202580723176
2.14,0.0510440622856174,88.79454663369056,193.69257395747664,0.0948052591789389,0.0075775688990123,-0.1110994905782713,-83.3261843902279,86.51695218032448,3.412559255566405,0.2390024781975088,0.0576072915425501,0.235657816799781,-175.9934611968781,24.780565237850368,95.61239775905894,0.1742087414495768,0.6817113173593576,0.1009472624561114,-112.4858873908844,44.171927298588926,151.58860729541135,0.9126655928219108,0.4191877453179116,0.3108792672496696
2.15,0.1812048580016633,88.73282204714653,193.98330236269004,0.2188378243447482,0.177951288060649,0.238690956102874,-83.20845138458702,87.22294302533602,3.7105606941286142,0.0553944496728775,-0.0688364538919704,0.5333188898379801,-175.72571701114018,24.82107984468143,96.45821762107256,0.3137274012547616,0.5724776822317783,0.2114323581411989,-113.71767159220394,43.8836123850227,150.85096523953834,0.7389211402348871,0.5695248316811458,0.530370326582208
2.16,0.3608350243366334,88.41605720436661,193.917525220494,0.3232019806962498,0.048635427613858,0.2509503188668506,-83.11165454124796,87.32976834569224,3.484674274321498,0.1391937832235144,0.1080292174551849,0.2642460458284306,-175.04233854457138,24.86794685680354,96.73338901959136,0.1549421546647057,0.0647971389673737,0.2616073260071457,-115.07958854114612,43.97553070464355,150.30049652315552,0.6578733178881114,0.5846627158206904,0.5929191724510602
2.17,0.4242453677278563,88.2860967001054,194.20232743831215,0.0884905625090772,0.1063722117172943,0.2404644267999637,-83.30048263000366,87.69344264912196,3.803995376165209,0.1347583829927119,0.2273452609168404,0.265118061854784,-174.1638262511776,25.15719786920051,97.022730556963,0.0549374044827373,-0.0981093289687478,0.1551004047734147,-116.26334466207295,44.0717716925796,149.44403850457988,0.4294179926594923,0.2139496496135424,0.5188694507082663
2.18,0.458526848285566,87.97175596913749,194.199875461646,0.0957260772010904,0.110501800908024,0.0412613523324067,-83.39476860059405,87.79319943398023,3.82821760938377,0.1508836325640989,0.2489544335100751,0.2810320043035474,-173.52225668035118,25.64528488514293,97.32492609044404,0.0449065183638408,0.2445160808298313,-0.0332464558822501,-117.26963026667612,44.13338579584813,149.23215565584562,0.7323297403575673,0.6549273224580733,0.6684273338817838
2.19,0.5544376775529869,87.61936869197956,194.3198968248577,-0.0408591421996729,0.1768073568325278,0.2321195012740044,-83.39572512406043,87.81798742132655,4.055920754490004,0.0889711514184932,0.1097379839214864,-0.030913133514122,-172.4971736775023,26.07021871892501,97.41601120893604,-0.1415263003455781,0.0837567582490129,0.3757901719710992,-117.50767391175452,44.29668090183144,148.6889823675681,0.4932019689310173,0.6053362200853816,0.9817954663260816
2.2,0.5973641881864177,87.49481976857571,194.3067064826197,0.1944996918164301,0.1420044747529147,0.0360347035518664,-83.38847205168847,87.68920834041671,4.156493160801446,0.3292310234213319,-0.0508136428880954,0.3823403022748539,-171.77545825987582,26.807652020382392,97.67107948751872,0.6770500797136971,0.5241521913815232,0.7209927545440269,-117.90107900085458,44.77486580930059,148.72623229890917,0.5100714777095395,0.4465210869049898,0.7635526263100905
2.21,0.4649417672727236,87.46658051255544,194.24784629426856,0.3189473964932568,0.1773144293751581,-0.0001919359658238,-83.6085683904914,87.58152102317185,4.09868390953633,0.2057344388842898,0.0700910838821808,0.7073232092993735,-171.31790251991444,27.1295811819216,97.65437060871716,0.8320236970647055,0.3547226093100683,0.6328598321805341,-118.32121179289368,45.0646212684813,148.55892453615976,0.2868562307770874,0.5857132019384259,0.907186865065584
2.22,0.4826331297810527,87.20611415177996,194.2192391175878,0.2746105506481411,0.0317023978127915,0.0169611255159939,-83.50202304294804,87.40048944673208,3.974645313826109,0.093633259466588,-0.0882807685564221,0.2714284042624339,-170.8977556090183,27.522832350387464,97.64409966820244,0.8499750118470484,0.4082818710453266,0.9769733093698144,-118.7930249883526,45.3777504742203,148.30510224522743,0.253063339498226,0.8023149182626351,1.2008881301545993
2.23,0.6216079017236167,87.11220211842767,194.06034686396973,0.0807239043547998,0.1108062819923149,0.2293295924832473,-83.4242364338983,87.103333011727,3.934435571122624,0.3104426078454718,-0.0662225768133131,0.0940906889784772,-169.5298309005725,28.15111887995453,97.79862020321632,0.8135552247757649,0.4302384656239618,1.043646242969473,-119.27204652849308,45.52226670641942,148.40928367526888,0.1021572710511417,0.3678988562433914,1.5769992244966342
2.24,0.3886459955433922,86.99077035411409,194.0164537758032,-0.1366878086796577,0.0392775274587077,0.0337083721914956,-83.49781165320746,87.28159779244388,3.837236330114835,0.3991185906644768,0.1338193162147031,0.2137477149962455,-169.0249059643853,28.70688442049749,98.08188193784228,0.6764551415222879,0.2987184593454776,0.936758787495952,-119.64791791515673,45.84362921581038,148.23668988950968,-0.0241026667932304,0.0959241640149028,1.676109544790393
2.25,0.3538488678876997,86.6824910261253,193.75858878125888,0.0084758821977716,0.0863744854232417,0.1721053029553248,-83.76082893473568,86.76479407182552,3.861108697942179,0.0577623768919258,-0.0924865552887327,0.1687462518848397,-168.18981424231376,29.511523249784037,97.96988832061308,0.6325052860269532,0.1984405867587372,1.3921308463919222,-120.13925727131246,46.04797320064005,148.15002150500388,0.3335993896104045,0.6284925701043442,1.2861096964203207
2.26,0.5419602140623873,86.33266705368615,193.77468714571984,0.2197873634424309,0.1655636626458929,0.3065837451424685,-83.89958639096247,86.57744597162436,3.9345741130910175,0.146412555585768,0.2374587310615876,0.3556488990545556,-167.09356651082445,29.64101553224491,98.16595402102644,0.4040317705073061,0.2956532815874713,1.626577488807957,-120.63961832921976,46.55088264791608,147.7002209525638,0.3617552374381472,0.2843492839463252,1.1968459708970285
2.27,0.2450940451078183,86.28952454958319,193.67664798497512,-0.0451974750163986,0.0880468110564179,0.2409504229298086,-83.85293033225318,86.19660020447974,3.930936524199955,0.0155379288122135,0.2026326820350549,0.282554858245984,-166.43208534920925,30.117714566116582,98.37788553780372,-0.0659219398537507,0.1108899009617744,1.3385622969482516,-121.52460059346303,46.9798771639172,147.23468179898936,0.8315315754310225,0.6098086721811534,0.9288511796855548
2.28,0.2441806165688013,86.09651336800637,193.68088850567705,0.0363518823621868,0.0546821893868904,0.4223503690717678,-83.74540406567044,86.08104012481316,3.80063587260846,0.2750960299167763,0.300334789415131,0.5388015152070298,-166.22607964607792,30.09562153184745,98.42693868852147,0.0030989608804301,0.7260072406174967,1.1714740038706224,-122.71527963099524,47.01825298301773,146.5399568218109,0.665361853843284,0.3237670985759034,1.1875477189659578
2.29,0.0930623706193845,85.98189090108036,193.5464685317532,-0.1636958658713796,0.3152871625620175,0.3368224584810567,-83.91103844758791,85.93667955765379,3.953413602463372,0.4939663713030144,0.0879107391595561,0.3594904759913397,-165.60849120833242,30.13108919981727,98.90558271288953,0.1492576557686376,0.2558860551699654,0.5558996594043617,-123.85085005088088,47.0167819241432,145.505580158566,0.2047049486513109,1.0436049407786685,1.0672231445337963
2.3,-0.0879039700864423,85.89903000454069,193.80379817277995,0.3707533292588881,0.1920334409905547,-0.0461865578317397,-83.82049688771036,85.96602029867971,3.999502270833461,0.2941999450327946,0.244849179229474,0.085015851860362,-165.26844202260682,30.104454212910515,98.84921907902604,0.0479000633758468,0.2777030838941695,0.6458192265801032,-125.0485161728895,47.16733635387135,144.79104301516358,-0.0288235293693102,0.3855083339580406,0.875188366908773
2.31,-0.0362879277694351,85.89385924983591,193.4707467760106,0.0179181847888332,0.0077326734069514,0.1291966635904386,-83.97960716831179,85.69101665600695,3.84149490418774,-0.0437204761428635,0.4165018229983159,0.1860815049549631,-164.74236209785292,30.271274407234426,98.9913458908264,0.1636295589011097,0.0837243122860655,1.159910475324193,-126.02492813060326,47.22498049458091,144.00990453661416,0.1955244447272275,0.1654191193032596,1.325164120742237
2.32,0.0497846122379062,85.28015773416529,193.5198044745608,0.0721828304994876,0.2579942423333367,0.1465639257176381,-84.12824752006047,85.72655582800165,3.849205266260213,0.0132413642668517,0.2731531088300087,0.0839934555526116,-164.24266316240735,30.30977991614449,99.39251738833288,0.2048762426080634,0.1987714886577105,0.6944427082743339,-127.08036480000668,47.27622991548302,143.41068352865852,0.1646824568200889,0.2092978589969383,1.3708545081597343
2.33,-0.0031778695220881,85.38027818023916,193.46427993258857,0.1536488966826555,0.2895950080930551,0.3126805883830612,-84.0279704011233,85.5356084053103,3.831674694966784,0.0546596362764338,0.0632794510656781,0.0058863826063363,-163.3682612887661,30.61682230674347,99.41574266728672,0.2062389194062794,0.3983910045579831,1.0255274506845429,-127.8268322940701,47.28099369615994,142.7317124242315,0.5210001056908226,0.2280135816989214,1.518949543660351
2.34,-0.3747356018362515,85.18310967280203,193.51853124127564,0.0388753016194626,0.1765138628546754,-0.108549966521184,-83.92724079645548,85.43039323269645,3.783373520181376,0.1066679240544263,0.1697064317213699,0.0188805610452128,-162.7828295288666,31.283951131357476,99.62276530160852,0.0477572807837617,0.627493434169798,1.3409602669651686,-128.63939431941384,47.36559154680983,142.3646713601861,0.727878098806953,0.2739980932699997,1.4232409010108529
2.35,-0.1677788189850975,84.88798525645876,193.54312937666444,0.046236419170642,0.0254321324361045,0.0647350696741482,-84.10946074007447,84.82027523296003,3.9091134243203354,0.2239436872236187,-0.0248333386888779,0.2782137591930645,-162.14816734798927,31.462643153459418,99.32608951618894,0.2048009398698542,0.7396320049555054,1.451045305588215,-129.8823801522984,47.20681824053124,141.48880456122902,0.2920574829478644,0.5443335657532383,0.9307412138413322
2.36,-0.480185497235387,84.81720069479199,193.60333353635616,0.1489544860831726,0.4333863297142584,0.258985252177086,-83.80783735167677,84.8562102242005,3.8934399799081407,-0.094404589502852,0.0149210305575752,0.3655489980701119,-161.57437548182244,31.72177688397182,99.11127757199804,0.7643816578008327,0.4006390308483051,1.802406065605835,-129.99910055878524,47.55139385391163,141.26821295948884,0.2360988204016791,0.4929277149235092,1.0402064558714847
2.37,-0.4924627428145982,84.76607963091647,193.6068277015536,0.2795478985743962,0.5979687343112994,0.0999826713159561,-83.80071829977088,84.69250053646756,3.923205956836713,0.2045378524946683,0.0830706218115291,0.2033458802801404,-161.36509655839683,31.763169542848527,99.18978383703076,1.0296774190434974,0.2462820734585458,1.4895217754489771,-129.79012060681336,47.76625668311889,140.9970439865646,0.143095748882823,0.3541596757493808,0.7174737992892021
2.38,-0.4446882226702129,84.77741426905777,193.3994166693851,0.1690757284651429,0.385239171153859,0.0200513206270049,-84.01313417796582,84.49197556582749,3.671994019952303,0.1953839731143716,0.0266604383146043,0.0238333591054444,-161.3232172500569,31.955623707806986,98.8336983467446,0.7109011541452928,0.4687375095793947,1.3030235623440796,-129.44344052739677,48.4506959621074,141.0635594754105,0.1632467041492185,0.2597114677895917,1.2109366612990746
2.39,-0.5488302775412973,84.9170736049622,193.64760195829723,0.0439309962004351,0.4632920609682857,-0.0664887432584845,-84.00039321063879,84.3836955185687,3.81417241737996,0.1361141604073915,0.2175432398728651,0.0002251655343687,-161.36167692422475,31.994242120345422,98.72288048976668,0.5791878419666092,0.3161122446874359,1.0259659598241242,-128.77082201827503,48.63590060164861,141.2659152263196,0.3784889240139945,0.3956944829074681,1.7488297590840929
2.4,-0.4522045428791965,84.730161186951,193.5762386020244,-0.0124512538337345,0.3303257310079551,-0.077591317956878,-84.11195838546024,84.1000239975733,3.816634137845608,0.145790734102134,0.2520396577017437,0.1561445304339472,-161.3850406968658,32.06541418145968,98.62066651834748,0.2977363401041299,0.2501736941424057,0.6138648972505165,-127.48788857353205,49.72187119689512,141.5338199687759,0.1051212519756581,0.5002707893023373,1.674560876348073
2.41,-0.7299900711102306,84.62349136905645,193.61147914034407,0.2055091049205681,0.0546057147608563,0.3018234104190673,-84.11855069652333,83.8066987474016,3.85137758599152,0.1120479385023337,0.2728935185629764,0.3270723792342769,-160.70238451597328,32.915298223859445,98.42816663675758,0.8721537413433207,0.043015893976137,0.6688666120170512,-126.36816913229094,50.3267963963106,142.10472705536526,-0.0095420950600662,0.3275637720800264,1.0704426682321704
2.42,-0.8356473608723586,84.38217125807029,193.55563337434924,-0.0114992481191271,0.0499834904679243,0.1683028765679757,-84.19118146844323,83.77927202217272,3.800980401441967,0.2126340505507796,0.0377957352279587,0.1703049362545316,-159.79250719724757,33.75110217152621,98.10155590916402,0.7395193445090693,0.3345615575263646,0.6702012082791492,-125.3489355377382,51.06992941752172,142.6179704614869,0.1683149406362752,0.3552420756700471,0.3335578989751052
2.43,-0.8235218503462531,84.09001534465912,193.6936313611211,0.1678286768881193,-0.010571643297896,0.048590191918341,-84.34015819970661,83.4593258858163,3.959564132730656,0.0080375492375129,0.2276246799588631,0.0084807458232209,-158.89861479108166,35.05799599782305,97.40808085598606,0.6782027662590684,0.4157926328349401,0.1759055791415081,-124.9982560835248,51.55868300684307,143.16573108898055,-0.1299813514312441,-0.0447143041534515,0.4651882036930258
2.44,-0.6497416795775188,84.31188090151888,193.7403226985279,0.1859054745524375,-0.0996090065812069,0.2024650239272553,-84.65783860267369,83.16225176008673,3.654228053232872,0.1448248589364383,0.2351279020987811,0.1714089129628119,-158.0809439140088,36.12182982136371,96.90458105462692,0.2869232594383283,0.5219075604241205,0.2855079922506749,-123.98488933361357,52.325613828289406,143.82529307995455,0.2932423238259193,0.1983354043894202,0.2029348287224669
2.45,-0.9511651605607108,84.25355150074812,193.6622593815623,0.2557908509654138,0.0393513288576547,0.3776459825078022,-84.19831328544562,82.84057829228922,3.762903894251837,-0.0638975888783116,0.2748341791630724,0.001988901096262,-157.55798993135005,37.17060350578165,95.97426649771704,0.2961593351051006,0.6367263445907264,0.4908206004990614,-123.63693666167718,53.25120810093927,143.96586012856946,0.5296566971564851,0.2641868334379315,0.1588229387965878
2.46,-0.7827711626339635,83.9934940800435,193.51607060335135,0.2397126888966957,0.117145417004624,0.1236009542114603,-84.19796775738892,82.86737814056532,4.14409159488827,0.2639636233216281,0.1630573053586583,0.3867121398950377,-156.83766054309908,37.4287085945126,95.77287358409303,0.5549124494905691,0.7376050199637811,0.6114449178486323,-122.96403763703688,53.751332441336,144.26994178125975,0.5734501831719728,0.0017276559942371,0.0185651406847212
2.47,-0.7708847725402732,83.95711328916087,193.7330181342028,0.1089336116487574,-0.0470017700992095,0.0643835189101337,-84.32048816510594,83.25366076341312,4.168270067555676,0.108191173249153,0.2107425955959852,0.3952924423099856,-157.09168981026284,37.48490648710258,95.74196207031945,0.7663303811160488,0.6093764238496147,0.1670511719839388,-122.6417273785638,54.46094504113496,144.38474798929064,1.7916270408249997,1.0260438793899145,1.2552302187887254
2.48,-0.9431731904255176,83.75391959676666,193.6429616366981,0.2969902176982332,0.1465591382049129,0.1000065689996625,-84.6936583688332,82.82898691114444,4.934540132217943,-0.1681593073434319,0.1704985900505225,0.2922565204108459,-157.0245512290213,37.67268752259847,95.65510134947048,0.989304396468077,0.1908292051201605,0.1999789112437983,-122.74687714883976,54.46857767420926,144.16118073805737,1.1403103287837664,0.7734348037052753,0.7225898034039259
2.49,-1.1177347215178417,83.75486902982796,193.67505353661204,0.1369888524549343,0.0201550516534094,0.3260463632310899,-84.71112671648609,82.64964684717187,5.399237915378076,0.2178796217675194,-0.0085132172845638,-0.0658709963022498,-157.4995349741152,37.00331119121241,95.20974230436588,0.3673548181991944,0.6471572858174418,0.4419920938421366,-123.03915087040684,54.32061872934647,144.13478551805693,0.2135000605375599,0.4006109546101003,0.5913330383151044
2.5,-1.0487464126491537,83.44532504251296,193.599863426404,0.1450825409806406,0.3501198089797452,0.0942159018018189,-84.6356006610933,82.57024941508804,6.022633578367226,0.1608768430923742,0.0867045449305747,0.4188637313588756,-157.64001147410545,36.533356283402334,95.67769364291549,0.1869774856923366,0.4148689769781734,0.5747563649022599,-124.09462076530544,54.06701728008535,143.31652727041055,0.4912226202358957,0.4674538978386189,0.8005817874113075
2.51,-1.3033438785897786,83.45374520971947,193.73562572488285,0.0311078439131339,0.2098088611609523,0.0682143423863996,-84.50245641663864,82.62891263162093,5.927564042563158,0.4010481677139483,0.0801732277448903,0.1613212003874437,-157.66453637353533,36.116082860471,95.7638809397226,-0.0050703615936404,0.2785414486910824,0.9053803881066056,-125.03723052382036,53.549999340658296,142.24232254054996,0.3274534779859815,0.6797653711342532,0.3907362864776953
2.52,-1.376919046807252,83.12196324981124,193.5891561169965,0.1185253418719292,0.2409018517670437,0.2243433621791654,-84.68729908869412,82.8006412412849,6.287213477368504,0.160669243979927,0.0294148725941665,0.1694856509666276,-157.62920559395116,35.943472037665344,95.82790985973467,0.1298572057646616,0.1175210108130141,0.9000955743846834,-126.29242362841312,53.22937988874729,141.0866077077375,0.2995103906884465,0.4319475466371169,0.3348619322206207
2.53,-1.2367110789926297,83.15194971600388,193.6640679043312,-0.109344605397355,0.1432393501612603,-0.0626167984484215,-84.61601647463007,82.57808982938955,6.545766910595957,0.3773404492124876,0.0834192420894262,0.0429819220984974,-157.50107235746017,35.878234402030046,95.87750146086306,0.5034632487941779,0.535527541357233,0.994668058384568,-127.20028153120728,53.17697839233605,140.50305641948196,0.3316523136828714,0.5658201987596362,0.8060713820505274
2.54,-1.38820709284495,82.99628838711998,189.7856546014591,-0.1229842514354534,0.2280284577129822,0.2112933727404305,-84.59511900451572,82.605024585471,6.352310265814552,0.2108895223595523,0.2400402034369233,0.6599979596333199,-156.91419518461586,35.84669676001966,95.48400707629878,0.435891215339567,0.6136350369032679,0.8085481626857391,-127.79790216117053,52.96626243312412,139.9124654963285,0.001648764437098,0.4475986843912717,0.7834802754330078
2.55,-1.276203415080694,83.20670394645195,189.9548264793933,-0.1515284212989383,0.1812683673897231,0.1407128496494846,-84.46644184261879,82.82151765494176,5.999298025553156,-0.0230973583269159,0.1307240690228405,0.2781826773633835,-156.8440694111613,35.97399645376797,95.3624271699349,0.2513259962669527,0.27222620556867,0.660286442902562,-127.886791971394,53.17273100484115,139.56169429584233,0.0651344774567264,0.3667259164768046,0.7811838532868005
2.56,-1.426327301929092,82.8255355244762,190.1963152864542,0.0294172537799951,0.1294629369753958,0.1699639040862883,-84.7071517666403,82.72551835034567,6.081087602103204,0.0197154438137288,0.2331954552499335,0.3164416971639185,-156.16408767219883,36.38536071408196,95.21321284739712,0.3195428127631508,0.0946989843025284,0.6403319108300539,-128.25619349800198,53.3999109073755,139.51422630518016,0.1275944782393835,0.0536462306806359,0.8223024147389097
2.57,-1.2677961060809029,83.14726378368762,190.3882227257597,0.122779134263353,0.1249676986037283,0.089114684388222,-84.70232842875345,82.79306992736325,6.199293600615156,0.0470010509934671,0.2049662235995545,0.1789615850659252,-155.62930500596664,36.58902866813288,95.05553492379836,0.0934241427581622,0.0665406045331704,0.7872935478291334,-128.67628148653023,53.74031537150532,139.08108406865384,0.5691717964997045,0.5641276492389328,1.0755184103885984
2.58,-1.2381155196135212,83.09530935847694,190.70497205018023,0.1301941578117253,0.1893346399819822,0.171722358620444,-84.82107493813734,82.82958918570414,6.692241103788411,-0.2949230077950329,0.0180382472347598,0.134040423965807,-154.61195125012293,37.13321500427675,94.94660638704268,0.2577229523721388,0.9840914536772174,1.1123437522152786,-128.8665292595669,53.79552630906623,139.1371747617531,0.7270946766598156,0.1922652798027259,1.1667429185550569
2.59,-1.2825882313441717,82.6887636603379,190.75034162561604,-0.0270088856851206,-0.1260075024336171,0.0539902364852605,-84.93417176176489,82.85388803364486,6.8541172301914335,0.3394134859547879,0.1369949324339057,0.2226494783409139,-154.3004802600007,37.61602918731428,95.06206367440966,0.362451384763209,1.3982060958507727,1.1114964821196684,-128.95848295610242,53.76359975952794,139.40598068898117,0.4213460204676486,0.2380512464830694,0.75975210469244
2.6,-1.3386660288129395,82.94729640460234,190.9659211041753,0.2648561144232269,0.082201812948681,-0.0861091930304567,-85.10017898179413,83.02715845491629,6.49611280048564,0.3604572896830808,-0.0043464553681441,0.3804046039350884,-153.90542278393815,37.5844467002229,94.95300088714822,0.0071837469317543,0.6810581903863726,0.7434705269714305,-128.90334962852455,53.8525807145888,139.4519713227093,0.1476916900050636,0.1749957565194785,0.452278794773135
2.61,-1.3516345549110431,82.6163253873116,190.73599891721167,0.1992819231898257,-0.0771046630637745,0.0888425447479625,-85.03814386846256,83.09059668093875,6.488478510684021,0.3882419918244937,-0.036876157294318,0.0057211794617395,-154.10170124426634,37.22439663241748,94.90160238396564,-0.0055911652873648,0.8864116216441622,0.4344627663293399,-128.94206947847417,53.75169416679436,139.22580944659654,0.0442217837855269,0.2431467097267941,0.0669702747605505
2.62,-1.1614173203387277,82.32015593993223,190.92422873278744,0.2208443084916538,0.0769572447593943,0.0429649830775584,-85.1198986071337,83.17668862713472,6.510987359249836,0.3009475896411021,-0.1161590834332424,-0.0067827521240988,-154.2123427923242,36.92846896595923,95.24990280161592,-0.0473630147183257,1.0989597570561502,0.4379856960433368,-129.262057582782,53.68496518368335,138.98078965799266,0.0123962259179202,0.0490141159127196,0.1011915473394785
2.63,-1.3100973092975894,82.38743203180314,190.76171046529504,-0.0774480063043192,0.1253300532642332,0.1553327391020688,-85.03469870498363,83.33832273452401,6.607211279868878,0.0184887271203956,0.1203577383951086,0.322241029680832,-154.18192618619983,36.6687731782705,95.3721631113364,-0.0488879524378339,1.0352445064595406,0.3380860927332548,-129.4809540460056,54.08005058013262,138.56785734871028,0.1875502565123871,0.0005044815980808,0.330668041114911
2.64,-1.0835781236106925,82.29775622358848,190.77182909209,0.1649619271779909,0.1645008548728578,-0.0167053498515198,-85.20069576261709,83.7752544577768,6.7827404368226745,0.1414632638501193,0.3871959223873884,-0.0184486473124321,-153.90118566598946,36.40391643897263,95.38125395924348,0.4974853148313166,0.4904266095359498,0.2122646925871797,-130.0072367045176,53.99734421521168,137.97441712989215,0.200759393686014,0.1106349261163122,0.9023952251858642
