0.02,-6.354033740037117,85.21520070349547,177.8743119332447,0.0459558546318101,-0.2125014063563616,-0.1217653637922659,-86.94963202732762,82.70676656860927,14.57201648034769,-0.0475254087636228,-0.043680541495381,0.1473056065219669,-176.13345765721456,5.9868755358317225,6.464574451346457,0.0496877378807277,0.018310746334784,-0.0312756080821085,-132.16289062643185,18.99931467491624,12.429842383237045,-0.146736983775661,0.0928422677363979,0.0201243671553574
0.03,-6.512094308870497,85.13243424676958,177.65939984386682,0.0460613744624386,0.0575087860107654,-0.0948501214589552,-86.92725582570381,82.79711940905518,14.714883287015606,0.0039206669988886,6.369861965238241e-05,0.1921641392814946,-176.26706799243996,5.923761620154057,6.64297667481366,-0.1771393460359983,-0.0040441353072162,0.1410320454113153,-132.0953837023531,18.67971107254289,12.672909500018347,-0.0534012634579726,-0.0107375702518498,0.105705968628697
0.04,-6.751747775192163,84.91207488191583,177.96388783210614,0.1037422634423332,0.0717847190911037,0.0222244015588398,-86.8331121409105,82.78943196019719,14.554457126769035,-0.0547262007933075,-0.0578707813890175,0.0577122386399595,-176.07251538354376,5.914692898326528,6.533934880706004,0.0124114028452502,-0.0335212580852231,-0.1758260759464491,-132.11065721113152,18.71867467538125,12.643839952039622,0.0811728554537612,0.0015585150435771,0.2228059312568124
0.05,-6.542256691992769,84.99948971690263,177.69690528372567,-0.0562094128351461,-0.0167370876829671,0.124283451279705,-86.68753345713426,82.69597738528212,14.94206836702628,-0.1834079288793783,0.0532425963520087,-0.1561899488360771,-176.42282178507344,5.811613506566319,6.45089908727816,-0.1783329911575349,0.0357198938482165,0.0978782762312377,-132.05756760737748,19.074593259684296,12.557024430146855,0.083427410634735,-0.0664475796960793,-0.1340574172319373
0.06,-6.53618673827204,85.04577237925756,177.75644311062263,0.094130858388235,0.0770930637365151,0.0054284954631036,-86.85269969686924,82.66948754288707,15.089138240493972,-0.2327107569466146,-0.0284059621678335,0.0636353678732586,-176.2784894515331,5.755987633384434,6.5831233427180464,-0.0074869393227722,0.1202273911905224,0.0234955530960438,-132.11506579009404,18.839957635063357,12.507560338711718,-0.0254065193063456,-0.1871333597173066,0.1396548097103223
0.07,-6.5466957184743855,84.97169695311847,177.8627459887491,-0.0160938402221875,0.0233599508056481,-0.0709356414980609,-86.87099320456471,82.7847257078284,14.975632573717675,0.0575100122092929,0.0850981968883429,-0.0811378782787801,-176.3263718595922,5.8154483753803845,6.620420451882144,-0.1909399525754452,-0.0060392923336774,0.0044568925495285,-132.2282081702033,18.848682916822536,12.632805362380996,-0.0439689046026823,0.141430216518918,-0.0656258272105318
0.08,-6.568946516299541,85.26907836836618,177.75837961355273,0.0077204020682891,0.0366977619957622,-0.0759051189228873,-86.75710743692798,82.93696828484026,15.124759688802346,0.1248802563870373,-0.0477034114367759,-0.2086240895342106,-176.31633329662031,5.926446367477537,6.576719745201595,0.1113943227110425,0.0035990401704074,-0.1472267987884839,-132.05106220960718,18.869846791873314,12.75556255695146,0.1579404621687011,-0.174384641475557,-0.1015174399641953
0.09,-6.423982813694249,85.13048271242904,177.85972527295814,0.0520061517259896,-0.035677195389779,-0.0752897933948635,-86.79619900573948,82.78333546690203,15.124661600789016,-0.0407382710518541,0.1362786856280196,0.0053135902756792,-176.28403148658944,5.7007986307058935,6.53166043161061,-0.0012239842822755,-0.1008634878562744,0.0008599757163948,-131.95617889049265,18.85868709272265,12.552962702610094,-0.060334532719404,0.0795525001354039,0.0786942993623628
0.1,-6.447422941400297,85.24467511688276,177.84774631219767,0.0413821183306775,0.0265289266856091,-0.0946527688656994,-86.81528591066163,82.89180165246506,14.957267793407304,0.0512999109718823,-0.0311974967740263,-0.0344507293470403,-176.19421838497036,5.980764438254592,6.656343427685207,0.0019914986031993,0.04731416493059,0.0620668999896634,-131.96602796439672,18.744661824279355,12.465366481494764,0.1251814045515837,-0.0891249430060562,0.0650689460346992
0.11,-6.530100052677163,85.28612772149884,177.81208198494969,0.0907643652395772,-0.0207693591887993,0.0833858026327152,-86.74152024370814,82.88332933140305,15.19512998862533,-0.1249273770993876,0.0706277293138373,0.0714175095758246,-176.11926223185858,5.963151672132583,6.655608060337612,-0.0334598837792551,0.1073118520419504,-0.0193162578298965,-131.95210196775216,18.925947747540533,12.632095677303749,-0.0362069228542705,0.115855576904364,0.1752965664291399
0.12,-6.416139283886976,85.07782370120032,177.73054363969112,0.0873755294017393,0.1558322934236094,-0.0456403471215209,-86.80697702751897,83.05825903982569,15.262138568040234,-0.2057615089054147,0.0568685134894514,0.019307736674563,-176.19564660378492,5.826568054433329,6.586065705664991,-0.0679576323298282,0.0406855111103812,-0.0700159727669679,-131.93823607007985,18.868972672634847,12.58597743251842,-0.1859744060386882,0.0272854629903139,0.0681524172166967
0.13,-6.322734490342717,85.20612327476194,177.89911599925344,0.1888834713401448,0.0067893795512422,-0.062182507044666,-86.84619770830346,82.98624035759153,15.373470785612078,-0.0804716558948578,-0.0035912655941652,0.039472583812916,-176.25042033072893,5.874699955795379,6.457459197149064,-0.1545001565012599,-0.0532463520703883,0.0206250697526634,-132.12039603092234,18.770594565436777,12.585897837805753,-0.1026198970521935,0.0631561275934456,0.0417322130946638
0.14,-6.565731059233627,85.25042493115541,177.8900545710363,-0.1052756236259484,0.1200245527391507,0.0278303251388758,-86.83165662662464,82.92123161240904,15.286038193944607,0.05625290946783,0.006107458999579,0.1623318169168967,-176.2124682092112,5.909951738598775,6.765259024627035,-0.0237491415350759,-0.0900420725851882,-0.0116084233014288,-131.98503596776823,18.92159792679676,12.630374622837175,0.1901046710046683,-0.0328469272142758,0.1743974676408452
0.15,-6.579571553284985,85.09749597112767,177.9315147260203,0.0095869154435392,0.0360698290038803,-0.1518257584059613,-86.76815221196699,83.09949709790004,15.287329858487835,-0.1613064495713729,-0.0579713932894826,-0.1322815820917572,-176.1215138511435,5.923924053421484,6.558830623218968,0.0999119555147376,-0.2678833426893214,-0.0431437755650708,-131.9710493698079,18.947828466922,12.546344534017171,0.0085654137675899,0.1399762317159852,0.0259555607747463
0.16,-6.599711912346807,85.3641164321101,177.68475695247503,0.0847960891661118,-0.0051634454588518,-0.2080663324803942,-86.79008145922383,83.07210695292416,15.322769211514665,0.0103069090526583,0.0689618222934728,0.1332362207769017,-175.96576693880036,6.10765315999755,6.632938073810822,-0.0666440365730302,0.1314748361029682,0.1756219578769721,-131.90827543713948,18.985387642332213,12.627034862186584,-0.1392190087166661,-0.0457999478592472,-0.0166169810042422
0.17,-6.422854486500194,85.34865084575472,177.89691436271002,-0.1911214329592057,0.0101356997908036,0.0334832335601794,-86.82533016636499,82.8955943104596,15.397129565104017,0.026481268987755,0.1490297050163925,0.1337930812241051,-176.173382268206,5.86469105980292,6.602053993091396,-0.094130822375744,0.1527198783994858,0.0647319332367764,-132.24753614061692,18.780925753720723,12.656653066485609,0.0062395847582103,0.0317777469091872,0.1216778668218355
0.18,-6.511479260247408,85.13840688208167,177.8861665263745,-0.0472169616239053,-0.044015834147089,0.1255702901065505,-86.84637890730424,82.93268753149871,15.365725113651717,-0.0268039861379888,0.1182101065082065,-0.0240403125327169,-176.15710984111828,5.887029138068917,6.628791874593897,0.159731232995694,-0.0521448025018184,0.0589270646137871,-131.84376235762065,18.71229792230028,12.578407002862027,0.0698817735073806,-0.1085488971409966,0.1391806192831494
0.19,-6.349471863741431,85.3780631093669,177.88969571709882,0.0815212672063078,-0.1217995949883796,0.0094855420652298,-86.86167956500181,83.08361197492347,15.437803684716457,-0.0737117896495637,0.0838103448156823,0.1599733904437824,-176.24284619695746,5.749123988426559,6.750497240268641,0.1701566161087562,0.0801915927594514,-0.0669503061272532,-132.17957393113878,18.62579859221596,12.60681243637092,-0.1058337505766034,0.0857793166657868,-0.0326314430770002
0.2,-6.358275123094591,85.4245444362444,177.98927095784083,-0.0866577072368099,-0.1937693578154287,-0.080391838156227,-86.97810674146614,83.01239372557265,15.422152577089603,0.0876076383995927,0.090513723605356,0.0833146613802714,-176.08083872628245,5.89903091026621,6.4854214659961205,0.1450722618209641,-0.0461101050762286,-0.0373977048322353,-131.97296154915864,18.842343399443696,12.515496568248858,0.1385423987109621,-0.1292873415004487,0.0115452465499071
0.21,-6.497199402185367,85.21991087242165,177.86448331283157,0.2955157332881772,-0.0594270418349652,0.0702750388983018,-86.77153898886091,82.97253550258569,15.310951598054766,0.0868706209779013,-0.0090941246396468,-0.0615814531111197,-176.01700770624305,5.879767046329404,6.684274404619488,0.1543634254041355,0.0040858002840388,-0.0182812441754338,-131.91975553298815,18.803227895772995,12.623058675829403,0.0950587519594237,0.0171940062507497,0.0039807274049047
0.22,-6.496195984632317,85.45134702950025,177.77062443245626,-0.2120294085853745,0.076584702566763,-0.0948971147136699,-86.7985305743396,82.90566541708192,15.30852345562834,-0.0142035938678965,-0.0207647465972724,-0.0066419684187485,-176.23872790709245,5.826343797689562,6.67590084182459,-0.0286072588286683,0.2085327116270746,-0.0463313255107965,-132.0204070927821,18.915210874192077,12.678419517107487,0.0709664168134066,0.07468293950409,0.0071248203812729
0.23,-6.437152440197547,85.24174248783851,177.94112457568096,0.0370971418812534,0.0761235723244101,-0.0848758949096031,-86.89033601593685,82.99810157657726,15.336264398281749,0.0306137589391756,0.1625751241242081,0.0481410384015364,-176.24268957907202,5.817125506212265,6.57668112467619,-0.2250482918100292,0.0393631496647856,0.0428578745181085,-132.06294334159125,18.972931314048843,12.648944197165545,0.1444758485267306,0.0515695023485397,0.1413017454686756
0.24,-6.549790211760998,85.32488470367038,177.75425691084956,-0.0142572312186393,0.1301683256627806,-0.0340403781197541,-86.76734156460864,82.90273882001877,15.340901293169914,-0.0630048612190365,0.1790011863903945,-0.0692286886024673,-176.2127033271742,5.954490823366913,6.697262542310866,0.070262952386033,0.0873349436517521,0.1379681517082061,-131.93738011062695,19.04225744921775,12.564929502644135,-0.1123623613048266,0.0490876193656134,-0.0353933499284234
0.25,-6.502589348267648,85.3422510822762,177.94811216489182,0.113335128052935,-0.0844101134619263,0.1580844366091456,-86.84165750213039,83.12361387506691,15.439178004784512,0.1373637092352983,0.0135399004648267,-0.1094153838995863,-176.1138661716931,5.579823188926318,6.745209860723121,-0.0922307162231162,-0.0805262231191125,0.0190418925550718,-131.9015471096161,18.982689547778094,12.511280779246093,-0.0905283819052283,0.1033501301277763,-0.0113215250302392
0.26,-6.423164770661344,85.12938566977876,178.07085607584378,-0.1015555708503346,-0.0542139283283858,-0.0280825935915291,-86.7189071591483,82.85259475950755,15.34914392103341,0.1928121956554276,0.0973102134939316,-0.0717396647290253,-176.1221277924419,5.694051684161536,6.7014227728577165,-0.0615585523680613,-0.0246533539251504,0.0616230353473503,-131.80106758501515,18.73072918209176,12.591705533350332,-0.1130443014345421,-0.0542248154213731,0.1186076708030049
0.27,-6.419066817467596,85.42533273905285,177.9004598886537,0.2481585338846947,-0.0913588615783037,-0.042029787056971,-86.85717473597431,83.0336900989875,15.32612256341782,0.1512530326143346,-0.0450541859804027,-0.0059632899560343,-176.06472730967107,5.682426765300258,6.653563627158377,-0.0367964828930271,-0.0244788419908709,-0.0080519663432227,-131.63926054202042,18.85261030508187,12.599570711777035,-0.1260852442788359,0.1949183629302621,0.0410795024182163
0.28,-6.318257130414377,85.47704385925924,178.09067819736254,0.1049187691740842,0.0275515660849559,0.1780712864392655,-86.73877198511533,83.14049010328587,15.43777263779893,0.1206420880110522,0.149529387281502,-0.0489622468695612,-176.12116486487142,5.649422948084424,6.478087242735255,0.0533022640020133,-0.2023749700884508,0.1819164131488504,-131.76684947352757,18.90460829416894,12.436531609053963,0.2308116523653063,-0.1345312356601439,0.1788505348013552
0.29,-6.429870340964491,85.40760697271378,177.72598905632012,0.0009264102681221,-0.0456922576512807,0.1147719895937773,-86.78169217860828,82.91136937293636,15.403853048954025,-0.115022073224482,0.0504298046664371,0.0153589596567183,-176.10076592313274,5.600263367363173,6.7250528229920015,0.0939088496134558,-0.0436732885117679,0.0246822777624098,-131.78748746071395,18.859919569820324,12.451236447933438,0.0162467073010458,0.0389124247353471,-0.0291748086444458
0.3,-6.3286001103741,85.25287782269587,178.06466700812453,-0.1683511038562615,-0.1540438637354633,0.0952925105749029,-86.77469122842969,82.98705732150059,15.464777764460605,0.0857186430592408,0.0266706431571783,-0.0875681159431873,-176.04184459363714,5.921551505355911,6.554092734581505,-0.0193667919882963,-0.1234865907095793,0.0864917862701817,-131.9128687675326,18.91598980421047,12.719030787438362,0.1407203516142334,0.1040486194043231,-0.003529731792071
0.31,-6.38837303159953,85.4827424907379,177.79097550828683,0.0052511936940462,-0.0731087657565887,0.0126220450957632,-86.82721607771987,82.99712705189515,15.403905585318114,-0.0685886129672328,0.0373280259847916,0.0451374736269935,-176.06259488648834,5.841284429399432,6.537848520460734,0.0096477991289648,-0.0933633543822015,0.0198361369434424,-132.18163701286585,18.836228577097334,12.62922728240612,0.1534421042551115,0.0790061208496152,0.1331755118312966
0.32,-6.3273963975857725,85.4446839609888,177.6690467359421,-0.093705933581224,-0.2127982236855703,0.1750260981734371,-86.69459783485176,83.40158758722845,15.39693512110908,-0.026520708652713,-0.107940910407638,0.1760297387331048,-175.9592266987242,5.8593592044014,6.630825209164235,-0.0935050523252668,0.0241358544667106,-0.0447295709342891,-131.8045321873155,18.84205580704471,12.808236700293186,0.0560353688561655,0.2041170676325134,-0.0049832728680881
0.33,-6.426985116240215,85.16318700084081,177.85360988683496,0.1590738363573006,0.0433420802659762,0.1017766067461756,-86.64902672988728,83.323902333664,15.371388921146682,0.0717224274911182,0.16459960131506,0.0402202922665275,-176.09354399939872,5.916957589437468,6.63990678465122,0.0952567514788478,-0.0227691930619146,0.008030028143734,-131.86913464187597,18.87870248175684,12.759213270560794,-0.0521609857159396,-0.0234552983232188,-0.0637164978679899
0.34,-6.388385391765104,85.32470112240141,177.74062492344223,-0.1246014292307973,0.0919328621157862,0.1609972440650409,-86.67350794642667,83.17162004614698,15.298702589588771,-0.064668680325072,-0.0968398975840058,0.2234651906656938,-176.12223189755994,5.900916273070173,6.585807757836293,0.0704427569132354,0.0811340529476052,-0.0565401932652757,-131.75941989688332,18.976953624547384,12.596888975924005,-0.0483417028773493,0.0488257445883067,-0.0361461832704001
0.35,-6.450273978096969,85.37079172481107,177.9941422869096,0.0237851025506554,0.0358940528448739,0.1589849577088901,-86.64069929618792,83.06526415018118,15.404251081193935,-0.0371212865819827,0.0886174261538376,0.059126675059094,-175.90530850337603,6.009685205996519,6.797688442121303,-0.0028134599071297,0.0977570626817902,-0.006898737607466,-132.01330480411067,18.91432782017449,12.696676530466998,-0.0710985576166266,-0.0362542725418245,0.0893301190645166
0.36,-6.378980390060876,85.4088729981646,177.80268271905928,-0.0070550228960942,-0.038839392295598,0.168298796627374,-86.82830410067065,82.97225926234219,15.280885710188436,0.0269840254040014,0.0820167273717699,-0.0357162229971772,-175.91189026609496,5.952193767534428,6.527422388737112,0.1169796760717024,0.0425960256024827,0.0218371925708306,-131.78587711746516,18.90818600554396,12.670928708365572,0.0968236670281184,-0.0454268653020934,0.1686410266841627
0.37,-6.313711394505358,85.4137291304839,177.80963907766514,0.1073183497156016,0.0784956127308299,-0.123671735917128,-86.83259068282938,83.33842970754158,15.120902173294464,-0.1147076094160211,-0.0261010799560627,-0.0156696654586766,-176.26109357152112,5.863756163585542,6.654018417279285,-0.0855309893674693,0.005792690411916,-0.1359909986338705,-131.8355624368353,19.065721201251844,12.785496554462476,0.2552507391759893,-0.0031759486584876,0.1860929056949593
0.38,-6.370142168112757,85.39146024047072,177.83929134155187,-0.0980577794688212,0.0316050036109679,-0.0799364901201038,-86.5720327866592,83.57052765181787,15.229187894357882,-0.144303444440179,0.1378347614850566,0.0320802679126017,-175.95192781745695,5.823533122359167,6.525965275453073,-0.0975865599022743,-0.0934580152038483,0.1991537438365747,-131.83999448628182,18.823001785620903,12.676739393726088,0.0519602930984968,0.1689461862407964,0.0075817746689007
0.39,-6.425468184690208,85.3277846156278,177.6495006464281,0.0363382609429695,-0.0949336803286244,0.1049668082210343,-86.66273174112777,83.46291868643863,15.179676750258173,0.0720176354481222,0.0639326526629346,-0.0407168225918514,-175.9910087428416,5.924781491247573,6.616600487226201,0.0691754596412468,-0.197260607732903,0.0743361498465394,-131.92949532333566,18.958466400826616,12.528603806400527,-0.0377869259495702,-0.1699964332768253,-0.0555886631979343
0.4,-6.457960424414277,85.43367386211962,177.75549065640067,0.0931201635719212,-0.0807221369078597,-0.1759225134800124,-86.47723645598612,83.45995114933471,15.251088651046713,0.0006053484270723,0.0551475700385051,-0.1088164873160028,-175.79907237640316,5.798626101479106,6.493937755364074,-0.0655295573149697,0.1583753826014756,0.1439346023550828,-131.82482420585862,18.890723491660665,12.518824779717884,-0.0326655617388568,0.0793403653741641,0.0138974256695631
0.41,-6.435816489391563,85.26296834453218,177.8999179193372,0.0807276584110136,0.0792149578118714,-0.0282212618952375,-86.49784575964158,83.53738614164979,15.144992142245748,0.1163832088333496,-0.037060777474111,0.1426425188108079,-175.86075603797147,5.877612526981961,6.531725995197045,-0.0545659859889808,-0.0536585007922258,-0.0587924052206085,-132.0170379673314,18.74148356259177,12.62163941637388,0.0725391507149573,-0.0472248282094359,-0.0056360009686371
0.42,-6.237494474399303,85.53767056787855,177.73800197119365,-0.0436652703437053,-0.0043397383454338,0.0259820331922007,-86.43627399511742,83.46509917549245,15.1130251420771,0.0559818864388811,0.1185025768621562,-0.0527194922845455,-175.8905045411805,6.123335692392246,6.587289551968647,-0.1139495258044333,0.0580694853769452,0.0020683184032497,-131.96458525173875,18.75733100107168,12.842790049403687,-0.12141643121864,0.0713240555262552,-0.0542344633768861
0.43,-6.310172968255927,85.33737826624821,177.91177128151386,0.015559420995754,0.1195609499070261,-0.0618570126626855,-86.67492642382305,83.5789502390178,15.214455110576166,0.1423692770842366,-0.005080828593277,-0.0287206110277239,-176.0485406617949,6.058478324702179,6.574797697806858,-0.0553948986751881,-0.2524847099225347,-0.138761030825722,-131.63637672513988,18.83913126807663,12.655594346499694,-0.0721540394146673,0.091617604245113,0.0312729919431535
0.44,-6.229556094503442,85.37857863542953,177.96473153625365,0.1162598107988206,-0.1595943407585416,0.0229315595612119,-86.36505287972119,83.55742941367019,15.115750189462087,-0.076741045687417,0.3161874164314885,-0.0663620446037853,-175.7803321679052,5.907704602728201,6.533515793722458,0.0602053538880659,0.0904904971589363,0.1858243771371822,-131.87859788792468,18.852113020505463,12.721295879593836,-0.0975124980114721,0.0612480066257849,0.0576588282341822
0.45,-6.273474737852793,85.60482880752384,177.898400115296,-0.0128562420378638,-0.0696201005286929,-0.2111602465259184,-86.51483427973484,83.73791246021202,15.224503129573655,0.0459445765452756,0.0539071104777433,0.0465250606851407,-175.84544164242925,6.061208214098633,6.478139406254722,-0.0102701769950244,0.0646481519265488,0.1536699191679236,-131.45656193091494,18.883851265329746,12.451214057797964,0.0325260488143475,-0.0600906117820417,0.2138467612489736
0.46,-6.208687005308697,85.675847354559,177.9186584279059,0.0737620988887678,0.0283915393735475,-0.0469857695268426,-86.50567944236589,84.05598866262163,15.279073863193156,0.1834643296496547,0.1524957550500998,0.056535904615224,-175.65385265492722,5.998682636129948,6.5340541627659805,0.085547263025362,0.1038598414131776,0.0460121364494631,-131.43716984666216,18.88995711832492,12.375083928759503,0.0671537855321799,-0.0512500904551309,0.0647535998597663
0.47,-6.11219810968736,85.62262148693185,177.77747098597897,0.1102729004215393,-0.031723440881091,0.0654011929475738,-86.83630400884257,84.19061908921985,15.437382329881828,0.1735730799745785,-0.0865257632470149,0.0156762894103591,-175.63998208066616,6.034036965498673,6.599896458767802,0.0243780901371203,-0.1550830618906366,0.3016378646825249,-131.24155391786294,19.20810383817491,12.471048767460989,0.1978375457626902,0.1201295834007925,0.3972225023918639
0.48,-6.227080544129713,85.75966117509095,177.88352616317465,-0.0614386568477626,0.1916235454764166,-0.0353498286549903,-86.64941376388944,83.86139784893996,15.438710176424095,0.124501260699271,0.2916557777010543,-0.0199443937590136,-175.2520933510712,5.923569250435058,6.344042457375563,0.0756880155154411,0.0858444672397764,0.1292756631740924,-130.91455531737432,19.206563468338928,11.969215871686446,-0.0482002409684343,0.0842245303297691,0.2556846152939467
0.49,-6.136493253128594,85.44599632111075,178.05438918911548,0.0826256833195011,0.0523487180118824,0.1102509220988079,-86.97520169267472,84.3677600780636,15.455129398031536,0.0927447311650215,0.1963633708226711,-0.0506298646205968,-174.88702018550055,5.956921553552584,6.361685891786783,-0.0103201110653753,0.0157748787175856,0.3078712398066965,-130.9324030835752,19.34971781764105,11.884270251497052,-0.0754092168921574,0.1580218478466529,0.261049813585794
0.5,-5.987048970764384,85.62584427435328,178.00041693447494,-0.0847185815631246,0.015972646424945,-0.0595186925306595,-87.1875280803558,84.44117806674791,15.379226970232152,0.0370826568556962,0.3142867645841416,0.0448877015845372,-174.4012402601182,6.039525497533139,6.404628524162834,0.0134527149312276,0.0945782137327616,0.3383251436378082,-130.5062522178733,19.58167550837981,12.075513227394076,0.011017229177529,0.2747329319288702,0.2216335675888786
0.51,-6.100747045050333,85.72671093229376,178.11130017925683,0.019150650529375,0.1776186877554701,0.0267550718536005,-87.16517655948519,84.66642358519472,15.543776514206366,0.0770275124628046,0.1862620826977871,-0.030961061743646,-174.01372375084256,5.671686137726077,6.2672525626331295,0.0572528903800793,0.057172620352481,0.3564361889610993,-130.61491530335186,19.941982858964018,11.830962277113365,0.1219516446192428,0.3268349706843604,0.0389466372365366
0.52,-6.023482506758213,85.4628521374548,177.9070964846611,0.0162358054457177,-0.09706206989738,0.0913186228880825,-87.41623874460528,84.75322598651191,15.528016839970556,0.1422108389249117,0.109989203700598,0.0168813027039119,-174.10825197494248,5.6969192261703885,6.194540972994936,-0.0293272407592856,0.08059479815839,0.3268688062550064,-130.63534908971036,20.07781972991116,11.893208403121852,-0.0679535867747805,0.2616200157807926,0.0721564451890201
0.53,-6.069825241482934,85.46414688737303,178.08733411775128,-0.0419970374267784,0.1270964028041933,-0.1354538918737885,-87.40211740084139,85.20533285975475,15.581908194690184,0.1816682233177006,0.4435905693987443,0.1058056584713449,-173.57840856823933,5.471423167148441,6.436850659515103,0.0406132980397875,-0.1662571143752713,0.1742091567997225,-130.42426799851745,20.143934348574405,11.788146485011117,-0.057705900955579,0.3367002665070254,0.0807597701584762
0.54,-6.029423958919037,85.53494630817526,177.977921961196,0.048083671201189,0.0176702577860171,0.0814550209484369,-87.59162877039222,85.61478936330604,15.582347017597543,0.2766403652099418,0.4020924934821143,-0.0947713784120755,-173.35913654319236,5.188870917825837,6.366445246101444,-0.0390735593135743,0.1749570414327318,0.2607927615557089,-130.4770521124698,20.516840198629072,11.751763330919156,-0.1223663502109128,0.0807444591995001,0.1031449284299613
0.55,-5.970070365166592,85.56374656983138,177.99876139693586,0.108016594985033,0.0747386539987484,-0.0884334624958805,-87.83444407185497,85.98657246673238,15.534857725429529,0.0875361495260758,0.324994337023271,-0.0179427332622202,-173.2287404459463,5.312960761697928,6.528796638054056,-0.1058661431346062,0.1455752646015168,0.2706101930685531,-130.62629762184034,20.55473785451667,11.894557228716744,-0.0134395318444133,0.2275884333822782,-0.0350720380787779
0.56,-5.874349391154207,85.5578746040843,177.61402378447377,0.1961344987569476,-0.0594339431775807,-0.0268860517437715,-88.14311682659027,86.0975259292619,15.459439939073802,0.1955942830144628,0.3245992824890123,-0.0347575028030536,-172.709618260345,5.22115288031958,6.537717992828529,0.1674784411759249,0.2104430615769355,-0.0458237272255797,-130.60650365678043,20.73071899064989,11.730361548723836,0.1538548732309001,0.207600075273089,0.1574233772266089
0.57,-6.208844830613118,85.44919848477572,177.95645714265206,0.0176376709300773,-0.1823896751581186,-0.0546011755812671,-88.44013923668098,86.54092685487574,15.426489663793404,0.2856665495522966,0.2593567710085296,0.1857406519759796,-172.95017606295275,4.790530083038552,7.025666664058317,0.2244910770416784,-0.0217691331471092,0.2326662988404885,-130.7855220670263,20.92071146931833,11.736883105405672,-0.0338287436123086,0.0842791019859084,0.2094409159517409
0.58,-6.36138194131833,85.31147250169514,177.73284222434748,-0.0173265546728574,0.0995925782941076,0.0829103414915768,-88.76528314386282,86.58295841285259,15.433440261896653,0.278881671185537,0.3958605226876829,0.227935174355243,-172.77760159655196,4.814925347745225,7.205678079535063,0.1223908141016184,0.1824532689128539,0.2903603232692011,-130.6440183509169,21.107367387302364,11.987894659223567,-0.1615244863680432,0.2619219517101677,-0.0093919061872899
0.59,-6.23942505849493,85.10098325830046,177.9104848121641,0.2608751152163087,-0.0487822322071186,-0.0018631214871447,-88.94140584989127,87.1657694915463,15.451220728973764,0.3217126843353023,0.5592081357973814,0.0180380524779865,-172.47244520731877,4.699606974352198,7.006694941378776,-0.1150798660023797,0.0988544730454403,0.2323088967508638,-130.92285422257572,21.522878407043923,12.104575623774346,0.0073924625492885,0.2095973343879721,-0.0178989201846201
0.6,-6.555409299905855,85.00462123357175,177.72658450433994,0.1661466737756674,0.0753579777707611,-0.0460651850307447,-89.09094429471217,87.53659343967978,15.422500779831704,0.2089855259700392,0.4740340872801116,0.2477810740898861,-172.24538913833433,4.553298216063718,7.159366378822583,0.1253438681876741,0.1379293776723432,0.112933925435749,-130.99002634749814,21.88231494226927,12.060594715006218,-0.020604600362971,0.1626882223028847,-0.1855682636122516
0.61,-6.555953853780854,84.92423615778489,177.7992100346877,-0.0382685070991366,0.0608404661566689,-0.1129687686621452,-89.25722356347924,87.68946632346268,15.253315218041084,0.3236157832229752,0.4779719531820013,-0.0161226887602471,-172.1532358954385,4.498243201698375,7.165573561547817,0.0821881699002886,0.0119265187311781,0.3108197197429929,-130.95229610471452,21.655470148570444,12.07979517518322,-0.1273007990509463,0.1153237303353458,0.0151180059400187
0.62,-6.945657131915009,84.75748101828619,177.96817775198826,0.215223747157451,0.2396926441175823,0.0910227571869334,-89.41174174678164,87.8114656989548,15.346990478443477,0.1969104831811969,0.5005596754526965,-0.1163601736836671,-171.9923923251777,4.4393563256035184,7.139430426523518,-0.0221348478740572,0.159824085937063,0.1567451162397251,-130.74777787188,21.70614908136842,12.174445608719656,0.1861810368050667,0.0550156954640394,-0.0863073295827415
0.63,-7.150946379655765,84.53471572789114,177.74549816237882,0.1956460456557436,0.0965763726272563,0.0154374085899837,-89.72558052298933,88.30223811695899,15.29498165234907,0.3884197414644075,0.4193697709344934,-0.0031586182641967,-171.84007066084797,4.051441604644596,7.046683255573874,0.0675587902232325,-0.0303671458860309,0.2278523214503073,-131.03710462642928,22.171901006497546,12.012926397881476,0.0167128966821294,0.0836049426538176,0.0753687094166318
0.64,-7.388108782522295,84.37645380486067,178.02840815165206,0.1245724903288234,0.1387451384806003,-0.0166164232431415,-89.89920354988007,88.1381105488037,15.286860328152256,0.4298291108125567,0.7193280215736565,-0.0930259875837286,-171.7804521906019,4.059192802644513,7.118386948169019,0.0145411367761294,-0.1044757037377673,0.0318129681167563,-131.13168259301597,22.275979783579743,11.987986537904252,0.1070332916682403,0.0596541938270404,0.2334609733836039
0.65,-7.552719433306428,84.32703929048296,177.98756532040878,-0.0644575724509037,0.0642596634807131,0.1630587651881757,-90.13252491409152,88.09896408984824,15.41730736955861,0.2560553266098881,0.6260760952851055,0.0174949192361189,-171.9676632842838,3.893380683374029,7.178198672578532,0.1235251786460714,-0.0350450062870645,0.1036092994099344,-131.30233866194837,22.15839446874087,11.910521788095815,0.1362903027582938,0.2141161790378435,0.1626169913746736
0.66,-7.7746242064439075,84.160989598491,178.07345273131622,0.1083137877156685,0.1526415995493461,0.1413229741225271,-90.45616639866758,87.74744077135435,15.296995365994492,0.1053774403941693,0.551378177367062,-0.142920849140446,-171.72322573976,3.886780573305488,7.23267274365701,-0.0477034408517148,0.0769429262853585,0.1785458012733479,-131.63479966408417,22.465659635542327,11.71764326620594,0.1738654989306682,0.0620611362950143,0.323099349867025
0.67,-7.827293204400667,83.97335367886876,177.84512131737702,0.2498095410033544,0.1980264664298789,0.0553674783184845,-90.737820503373,87.43961228778161,15.428670035979684,0.1611131912002094,0.3848609762843292,-0.133812170914866,-171.6486519002489,3.7149853438413416,7.372142860103435,0.0197728752350855,0.0665169303318205,0.0717706657431997,-131.78804960725373,22.298847930687792,11.670894548556433,0.1683146871943192,0.180430059497301,0.3257818488523109
0.68,-7.915861563967077,83.83275128343506,178.04566854849534,0.0103483174524552,0.2669215996979579,-0.0143614090599259,-90.40769500067192,87.3517185451146,15.34461312213539,0.1646828152706077,0.7099090253410298,0.123646419638778,-171.73890506404766,3.785563014747457,7.569708933980011,-0.0289587411664048,0.1785239164922019,0.1476188911230632,-132.06766462665885,22.366209983490048,11.796772715628636,0.2797859126001746,0.0908847223009131,0.2015419878076931
0.69,-8.044334130620197,83.7906348833455,177.98388436532366,0.0957681538168406,0.3567203511848128,-0.0685191143231605,-90.54640866821669,86.9990233943579,15.27494078778093,0.1087395888084169,0.6518358590749936,-0.0196546285952219,-171.6448066037305,3.9828945994587537,7.329554154520004,0.0780078401010242,0.2393827685880761,-0.0025158378499029,-132.36245304119254,22.766773311538007,11.791524460360552,0.1371310321033935,-0.1001093679999252,0.3305187268249647
0.7,-8.044746471873827,83.50602907358085,178.13656443139556,0.0872850376849577,0.2927165495261655,0.0689593210697597,-90.75626549157742,86.56651760035834,15.709962127151856,0.1871418135465383,0.6791061081047238,0.2368366648715326,-171.47715837794385,3.774882390132503,7.508729079281823,-0.0307701862068257,0.0444087759831563,0.0066007515539699,-132.59160445659666,22.4504413711156,11.895945653175216,0.2029049775097643,0.088957447611844,0.1418081628776951
0.71,-8.113213939843575,83.09844018323618,177.98860434531423,0.1879847522128803,0.4189872218160917,-0.0666434968501693,-90.72102033698287,85.86065692721505,15.506921831345275,0.1543191330086151,0.7970739927082787,0.1301499022612798,-171.43547717790227,3.9718775995938262,7.546174596163068,0.0278245166982512,-0.0722877864296327,-0.0884721878382274,-133.12866938058554,22.47109340126411,11.659691976864975,-0.0436006718000473,0.0654061333119735,0.2767218455911917
0.72,-8.558109852136072,82.87908601842959,178.71928222036908,0.3382353598342031,0.3118442548242569,0.0002742058756461,-90.65104464407209,85.03589264415396,15.8638816125674,0.1634394030494239,0.7683989894198557,-0.1438094021595431,-171.25058296765445,3.990098541567276,7.290309802395564,0.0972645117558951,-0.0258347491224028,0.0949966280417202,-133.3233764446033,22.237785767885025,11.857905705122148,0.0986432212147474,0.0119951942370831,0.1385623109356577
0.73,-8.487000769200863,82.14253311909172,179.44946007834938,0.1292027109771112,0.3928060054410967,0.1420749455891355,-90.710836426752,84.20135367988695,15.741134985657776,0.0303277366391957,0.7045315547946202,0.190617586878511,-171.198052797718,4.003925914573993,7.588248638984309,-0.0489087729774315,-0.0110144969370243,0.0688596801310271,-133.49503717148,22.312917702610758,11.773139065152716,0.1261069939641353,0.0759894526237042,0.3179470048500293
0.74,-8.947351307218531,82.08570189919907,179.84489739337602,0.1716859104601531,0.333321976636642,0.0760168635821702,-90.49681334682867,83.21441954544059,16.160495246066713,0.0946388153793458,0.9069510947651954,0.0664672063392315,-171.55450015519452,4.143251097217603,7.802141409948226,0.2773998664848385,0.1849411033529741,0.1290002620843808,-133.4582410525924,22.506277618406724,11.987890676761683,-0.0353032665235073,-0.0786592984164403,0.2765085700147961
0.75,-8.841503677146699,81.92651940571008,180.64766890397183,0.0752516839680383,0.4440137949477095,-0.0762425762540964,-90.59602635013408,81.97696752212596,13.676893390280878,0.0293057608188048,0.8161884682200635,0.0351867497723436,-171.66060747512591,4.190242658309804,7.807122521287325,0.064322572488373,0.0111483545994729,0.1829289353685176,-133.65818680172202,22.33571817456344,11.903244127013467,0.0803804755611004,0.0663747261273722,0.1389964554915806
0.76,-8.989538993342114,81.40595178883105,181.1336667808486,0.0180273513997434,0.2401825697188382,-0.0736061824626863,-90.38394016167985,80.6160684827916,11.110235289250664,0.2311894167539913,0.9492261114323756,0.2181656105202252,-171.7873427506614,4.2901261127825245,7.666592512345234,0.1424738644404835,-0.0450172786321265,0.2684560313617353,-134.0070320489695,22.197358992360066,11.933143424578262,0.2237827968851315,0.117695363543329,0.1222245762485822
0.77,-9.234424089308966,81.0584954238332,182.0930998478118,0.0676725489683019,0.3529857488007066,0.0580842009375678,-90.2154975511624,79.77891863223536,12.686274374289964,-0.0440084547796828,0.7122393452252325,0.2802868536350845,-171.80019789127687,4.451270142264619,7.703282860331268,-0.0983947962027144,0.1996200736925404,0.0825806509531307,-134.1440643554694,22.21540074325467,12.10031207809256,0.1025337914149384,0.0294458538578372,0.0904454483938456
0.78,-9.285487418359429,80.5860044835606,182.83896592456867,-0.0152528399690657,0.4872192828327479,-0.0593461052220401,-89.96232943461222,78.84235551072713,13.999674724700329,0.1480195542053194,0.8963077771149691,0.2075299501644268,-171.8719712889438,4.655677914429645,7.572943656452186,-0.0280404846124122,0.4273766383394349,0.2496336440111835,-134.42870018832886,22.207155508911377,12.02542337217339,0.0414480066020384,0.0311030877386581,0.2201015464481943
0.79,-9.29328968667821,79.82555804841046,183.7412623222141,-0.1748042645849195,0.5117950002682602,-0.0891924860406718,-89.6310676015661,77.78789298725562,15.4539238269785,0.0600287708196852,1.096731915568302,0.3125478272659394,-171.18324600294412,4.934642144221676,7.32023203658999,-0.0316024523948611,0.2487223834652212,0.3458174445153266,-134.6071146819024,21.82999035284466,11.92584950453426,0.0940291828742959,0.0911784779441128,0.1026290666710323
0.8,-9.138978010431943,79.53208129385425,184.56823853467188,0.0956916027014079,0.4781653966183126,0.0495548784096139,-89.39512900923964,76.59242779059686,16.56803238887359,0.1223878143544409,1.118333468808279,0.221576602085695,-170.67467490696012,4.938504951713934,7.2063278095835965,0.2566730460987316,0.3584015899763368,0.3992326331060273,-134.44862504635722,21.695633018694213,12.224617976126805,0.3199710771409266,0.1262285662543055,-0.0809984565257535
0.81,-8.923798663651253,78.68722776209277,185.67116825416647,0.0531294082540262,0.6116698288043263,-0.0612806302985952,-88.80793726644133,75.56756945766367,16.607364149791024,0.1464479226502861,0.969721615973124,0.1571337703582706,-169.84493108230404,5.198299592401956,7.017073555805059,0.2201237618123627,0.3838916218290352,0.5824225690302259,-134.84984415761144,21.719686600700975,11.714274432109429,0.0897344086632263,0.0960885967116737,0.4197920323496374
0.82,-8.862389273565787,77.6957265281245,186.67628953160556,0.0253138760210323,0.7551320782246952,0.3579102686697089,-88.41369018465632,74.56616475405842,15.892550956007405,-0.0144453361952633,0.8514112109388153,0.1428042266477403,-169.33623455789143,5.712743910012549,6.722202786183904,0.4265410146938432,0.3272979884364736,0.3695532218784314,-134.7984572924857,21.765574412440237,11.77705084598684,0.099911077425507,0.2496054465710177,0.0759131170340407
0.83,-8.732280099604782,77.03016204822738,187.9684233399672,0.1675857776079586,0.8734914498515332,0.0962673999379797,-88.21851920196032,73.79074853250546,15.889514934001372,-0.0429898670873265,0.9509649079539751,0.021590157719267,-169.1351534898315,5.831444854830579,6.228790506892075,0.3703507172683534,0.2778503100218192,0.1124551606586894,-134.76994258958166,21.568981981714582,11.663077568332833,0.0054415077408662,0.2782068176469521,0.2426383965494108
0.84,-8.312985655175552,76.11489726831691,189.38773527854903,0.1749667330038318,0.8409378371529583,0.0528480976593948,-87.90892292910327,73.16151151674947,15.334074383511505,-0.0382696732965486,0.8132021395399671,0.0346730584726041,-168.9731073905971,6.354791457635757,6.008480023227553,-0.0553380752051152,0.2361190365218032,0.2126411537906938,-134.97772318483072,21.28571235926869,11.425918018677486,0.1598944208988044,0.1435639993878049,0.112250178230868
0.85,-8.034127512553303,75.49861267245912,189.88104244823987,0.2274822678536567,0.842580379786702,0.0148073492989936,-87.67397851666837,72.47347705508541,15.096852836136303,0.1266351853826528,0.9889347021483156,0.2426959129409654,-168.73884635977,6.076421997915426,6.204681796308378,-0.058987881129575,0.1674712110571244,0.1939593472859287,-134.95621477225689,21.16384703699292,11.528173760847698,0.3328580183546445,0.2010459815859594,0.2698572890941609
0.86,-7.772032978298561,74.99319894652038,190.36756866059983,0.0755645872036036,0.9789316251139,0.0721989061560705,-87.80499291849246,72.08814629848578,14.961586794380963,0.0273692333133041,0.9154903353279386,0.1394592834965192,-168.90748966965958,6.484981004707066,6.128625795864682,0.1275935518478393,0.4491782821561417,0.1016937534515206,-135.43259551703176,21.208933390371165,11.292636242434796,0.383812587740151,0.024632920648866,0.3405092053913471
0.87,-7.419938634667247,74.15413423490789,191.35693599992413,0.233427245484028,1.033824780249014,0.2409760102718239,-87.33476082556501,71.078029476431,14.53578020119773,0.0397498712991946,0.7037139350839526,0.0187829980911723,-168.62258518645467,6.540701016924595,5.901014944949433,0.1622265877656264,0.4017645673875026,0.1544281281789583,-135.70696584891726,21.210539925226318,11.307440831307837,0.304116392576061,0.0714300797353516,0.3566467667012516
0.88,-7.056799024084817,72.80746150575,192.33922279582055,0.3107933453441379,0.9406187801553824,0.1786424107058528,-87.17145507482175,70.16357530313998,14.198011222574513,0.1085041374169107,0.6038915506570199,-0.1685556578671904,-168.36696101291565,6.58861938553176,5.821506918479595,0.3816101857372573,0.2854627420698069,0.57933169434476,-136.1963939790444,20.928873781666933,11.021328239712624,0.2495382336605242,0.1275096433790889,0.5401944965281192
0.89,-6.32784964763873,71.51971307802262,193.06872428582705,0.2056480207625767,1.176960423423801,0.0211502284206359,-86.69318695612947,69.43444020985147,13.623765905783095,0.1265483561729987,0.6204480298779487,0.137070790249095,-167.68201425252883,6.885818661762472,5.83144273192798,0.142369831733886,0.0724981290755361,0.5184805198196065,-136.60558365575514,20.933229233023468,11.22546174242777,0.1909645642505876,0.02607163354628,0.1376793116633181
0.9,-6.084493980226804,70.4339469583664,193.69751614136575,0.2470320916394272,1.3894569643005674,0.1531776623981926,-86.28456607808101,68.74896558560485,13.482999038531023,0.1599596681650261,0.5844344092694835,0.1336720445044624,-167.22800113205062,6.875599330312882,5.573177335119688,0.1697446047396803,0.2565755084169428,0.0953339922399886,-137.18468628045946,20.68132666867773,10.994042733907923,0.209654092223243,0.1307878932311184,0.4370252503248507
0.91,-5.445585568308653,69.0181218183901,192.9704404084414,0.1584678177447359,1.210910354715894,0.1058548235892814,-85.96601749010395,68.28943135382558,13.036168298199426,0.1987414782894869,0.6273378656097991,0.2388651382371415,-167.2781599229125,7.275199225311297,5.575045111474386,0.1628075936347222,0.1508799801552067,0.138909885886037,-137.4978099429657,20.506515400354875,11.172089776792449,-0.0404197803876531,0.0650594978681916,0.255679929057841
0.92,-4.848372241599549,67.64185260468003,192.2816846897914,0.276091044810431,0.8866621666730973,0.1020338053092928,-85.72230268025615,67.64394308337742,12.95183029346268,0.1209771988515919,0.5524953653326509,0.0828016169004658,-167.345417903749,7.468007858207045,5.395678397726207,0.332503039724451,0.1908644574765831,0.1950487178710684,-137.6828768862563,20.375417636142902,11.265534907074374,-0.0172039060067216,-0.0873907098074686,0.2300356621555037
0.93,-4.279081894144353,66.6987757377102,191.79307009413304,0.1108959969649121,0.8967220367021069,0.1660362906351971,-85.26472194481678,67.28321510616576,12.67705456502195,0.2499227288979574,0.3419820874487972,-0.1606661258185596,-167.44207907652586,7.548712445166362,4.958236455632757,-0.0528187493072758,0.1032542652245255,0.3525022124535227,-138.01628549018295,20.324993599254032,11.11265822421495,-0.0213473150168887,0.0322355577454531,0.2955094107278044
0.94,-4.060241809568105,65.61338903935864,191.27838398397,0.2879889853578006,0.9247630636081356,0.1957645153054615,-85.22230533297265,67.02843312215106,12.488797617471766,-0.0671070594892371,0.273002224614539,-0.0909419777827453,-168.00923898530183,7.90261655912529,5.063327213817713,-0.0343582764241206,0.177925952403039,0.3515615385302688,-138.23597097966112,20.24453947968614,11.271352072259528,0.2439361003809704,0.0447391242700529,0.4251304029789874
0.95,-3.431349852710446,64.51908416349603,190.81936273022535,0.0844569422370381,1.023861598328049,0.1811783923682549,-85.2289079524585,66.87713393598433,12.20656448908884,0.0402789971659309,0.0770981474878759,0.2492370761483028,-168.68346160021457,7.986832578948441,5.074932693755375,0.1045699088607626,0.038982219414593,0.2581021954251812,-138.73551502482798,20.207761022318632,11.31769655970582,-0.1374166660520017,0.1056987428225758,0.5619577902989981
0.96,-3.3183678567903394,63.45946463917786,190.3979822908808,0.0038710178941212,1.1222338502466114,0.2756320663950125,-84.74105657675676,66.45146417866592,12.06674589641768,-0.0913517774968968,0.1479043876187804,0.2345162952692712,-168.8692711821421,7.940702939472349,5.603169440618151,0.0943459143127686,-0.052952514222393,0.1166324208486944,-139.51232196789724,20.27906948474154,11.392240655690594,0.1657492751913892,0.2177480383800077,0.4882150905715562
0.97,-2.4036034863653013,62.36514850175537,189.9670530609917,0.2118543547263339,0.6990498416613695,0.3638980349309225,-84.70811550149641,66.23059187820763,11.964329620563966,0.190479635314222,0.3283242921745342,0.0582020476654928,-168.48884101061998,7.899290536369326,5.448224070026507,0.1720190410402724,-0.0510288440928302,0.1013980543614687,-139.93511037618734,20.33284290030025,11.658291791598606,0.0588622679567497,0.0057132963789568,0.6029889202102259
0.98,-2.037606483735116,61.50366071926663,189.6059793646481,0.3060680880471823,0.6297148180600733,0.0099597738538045,-84.65728272627614,66.00478536632829,11.819454176869847,-0.0505532571742066,0.161204903272727,-0.0479192463835862,-168.70400708179614,7.976749973306236,5.599776047502786,0.1534135525015339,0.1178519490392387,-0.0358187649396801,-140.49213113687736,20.161728816642803,11.778646764512231,0.0069888989145366,0.214029214779733,0.6269467922819694
0.99,-1.6430041437220448,61.00198174887098,189.04945614136184,-0.0337078672283401,0.715124499662176,0.2287153903520132,-84.63294346778777,65.52377934689214,11.653498096520154,-0.0249602980909345,0.282381243976526,-0.0278883263633729,-168.73602139018615,8.039771507493843,5.627583428389948,-0.0434537333462791,0.0722917412189068,-0.0392152226005887,-140.95716171938034,20.05213603409348,11.863123765303616,0.0642592815619484,0.0813961991787776,0.3372223667138533
1.0,-1.2448875174406449,60.30357993964662,188.90551036455815,0.0860528422554239,0.5571676577792682,0.0076290989967195,-84.63991377896829,65.22764174379284,11.993588492573831,0.2297615136391828,0.2986443104812187,-0.0234926948676323,-168.97605698065038,8.322771088702892,5.818031356259683,0.1137578183454513,0.1723806642055987,0.3701945413063844,-141.26360904167845,20.181710154875265,11.950930621286387,0.0601551424142743,0.0905803210799731,0.1073907634557319
1.01,-0.9672796855674552,59.612671001442685,188.45531987608908,0.1458118053362344,0.4593138034845995,0.1596305323943052,-84.93576097456399,65.06115289918493,12.16140725705675,0.1780288944781249,0.2538316794111538,0.1275464740116986,-168.9966166531386,8.268317782902038,5.855178250974618,0.1802048716143547,-0.0242379600021207,0.3960172605654756,-141.55582509235884,19.94465366608358,12.182577083945796,-0.0401411264196468,0.1640744396472704,0.1095459603698142
1.02,-0.6985145614072695,59.21782363743487,188.4817569539877,0.0522110478796439,0.5170057493772782,0.1669307804587589,-84.97144536189785,65.12357084309834,12.149854543220972,0.2311900956056622,0.1120457579804332,0.057839642695552,-169.49509549154277,8.276653794958753,6.047151277377379,0.0825711212107475,0.0351943610470706,0.2495529960098556,-141.60976791699608,19.855307937800383,11.977556489694088,-0.0280902286873716,-0.1024373365328276,0.276782065816227
1.03,-0.457884886603942,58.89599270106889,188.36621589261392,-0.0659629742697301,0.3845577904216442,0.1239672020967957,-85.05978016792547,65.01746325656043,12.256665446098884,-0.0648486705951487,0.2253676162766869,0.1314758813498175,-169.4507483126877,8.5716590864501,6.052448673393965,0.1310998450545707,-0.080585311239653,0.4368774898993517,-141.7638006103208,20.150307770566844,12.254797327547433,0.0764513553634282,-0.1122501853535607,-0.0465599669464794
1.04,0.1818125386109969,58.44175394198352,187.82689195341615,0.2002684881756892,0.358470534459283,0.1037932583043472,-85.04971348046105,64.79494648217376,12.443774618669998,0.1226275254903624,0.2063378746914528,0.0734608901884887,-169.8175669225393,8.410214306002292,6.075897031294564,-0.1539501353277446,-0.1178343639056137,0.3299367469465359,-141.88152702001153,19.96899804761432,12.293689485316524,0.2102856511975896,0.0380234747223555,0.0918766616338687
1.05,0.3346812676244048,58.24661195111785,187.6732161326438,-0.1363842674671349,0.1956747248013609,0.2009121047161145,-85.57608749229925,64.58715371230588,12.638073423474747,0.0746325976851558,0.004101059149576,0.1552801815344571,-170.1640502248246,8.314109529011374,6.176510686598342,0.0326264609566535,0.2485983179837277,0.287147373538265,-142.135912875772,19.999558591144563,12.258123614542292,0.1554642672155709,0.009454460569712,0.166503074945355
1.06,0.7762208635320518,57.89836493805905,187.55646490787527,0.1955939955442865,0.3360785217128024,0.2081084419743872,-85.6360780007865,64.39333291723136,12.919961561372908,0.1748327643580547,0.2703155528103867,0.2019087172789165,-170.23068887261775,8.248624074299448,6.332284010549165,0.0519040599528629,0.0054996706552534,0.0304157537528284,-142.03356441767698,20.000538010655788,12.392939164838433,-0.1345668170665732,-0.0739526260254018,-0.0653510663246999
1.07,0.9754506712654452,57.687226076530365,187.3153492630705,-0.0332641102391525,0.3656595970441315,0.1733283989466111,-85.78969920186248,64.44059561855053,13.201821662987582,0.2151673453352108,-0.1238219101621682,0.0221452415268264,-170.3353753905279,8.413433279730375,6.359342625899207,0.0651591200781623,-0.0212204792947228,-0.0488029822242694,-142.36263332774936,20.160663837001398,12.626189592170707,0.1459853085015307,-0.0537984876056311,0.1214735814446976
1.08,1.0684051850176968,57.34236197199496,187.2811918562231,0.0990563894639274,0.2756598988197805,0.0777560089590218,-86.48058702238609,64.30480078662782,13.627633253311618,0.3618281441056555,0.0915365561655629,0.0519990981971801,-170.42622590496313,8.526524962195419,6.397015475245624,0.0930094192945618,-0.1198415296821916,0.1946081413105236,-142.13289711759936,19.93391749743613,12.469159263004144,-0.0060249537592464,0.1119492223692647,0.3274704542744795
1.09,0.8132870054934281,57.03064416721831,187.42128067593436,0.0260584265286414,0.415840847567978,0.0255499549880537,-86.47050738221485,64.60553099560074,13.644614951201556,0.0922134360874343,0.1163515781812102,0.17575089307319,-170.39014850415975,8.264688573328826,6.402893831746479,-0.1165709580088768,-0.0189112953064295,0.0558316976151678,-141.9447556297745,20.02195184988734,12.394633635356676,-0.0666013602994443,-0.0497969056964746,0.2835337455214564
1.1,0.7715450840582141,56.548121567071554,187.59805372943023,0.0834724781628117,0.2154700864648532,0.102449281627477,-86.69487014484238,64.55352840955177,13.9223095884949,0.0007542642542214,0.075121948849238,0.0056304784905165,-170.46153582820017,8.261806661926773,6.158175242835353,0.0578190358195458,-0.018221130109012,0.0449159795359268,-141.78523785830612,20.09354757706489,12.154237737517072,0.1832269675285097,0.0724976663264214,0.1419847093800211
1.11,0.7167232524158413,56.273743128903725,187.68466544169544,0.2471662424209095,0.3554172391195239,0.0092250531461432,-86.83602103680192,64.34451492841228,13.82060260100744,0.0707328982249459,0.1466187838714558,-0.1563495336191949,-170.28374674639085,8.308759207419723,6.374473193606377,0.0933750468034916,0.0280898917518984,-0.0272214478692836,-141.82690445483388,20.174184544179116,12.087416943167614,0.0666575381325293,0.1350414342589229,-0.003739234794711
1.12,0.4542725169691539,56.2310104121067,187.70162966171512,0.2625927996005228,0.2287429034029295,-0.0158122097674902,-87.13138950923742,64.55434807277076,13.9574087037033,0.0651576405644333,0.0769642034416538,0.1596310507394856,-170.22978353977786,8.270219712778944,6.240011268965047,-0.0802072912122374,-0.0328298099663948,0.0616003953858451,-141.46538747663183,20.19642133714607,12.378450476139284,0.0820207815165345,0.1169282139393552,0.0920416490675646
1.13,0.0289222869159697,56.15516914324119,187.8309058992828,0.3933349791060641,0.127495426026167,-0.0056146968499815,-87.011832313159,64.42988960686765,13.962526246337832,0.0523848924133011,0.0557596744370126,0.1297174599989827,-170.1330528740073,8.264060348823666,6.399217485276344,0.0101703360239482,0.1121261619089585,0.1152773715450663,-141.5028811240035,20.06493169433594,12.12778082708397,-0.0164427746143767,0.0147262840419988,0.1119975183974675
1.14,0.1197157762056438,55.713322921536,187.87149481600864,0.2976955856318897,0.2451101835121097,0.0757315754344419,-87.05514753731154,64.27795541067194,13.71915473671612,0.1616713783349648,0.0428359038874989,0.0518189032662024,-169.97774628232247,8.202858132929597,6.289557876389899,0.0633599269047165,0.1574753894696354,-0.0307647817934116,-141.3567431697354,19.8437487282702,11.97377036531302,0.0703097871344736,0.0597085264057692,0.1238335666379675
1.15,-0.3499314129998057,55.45787783654939,188.21357471691917,0.0703298818984747,0.0388751313075876,-0.1525666228775714,-86.99687931260925,64.22325314862327,13.628833847411368,0.0634776131994751,0.0585967205260095,0.0118558901529119,-169.89842051192693,8.259619593193174,6.395756267389396,0.2021450581174971,0.1402122164149516,0.1863039728401613,-141.07512293441133,19.83929035893783,11.62986586866657,0.1136600256014194,0.1794049217672782,0.2349744093724939
1.16,-0.3381336914998225,55.31206412535759,188.3455551229777,0.1190454975939601,0.025271004017424,0.04731948502186,-86.72464553705588,64.6727897231284,13.452899302726228,0.1296425434487512,0.2838482560254495,0.1672253518055982,-170.03923461921613,8.333966920911312,6.227410176748557,0.0594312588712494,0.193523333868258,-0.1181475529054865,-140.96985180150102,19.474306116259807,11.699625835556065,0.1313839970292422,0.1630271360922584,0.2988507382805707
1.17,-0.4653094593859855,55.190766612431446,188.4094366178854,0.0841303949857245,0.0800121184223186,0.1490336237916979,-86.66031440889915,64.76642935347259,13.067514799311253,0.2271928799002227,0.3202503478118851,-0.0168110978498925,-169.9591536120927,8.455167894556753,6.523842976578099,-0.11516914288532,0.0923225641018516,0.1543947404779294,-140.4336142351269,19.48227054766509,11.56196027193764,0.1083935319904456,0.4764096263303323,0.1440980162050811
1.18,-0.5835249057803513,55.0919556820752,188.1647334480898,0.0951378405870142,0.0378059081046792,0.0189560895147377,-86.46121835067461,65.06912653453739,12.824708257676845,0.0889088251259468,0.0921951512909554,-0.108989733934354,-169.97811086184774,8.472534382941069,6.383287731712176,0.1864985836012663,0.0180795326436657,0.3560162980029664,-140.3541729539137,19.14620860096136,11.70764958703935,0.2244905159692916,0.2534042244799915,0.46084774224377
1.19,-0.6482727624893936,55.023151301600606,188.26009913971748,0.1745075972509587,0.1798429773034894,0.0353803218263209,-86.49039521032124,65.05433194653583,13.15097649591537,-0.0142030197415071,0.1581932746751932,0.1099895964592061,-169.72519885278683,8.423529591466973,6.4206670787626114,0.0874352474897197,0.2690251928257894,-0.0439045635672953,-139.80599287371493,19.171093532132897,11.797664038247186,0.2211115039033525,0.312238456196183,0.3804120121795181
1.2,-0.9403186825934384,54.71780511144749,188.17981502381664,-0.0430351961704125,0.1066798334858429,0.0545283176707283,-86.55532228755246,65.03394915615253,13.134456147858424,-0.1212431640998813,0.1110945524686266,0.0650601935375192,-169.58703475589138,8.351957720029153,6.390071974379995,0.0647348055474465,0.4511316302014567,0.2165759670772193,-139.32026740265948,18.883450991256364,11.75857909556744,0.2503558726211972,0.3406003866160673,0.7385714761171094
1.21,-1.0482622566818491,54.65253991404921,188.5382614358099,-0.0126672552018361,0.1710947824225796,-0.0742136585342506,-86.50107497577451,64.96509544781505,12.926495986377256,0.1460734407933555,-0.0914913131002749,-0.1235422603517656,-169.24103662060037,8.701367962234823,6.461603731765331,0.1143355715130284,0.2145428783696955,0.1812142328572906,-138.79068249456876,18.571500330194745,11.841460706267592,0.4981913495289441,0.4602923559038751,0.578145640441254
1.22,-0.8794287302876856,54.46007296773311,188.5943499104801,-0.0155852891837066,0.121509939985811,0.0475286235963986,-86.41674508933639,65.02853159047051,13.011570379047123,-0.0618025558251069,0.1517663277272221,-0.1561332435953923,-168.65094996827204,8.838091943975474,6.176987548837021,0.208429067936399,0.1463451364709002,0.5267469989026252,-138.12899077628586,18.45569616768668,11.838620398778582,0.0616615012874941,0.3945004380818338,0.4476817149021249
1.23,-0.9025253777408052,54.51624402660044,188.3626582906124,-0.0170692824340924,0.0509981824919533,-0.1019072009120505,-86.49196501114164,65.15310394521853,12.818741907478548,0.1001535307168493,0.1562363237184229,-0.1464938582781619,-167.96633709086004,9.14308284313934,6.166860665232802,0.0668171303948838,0.3409154535756935,0.7697595635295584,-137.53211349680575,18.31395883919674,11.54012812870351,-0.0102611908540251,0.3231125053521296,0.3178019152643672
1.24,-0.744382973600232,54.49481432859642,188.26308315040416,0.1281860147057211,0.2129461234944761,0.085396571121157,-86.35303807830563,65.2348095599531,12.685724069997784,-0.0634004413569839,0.2792194917568513,0.1156339757070979,-166.64759803887367,9.535337433762331,6.08244766561032,0.2111321676178649,0.5231279101642538,0.8902860223128211,-137.49519202851602,18.263934506450592,11.187465067284744,0.0731583311507035,0.1700791266905699,0.0403488223679424
1.25,-0.6787697368922556,54.85186278619108,188.0611157391131,0.0584202221306752,0.2069042843082647,0.0106770882196063,-86.25553531218559,65.52411489516226,12.275205102377786,0.1165971452027813,0.0613783169340586,0.1713906374350701,-165.70469909821344,9.872645746818474,5.984873100139902,0.3032082091997922,0.3732928767231742,0.8348498031006402,-137.58961312427616,17.92599408196808,11.342187655540558,0.1735314259397139,0.197237245170447,0.3614782689696598
1.26,-0.6645399032859269,54.99707800141938,188.039893000954,0.1189224614969025,0.2321460005292798,0.0290652407564677,-86.06704506389367,65.5041189445135,11.903360286866048,0.1055148288750235,0.1031366503779472,-0.0242944676025321,-164.9802850215264,10.22593006734338,5.810973520445891,0.1057997630319749,0.168841252626021,0.5105779499268505,-137.6334606970537,17.581823750373776,11.54224919744932,0.1287512034504535,0.2725125802125852,0.4622388129733489
1.27,-0.5175956696326418,54.83259994581042,188.0342465238137,-0.0657143504744217,0.1430988454074229,0.1481435903844568,-85.42789634904577,65.48004412038505,11.83305560983198,-0.0092166610829525,0.1214623161364022,0.0975322747316985,-165.00565202120418,10.55546808106896,5.992219843348825,0.2030562794978661,0.1342197840007951,0.4599956456829838,-138.11563136715253,17.1614272290377,11.833542430930468,0.1664317939124215,0.0220153516810321,0.3108538315153399
1.28,-0.5133924998469076,54.61465080713084,187.8208161262691,-0.1646694271670255,0.0582848656294887,0.1539260007250568,-85.42645926107095,65.43973228901311,11.776966789085872,-0.0993928006938606,0.0465963893168012,-0.1830468035701437,-166.04085132483863,10.61893882836622,5.824284951898545,0.4209219189960314,-0.2010534834770956,0.6649321856297594,-138.33877363754698,16.91189500215758,12.22063441041021,0.257473151652708,0.2729248430974544,0.215086035689227
1.29,-0.5302572897182856,54.655185921246805,187.7950291898979,0.0498263343321851,-0.0110019755445295,0.2111980724544759,-85.31225509828599,65.83994623228884,11.414143036933082,0.2531141468574457,0.1541124223618906,-0.0056313263744773,-167.0282697750921,10.640951235267092,5.951384581441597,0.4220277083990462,-0.0828581302111032,1.016886211269404,-138.24584898887545,16.76790067564413,12.359500924765884,0.3691821796133057,0.0404364537214234,0.231466335690074
1.3,-0.4059649377766407,54.5885209888008,187.7482846834648,0.0189796208862327,-0.1082630058974421,0.0117630139259802,-84.92679317249194,65.92691496881815,11.522424771275237,-0.0693806510339182,0.3202827615130259,0.111639206765136,-168.21510909317234,10.66007434448956,6.365753088276642,0.3676396765779623,0.2565462518296761,0.9197902705087416,-137.71989902093767,17.140940765360376,12.689682631143723,0.4365029065379532,0.1531716552663015,0.4474674426881653
1.31,-0.4473147408352376,54.86810661015325,187.8609491941521,0.1484330718619627,0.0307702992281762,-0.0028526224042933,-85.05451733766115,66.343667226821,11.492115571701246,-0.0045539788362398,0.3653607541276751,-0.0468541291865347,-169.1879224027269,10.572114409678573,6.210845966933478,0.2167545993929663,0.2179222733356813,1.112573178162258,-137.03366830733296,17.259499243530083,12.975755288110555,0.2789881185652639,0.1561203562386947,0.7236966026661807
1.32,-0.594820831234596,54.7780893421948,187.7752133276225,-0.1170119268524018,0.0503819080738273,0.1573894617723825,-84.92945588697204,66.60614608081566,11.222328095469084,0.0158574507738784,0.3898466945667238,0.088579566074427,-170.76906291638724,10.332083703492804,6.335534152799179,0.3076874425488801,0.3224150620636787,1.0102736051127517,-136.39339022125137,17.71600258913188,13.482236806089263,0.4973931500295627,0.2470564994364536,0.43800428297322
1.33,-0.3301543234960274,54.89196615341534,187.60197585635208,0.0633036989950629,0.0624923808718552,0.001537859588739,-84.60847081887671,67.24948783407034,10.993188334590776,0.3368160564791848,0.7564552986740902,0.1087658045455329,-171.36509244072954,10.433121468520284,6.124968568804277,0.1532861764783099,0.3549960079255687,0.8230324619748477,-136.1682106142361,17.736014234794208,13.690562950933284,0.5587332273374942,0.2162500453362215,-0.0737697491007191
1.34,-0.1456406674367037,54.99218807700275,187.5183080405492,0.2383959153045853,-0.0623350899675822,-0.0498964703357943,-84.38658732378568,67.82560053336898,10.88006695895509,0.2512527827423996,0.6267318058323775,-0.1134189367334673,-171.79680802362265,10.22580469787926,6.280696927744285,0.1662971946501162,0.4858574593949069,0.3585753844746492,-136.28778787717243,18.09192792398608,14.204433346201364,0.5203172554760537,0.2869704305335303,0.1468392313102948
1.35,0.1313077559182565,55.10785420688768,187.55752420650816,0.2076556228157569,0.2038512731130898,0.13052431981724,-83.992270928372,68.48517038258365,10.412596926511808,0.1886364536280178,0.5744891856288687,0.0796112077295053,-172.20964386620773,9.616763112721806,6.064856968206599,0.121431575977311,0.4055110822746003,0.0966934798578952,-135.78060903752618,18.53527089589605,14.914303635166291,0.6074544892838513,-0.0203214511103306,0.5423247797952782
1.36,0.3667763047192282,55.24663849248126,187.3198563596581,0.0133407663319359,0.0465288188324639,-0.0313243595345228,-83.7249630708535,69.25208117399362,10.090483002976262,0.3673772257687037,0.6678336321806486,-0.0765449777761311,-171.8078333594493,9.295308578104615,5.7658094138015,0.0833253090354914,0.4294963564956298,0.3527787019957011,-135.71090172006794,18.26829076865413,15.196353925343937,0.4298972127582237,0.1936747559359208,0.7151807391625333
1.37,0.2881784180746582,55.364654807459296,187.20218477148964,0.0572070265625732,0.090312964102421,0.0261613022360692,-83.77456484838567,69.2211646017739,10.002596040250909,0.4788603414999289,0.5494930571824596,0.0200877150291272,-171.64228739475217,9.124880440185544,5.701029141492022,0.2399373747297227,0.4875645732153199,0.2931126276306951,-135.39337311115935,18.386761397420894,15.403662657002458,0.7249541627440053,0.2788977958203793,0.7374129520909222
1.38,0.2963652255994491,55.54183279834624,187.33040449100096,0.0698274976587893,0.3826502366992989,0.1412416247309018,-83.15262970304954,70.03093065107598,9.652042130023974,0.3482218528640702,0.7442888698064104,-0.0062642201727652,-171.31366587930256,8.50190313802686,5.319728461610259,0.3571677200204217,0.6555511131854631,0.5142840546417303,-134.10274691577175,19.01761659489914,15.558406972852303,0.3513991230436208,0.1955258791863166,1.096118182589148
1.39,0.4747592031173825,55.92480755472361,187.28203760576656,0.1322791530868545,0.3960003290604237,0.1970514621251411,-82.63115538408036,71.00535987662246,8.941520965362132,0.1594047702992404,0.8799238133573335,0.1755135862296414,-170.33552174715143,7.604155641444079,5.3814643473218124,0.0661451417384525,0.769931046637145,0.8415394752667944,-132.99358533695272,19.6348670360197,15.352098582724576,0.2306849032526656,0.1180491732102642,1.2540729589004298
1.4,0.488514455292391,56.23768983147742,187.1105991623321,0.1156793831636569,0.5016314392597364,0.1133940314185779,-82.26129410324994,71.97220376665166,8.80192726107308,0.3808563818357423,0.8389009495264013,0.0626923727035251,-169.66296171231232,6.909797580269172,5.18567293746856,0.2523458514978056,0.7956506763176867,0.6167703483760902,-131.68701238240277,20.29326496672268,15.238493825114448,0.2328952257721456,0.3882487024698973,1.183727073921188
1.41,0.7089029303294756,56.73911908343635,187.34748468274407,0.2506492523423209,0.4830012997374961,0.2894930591065687,-82.17100432753129,73.02934290105169,8.026327162215193,0.1834772454841373,0.9406260091172974,0.0730140177191692,-168.97763702732414,5.9563400415174295,4.966896140233385,0.1134004433755297,0.592256624619605,0.5425294660082508,-130.90999149328923,20.77875724444384,15.017658957888676,0.1371136236334057,0.4171559459523548,0.5926313194750655
1.42,0.8829592990741145,57.25688537863358,187.129860103174,0.265645863054022,0.460745974708082,0.1846013176206639,-81.7218873641852,74.15232448421379,7.607968282335401,0.1846854527222668,1.1109768462842262,-0.0324456453090297,-168.08672773367908,5.0801820103723525,5.210902225759113,0.3793507879694984,0.6713630304236564,0.276192771108404,-130.62745693711227,21.585828562073317,15.487894884207313,0.1543892459440713,0.5566996152745908,0.1295588778234025
1.43,0.9320357077818932,58.17877682961244,186.89504088566997,0.3562962157944011,0.6941102818056937,0.1623189851174187,-81.8054456478751,75.11205618207784,7.14855941401273,0.0652845554996232,1.0490719359093976,0.1350659746616711,-167.83140655742417,4.102304223813735,4.870942183782812,0.2328430980352219,0.4751545847148936,0.1090943224891731,-130.67797215309025,22.02253246136236,15.53722536723832,0.5602769985630681,0.6731555595026457,0.4638702364298513
1.44,1.0980173111252427,59.24512183051954,186.81280490382085,0.166373506296977,0.79924357336096,0.256998936426901,-81.60519578189427,76.21800098198048,6.875358842022196,0.2745222257236307,0.9781645229352228,0.284722605042908,-168.16904576677103,3.7273592391509673,4.576928141300958,0.0821426575141712,0.8170779771807122,0.450958559225614,-131.11923496871654,22.372142553968715,16.681265679325428,0.8669474889265826,0.7442909265245787,0.3046352763948985
1.45,1.4887572691839095,59.70359565821764,186.5269414474751,0.42044450866214,0.7380164349081323,-0.0269363386096413,-81.82487242599824,77.37063524286954,6.775868572085825,0.137240807115551,0.9803913704776512,0.3512660331405075,-168.72803024427583,2.9243597354985247,4.400315998326477,0.0716693026820205,0.9473710287243567,0.6052847011845599,-131.38050825741976,23.16046793638607,17.47888115487593,0.7184782597190573,0.7209659712777411,0.2441851383422226
1.46,1.8152924735910456,60.91210928512262,186.54650020291973,0.3918511424037217,0.7176142709395228,0.2809436167436545,-82.13412896978639,78.73842053636076,6.764480704803721,0.2392433532220241,1.0941158861483868,0.2008229437637855,-169.6361900607993,1.6435515743537126,4.617762396549235,0.0140220429447605,1.008013380138152,0.9143073593937164,-131.49555219988767,23.86818232509681,18.649246607798645,0.9087197810263844,0.8408739198138818,0.2053904250063303
1.47,2.096777519189967,61.686879683651625,186.00628117355555,0.5124126446331425,0.7485948531915829,0.2085398107655389,-82.09265285897973,80.12189961734968,6.669546569284299,0.0511087758213471,0.8417860350086875,0.2067542873085235,-170.80443607383427,1.0582529645067331,4.697837624373611,0.0783322079271743,1.042020281599494,0.93788381882948,-131.44860130635612,24.578011644055078,19.88497254937044,1.1628556000354873,0.8502472663646268,0.0442817902607637
1.48,2.4320734941949285,63.03730062570994,185.7537442159455,0.3003064763100233,1.130598554864731,0.0606007596097082,-82.26104397870604,81.31197653723459,6.730609987169944,0.1290240626018381,1.098176861870236,0.3669890546243846,-171.7403902678436,0.3087493205446141,5.215875507259595,0.2424421038514176,1.1718257325157804,0.8192082775646004,-131.11382860806435,25.562681195330764,21.15537356932461,1.1904754406099638,0.7798103456060355,0.1917776744649733
1.49,2.6451446299336125,64.1307226682942,185.48253768281103,0.2567216216772012,1.0463248692686953,-0.0895485185506867,-82.7522101770501,81.79512345116832,6.851495838065892,0.1851082207443804,1.1087721805208228,0.1241560159099002,-173.08228435945165,1.3755569738498057,5.22585690622132,0.1901017234099429,0.950633237893808,0.8774635279891964,-130.27067396622724,26.844496813475573,22.82603259072475,1.5045575568425789,0.8492494023178417,0.5064172790438387
1.5,2.873043115625308,65.59390652601618,185.40482275968907,0.3296664847409175,0.9922623822399124,0.2181908127890834,-82.71797183812456,82.94354390901938,6.948176721378306,0.1951455922665757,1.0171295078398457,0.3133429051458059,-174.10273397632136,2.44383366006935,5.721403912632043,0.3054403057843988,1.1423018092465742,0.798109271094551,-130.03727388422757,28.137973828425856,24.348335063247507,1.5025383916093076,0.997127500271206,0.4379153254691609
1.51,2.834907599432177,66.73238204327507,185.14027451248904,0.2330765316279154,1.1159540528964216,0.2529330415815493,-83.17443841642486,83.96863185376537,7.080116716113062,-0.0295470772543888,0.9794855311388252,0.3463029921835899,-175.05380359607128,3.643456544821887,6.274580058089055,0.4110851499064417,1.5605310313150689,0.8420723481109748,-129.0941453511571,29.33732436923549,26.09536433429321,1.4709030044048377,1.0481030864192686,0.933003368106592
1.52,2.691340342725936,68.174695128319,184.967834469583,0.2075787548439609,1.2645367107625574,0.4047902157215328,-83.68254045151554,85.24434056774486,7.134885618225532,0.2415198181677017,0.9430863635735806,0.1868215814674727,-176.13750248933405,5.433040497861147,6.694477273790489,0.5542241723062372,1.4521382897516109,0.3825603622738042,-127.92287693495692,31.02400477021108,27.39729129508322,1.592608394635609,0.8976018718999078,1.1480903591498903
1.53,2.660155737560466,68.77500306828604,185.26394895652516,0.2954563330791125,1.4120043947920593,0.1924410659950179,-83.59541540531154,85.84322494983807,7.250743892057596,0.2880907580129819,1.0823036814798837,0.1925493583824114,-176.4680812349305,6.0779220413348,7.010850269674594,0.3316656367005762,1.7453953366595396,0.4956461407977788,-127.0124236580785,31.73483657076713,28.33191788715513,1.47681758453312,1.0854058018006234,1.1603169519868246
1.54,2.656680291477432,69.46631944668901,185.0507038945765,0.08595825412094,1.217800096585861,0.2695939856269227,-83.74672897310874,86.49123463171628,7.44128561994615,0.2101178928556996,0.958186997870027,0.1421485573799417,-176.9092912881916,7.143346358305232,7.433096437350693,0.5751662405878263,1.576269384104802,0.5443157344054994,-126.10933037632712,32.77369872018515,28.687013330854587,1.5574400670936623,1.1775576811643496,1.1947419896783775
1.55,2.271679483725676,70.98819758316094,185.11087784525603,0.1124843578843937,1.2687332649385068,0.3820838195208344,-83.89950009345857,87.37252411092663,7.522067689117214,0.1458703150145298,0.9975245431243728,-0.0676385596221076,-177.49505459068973,8.725947513868272,8.026325470288137,0.6287679443157917,1.647073092672695,0.1181101120386123,-124.59645874415146,34.74317137386976,29.7308817990064,1.292165901830713,1.2697529311955664,1.570582974645859
1.56,2.3217017109889797,72.23334301340005,185.3434565861736,0.1210688851043748,1.1918853976878832,0.4330526986405181,-84.37070725563663,88.39180570730866,7.738056748750105,0.1586559569197212,0.769390537179577,0.1654527107445106,-177.62092419921098,10.194758895732445,8.871047019424195,0.5084577973537279,1.5276903936661854,0.2062689411492213,-122.70489959912724,36.682431494469725,30.703442343020303,1.1901933403591385,1.4988049720137175,1.7085693428946132
1.57,1.7379906968545424,73.48046955129715,185.7806684219612,0.123569365197052,1.0821122154357483,0.1044163660611222,-84.65936518067384,89.49850554584864,7.795154594963245,0.1740063996153557,0.7909757707819296,-0.0438547501552901,-177.66083700957685,12.019128252543837,9.91986066873287,0.9216574668446762,1.4029814549353128,-0.0197014844918817,-121.10959679559784,38.71583746270899,31.525734516261284,0.9582703445636672,1.395098922076609,1.2623857017810491
1.58,1.5669725603612712,74.64925334288169,186.4271840064856,0.1894397437125626,1.0650179315581283,0.2201547381679494,-85.00834999354068,89.56586194730467,7.772232502528146,0.1281060952185619,1.064219902433165,0.0333140169483684,-177.837117923784,13.543300684976844,10.893302839645388,1.0015563559334455,1.5025376576821334,0.1566283396819292,-120.08298795208454,40.84588123152287,32.619537303033674,1.0086579463784076,1.563184617593568,1.2908014248063997
1.59,1.1652196505077146,75.73822812691694,186.99995545959365,0.1106675846463952,1.0216855026310008,0.2430096508212764,-85.04641221484955,88.32076661250662,7.906233472800348,0.0051870402659803,1.161178025316048,0.1842067527505658,-178.24102115394462,15.059071635054678,11.988789647417258,0.9063223708285092,1.467858459504686,0.1554682884250752,-118.65408051291983,42.91316857356431,33.54294384717278,0.9976029111364576,1.7343118507385995,1.142703266175631
1.6,0.7744650520478894,76.65357978754014,187.40999063635107,0.1029031648886754,0.92706571020261,0.310503839708179,-85.19721423332562,87.03808887858966,7.883929614641345,0.1103111553470083,1.0495224020031937,0.1812134917301975,-178.63250768526373,16.435192513327234,13.269133087104755,1.0072843432809595,1.3908188242805613,0.5578677805138972,-117.5138574983922,44.89183206406388,35.00257872956426,1.2818400149306932,1.4886342436919853,0.8956061069888445
1.61,0.4908624220925839,77.5680976407925,188.03303790103624,0.0507317600271676,0.864560485715664,0.1123989929182416,-84.98109608498135,85.98052016896384,8.011468661259263,0.1084527559945365,1.018397509738704,0.2748146961870986,-179.20890266391535,17.90181697068937,14.723472707211938,1.1690347850112832,1.4464323266416377,0.6369420621540682,-116.6668261398378,46.69983455382846,36.59159747246847,1.168068934104407,1.5034527954583736,0.7664836744521235
1.62,0.4695483156016871,78.46836881445344,188.6647770433861,0.0635946838497555,0.6813708084456997,0.2122089075717032,-85.25633596663512,84.6983938094772,8.241772924416752,0.1232777580491648,1.0488727350229312,0.1326352792565903,-180.2100113968093,19.05395138239528,16.427903742041092,1.2404238548822135,1.4387555295499903,1.0466748175188598,-115.98315102992832,48.5444646779556,38.8329890260558,1.1855709827205478,1.7465032583149729,0.3952524166895799
1.63,0.4071682701151238,79.5254674639698,189.4947788864788,0.0931137441666622,0.7545947748281003,0.1719363850224936,-85.42723269147633,83.69909652754002,8.258272907755439,0.1212777475591002,0.8231817165434931,0.0326628965238948,-181.411827086993,19.91227671557576,18.44152636992926,1.245765683157806,1.1018208465999229,1.1853426856551903,-115.50672101000607,50.38586327109388,41.370761105405535,1.2313884663581378,1.9993008366119829,0.3184130984501002
1.64,0.0353702352317928,80.21281625947236,190.19191541290164,0.0304925059815714,0.8840565040990123,0.1146974270121087,-85.46068391051286,82.95246485492208,8.263410519216091,0.0327264029472884,0.6039339723347735,0.0032470683204199,-182.6155029854128,20.863915746078195,20.44583317115,1.294364020048506,1.1201246301815482,1.0703856488333066,-115.10697947014462,52.39667790883684,44.0770788008841,1.2364822508574524,1.9048622900404848,0.4708175433310045
1.65,-0.093180943964296,81.01287690093869,190.6402557373299,-0.1783479416148349,0.6940204453941193,0.0015648100801033,-85.52738270650586,82.05020377549633,7.828160057945295,0.1846744391609938,0.7485707557325297,-0.0888515362175559,-183.938198302189,21.04882837944737,22.614131112686064,1.5645132077825412,0.847534431610889,1.2265242774060574,-113.99291430700993,54.524304516451856,47.18773088782918,1.3780137168867952,2.16299973891398,0.6284528599493926
1.66,-0.1437547234678822,81.97421385314595,191.02457453358463,0.0338746738374392,0.9308028163115912,0.0688475413171018,-85.36691862893605,81.80961288725207,7.581593300328284,0.2711102146225624,0.5131253342327796,-0.0016894944076792,-185.3636589401168,21.551315721962425,24.971789213328695,1.6106308800259836,0.938035013968818,1.7504555774265935,-113.05664375311386,56.57203285947281,50.27974009251724,1.4496701311037168,1.728431071168735,0.6503190822058974
1.67,-0.1471104572662227,83.14461950937333,191.33895266809455,0.0087321488161307,1.0328581681205629,0.0536946366227571,-85.19401549818484,81.12399793556224,7.456796896577824,0.1246566101072866,0.594096189519158,-0.0348873928492792,-187.1987787845104,21.66514744043764,27.78375496041065,1.6947481473482764,1.0613901252465252,1.2879018695940057,-111.9064753529426,58.40948333512219,53.57183692739327,1.376381738051977,1.9916590996141157,0.6912018533711558
1.68,-0.1825819088295683,84.08567241978899,193.80949990860876,0.0673139763224532,1.008435899602009,0.2900925649273682,-85.30610376477624,80.26306439942147,7.733210814506495,0.0819687605113834,0.474865912219069,-0.0689692228983241,-188.1458995891398,22.07113709509929,30.572334803898933,1.9030635379759768,1.1434181546295017,1.1142028755014943,-110.75371839427682,60.47498087566704,53.5348994413285,1.147464159554773,2.1817115936203,0.8797191027757088
1.69,-0.4341898154304739,85.06733738987135,193.61227966068807,0.0407656211530087,0.7653050578010117,0.215134854495742,-85.10394493270108,79.72273225918296,7.610511214045167,0.0623781415674515,0.470697496743401,-0.1194839504619589,-188.96405251480675,22.38633138220084,32.911402427286546,1.879918123814703,0.833048094102348,0.7936053388848626,-109.8278647573538,62.57741619084553,53.51594305894443,1.056142536774599,2.3165251039388304,1.2322356510836958
1.7,-0.3738824568158831,85.4953790665666,193.40817130623853,0.1371037698750067,0.89165169405696,0.2985400481030512,-85.29573979150463,79.54980602728011,7.7010806819229725,0.2326063355498989,0.5317629508768691,0.0385350017762466,-189.30097452257945,22.28181498990547,34.048368118624886,1.88002841387021,0.777631498606029,0.7470503852842199,-109.0058665472107,63.61302920286961,55.81252503235073,1.1455061137522584,2.270953360604295,1.0682084368738314
1.71,-0.6291536704239078,86.1061704203471,193.42515976980815,0.0528635751142122,0.8934223571042937,0.1291351286541527,-85.21500555798158,79.15766997772833,7.901280955314676,0.2260733784246955,0.4259973442223402,0.2409560638941819,-189.5364641891865,22.423558445231084,35.51428304722052,1.7585259805655833,0.8832846491699118,0.6804661083973909,-108.49298695320095,64.65628676947227,58.27552630549327,1.3271192475699234,2.0831484328132337,1.1220187215980564
1.72,-0.6557767241373222,86.69652088836173,193.33734437690205,-0.0558665548638341,0.4214782825647262,0.1058115948633186,-84.97566078934929,78.7081822196783,7.951777424874697,-0.0145894747886884,0.2874590406025396,0.081769722978172,-190.08386640334908,22.94715121915924,37.8443857018798,1.889564030921884,0.9946103894993998,0.6097767667248501,-106.8478007030485,66.41191572905473,63.73827432757362,1.3365182330329193,1.872840185797203,0.9419691409085564
1.73,-0.6066288326611635,87.20393272309498,193.3420336958825,0.3424902788682126,0.3150285773520901,-0.0428771416085215,-85.0396365406076,78.69623439869244,8.13989701861225,0.0897687243437087,0.1082160670976928,0.0676045917228952,-191.03694551313416,23.13672021350376,40.41311920885642,1.9760714253761693,0.7365452702200255,0.5657767732826403,-105.45449750892942,68.29861123659134,69.23098027839596,1.3502620597136694,2.1378834706613805,0.8407613212037176
1.74,-0.3927066987854203,87.81851035966164,193.2300285927972,0.1132821496592961,0.4937963967303639,0.0912325159454469,-84.95473182501873,78.43442093628344,8.28400972424853,0.2231423036338858,-0.0828386625452645,-0.1462344281798755,-191.4582548534389,23.393314607549996,43.07342648262297,1.8257400812965112,0.7991613702612386,0.4824964972010966,-104.08328979953464,69.47753043017796,75.94814808827674,0.9384262953582024,2.0799321999248086,0.817409611198822
1.75,-0.2395396252925239,88.42620217403407,193.28360067371057,0.1078846251483662,0.4547737378286126,0.1127970690945132,-84.64637887739433,78.09341983030603,8.535910607787093,-0.1010648202830774,0.1532292247632392,0.0463391099117742,-191.8002736875196,23.63452952154252,45.11280283645259,1.806019969908419,0.7000856321029422,0.6858893566655866,-103.28428334505833,70.27623242768146,83.58889549713639,1.1769451075810051,1.908833135719836,0.6556040197424372
1.76,-0.3254017549002987,88.57259217771222,193.12218981539704,-0.1705665996910281,0.2819409325972164,-0.0121904978676416,-84.55957996859057,78.00075023592389,8.203335955861716,0.1441779012228836,0.1516117554983879,0.0201699964315797,-192.4744598285904,23.381030827988614,47.56777378212725,1.6191298888480596,0.5641547993400983,0.7399489091376733,-101.96152222567348,70.79118189908989,91.43568944316672,1.4386851474627154,1.9772543039403128,0.7466380936761601
1.77,-0.5193325982211743,89.02937585994388,192.91992145430257,0.1497345972625003,0.4791279254529469,0.1316311154514724,-84.54447838034635,78.00803060762549,8.093359181977787,0.1030202442422071,0.04321853743385,0.0642076779092461,-193.384941522424,23.390478274269068,49.68950337090276,1.4390424667182151,0.5205631187581068,0.5961774728655744,-100.62301736893276,71.21052179759376,99.21918091940564,1.0182492052683922,1.969716210500617,0.5678493603955366
1.78,-0.1208328194491107,89.0218219430549,193.0431727108299,0.0879931476146618,0.1338365391654273,-0.0182372884617143,-84.55599563614624,77.61375958137647,7.976005175615944,-0.0289859278943311,0.1348156529893305,-0.0484884435379331,-193.70149004890337,23.33486376053388,51.34440847637201,1.3883803848048746,0.4387571521533756,0.759760163756706,-99.55818951741684,71.01658607902898,106.7001830357263,1.2092384305064554,1.909689662539337,0.2802617108421262
1.79,-0.1415331394687118,89.0349821534694,192.96875494068024,0.2570300120450086,0.3194581560578336,0.0404647721974793,-84.32216554282455,77.51679603998834,7.839849379535988,0.0030105938764481,0.1711297830035776,0.0578780402576746,-194.19414866263995,22.92393044093138,52.9759717903205,1.526320883903884,0.3675836428015475,0.4926597342676575,-98.28639981726862,70.38032633240329,113.48617616783685,1.1896038827481084,1.6698765268561186,0.6042250116469832
1.8,-0.0008377945366551,89.26984606163633,193.2200720570169,0.0275233039448261,0.2878316163207172,0.0682748844749197,-84.1850564023874,77.5120861091071,7.64803684438063,0.1941712087313508,-0.0219258536085984,-0.2358466727873123,-194.5411104254813,23.03129698667073,54.627020273392894,1.6330349620768232,0.3926706983856122,0.4627353629148266,-97.2529321908741,69.89259907630648,120.0472624963465,1.034243990646477,1.8424460739298405,0.4598265563514293
1.81,-0.0041170510374066,89.2429452802863,193.1032460665228,0.0877803272386761,0.2630290778736459,-0.0230203803303046,-83.91741023482922,77.43778839395341,7.883458949601217,0.1198352479462877,0.167800176959048,-0.0283351245815559,-194.6271792046655,22.628255298459035,56.641821284726994,1.6664215918114875,0.2371208754007702,0.2648141071165091,-95.93770979645905,69.54812857907903,126.37538067444126,0.944575879918738,1.6668973849419213,0.7448584302036678
1.82,-0.0118015995357839,89.16623646221339,193.11226056018944,-0.0026908238380372,0.3188730689765888,0.1467243574986169,-84.12063632085831,77.41878892687264,8.11515963073058,0.0798715781542337,-0.1305247828398567,0.1365620920272997,-194.72813165026545,22.59907087198993,58.62319428755222,1.57919222504947,0.3664406120795526,0.1638463355977964,-94.6365229659576,68.4276296430506,132.0487795133752,0.7627428156922295,1.607456684409238,0.6940909426033516
1.83,-0.1959279531471145,88.6818100767233,193.17943393475636,0.0491110525168075,0.031812799935415,0.0197427416795025,-83.80361775465086,77.4934539293625,8.228691911879356,0.0995927702972588,0.1962346971960685,-0.0893900512831739,-194.6609165098583,22.613332231627865,60.44861498922442,1.6217999715513232,0.439517057194223,0.1476623132357151,-93.88436895926694,67.57066017810811,136.82140133994392,0.6160403716911363,1.42729579158201,0.6983812207322913
1.84,-0.0883839402044277,88.58939752163478,193.1230656355565,0.1956957854971756,0.106624784075208,-0.0435314771289485,-83.84341614191669,77.71340861018973,7.982719979505575,0.1233514692196504,0.0085701517827968,-0.1669300113658557,-194.6860006650565,22.7615847814804,62.53186646233719,1.6592388384962689,0.0732741169871608,0.359449979985374,-92.80048331440628,66.73026428138824,141.17283531579196,0.6786091046669374,1.4840092559015494,0.8107201901985458
1.85,0.1197645125798013,88.86361122147953,193.16768573700344,0.2131519499183519,-0.091828684571754,0.0112074741278882,-83.79664170840825,77.8030971677812,7.967477695012485,-0.0721513430767969,0.0393103762601597,-0.0036157074446074,-194.2836556372652,22.673968709848182,64.31566981797997,1.7111839592096962,0.0678831848873775,0.1210767738625189,-92.17217835054537,66.32131916323844,143.06525242368662,0.5046962816873363,1.222935775771849,0.3966507553615247
1.86,0.2866435283628873,88.71979674013839,193.02389350222597,0.2324133174006713,0.1897106988484368,0.0389100157659609,-83.68096383979415,77.87565869047945,7.859816344748544,0.1001074668697556,0.2506754096592131,-0.0265022728433451,-193.962063313961,22.497853783502237,65.98374669392508,1.5607681422500783,0.0216178427226393,0.1575630987283589,-92.025402233214,65.13428417035503,146.16118608440834,0.2244309192047995,1.2826600420969192,0.3993434091085746
1.87,0.4498724736598341,88.71603618171214,193.13690219550156,0.1518527655827551,-0.1036854015185707,-0.0100014183202734,-83.5967442010678,77.94424723963793,7.811683595703439,0.0073819947994771,0.3472857234468746,-0.0886028746668843,-193.7764729638917,22.500202336907734,66.95473658547982,1.6071504341564944,0.0992184033213139,0.0628692222439571,-91.62899536451626,64.83706876960832,147.096749363173,0.3927682303805301,1.0812762025422562,0.4107124668377866
1.88,0.4793539838507042,88.7278333205682,193.1305895705156,0.1914324813773127,-0.0303978896593257,0.0769219021726566,-83.76412801799017,78.07736288517061,7.577927178792121,0.153157608171035,0.2232875364983247,0.2110385976605786,-193.52219289811976,22.53041861010024,67.97708114587323,1.7673859595015575,0.2073233767216852,0.1038730833000702,-91.59723121583288,64.21275972145956,148.00409573351763,0.3735380090438561,1.1662554697806196,0.4277005769962296
1.89,0.5251838360320762,88.55474554579908,193.10404925885263,0.0526117781335188,0.0398016125920266,0.0395715801902515,-83.76000249305163,78.50369983274126,7.206132393089959,0.2394043300488805,0.1317452217257586,0.0272239974536591,-192.8254262221816,22.5084840274716,69.6900810995435,1.555331794084754,0.1114104053191789,0.2357313153708918,-91.75770289045585,63.3671263224291,149.87767336718088,0.2702482282786294,1.083703952400193,0.3097874462503728
1.9,0.6616734962281977,88.4516947523804,193.0676028691864,0.1406350676615066,-0.109293947710819,-0.1212208269432436,-83.83068520267511,78.62262488536199,6.702707205082287,0.1288321739881189,0.3259641761606563,0.2399748761082476,-192.21439313158996,22.524625511540933,71.61845053719225,1.64821352372131,0.1016908162286058,0.0157316794094424,-91.32618488582604,62.21416505128154,151.35950868331332,0.1496336843245113,0.8512417174913539,0.3980740348042589
1.91,0.6428395000572367,88.54904661736086,193.14333930664932,0.1047688868090644,0.0619483243598086,-0.0338692871064639,-83.8877363715828,79.03838969886722,6.27395223370318,-0.0008072438029302,0.3560843991537687,0.0282343498952629,-191.47464828186503,22.24863017114533,73.35119650652348,1.428010917664149,-0.0476490769437915,-0.0150860350623827,-91.40088947278208,61.324816756191424,152.45606870202658,-0.0007663350256492,0.817335163453456,0.1824631557847162
1.92,0.6665290702890446,88.67028456617177,193.13743796093476,0.2044312499314883,0.104124341661049,-0.0428032756566672,-84.25108732392043,79.49415897252541,5.808053324629594,0.1695582749444183,0.3620434660666058,0.0787874722197148,-190.8693324416921,22.27902201914216,74.83567812970468,1.384664638379316,0.2542179741885174,0.0720863563705365,-91.14267181634088,60.54841270271481,153.77590633418268,0.0490166846749558,0.8664237306727971,0.0038453627776381
1.93,0.8774223003864483,88.58766732120537,193.0593779450377,0.2142560386439252,0.1504302979526258,-0.0684465563406647,-84.2028217971627,79.884687552811,5.305363477480854,0.1895091321446212,0.2647844849647471,0.1734362911902395,-189.9362433338115,22.589411009075125,76.04808240813935,1.3398665611882965,0.2735718741268707,0.2820783681786167,-91.86612627201237,59.66094203051136,154.1561779342964,0.0528488911569149,1.026495720562416,-0.0158415357439323
1.94,0.6409788680728895,88.49803667353677,193.55182378081383,0.1048102040355458,0.0249682259970364,0.0451217854711306,-84.26327497588242,80.3181887905375,4.842799150291579,0.3380945317212518,0.1791512262814044,0.0007779344797625,-188.98256800003355,22.80905493298688,77.46842880422919,1.1412429631704033,0.0252117865724589,0.3153053804483132,-92.29232989461929,58.30361820368504,154.63077984790132,0.1522564339208252,1.1565870519987411,0.167486582848165
1.95,0.724891359148884,88.57522983034285,193.44513455791116,-0.0567547799763062,0.1344437630661108,-0.046082905393113,-84.51633946832547,80.5865300164076,4.478418058084846,0.027630198484389,0.4786224192310809,0.1316904652953893,-188.2513845299728,23.06527085809359,78.83196163704098,1.2805295756207855,0.1457461126698099,0.2538853869735096,-92.49044598330195,57.47898354342093,155.7879362840619,0.0107144406944011,1.319170289400026,-0.1131972166654995
1.96,0.3495971896021285,88.59556322893515,193.37309203993604,0.2317173432573369,0.1307335869271935,0.0617698287069547,-84.48240348275338,80.82643996347976,4.256182106542852,0.2028900282577829,0.2018874276569235,0.0606368580852249,-187.38114704952437,23.194387376893868,80.00304504198434,1.1119312969946782,0.204459089359398,0.0743558264539542,-93.48170394775042,56.16125557108328,155.9155371395213,0.1263479589675073,1.2722834274344987,0.2446409909504933
1.97,0.3489237437141889,88.67617646515241,193.3923962120104,0.2357105564113123,0.1132827205713372,0.0663263370503103,-84.66025722321812,80.88304705376439,3.7896039577219938,0.1715546321463663,0.151367665523121,0.0236809951801069,-186.76650880299132,23.05781908266004,81.28751094657586,1.0117253927064724,0.1140057023876559,-0.1257227783984496,-94.59770008492634,54.66853323434139,155.56375692681996,0.2022624286835543,0.9513754670751026,0.4131848874538124
1.98,0.1335101985695756,88.59217655216992,193.53903507965947,0.2837793476780467,0.2326234069358493,0.0390129608992238,-84.77805918429233,81.27050035621664,3.1793499226303403,0.1269762219856245,0.2426919239875615,0.1787322945792757,-186.40529698344008,23.0173040412674,82.44215716956104,1.059752745902248,0.0386179472700425,0.2816589760474664,-95.29617190698282,53.599533291467054,155.8152499315217,0.0841358959658934,0.8656460932623207,0.3413289969621775
1.99,-0.0108880934406783,88.72519751266407,193.3738084132226,0.0267695738710209,0.182985444992297,-0.0496087557451844,-85.01057246643937,81.28057008846186,2.83892446515071,0.0950339390513707,0.2280236003298932,-0.0069240360533191,-186.7129847741948,22.55726224506428,83.8501370750455,1.210732407312902,0.2012247224500436,0.4019511564837523,-95.82588029244832,52.81223471710478,155.75144645987544,-0.113397666220349,0.6643011181119044,0.1207478645340506
2.0,-0.2752033423774548,88.9089871267609,193.44467894104912,0.1483040350900389,0.1171149712266871,-0.0105433030284738,-84.81181175518539,81.66890761763769,1.9669009091029472,0.0532827948802499,0.3702343121166026,-0.0598620934576571,-186.34448821765912,22.43386962667817,85.06212122728171,1.2447373215895527,0.1142028051737989,0.2058141572226381,-96.03075534332277,51.938559852021285,155.65734957605375,0.023441050803209,0.6308285127475252,0.023549256515582
2.01,-0.2920123723949487,88.93581887504044,193.3075712786201,0.2824236458060967,0.091520358701748,0.1054201332910261,-85.03258521910863,81.82483750652187,2.254183728776101,0.1107775267484294,0.1484540074714994,0.0642128618267836,-185.96733946162755,22.30517408222115,86.15475359746777,1.061139133863918,-0.1006899139199467,0.0320506610506204,-96.9439029865381,51.21861039411952,155.96027722134698,0.1189470342932993,0.7854282737492444,-0.0284447226120999
2.02,-0.5105777144724444,88.91970434091688,193.375513420608,0.2476336887118303,0.0046551454973503,0.0394899996067427,-84.87008359502043,82.22952430430163,3.155964063965294,0.0286064982679604,0.247362194880392,0.0580134955492654,-185.4297889877909,22.55377915605313,87.04461207492977,0.832357926992967,0.2410721697524881,0.1992788018202244,-97.74411920942896,50.5168128758962,155.75239788923628,-0.0428629139643653,0.7860997864174784,0.1243474012650154
2.03,-0.5271498417549799,88.99133970115498,193.26733562987775,0.0416398007681769,0.0315795163214728,0.0568980248050832,-84.6435526515124,82.43202029390868,3.7174911062591134,0.057409252877436,0.3473324234339425,0.27806272701772,-184.59041851020112,23.03897449964963,87.8357186250699,0.7205333047729285,0.1893940033242324,0.573953287744552,-98.64321621787268,49.90143342805213,155.86386890035493,0.2162547759872052,0.5250413587110487,0.012958992650695
2.04,-0.781435502726054,89.17257966289091,193.17251153246968,0.1728151053972881,0.0235949356654878,-0.0066157160244705,-84.58328998349498,82.78311827854466,4.415547799130225,0.0787988679561815,0.2709572471751858,0.175147557332176,-184.1892758547688,23.30475765129574,88.39415210278995,0.897182092817768,0.1630485554395054,0.5112953973997739,-99.19835902545069,49.335855570933546,155.83744648900606,0.0881717908672401,0.6122970803712076,0.085863532802581
2.05,-0.7786742517370872,89.18466639890735,193.6133452772081,0.1109254220928379,0.08731020060202,0.0942735706838572,-84.62077459090678,82.69993275775239,4.65450476498069,-0.1161378016622574,0.2627873157290276,-0.026546454413422,-183.725453581917,23.507423770468066,88.61998601574102,0.6429992604489521,0.2975881505627414,0.5887527821303061,-99.71961120776432,48.88863449189555,155.66672622311145,-0.0670786721019873,0.6712066449799484,0.2352243099215516
2.06,-0.8971108082942801,88.99740017385771,193.2012065424906,0.0235302660512403,0.2268351039727686,0.0843880012595999,-84.5636050733403,82.95546746789039,5.745393839991678,0.1942365989007745,0.4260791255496587,0.0767680739000206,-182.2527989884212,24.26915843522235,89.44623818259313,0.6046007572286377,0.2906170267197843,0.6588298859199936,-100.6897173329667,48.15080127489584,155.64098117215502,0.0405400414767475,0.6616108209251104,0.0527151719698318
2.07,-0.9812540661996014,89.02275095684702,193.18169672495625,0.0614124685796023,0.0882910079261828,-0.0431968280741814,-84.26194319726322,83.2621154150161,4.025897065703681,0.0768833553559311,0.250300482552515,-0.0023210376386114,-181.07054265332485,24.7185742724853,89.8655223599989,0.7782053841347712,0.4556118478294427,0.5752087105379741,-101.89209677672194,47.44329275449975,155.24351332263558,0.0670451147638723,0.6511371656947293,0.2550646507877565
2.08,-0.7324891204537901,89.30840359434515,193.4672187732757,0.0433393659981329,0.0363568885333659,-0.0329412078906634,-84.31788016543214,83.61905385119714,2.649570015027856,0.0790428524858616,0.5257174724526091,0.0320073337087949,-180.15162126588265,25.058481820577686,90.5651689938562,0.7828144999192375,0.3868480852122144,0.1282677076260999,-103.41155579240092,46.72048443610954,154.79950310484776,-0.0351216435721628,0.6985871088895725,0.5269362161116647
2.09,-0.8007640368619559,89.28413257899822,193.64829652610788,0.0835270172809537,-0.01337588443838,-0.011523680994052,-83.99751590368325,84.04480573552728,2.7003913093873417,-0.0432906416477902,0.5274028193187174,0.0208467328953508,-179.12679312909532,25.557184663945,91.4496795504245,0.9420989118056878,0.292745207985789,-0.1544957848140776,-105.15122666493669,45.962143626091866,154.31060213395506,0.4011029865649215,0.4132448291372564,0.1979765541646683
2.1,-0.7721238388625151,88.94156249215168,193.84465810036352,0.0022677760462743,0.0498107364282922,0.06788652311411,-83.94100380875972,84.52647868783309,2.863921918166122,0.0591129098453753,0.5646787242975387,0.2182489237755198,-178.46149094661672,25.51120437569303,92.22880516854173,0.8948741065832749,0.2410388519149207,0.104096025054541,-106.84104429691364,45.38598542256773,154.03197900190682,0.3687060662776573,0.6141866247334195,0.2738006893102042
2.11,-0.5263045222666327,88.94337052064408,193.763276417978,0.176996918304351,0.0535652579179004,0.0458979578991406,-83.88751880319451,85.1176222777271,2.934633750759451,-0.0813636565219508,0.7098514270165216,0.1148609480944113,-177.81604762646418,25.285018660299315,93.13238504822992,1.0144634884037305,0.2712091764467874,0.3534968633672821,-108.36920375099533,45.28927341567952,153.14339250259,0.5176564291493128,0.4990149262234093,0.1824378914339625
2.12,-0.0519777979506647,88.77137751455402,193.62170636119205,0.1503176059134295,0.1181108341991266,0.0402221293536032,-83.59940496936211,85.61198239497868,3.071823694542619,0.2612355927034677,0.6618574996378882,0.2718779624862787,-177.4454630156196,25.105589937426597,94.38381785411757,1.153114718519847,0.3612949696313868,0.1033526421385623,-109.98255909961829,44.533443282382336,152.53536068126488,0.4338480167530227,0.3637262850052888,0.381730476188087
2.13,-0.0616245762528832,88.77550606365314,193.9608897517428,0.2493122269255477,-0.0270647996787602,-0.0170565049884978,-83.55579723872717,86.07944362118141,3.2911168887685784,0.0732644346587699,0.5845569402015155,-0.0988681786801868,-176.68000522328504,25.00140901226347,95.0337473827005,0.9477233371268986,0.2337826342737782,-0.1037732745401126,-111.22844459213226,44.31496439765888,151.9439465518559,0.4814763950502843,0.3586754892001911,0.3384366739370749
2.14,0.0510440622856174,88.79454663369056,193.69257395747664,0.1047513236917872,0.1892701742323271,0.1912860165068412,-83.3261843902279,86.51695218032448,3.412559255566405,-0.0172256416586602,0.693127937397275,0.1319341108457478,-175.9934611968781,24.780565237850368,95.61239775905894,0.6667843927452968,0.2032597748997439,0.1628815799037219,-112.4858873908844,44.171927298588926,151.58860729541135,0.5644489728616167,0.1336841359217221,0.2233674269812309
2.15,0.1812048580016633,88.73282204714653,193.98330236269004,-0.0266470144126207,0.0297493478298992,0.131586647309355,-83.20845138458702,87.22294302533602,3.7105606941286142,0.0278855606373397,0.4576790388211648,0.1215249527996931,-175.72571701114018,24.82107984468143,96.45821762107256,0.6192051427523437,0.3508074712337612,0.0494996650278182,-113.71767159220394,43.8836123850227,150.85096523953834,0.4297762952131616,-0.0651095119745612,0.2880364083123538
2.16,0.3608350243366334,88.41605720436661,193.917525220494,-0.0662902149501903,0.1929030303418408,0.0822641546696727,-83.11165454124796,87.32976834569224,3.484674274321498,0.2003186364832834,0.6175506530441874,0.0229763236425953,-175.04233854457138,24.86794685680354,96.73338901959136,0.4467672528066868,0.2405025541570063,0.3258416334181118,-115.07958854114612,43.97553070464355,150.30049652315552,0.3277626133378363,0.0053734466905928,0.2225782804992398
2.17,0.4242453677278563,88.2860967001054,194.20232743831215,-0.0983997912374971,0.2172087440904122,0.0946712688363671,-83.30048263000366,87.69344264912196,3.803995376165209,0.216866353804126,0.2643731841014486,0.0544125498533979,-174.1638262511776,25.15719786920051,97.022730556963,0.4522896079658023,0.3320937336416732,0.3962761356923259,-116.26334466207295,44.0717716925796,149.44403850457988,0.4882773763223974,0.0208679147209619,0.138918440893615
2.18,0.458526848285566,87.97175596913749,194.199875461646,0.0110609914719693,0.24211823478625,-0.0567856741465741,-83.39476860059405,87.79319943398023,3.82821760938377,0.1070500811086188,0.4852975990147254,0.0781028938999966,-173.52225668035118,25.64528488514293,97.32492609044404,0.1015521095867968,0.1801992182252279,0.5328124565469248,-117.26963026667612,44.13338579584813,149.23215565584562,0.3501588405884749,0.1101305477278628,0.324708214868225
2.19,0.5544376775529869,87.61936869197956,194.3198968248577,2.8223223951337476e-05,0.1546303775605393,-0.0153857667314205,-83.39572512406043,87.81798742132655,4.055920754490004,0.0704689817272813,0.4431077001719836,0.0142810334935845,-172.4971736775023,26.07021871892501,97.41601120893604,0.2082384863889353,0.1335734083757157,0.4252632164646913,-117.50767391175452,44.29668090183144,148.6889823675681,0.3214233237226027,0.2536247458533436,0.1541489362737416
2.2,0.5973641881864177,87.49481976857571,194.3067064826197,0.246056634861449,0.3338743537091734,0.0859186093626868,-83.38847205168847,87.68920834041671,4.156493160801446,0.1556317992035039,0.3841423235410893,0.0576271472166791,-171.77545825987582,26.807652020382392,97.67107948751872,0.0515132489823017,0.1935055806918397,0.4411589429679459,-117.90107900085458,44.77486580930059,148.72623229890917,0.3435890217980758,0.1048852823159317,0.3859952907706541
2.21,0.4649417672727236,87.46658051255544,194.24784629426856,0.0672782792907673,0.2962086639059156,0.2822136200545597,-83.6085683904914,87.58152102317185,4.09868390953633,0.0131123275234179,0.4040553183470616,-0.0336526700931417,-171.31790251991444,27.1295811819216,97.65437060871716,0.1710955267279826,0.3088716270731002,0.523844201351602,-118.32121179289368,45.0646212684813,148.55892453615976,0.4114180931384933,0.3084318803795917,0.2617752449594562
2.22,0.4826331297810527,87.20611415177996,194.2192391175878,0.0358556538197527,0.2144798331673327,0.1679538325388858,-83.50202304294804,87.40048944673208,3.974645313826109,-0.0405212122551167,0.2141273288953124,-0.037345071658666,-170.8977556090183,27.522832350387464,97.64409966820244,0.2082304791669376,0.3761422035204468,0.6667979709523015,-118.7930249883526,45.3777504742203,148.30510224522743,0.4461395421518543,0.3089143738418182,0.2508203944162013
2.23,0.6216079017236167,87.11220211842767,194.06034686396973,0.0076450762557475,0.1816801129306159,-0.0372648483201613,-83.4242364338983,87.103333011727,3.934435571122624,0.0924040994631303,0.2677622358216491,0.0694867197497982,-169.5298309005725,28.15111887995453,97.79862020321632,0.0618678844476251,0.1825456987744762,0.6518684327429924,-119.27204652849308,45.52226670641942,148.40928367526888,0.4481161470039206,0.3996681531460621,0.5813397628879847
2.24,0.3886459955433922,86.99077035411409,194.0164537758032,0.1809375689806869,0.1257611443003133,0.2109376887422959,-83.49781165320746,87.28159779244388,3.837236330114835,0.0793780400551068,0.4459660886469996,0.1384073342542306,-169.0249059643853,28.70688442049749,98.08188193784228,0.3570769644145158,0.2856615758149212,0.5468537736185212,-119.64791791515673,45.84362921581038,148.23668988950968,0.3545896159379117,-0.0641876369146482,0.3982326901238864
2.25,0.3538488678876997,86.6824910261253,193.75858878125888,0.0101355666431488,0.2695129621349666,-0.0410055003503715,-83.76082893473568,86.76479407182552,3.861108697942179,0.2377581220581756,0.2157072954239856,0.2149374481929832,-168.18981424231376,29.511523249784037,97.96988832061308,0.0735831789783416,0.2573988167090923,0.4971525145157509,-120.13925727131246,46.04797320064005,148.15002150500388,0.3453016853632208,0.1876410276507283,0.2559902703874864
2.26,0.5419602140623873,86.33266705368615,193.77468714571984,0.1403530299667169,0.0896763853181289,0.0713526893812864,-83.89958639096247,86.57744597162436,3.9345741130910175,0.2534472213201633,0.0746677738790824,0.1500624656535236,-167.09356651082445,29.64101553224491,98.16595402102644,0.38374890526252,0.4598505719052431,0.1942520352715183,-120.63961832921976,46.55088264791608,147.7002209525638,0.4077762096628549,0.4089659902910516,0.2970002217826371
2.27,0.2450940451078183,86.28952454958319,193.67664798497512,0.0252833220262716,0.2665801046140673,0.0463031742754022,-83.85293033225318,86.19660020447974,3.930936524199955,0.1252285662292783,0.2900424342083992,0.0339126278380031,-166.43208534920925,30.117714566116582,98.37788553780372,0.2596926256429717,0.3636469600229823,0.1370509500206081,-121.52460059346303,46.9798771639172,147.23468179898936,0.4051520590010921,0.350761013062985,0.2764444886256347
2.28,0.2441806165688013,86.09651336800637,193.68088850567705,0.3155355761669463,0.1404984281503802,0.0331255272285256,-83.74540406567044,86.08104012481316,3.80063587260846,-0.1869854004261307,0.2201034973684901,0.2136332574572864,-166.22607964607792,30.09562153184745,98.42693868852147,0.4125470668428495,0.2538652270617008,0.1130731166038469,-122.71527963099524,47.01825298301773,146.5399568218109,0.6767290281123429,0.1238703229765019,0.02115088738992
2.29,0.0930623706193845,85.98189090108036,193.5464685317532,0.0953908655300422,0.0659000635541355,-0.0788720225259727,-83.91103844758791,85.93667955765379,3.953413602463372,0.03186860033559,-0.0692268965876446,0.1436975293460642,-165.60849120833242,30.13108919981727,98.90558271288953,0.2090472773285,0.4392539388913518,0.0043661409327451,-123.85085005088088,47.0167819241432,145.505580158566,0.4919704596895008,0.0925005575965631,0.2091524888192882
2.3,-0.0879039700864423,85.89903000454069,193.80379817277995,-0.0507304402744473,0.0976822198285978,-0.0577613808175202,-83.82049688771036,85.96602029867971,3.999502270833461,-0.0876656121500537,0.2743032320410962,0.0679906140788734,-165.26844202260682,30.104454212910515,98.84921907902604,0.4877358433368501,0.1441490949659092,-0.0553830572687205,-125.0485161728895,47.16733635387135,144.79104301516358,0.6754416791465103,0.2541269940017037,-0.0625000694608589
2.31,-0.0362879277694351,85.89385924983591,193.4707467760106,0.1007196049548879,0.1206260616071236,0.0511963683335152,-83.97960716831179,85.69101665600695,3.84149490418774,0.0070557091743668,0.2276083770673482,0.0199248489420497,-164.74236209785292,30.271274407234426,98.9913458908264,0.3114120554278596,0.2251837038316694,-0.0625379963359428,-126.02492813060326,47.22498049458091,144.00990453661416,0.556071874857106,0.2562189258008442,-0.0644812535547014
2.32,0.0497846122379062,85.28015773416529,193.5198044745608,-0.02508527064087,0.1484436949879251,-0.0477570827539303,-84.12824752006047,85.72655582800165,3.849205266260213,-0.085351152272421,0.019743602771787,0.079816965994232,-164.24266316240735,30.30977991614449,99.39251738833288,0.4242599003065632,0.2988634188621599,0.0465912215658144,-127.08036480000668,47.27622991548302,143.41068352865852,0.5292800170162387,0.1893530075621399,0.1019319675680915
2.33,-0.0031778695220881,85.38027818023916,193.46427993258857,0.0627048041432653,0.1172095039259895,-0.0001683435117541,-84.0279704011233,85.5356084053103,3.831674694966784,-0.0357584151933223,0.2417904887794434,0.0036633419341567,-163.3682612887661,30.61682230674347,99.41574266728672,0.337812976003038,0.4651261237199373,0.2813280782429129,-127.8268322940701,47.28099369615994,142.7317124242315,0.600804918419253,0.1216310449596985,0.272862717819376
2.34,-0.3747356018362515,85.18310967280203,193.51853124127564,0.088731296380051,0.0559776757495668,-0.0956501151172792,-83.92724079645548,85.43039323269645,3.783373520181376,0.1193870508139944,0.2405521566576163,-0.1369487682254238,-162.7828295288666,31.283951131357476,99.62276530160852,0.065757181700161,0.3472409221268651,0.2395675949156575,-128.63939431941384,47.36559154680983,142.3646713601861,0.5031704408678013,0.0058450399287672,0.4368577445153636
2.35,-0.1677788189850975,84.88798525645876,193.54312937666444,0.2108174087490805,-0.0867876266169569,-0.1245104754532815,-84.10946074007447,84.82027523296003,3.9091134243203354,-0.0105852674145869,0.3347572770205696,0.0138837380707791,-162.14816734798927,31.462643153459418,99.32608951618894,0.1731635866109166,0.3544259686673331,0.2019648834057954,-129.8823801522984,47.20681824053124,141.48880456122902,0.2693442470478097,0.1046543955471995,0.2191113283269586
2.36,-0.480185497235387,84.81720069479199,193.60333353635616,0.0441882632328182,-0.1420963948191546,-0.0200842926756963,-83.80783735167677,84.8562102242005,3.8934399799081407,0.044836645352601,0.152588704667835,-0.002258576267448,-161.57437548182244,31.72177688397182,99.11127757199804,-0.0461001544226845,0.1312486655111266,0.2121462032328407,-129.99910055878524,47.55139385391163,141.26821295948884,0.0606785417580884,0.2489999445946135,0.442320064698616
2.37,-0.4924627428145982,84.76607963091647,193.6068277015536,0.1615510803136092,0.0739209282693953,0.0936952695218346,-83.80071829977088,84.69250053646756,3.923205956836713,0.0680788929108095,0.1253685795758171,-0.0635674183389588,-161.36509655839683,31.763169542848527,99.18978383703076,0.0252288612378344,0.2166079588139743,0.0863263565384039,-129.79012060681336,47.76625668311889,140.9970439865646,0.022474303195554,0.4533677194997569,0.5205546622229938
2.38,-0.4446882226702129,84.77741426905777,193.3994166693851,0.0016816845276883,-0.0379985557096664,0.049317249329945,-84.01313417796582,84.49197556582749,3.671994019952303,-0.0081670386789423,0.0471625481659175,-0.0296997290226702,-161.3232172500569,31.955623707806986,98.8336983467446,0.0836671480747593,0.2823659041693434,0.2880633364237702,-129.44344052739677,48.4506959621074,141.0635594754105,0.0796775527404933,0.5395000979443519,0.607936121014658
2.39,-0.5488302775412973,84.9170736049622,193.64760195829723,0.1563721888638335,-0.1201757085496401,0.0782805706875064,-84.00039321063879,84.3836955185687,3.81417241737996,-0.1136990323908668,0.1050430942200852,0.0070348571964578,-161.36167692422475,31.994242120345422,98.72288048976668,0.1802975544293207,0.014174013775205,0.329068554733839,-128.77082201827503,48.63590060164861,141.2659152263196,0.166623449233964,0.6155827538709604,0.6393344182282541
2.4,-0.4522045428791965,84.730161186951,193.5762386020244,-0.209729563256104,-0.0170570531724441,-0.173897019755658,-84.11195838546024,84.1000239975733,3.816634137845608,0.0747505487346881,0.2970762528427681,-0.0075822174931524,-161.3850406968658,32.06541418145968,98.62066651834748,0.1531506630890792,0.0239817839426497,0.4477681952800723,-127.48788857353205,49.72187119689512,141.5338199687759,0.0412204987236641,0.3648315878880367,0.423888651277247
2.41,-0.7299900711102306,84.62349136905645,193.61147914034407,-0.0401168001344571,0.1734684582589059,-0.1625300696734811,-84.11855069652333,83.8066987474016,3.85137758599152,0.1206119028106466,0.3025528896439103,0.3304512505294511,-160.70238451597328,32.915298223859445,98.42816663675758,0.5670387442127641,0.0790596329469668,0.7506463624682647,-126.36816913229094,50.3267963963106,142.10472705536526,0.016998424657758,0.3394802257235425,0.6446488767522699
2.42,-0.8356473608723586,84.38217125807029,193.55563337434924,0.0821524237055183,0.1554574409465566,-0.1058463196186967,-84.19118146844323,83.77927202217272,3.800980401441967,-0.005305784523894,0.1246384318765138,-0.0061684210542593,-159.79250719724757,33.75110217152621,98.10155590916402,0.4204681731130278,0.3351170728803263,0.9548834379263996,-125.3489355377382,51.06992941752172,142.6179704614869,0.1621486452708077,0.0809362979789824,0.7395933681595462
2.43,-0.8235218503462531,84.09001534465912,193.6936313611211,0.0480029174510509,0.1476855384803459,0.0323418758451318,-84.34015819970661,83.4593258858163,3.959564132730656,-0.0016902168075117,0.3152604309765286,0.0939973889578648,-158.89861479108166,35.05799599782305,97.40808085598606,0.4776442720471613,0.1885648474791943,1.0237445862596273,-124.9982560835248,51.55868300684307,143.16573108898055,-0.0146274103108999,0.0734860505141821,0.8304578434438781
2.44,-0.6497416795775188,84.31188090151888,193.7403226985279,-0.0646178521416828,-0.0258882829634843,0.0951095847562814,-84.65783860267369,83.16225176008673,3.654228053232872,-0.0880593362770227,0.2703274018530719,-0.0404723047518022,-158.0809439140088,36.12182982136371,96.90458105462692,0.5558627777746918,0.1718360668457628,0.7521956302323548,-123.98488933361357,52.325613828289406,143.82529307995455,0.212706286669332,0.2893743630920029,0.7202057587619753
2.45,-0.9511651605607108,84.25355150074812,193.6622593815623,-0.1004359530873771,0.1821818710724492,0.0074412367045814,-84.19831328544562,82.84057829228922,3.762903894251837,0.0721142715786622,0.2060875760110077,0.1794392017538397,-157.55798993135005,37.17060350578165,95.97426649771704,0.2192131652675878,0.1012432232215029,0.6762869997610756,-123.63693666167718,53.25120810093927,143.96586012856946,0.1080711074390406,0.4655808172607085,0.3437822565774348
2.46,-0.7827711626339635,83.9934940800435,193.51607060335135,-0.0316420025245416,0.2387634973856334,0.0329473233653132,-84.19796775738892,82.86737814056532,4.14409159488827,0.0802717721656726,-0.0150968334773583,-0.0781102938587724,-156.83766054309908,37.4287085945126,95.77287358409303,0.1187043976227769,-0.0189484657199,0.1789348069321905,-122.96403763703688,53.751332441336,144.26994178125975,0.2002432359535969,0.3871425301888727,0.5796075113380639
2.47,-0.7708847725402732,83.95711328916087,193.7330181342028,0.0690712203670711,0.2494160866577495,0.1768270710642368,-84.32048816510594,83.25366076341312,4.168270067555676,0.1164454470337435,0.17239287776616,-0.0122963273315592,-157.09168981026284,37.48490648710258,95.74196207031945,0.1307717756697524,0.2792322029553202,0.3380624870782953,-122.6417273785638,54.46094504113496,144.38474798929064,0.2992695829449719,0.3717380948387246,0.3427635720263193
2.48,-0.9431731904255176,83.75391959676666,193.6429616366981,0.0552425022531905,0.0350400129957191,0.0234922016816066,-84.6936583688332,82.82898691114444,4.934540132217943,0.0547860289739445,0.1295107817669948,0.0119486458204503,-157.0245512290213,37.67268752259847,95.65510134947048,-0.0364751625530797,0.2809459416931751,0.216782865389618,-122.74687714883976,54.46857767420926,144.16118073805737,0.3199904970673584,0.1629186360589251,0.5142591229322344
2.49,-1.1177347215178417,83.75486902982796,193.67505353661204,0.101427130623506,0.2765467968784548,0.1040545574393341,-84.71112671648609,82.64964684717187,5.399237915378076,0.0592954103686388,0.0389407551283419,0.0019525556950087,-157.4995349741152,37.00331119121241,95.20974230436588,0.115693689333112,0.2100179918923472,0.4177046850903582,-123.03915087040684,54.32061872934647,144.13478551805693,0.1952262051995141,0.095894566843423,0.4497900454438744
2.5,-1.0487464126491537,83.44532504251296,193.599863426404,0.0480431050395376,0.0445932133860938,0.0336364892537832,-84.6356006610933,82.57024941508804,6.022633578367226,0.0712379238849489,0.0319551951341202,0.0820808461020678,-157.64001147410545,36.533356283402334,95.67769364291549,0.1585519094206952,0.2984791040669334,0.39311444251538,-124.09462076530544,54.06701728008535,143.31652727041055,-0.0409010466115121,0.0743606509322714,0.4808448397306977
2.51,-1.3033438785897786,83.45374520971947,193.73562572488285,-0.1063178026345567,0.1406361805149057,0.0905367029627399,-84.50245641663864,82.62891263162093,5.927564042563158,0.1121421018381444,0.130390246262918,0.0185107881523481,-157.66453637353533,36.116082860471,95.7638809397226,0.363481105667746,0.155619880057833,0.1827631289970773,-125.03723052382036,53.549999340658296,142.24232254054996,0.2367392217190686,0.0132265668059318,0.8136716673398838
2.52,-1.376919046807252,83.12196324981124,193.5891561169965,0.2466042526689578,0.3438577785938699,-0.0365625178647485,-84.68729908869412,82.8006412412849,6.287213477368504,-0.0272063553747083,0.1747569387692508,0.1898242324894482,-157.62920559395116,35.943472037665344,95.82790985973467,0.3445660778016634,0.3513255776261409,0.1571828739054342,-126.29242362841312,53.22937988874729,141.0866077077375,0.2896318100235923,-0.0150985765153179,0.5844014045169036
2.53,-1.2367110789926297,83.15194971600388,193.6640679043312,-0.1222279555106499,0.1000452382632215,0.0056460101654076,-84.61601647463007,82.57808982938955,6.545766910595957,0.0648548352657982,-0.072526485108445,0.0137176683030379,-157.50107235746017,35.878234402030046,95.87750146086306,0.0900963871256252,0.4079616481491754,0.0168504075894016,-127.20028153120728,53.17697839233605,140.50305641948196,0.3511781288854634,0.0581587982354244,0.3521053167200355
2.54,-1.38820709284495,82.99628838711998,189.7856546014591,0.0345949849817678,0.2362530182942645,-0.0203834308557072,-84.59511900451572,82.605024585471,6.352310265814552,0.0838015558042228,0.0819901464371136,-0.1168690584363113,-156.91419518461586,35.84669676001966,95.48400707629878,0.0239324614405324,0.2639969934257809,0.0980242913712289,-127.79790216117053,52.96626243312412,139.9124654963285,0.2320793114847165,-0.0182723173360902,0.2726200770604833
2.55,-1.276203415080694,83.20670394645195,189.9548264793933,-0.0901364776633836,0.2064793967424982,0.0411817328145058,-84.46644184261879,82.82151765494176,5.999298025553156,0.0499518496106189,0.0912632547425654,0.0491478412813534,-156.8440694111613,35.97399645376797,95.3624271699349,-0.0406584796674,0.3726648096010293,0.2363128162034532,-127.886791971394,53.17273100484115,139.56169429584233,0.3901275676749932,0.0913467225152869,0.1591482579177265
2.56,-1.426327301929092,82.8255355244762,190.1963152864542,-0.0275684234279497,0.1261499056739788,0.061910429671904,-84.7071517666403,82.72551835034567,6.081087602103204,-0.0894912432618814,-0.0957184057279005,0.0522292365319148,-156.16408767219883,36.38536071408196,95.21321284739712,0.1630759318726367,0.3903649871967713,0.3290593195190344,-128.25619349800198,53.3999109073755,139.51422630518016,0.3640977099418633,-0.031491068324066,0.1810047713576786
2.57,-1.2677961060809029,83.14726378368762,190.3882227257597,-0.0265305120606136,-0.0527492317864842,0.0344930910269694,-84.70232842875345,82.79306992736325,6.199293600615156,-0.1224061783761715,-0.0025117856363527,0.0664969062650869,-155.62930500596664,36.58902866813288,95.05553492379836,-0.0733345521609943,0.4036050115752057,0.5874297712312126,-128.67628148653023,53.74031537150532,139.08108406865384,0.3265849824171412,0.0911229713375404,0.060678546689171
2.58,-1.2381155196135212,83.09530935847694,190.70497205018023,-0.086164662366931,0.2385568855562115,0.0646452612665556,-84.82107493813734,82.82958918570414,6.692241103788411,0.2005430875321528,0.0718743107068804,0.0056507950039643,-154.61195125012293,37.13321500427675,94.94660638704268,0.1487233060116998,0.1234681776594152,0.38537679643229,-128.8665292595669,53.79552630906623,139.1371747617531,0.1464094862688212,-0.0146899756708528,0.2328488800570905
2.59,-1.2825882313441717,82.6887636603379,190.75034162561604,0.1519702317391288,0.2071462570807382,-0.0367065583273067,-84.93417176176489,82.85388803364486,6.8541172301914335,0.1122587789489089,0.0644546802548562,0.0049151410256816,-154.3004802600007,37.61602918731428,95.06206367440966,0.2358711359855155,0.0611043710412722,0.3215466464788972,-128.95848295610242,53.76359975952794,139.40598068898117,0.1676798287566333,0.0682891515246466,0.1048281008974969
2.6,-1.3386660288129395,82.94729640460234,190.9659211041753,0.1554860678386549,0.1259504493016201,0.0080674649586985,-85.10017898179413,83.02715845491629,6.49611280048564,-0.1639891796389903,0.2277862156856128,0.0687753248552376,-153.90542278393815,37.5844467002229,94.95300088714822,0.1271115041112051,0.1106127797337969,0.0998957871623948,-128.90334962852455,53.8525807145888,139.4519713227093,0.0122925712160526,0.1122005577258551,0.0426704881638288
2.61,-1.3516345549110431,82.6163253873116,190.73599891721167,0.0819327906241478,-0.0311546825774339,0.0507384818620574,-85.03814386846256,83.09059668093875,6.488478510684021,0.060475110041712,0.2734239512945831,0.1661112237934769,-154.10170124426634,37.22439663241748,94.90160238396564,0.3769526141149953,0.2809082536763465,0.4344833171575252,-128.94206947847417,53.75169416679436,139.22580944659654,-0.0610631849076105,0.038734105438455,0.0594783124742097
2.62,-1.1614173203387277,82.32015593993223,190.92422873278744,0.0559591784840286,0.0718789126822018,0.1908503098990402,-85.1198986071337,83.17668862713472,6.510987359249836,0.0590570941201425,0.2210709879620175,0.1178757545353566,-154.2123427923242,36.92846896595923,95.24990280161592,0.1098971695727975,0.1875373122526241,0.5485625023030802,-129.262057582782,53.68496518368335,138.98078965799266,0.1304617624493724,0.0597459026328713,0.1403009911694501
2.63,-1.3100973092975894,82.38743203180314,190.76171046529504,-0.1907256266500049,0.061695843384024,-0.0028533951212476,-85.03469870498363,83.33832273452401,6.607211279868878,0.0034904817376398,-0.0247154131751473,0.0655642208838218,-154.18192618619983,36.6687731782705,95.3721631113364,0.2569452485395418,0.2228614478015561,0.1040475332171662,-129.4809540460056,54.08005058013262,138.56785734871028,0.1492647063496911,0.1807574216067998,-0.0228433103819141
