0.01,129.75,46.69,160.69,7.65,2.53,5.86,0.11,0.02,0.02,27.37,14.25,41.37,0.51,0.31,0.48,0.18,0.67,0.61,0.38
0.02,113.81,78.31,176.81,9.57,0.19,1.71,0.01,0.02,0.01,45.69,5.00,24.75,0.03,0.08,0.26,0.34,0.64,0.43,0.53
0.03,113.81,78.31,176.81,9.58,0.19,1.77,0.02,0.04,0.00,46.19,4.56,24.75,0.01,0.04,0.15,0.34,0.64,0.43,0.53
0.04,113.50,78.31,176.75,9.68,0.12,1.72,0.02,0.04,0.01,46.19,4.56,24.75,0.04,0.00,0.35,0.35,0.64,0.43,0.53
0.05,113.50,78.31,176.75,9.62,0.08,1.60,0.00,0.01,0.00,46.19,4.56,24.75,0.07,0.00,0.33,0.35,0.64,0.43,0.53
0.06,113.31,78.37,176.75,9.68,0.04,1.65,0.02,0.01,0.01,46.19,5.37,24.37,0.07,0.06,0.31,0.35,0.64,0.43,0.53
0.07,113.25,78.37,176.81,9.56,0.04,1.63,0.05,0.01,0.02,46.19,5.37,24.37,0.04,0.06,0.32,0.35,0.64,0.43,0.53
0.08,113.19,78.37,177.00,9.56,0.03,1.63,0.05,0.03,0.02,46.19,5.37,24.37,0.01,0.07,0.31,0.35,0.64,0.43,0.53
0.10,112.94,78.44,177.25,9.61,0.06,1.60,0.03,0.04,0.00,45.75,5.37,23.19,0.00,0.00,0.37,0.35,0.64,0.43,0.53
0.11,112.69,78.44,177.25,9.57,0.10,1.57,0.01,0.05,0.00,45.38,5.00,24.37,0.03,0.00,0.38,0.35,0.64,0.44,0.53
0.12,112.69,78.37,177.25,9.59,0.07,1.71,0.01,0.07,0.01,45.38,5.00,24.37,0.00,0.00,0.20,0.35,0.64,0.44,0.53
0.13,112.69,78.31,177.19,9.63,0.06,1.82,0.01,0.07,0.02,45.38,5.00,24.37,0.03,0.02,0.15,0.35,0.64,0.44,0.53
0.14,112.62,78.25,177.12,9.67,0.03,1.84,0.01,0.06,0.02,46.06,5.37,24.00,0.06,0.06,0.13,0.35,0.64,0.44,0.53
0.15,112.62,78.19,177.12,9.64,0.07,1.77,0.01,0.05,0.01,46.06,5.37,24.00,0.04,0.02,0.21,0.35,0.64,0.44,0.53
0.16,112.62,78.19,177.12,9.69,0.03,1.74,0.02,0.05,0.01,45.38,5.69,23.56,0.09,0.06,0.25,0.35,0.64,0.44,0.53
0.17,112.56,78.19,177.12,9.67,0.03,1.75,0.03,0.04,0.01,45.38,5.69,23.56,0.07,0.06,0.24,0.35,0.64,0.44,0.52
0.18,112.50,78.12,177.19,9.61,0.09,1.70,0.04,0.04,0.01,45.38,5.69,23.56,0.02,0.00,0.30,0.35,0.64,0.44,0.52
0.19,112.37,78.12,177.25,9.64,0.11,1.71,0.00,0.05,0.01,45.38,5.37,24.00,0.08,0.00,0.26,0.35,0.64,0.44,0.52
0.20,112.37,78.12,177.19,9.63,0.09,1.80,0.01,0.04,0.01,45.38,5.37,24.00,0.03,0.00,0.21,0.35,0.64,0.44,0.52
0.21,112.44,78.06,177.12,9.62,0.06,1.79,0.01,0.03,0.01,45.38,5.37,24.00,0.02,0.00,0.27,0.35,0.64,0.44,0.52
0.22,112.31,78.06,177.12,9.60,0.07,1.73,0.00,0.04,0.00,45.75,5.37,24.37,0.03,0.02,0.22,0.35,0.64,0.44,0.52
0.23,112.31,78.06,177.12,9.65,0.08,1.76,0.02,0.03,0.00,45.75,5.37,24.37,0.09,0.01,0.23,0.35,0.64,0.44,0.52
0.24,112.12,78.06,177.06,9.60,0.10,1.85,0.03,0.02,0.00,45.38,4.56,24.75,0.00,0.00,0.16,0.35,0.64,0.44,0.52
0.25,112.12,78.06,177.06,9.63,0.12,1.77,0.01,0.02,0.01,45.38,4.56,24.75,0.05,0.00,0.26,0.35,0.64,0.44,0.52
0.27,111.94,78.06,177.12,9.62,0.00,1.74,0.03,0.02,0.01,45.38,5.00,24.75,0.03,0.09,0.27,0.35,0.64,0.44,0.52
0.28,111.94,78.06,177.12,9.46,0.04,1.66,0.01,0.03,0.01,45.38,5.00,24.75,0.13,0.04,0.35,0.35,0.64,0.44,0.52
0.30,111.69,78.00,177.12,9.60,0.06,1.87,0.02,0.08,0.01,44.69,4.56,25.19,0.01,0.03,0.15,0.35,0.64,0.44,0.52
0.31,111.69,77.94,177.19,9.55,0.08,1.73,0.00,0.06,0.00,44.69,4.56,25.19,0.03,0.01,0.30,0.35,0.64,0.44,0.52
0.32,111.69,77.87,177.19,9.60,0.07,1.79,0.01,0.05,0.00,45.00,6.50,25.19,0.17,0.04,0.10,0.35,0.64,0.44,0.52
0.33,111.69,77.87,177.19,9.70,0.07,1.94,0.02,0.04,0.01,45.00,6.50,25.19,0.12,0.02,0.11,0.35,0.64,0.44,0.52
0.34,111.75,77.81,177.19,9.68,0.10,1.89,0.02,0.03,0.01,45.00,6.50,25.19,0.07,0.04,0.29,0.35,0.64,0.44,0.52
0.35,111.69,77.87,177.12,9.79,0.15,1.67,0.01,0.01,0.00,45.00,5.00,24.00,0.52,0.01,0.75,0.35,0.64,0.44,0.52
0.36,111.56,78.00,177.19,10.34,0.04,1.14,0.09,0.17,0.01,45.00,5.00,24.00,1.34,0.02,0.67,0.35,0.64,0.44,0.52
0.37,111.44,78.31,177.31,10.40,0.09,2.25,0.08,0.32,0.03,45.75,5.69,23.19,0.44,0.09,1.71,0.36,0.64,0.44,0.52
0.38,111.44,78.44,177.44,8.45,0.28,4.90,0.05,0.02,0.01,45.75,5.69,23.19,1.55,0.08,3.49,0.36,0.64,0.44,0.52
0.39,111.44,78.19,177.50,8.75,0.10,3.88,0.01,0.27,0.01,45.75,5.69,23.19,0.84,0.18,1.88,0.36,0.64,0.44,0.52
0.40,111.62,77.81,177.44,8.76,0.15,3.38,0.21,0.35,0.01,46.06,5.69,23.19,0.82,0.06,1.32,0.35,0.64,0.44,0.52
0.41,112.12,77.25,177.06,8.17,0.65,4.24,0.34,0.63,0.03,46.06,5.69,23.19,1.49,0.56,2.06,0.35,0.64,0.44,0.52
0.42,112.50,76.37,176.87,7.86,0.65,4.22,0.24,0.81,0.01,45.75,5.37,24.37,1.66,0.53,1.91,0.34,0.65,0.44,0.51
0.43,112.75,75.31,176.94,6.76,0.70,4.06,0.13,0.97,0.01,45.75,5.37,24.37,2.72,0.56,1.58,0.34,0.65,0.45,0.51
0.44,112.81,74.12,177.12,5.92,0.53,3.61,0.03,1.17,0.01,45.75,5.37,24.37,3.50,0.40,0.94,0.33,0.66,0.45,0.50
0.45,112.62,73.37,177.19,5.40,0.07,3.14,0.05,1.40,0.02,44.25,5.37,26.75,3.95,0.21,0.22,0.33,0.66,0.46,0.49
0.46,112.56,71.81,177.44,5.65,0.17,2.58,0.26,1.58,0.05,44.25,5.37,26.75,3.61,0.30,0.61,0.32,0.67,0.46,0.48
0.47,112.19,70.00,177.81,6.56,0.46,2.46,0.47,1.73,0.13,42.88,5.69,28.50,2.59,0.58,1.03,0.32,0.67,0.47,0.48
0.48,111.44,68.06,178.12,6.29,0.55,3.04,0.69,1.80,0.21,42.88,5.69,28.50,2.74,0.66,0.77,0.32,0.68,0.48,0.46
0.49,110.50,66.00,178.50,6.19,0.34,3.60,0.80,1.97,0.21,42.88,5.69,28.50,2.68,0.25,0.54,0.31,0.68,0.49,0.45
0.50,109.44,63.75,178.94,6.71,1.04,3.38,0.68,2.09,0.19,40.25,5.69,31.25,1.72,1.32,0.88,0.31,0.69,0.50,0.43
0.51,109.19,61.63,178.94,6.94,1.36,4.14,0.17,1.72,0.24,40.25,5.69,31.25,2.22,1.34,0.07,0.30,0.70,0.50,0.42
0.52,110.06,59.69,178.19,6.42,1.27,4.69,0.35,1.71,0.31,40.25,5.69,31.25,1.61,0.66,0.49,0.29,0.70,0.51,0.41
0.53,111.25,57.75,177.31,7.11,0.45,4.44,0.37,1.74,0.33,37.38,5.69,35.38,0.58,0.17,0.71,0.27,0.71,0.52,0.40
0.54,112.12,55.88,176.69,7.56,0.01,4.67,0.04,1.54,0.29,37.38,5.69,35.38,0.79,0.31,0.97,0.26,0.71,0.52,0.39
0.55,112.37,54.19,176.44,6.90,0.14,4.44,0.12,1.53,0.27,33.69,5.69,39.06,0.78,0.08,1.58,0.25,0.72,0.53,0.38
0.56,112.62,52.38,176.31,7.26,0.55,4.37,0.03,1.59,0.23,33.69,5.69,39.06,0.18,0.09,1.61,0.25,0.72,0.53,0.37
0.57,113.12,50.63,176.12,7.65,0.34,4.51,0.01,1.60,0.20,33.69,5.69,39.06,0.06,0.07,1.68,0.24,0.73,0.54,0.36
0.58,113.12,48.81,176.31,8.33,0.08,5.08,0.18,1.61,0.06,29.69,6.75,40.69,0.83,0.33,1.14,0.23,0.73,0.54,0.35
0.59,113.06,47.06,176.50,8.17,0.07,5.50,0.08,1.56,0.04,29.69,6.75,40.69,0.53,0.54,1.35,0.22,0.74,0.55,0.33
0.60,113.31,45.50,176.56,7.31,0.25,5.22,0.02,1.36,0.11,27.50,6.75,43.06,0.12,0.92,1.83,0.21,0.74,0.55,0.32
0.61,106.44,44.06,176.56,6.89,0.71,5.16,0.08,1.31,0.16,27.50,6.75,43.06,0.94,0.71,0.92,0.21,0.74,0.55,0.31
0.62,106.25,42.56,176.63,8.55,0.06,6.76,0.17,1.35,0.15,27.50,6.75,43.06,1.91,0.49,0.44,0.20,0.75,0.56,0.30
0.63,106.12,41.06,176.75,9.95,0.07,7.19,0.15,1.30,0.06,24.19,7.19,44.25,3.51,0.33,0.17,0.19,0.75,0.56,0.29
0.64,106.06,39.94,177.12,8.74,0.37,7.16,0.30,0.91,0.01,24.19,7.19,44.25,1.52,0.01,0.93,0.19,0.75,0.56,0.29
0.65,106.25,39.25,177.62,6.96,0.44,6.24,0.47,0.58,0.05,21.37,9.00,46.00,0.75,0.12,1.34,0.19,0.75,0.56,0.28
0.66,106.00,38.38,178.00,7.06,0.35,6.83,0.39,0.89,0.08,21.37,9.00,46.00,1.33,0.02,0.58,0.19,0.75,0.57,0.27
0.67,105.87,37.06,178.25,7.45,0.22,7.62,0.13,1.20,0.04,21.37,9.00,46.00,1.53,0.00,0.19,0.18,0.76,0.57,0.26
0.68,106.19,35.75,178.00,8.22,0.36,8.04,0.32,1.17,0.12,18.25,8.25,47.19,2.48,0.08,0.09,0.17,0.76,0.57,0.25
0.69,106.06,34.81,177.44,8.55,0.06,8.58,0.25,0.71,0.27,18.25,8.25,47.19,2.94,0.28,0.54,0.17,0.76,0.57,0.25
0.70,106.00,34.31,177.50,7.58,0.18,8.57,0.30,0.42,0.17,17.37,7.19,48.38,2.05,0.53,0.48,0.16,0.76,0.57,0.25
0.71,105.75,33.81,177.81,6.68,0.38,7.79,0.42,0.47,0.07,17.37,7.19,48.38,1.22,0.68,0.34,0.16,0.76,0.58,0.24
0.72,105.81,33.13,178.12,6.97,0.18,8.07,0.11,0.67,0.11,17.37,7.19,48.38,1.61,0.08,0.12,0.16,0.76,0.58,0.24
0.73,106.06,32.75,178.06,7.70,0.71,9.03,0.12,0.66,0.00,14.69,7.87,48.75,2.45,0.42,0.76,0.16,0.77,0.58,0.23
0.74,106.06,32.06,178.00,7.41,0.00,10.32,0.25,0.54,0.04,14.69,7.87,48.75,2.24,0.27,1.98,0.15,0.77,0.58,0.23
0.75,106.00,31.44,178.38,7.26,0.27,10.32,0.39,0.56,0.04,14.38,7.50,48.00,1.82,0.73,1.71,0.15,0.77,0.58,0.22
0.76,106.37,30.94,178.69,6.75,0.63,9.65,0.20,0.29,0.10,14.38,7.50,48.00,1.99,0.03,0.71,0.15,0.77,0.58,0.22
0.77,106.56,30.62,178.44,6.76,0.60,9.47,0.37,0.24,0.01,14.38,7.50,48.00,1.71,0.65,1.35,0.15,0.77,0.58,0.22
0.78,106.81,30.37,178.00,6.59,1.03,10.15,0.33,0.26,0.03,12.06,6.75,49.19,1.23,0.11,1.64,0.14,0.77,0.57,0.22
0.79,106.87,30.06,177.75,6.23,0.30,9.79,0.22,0.25,0.06,12.06,6.75,49.19,1.38,0.91,0.87,0.14,0.78,0.58,0.22
0.81,106.94,29.69,177.75,6.22,0.08,9.28,0.11,0.15,0.00,12.06,6.75,49.19,1.30,0.12,1.31,0.14,0.78,0.58,0.22
0.82,106.87,29.50,177.81,6.24,0.56,10.22,0.03,0.15,0.00,12.06,6.75,49.19,2.10,0.85,1.25,0.14,0.78,0.58,0.22
0.84,107.25,29.44,177.50,6.88,0.49,9.79,0.08,0.32,0.01,11.75,8.25,49.69,1.50,1.14,1.77,0.14,0.78,0.57,0.22
0.85,107.25,29.87,177.69,5.90,0.96,10.16,0.22,0.46,0.07,11.75,8.25,49.69,1.10,1.15,1.40,0.14,0.78,0.57,0.22
0.86,107.63,30.37,177.94,6.57,0.32,9.32,0.15,0.38,0.17,11.38,7.87,48.38,1.27,0.99,0.67,0.14,0.78,0.57,0.22
0.87,107.75,30.81,178.06,6.20,0.67,9.08,0.21,0.12,0.02,11.38,7.87,48.38,0.91,0.55,1.41,0.14,0.78,0.57,0.22
0.88,107.87,30.81,178.31,5.90,0.97,10.90,0.31,0.06,0.11,12.06,7.87,48.38,1.01,1.30,2.79,0.15,0.78,0.57,0.22
0.89,107.63,30.75,178.06,5.56,0.07,9.95,0.27,0.03,0.22,12.06,7.87,48.38,0.58,0.34,0.52,0.14,0.78,0.57,0.22
0.90,107.56,30.88,177.25,5.81,1.15,7.82,0.64,0.18,0.25,12.06,7.87,48.38,0.77,0.75,0.58,0.14,0.78,0.57,0.23
0.91,107.69,30.88,176.69,6.08,1.54,8.45,0.22,0.04,0.21,12.75,7.87,50.00,1.04,1.06,0.05,0.14,0.78,0.57,0.23
0.92,107.56,30.62,176.56,6.13,0.67,9.37,0.08,0.28,0.12,12.75,7.87,50.00,1.00,0.17,1.36,0.13,0.78,0.57,0.23
0.94,107.75,30.00,176.06,7.74,1.10,11.19,0.18,0.26,0.21,12.50,9.69,50.00,2.84,0.53,2.72,0.13,0.78,0.57,0.23
0.95,107.56,29.94,175.69,6.10,1.46,9.82,0.24,0.03,0.23,12.50,9.69,50.00,1.21,0.82,1.35,0.13,0.78,0.57,0.23
0.96,107.69,30.00,175.50,5.78,0.44,9.50,0.18,0.11,0.16,11.75,9.00,49.19,0.87,0.24,1.04,0.12,0.78,0.57,0.23
0.97,107.56,30.06,175.25,6.70,0.45,9.60,0.07,0.05,0.08,11.75,9.00,49.19,1.79,0.24,1.14,0.12,0.78,0.57,0.23
0.98,107.44,30.00,175.25,6.63,1.57,9.41,0.06,0.03,0.10,12.50,9.38,49.56,1.73,0.86,0.94,0.12,0.78,0.57,0.23
0.99,107.56,29.94,175.12,6.30,0.91,8.83,0.07,0.05,0.04,12.50,9.38,49.56,1.40,0.18,0.37,0.12,0.78,0.57,0.23
1.00,107.56,30.06,175.06,5.71,0.72,7.75,0.03,0.27,0.01,12.50,9.38,49.56,0.77,0.00,0.68,0.12,0.78,0.57,0.23
1.01,107.81,30.37,175.00,5.56,0.59,7.54,0.02,0.31,0.06,12.06,10.38,49.69,0.96,0.01,0.64,0.12,0.78,0.57,0.23
1.02,107.69,30.56,174.87,6.31,0.53,7.95,0.02,0.15,0.04,12.06,10.38,49.69,1.56,0.37,0.02,0.12,0.78,0.57,0.24
1.04,108.00,31.25,174.81,5.80,0.72,6.99,0.06,0.45,0.05,12.50,9.25,48.38,0.58,0.07,1.13,0.13,0.78,0.57,0.24
1.05,108.00,31.87,175.12,5.88,0.72,7.35,0.20,0.49,0.15,12.50,9.25,48.38,0.85,0.14,0.74,0.13,0.78,0.56,0.24
1.06,108.37,32.38,175.44,6.38,0.30,7.71,0.13,0.48,0.21,12.75,10.00,47.19,1.53,0.30,0.66,0.14,0.78,0.56,0.25
1.07,108.63,33.06,175.56,7.25,0.38,7.02,0.07,0.64,0.25,12.75,10.00,47.19,1.77,0.34,0.75,0.14,0.78,0.56,0.25
1.08,108.81,34.00,175.81,6.87,0.07,8.03,0.27,0.88,0.26,12.75,10.00,47.19,1.38,0.50,0.07,0.14,0.78,0.56,0.26
1.09,108.81,35.06,176.25,6.45,0.18,7.66,0.17,0.96,0.24,14.25,7.19,49.69,0.81,0.33,0.33,0.15,0.78,0.55,0.26
1.10,109.00,36.25,176.19,7.77,0.68,7.80,0.22,1.08,0.15,14.25,7.19,49.69,1.67,0.14,0.52,0.16,0.77,0.55,0.27
1.11,109.12,37.69,176.12,7.44,0.40,6.92,0.04,1.35,0.13,17.19,7.19,48.00,1.44,0.11,0.81,0.16,0.77,0.55,0.28
1.12,109.19,39.19,176.56,7.64,0.28,6.96,0.33,1.33,0.19,17.19,7.19,48.00,1.73,0.56,0.03,0.17,0.77,0.55,0.29
1.13,109.37,40.63,176.81,8.63,0.16,8.01,0.00,1.25,0.26,17.19,7.19,48.00,2.24,0.24,0.58,0.18,0.77,0.54,0.30
1.14,109.81,42.19,176.81,8.53,0.99,6.32,0.18,1.47,0.24,19.37,8.69,47.19,1.94,0.59,0.93,0.19,0.76,0.54,0.31
1.15,110.00,44.00,176.94,8.17,0.49,5.50,0.12,1.69,0.18,19.37,8.69,47.19,1.36,0.12,1.53,0.20,0.76,0.53,0.32
1.16,115.25,45.88,177.25,8.67,0.83,5.69,0.21,1.67,0.16,22.69,6.75,45.56,1.63,1.15,1.11,0.21,0.75,0.53,0.33
1.17,114.56,47.75,177.50,9.35,0.57,5.85,0.10,1.67,0.17,22.69,6.75,45.56,2.09,0.85,0.73,0.22,0.75,0.52,0.34
1.18,113.69,49.81,177.87,8.71,0.82,3.47,0.25,1.99,0.23,22.69,6.75,45.56,1.22,1.05,2.84,0.23,0.74,0.52,0.35
1.19,112.31,52.19,178.62,8.00,0.94,3.68,0.51,2.09,0.23,26.00,7.50,44.00,0.25,1.08,2.31,0.24,0.74,0.51,0.37
1.20,111.69,53.25,179.00,8.22,0.12,4.04,0.27,1.90,0.11,26.00,7.50,44.00,0.25,0.20,1.66,0.26,0.73,0.51,0.38
1.21,111.12,55.38,179.25,8.42,0.23,3.57,0.06,1.98,0.03,30.37,5.00,40.69,0.24,0.16,1.83,0.27,0.72,0.50,0.39
1.22,111.00,57.69,179.19,6.77,0.07,2.49,0.10,2.31,0.05,30.37,5.00,40.69,1.63,0.00,2.55,0.27,0.72,0.50,0.40
1.23,110.63,60.25,179.31,7.17,0.61,2.05,0.33,2.20,0.15,30.37,5.00,40.69,1.44,0.63,2.62,0.29,0.71,0.50,0.41
1.24,109.81,62.62,179.87,7.49,0.74,2.10,0.20,2.01,0.32,34.00,5.00,37.75,1.94,0.20,1.60,0.30,0.70,0.49,0.43
1.25,109.25,64.87,178.94,6.33,0.02,2.86,0.03,2.12,0.25,34.00,5.00,37.75,3.34,0.18,0.86,0.31,0.69,0.48,0.44
1.27,109.12,69.44,177.62,6.35,0.48,2.78,0.10,1.96,0.24,38.75,4.56,33.75,2.76,0.26,0.17,0.33,0.68,0.47,0.46
1.28,109.31,71.44,177.00,6.27,0.31,3.47,0.36,1.64,0.14,38.75,4.56,33.75,3.47,0.05,0.57,0.34,0.67,0.46,0.48
1.29,109.63,73.19,176.75,6.07,0.24,3.03,0.42,1.52,0.11,42.00,2.75,30.19,3.30,0.08,0.20,0.34,0.66,0.45,0.49
1.30,110.06,74.56,176.50,6.57,0.38,2.74,0.26,1.16,0.08,42.00,2.75,30.19,1.12,0.25,0.42,0.35,0.66,0.44,0.50
1.31,110.00,75.56,175.75,9.03,0.54,2.86,0.00,0.86,0.16,42.00,2.75,30.19,0.45,0.36,0.43,0.35,0.66,0.44,0.50
1.32,109.87,76.44,174.75,9.03,0.70,2.43,0.07,0.82,0.15,44.19,3.50,26.56,0.50,0.49,0.15,0.36,0.65,0.44,0.51
1.33,109.87,77.25,174.00,8.78,1.21,1.67,0.06,0.73,0.09,44.19,3.50,26.56,0.77,0.98,0.33,0.36,0.65,0.43,0.51
1.34,109.50,77.94,173.44,8.83,1.06,2.14,0.06,0.60,0.02,45.25,2.06,24.56,0.75,0.83,0.11,0.36,0.65,0.43,0.51
1.35,109.25,78.62,172.69,8.78,0.59,2.29,0.22,0.61,0.04,45.25,2.06,24.56,0.82,0.34,0.37,0.37,0.64,0.43,0.52
1.36,109.06,79.25,172.00,8.73,0.63,1.75,0.10,0.52,0.00,45.25,2.06,24.56,0.90,0.38,0.05,0.37,0.64,0.43,0.52
1.37,108.81,79.44,171.87,9.71,0.62,1.95,0.13,0.40,0.03,46.37,2.37,22.87,0.06,0.37,0.22,0.37,0.64,0.43,0.52
1.38,108.63,79.94,171.50,9.43,0.48,1.83,0.25,0.51,0.05,46.37,2.37,22.87,0.22,0.23,0.18,0.38,0.63,0.43,0.52
1.39,108.44,80.50,171.06,8.20,0.08,1.47,0.03,0.52,0.05,46.88,2.37,22.19,1.48,0.15,0.06,0.38,0.63,0.43,0.53
1.40,108.37,81.06,170.94,8.25,0.00,1.30,0.11,0.28,0.06,46.88,2.37,22.19,1.43,0.22,0.17,0.38,0.63,0.43,0.53
1.41,108.50,81.31,171.19,9.55,0.67,1.92,0.06,0.02,0.04,46.88,2.37,22.19,0.13,0.44,0.46,0.38,0.63,0.43,0.53
1.42,108.31,81.31,171.37,9.55,0.86,1.76,0.09,0.01,0.05,47.19,2.75,21.75,0.22,0.87,0.30,0.38,0.62,0.43,0.53
1.43,108.25,81.25,171.75,9.51,1.26,1.74,0.25,0.12,0.09,47.19,2.75,21.75,0.14,1.24,0.17,0.38,0.62,0.43,0.53
1.44,107.87,81.12,172.19,9.20,1.53,1.25,0.43,0.11,0.10,47.19,2.75,21.75,0.82,1.27,0.33,0.38,0.62,0.43,0.53
1.45,107.00,81.00,172.25,8.79,1.28,1.07,0.76,0.19,0.09,47.06,2.75,20.19,0.77,0.50,0.18,0.39,0.62,0.44,0.52
1.46,106.31,80.62,172.56,9.02,0.34,1.62,0.46,0.37,0.11,47.06,2.75,20.19,0.51,0.08,0.08,0.39,0.62,0.44,0.52
1.47,105.75,80.25,173.13,9.43,0.05,1.67,0.39,0.37,0.10,46.50,2.75,20.50,0.26,1.12,0.59,0.39,0.62,0.45,0.51
1.48,105.44,79.87,173.50,9.99,1.26,2.28,0.25,0.32,0.06,46.50,2.75,20.50,0.37,1.63,0.04,0.39,0.62,0.45,0.51
1.49,105.31,79.62,173.75,10.39,1.47,1.44,0.06,0.19,0.03,46.50,2.75,20.50,0.75,1.66,0.30,0.39,0.62,0.45,0.51
1.50,105.31,79.50,174.19,10.70,1.93,0.39,0.12,0.06,0.05,46.50,2.06,22.56,0.95,2.17,1.76,0.39,0.62,0.45,0.51
1.51,105.56,79.50,174.81,10.45,1.87,0.18,0.15,0.01,0.09,46.50,2.06,22.56,0.05,1.51,1.53,0.39,0.62,0.45,0.51
1.52,105.87,79.50,175.94,9.51,1.05,0.25,0.16,0.03,0.18,46.50,2.37,22.56,0.13,1.17,1.52,0.39,0.62,0.45,0.51
1.53,106.25,79.44,177.25,9.47,0.77,0.37,0.11,0.16,0.18,46.50,2.37,22.56,0.02,0.27,1.51,0.38,0.62,0.46,0.51
1.54,106.56,79.12,178.44,9.72,0.18,0.04,0.07,0.31,0.18,46.50,2.37,22.56,0.09,0.13,1.79,0.38,0.62,0.46,0.51
1.55,106.75,78.69,179.44,10.15,0.40,0.00,0.00,0.39,0.15,46.06,3.19,22.19,0.53,0.39,1.91,0.38,0.62,0.46,0.51
1.56,106.81,78.31,179.87,10.20,0.02,0.82,0.08,0.31,0.12,46.06,3.19,22.19,0.60,0.02,1.15,0.38,0.62,0.46,0.51
1.57,106.81,78.12,179.19,9.37,0.29,1.06,0.06,0.16,0.15,46.50,3.50,23.00,0.21,0.26,0.94,0.38,0.62,0.46,0.51
1.58,107.12,77.87,178.12,9.85,0.76,0.02,0.06,0.20,0.22,46.50,3.50,23.00,0.26,0.69,2.02,0.37,0.62,0.47,0.51
1.59,107.44,77.62,176.94,10.55,0.93,0.00,0.06,0.21,0.23,46.50,3.50,23.00,0.97,0.82,2.09,0.37,0.62,0.47,0.51
1.60,107.44,77.56,176.31,9.25,0.85,0.10,0.00,0.10,0.23,45.38,3.50,24.56,0.31,0.69,2.01,0.37,0.62,0.47,0.51
1.61,107.69,77.44,175.31,9.02,0.49,0.34,0.04,0.07,0.17,45.38,3.50,24.56,0.54,0.31,2.47,0.37,0.62,0.47,0.51
1.62,107.81,77.31,174.56,9.37,0.05,0.32,0.09,0.10,0.18,46.06,3.87,23.75,0.00,0.55,2.37,0.37,0.62,0.47,0.51
1.63,107.56,77.06,174.00,9.77,0.56,0.30,0.33,0.21,0.19,46.06,3.87,23.75,0.53,0.91,2.53,0.37,0.62,0.48,0.50
1.64,106.87,76.81,174.12,10.72,0.64,0.09,0.81,0.13,0.08,46.06,3.87,23.75,1.14,0.36,1.96,0.37,0.62,0.48,0.50
1.65,105.81,76.75,174.69,10.20,0.69,0.83,0.79,0.02,0.07,46.06,5.00,24.56,0.18,1.46,1.15,0.37,0.61,0.49,0.50
1.66,105.06,76.75,175.06,8.87,2.13,0.64,0.55,0.03,0.07,46.06,5.00,24.56,0.24,1.56,2.42,0.38,0.61,0.49,0.49
1.67,104.63,76.69,175.06,9.92,1.64,0.20,0.32,0.11,0.08,46.06,5.00,24.56,0.38,1.45,2.45,0.38,0.61,0.49,0.49
1.69,103.69,77.12,175.62,10.65,1.06,1.50,0.35,0.55,0.07,45.38,3.87,23.38,1.28,0.90,1.27,0.39,0.61,0.49,0.49
1.70,103.06,77.69,176.56,11.05,1.17,0.46,0.19,0.41,0.14,45.00,3.75,24.56,1.47,1.05,1.61,0.39,0.60,0.49,0.49
1.71,103.44,77.69,175.87,11.02,0.70,1.21,0.26,0.07,0.13,45.00,3.75,24.56,1.69,0.01,0.45,0.39,0.60,0.49,0.49
1.72,103.62,77.69,175.38,11.52,0.60,3.37,0.01,0.05,0.08,45.00,3.75,24.56,1.94,0.77,1.29,0.39,0.60,0.49,0.49
1.73,103.19,77.87,175.25,10.50,1.40,2.19,0.30,0.17,0.05,45.75,2.25,24.56,0.91,1.57,0.15,0.39,0.60,0.49,0.49
1.74,102.69,78.00,175.31,9.52,1.04,1.81,0.42,0.09,0.04,45.75,2.25,24.56,0.07,1.20,0.21,0.39,0.60,0.50,0.49
1.75,101.87,78.00,176.19,9.28,0.85,2.33,0.57,0.00,0.07,46.06,3.37,24.19,0.30,0.98,0.30,0.40,0.60,0.50,0.49
1.76,100.94,78.06,177.44,8.68,0.41,2.39,0.58,0.03,0.13,46.06,3.37,24.19,0.88,0.09,0.03,0.40,0.59,0.50,0.49
1.77,100.31,78.00,178.44,8.74,0.27,2.16,0.31,0.09,0.08,46.06,3.37,24.19,0.85,0.22,0.13,0.40,0.59,0.50,0.48
1.78,99.75,77.87,179.19,8.76,0.17,2.39,0.38,0.08,0.08,46.06,3.37,23.38,0.82,0.20,0.34,0.41,0.59,0.50,0.48
1.79,99.06,77.81,179.87,9.12,0.69,2.19,0.42,0.06,0.07,46.06,3.37,23.38,0.46,0.68,0.13,0.41,0.59,0.50,0.48
1.80,98.62,77.69,179.50,9.38,0.10,2.01,0.12,0.12,0.02,46.06,1.56,23.75,0.19,0.09,0.06,0.41,0.59,0.51,0.48
1.81,98.62,77.62,179.50,9.68,0.38,2.75,0.01,0.11,0.01,46.06,1.56,23.75,0.10,0.36,0.65,0.41,0.59,0.51,0.48
1.82,98.50,77.50,179.44,9.09,0.71,2.12,0.22,0.07,0.01,46.06,1.56,23.75,0.47,0.69,0.00,0.41,0.59,0.51,0.47
1.83,98.19,77.44,179.25,9.54,0.09,1.49,0.25,0.20,0.04,46.50,2.00,24.56,0.02,0.12,0.65,0.41,0.59,0.51,0.47
1.84,97.88,77.19,179.19,9.96,0.08,2.56,0.30,0.27,0.01,46.50,2.00,24.56,0.41,0.05,0.36,0.41,0.59,0.51,0.47
1.85,97.50,76.87,178.87,9.48,0.40,3.12,0.29,0.21,0.01,46.06,1.56,24.56,0.29,0.22,0.42,0.41,0.59,0.51,0.47
1.86,97.19,76.81,178.69,9.23,0.04,2.02,0.11,0.10,0.07,46.06,1.56,24.56,0.17,0.44,0.54,0.41,0.59,0.52,0.47
1.87,97.06,76.62,178.87,9.71,0.67,2.05,0.20,0.20,0.00,46.06,1.56,24.56,0.30,0.44,0.33,0.41,0.59,0.52,0.46
1.88,96.75,76.44,178.62,9.94,0.09,2.96,0.20,0.19,0.01,45.38,1.25,23.38,0.33,0.01,0.69,0.41,0.59,0.52,0.46
1.89,96.56,76.25,178.56,9.24,0.28,2.32,0.09,0.13,0.02,45.38,1.25,23.38,0.39,0.74,0.40,0.41,0.59,0.52,0.46
1.90,96.81,76.25,179.00,9.37,0.85,1.64,0.17,0.00,0.06,45.38,1.25,23.38,0.14,0.89,0.68,0.41,0.59,0.52,0.46
1.91,96.81,76.12,178.94,9.70,0.28,1.70,0.06,0.09,0.03,45.75,0.88,25.00,0.50,0.28,0.09,0.41,0.59,0.52,0.46
1.92,96.69,76.00,178.62,9.84,0.40,2.36,0.03,0.10,0.07,45.75,0.88,25.00,0.11,0.19,0.07,0.41,0.59,0.52,0.46
1.93,96.75,76.00,178.38,9.11,0.13,2.10,0.13,0.02,0.08,45.38,1.56,24.19,0.40,0.07,0.26,0.41,0.59,0.52,0.46
1.94,96.75,76.06,178.00,9.53,0.28,2.02,0.00,0.05,0.10,45.38,1.56,24.19,0.05,0.22,0.09,0.41,0.59,0.52,0.46
1.95,96.44,76.00,177.31,9.77,0.36,2.23,0.12,0.07,0.14,45.38,1.56,24.19,0.25,0.25,0.12,0.41,0.59,0.52,0.46
1.96,96.31,75.94,176.87,9.54,0.16,2.14,0.04,0.04,0.08,45.69,1.25,25.37,0.02,0.29,0.22,0.41,0.59,0.52,0.46
1.97,96.31,75.94,176.63,9.58,0.19,2.20,0.05,0.02,0.07,45.69,1.25,25.37,0.08,0.17,0.58,0.41,0.59,0.52,0.46
1.99,96.25,75.75,176.06,9.03,0.04,1.94,0.05,0.09,0.10,46.06,1.25,24.56,0.77,0.08,0.37,0.41,0.60,0.52,0.46
2.00,96.19,75.62,175.62,8.89,0.10,1.78,0.02,0.09,0.10,46.06,1.25,24.56,0.60,0.07,0.63,0.41,0.60,0.52,0.46
2.01,96.31,75.56,175.62,9.04,0.02,1.73,0.18,0.11,0.04,45.00,0.88,25.37,0.45,0.21,0.69,0.41,0.60,0.52,0.46
2.02,96.50,75.31,175.69,9.60,0.22,1.93,0.18,0.19,0.07,45.00,0.88,25.37,0.12,0.40,0.53,0.41,0.60,0.51,0.46
2.03,96.69,75.06,175.44,9.58,0.28,2.70,0.22,0.21,0.14,45.00,1.25,23.75,0.10,0.48,0.19,0.41,0.60,0.51,0.46
2.04,97.12,74.87,175.38,9.55,0.21,2.93,0.41,0.15,0.10,45.00,1.25,23.75,0.08,0.01,0.39,0.40,0.61,0.51,0.46
2.05,97.69,74.75,175.62,9.34,0.39,2.59,0.50,0.13,0.07,45.00,1.25,23.75,0.12,0.20,0.02,0.40,0.61,0.51,0.46
2.06,98.44,74.56,176.06,9.51,0.24,2.39,0.56,0.19,0.07,45.00,0.88,26.69,0.06,0.06,0.20,0.40,0.61,0.51,0.46
2.07,98.75,74.44,176.19,9.16,0.54,2.46,0.42,0.14,0.08,45.00,0.88,26.69,0.27,0.37,0.16,0.39,0.61,0.51,0.46
2.08,99.19,74.31,176.31,8.89,1.40,3.32,0.28,0.12,0.07,43.87,1.25,25.37,0.54,1.23,0.67,0.39,0.62,0.50,0.46
2.09,99.56,74.19,176.44,9.26,1.37,2.71,0.29,0.11,0.02,43.87,1.25,25.37,0.16,1.21,0.03,0.39,0.62,0.50,0.46
2.10,99.94,74.00,176.69,9.12,1.20,1.48,0.17,0.16,0.05,43.87,1.25,25.37,0.29,1.04,1.21,0.39,0.62,0.50,0.46
2.11,100.00,73.81,176.63,9.08,0.97,1.48,0.02,0.25,0.11,44.69,1.56,26.19,0.25,0.61,0.88,0.39,0.62,0.50,0.46
2.12,99.81,73.50,176.19,9.58,0.08,2.89,0.09,0.28,0.13,44.69,1.56,26.19,0.18,0.10,0.09,0.39,0.62,0.50,0.46
2.13,99.56,73.19,175.69,9.41,0.06,3.04,0.09,0.25,0.14,44.69,1.56,26.19,0.11,0.29,0.16,0.39,0.62,0.50,0.46
2.14,99.31,73.00,175.19,9.23,0.19,2.78,0.00,0.17,0.12,44.25,1.25,26.69,0.04,0.22,0.10,0.39,0.63,0.50,0.45
2.15,99.44,72.81,175.12,9.46,0.76,2.78,0.19,0.18,0.05,44.25,1.25,26.69,0.20,0.70,0.13,0.38,0.63,0.50,0.45
2.16,99.62,72.56,175.44,9.82,0.97,2.90,0.23,0.20,0.00,43.87,0.50,27.00,0.46,0.74,0.01,0.38,0.63,0.50,0.45
2.17,99.81,72.37,175.56,9.85,0.67,2.95,0.11,0.16,0.03,43.87,0.50,27.00,0.37,0.27,0.00,0.38,0.63,0.50,0.45
2.18,99.81,72.25,175.50,9.93,0.29,2.92,0.06,0.13,0.05,43.87,0.50,27.00,0.59,0.06,0.05,0.38,0.63,0.50,0.45
2.19,99.94,72.12,175.44,10.18,0.39,3.29,0.11,0.09,0.06,44.25,1.56,27.00,0.84,0.15,0.29,0.38,0.63,0.50,0.45
2.20,100.25,72.12,175.62,9.50,0.24,3.08,0.27,0.03,0.01,44.25,1.56,27.00,0.31,0.05,0.17,0.38,0.63,0.50,0.45
2.21,100.87,72.12,176.12,8.91,0.26,2.69,0.43,0.01,0.03,43.50,1.25,26.56,0.41,0.06,0.30,0.38,0.63,0.50,0.45
2.22,101.56,72.00,176.69,8.78,0.17,2.82,0.44,0.11,0.01,43.50,1.25,26.56,0.54,0.00,0.19,0.37,0.64,0.50,0.46
2.23,102.06,71.87,177.12,9.07,0.29,3.31,0.28,0.15,0.00,43.50,1.25,26.56,0.24,0.14,0.26,0.37,0.64,0.50,0.46
2.24,102.38,71.75,177.50,9.39,0.61,3.53,0.13,0.06,0.08,43.50,1.56,27.87,0.08,0.48,0.47,0.37,0.64,0.50,0.46
2.25,102.50,71.75,177.75,8.64,0.75,3.75,0.06,0.08,0.14,43.50,1.56,27.87,0.67,0.65,0.69,0.37,0.64,0.50,0.46
2.26,102.75,71.87,178.31,7.72,0.85,3.65,0.02,0.11,0.18,44.25,2.69,27.00,1.59,0.78,0.62,0.37,0.64,0.50,0.46
2.27,103.06,72.00,179.06,7.27,0.97,4.26,0.01,0.00,0.31,44.25,2.69,27.00,2.05,0.95,1.23,0.37,0.64,0.50,0.46
2.28,103.50,72.00,179.75,7.60,0.58,4.51,0.05,0.03,0.37,44.25,2.69,27.00,1.72,0.63,1.48,0.36,0.63,0.50,0.46
2.29,104.12,71.94,178.38,7.83,0.36,4.57,0.12,0.05,0.35,44.19,3.06,26.19,1.29,0.54,1.36,0.36,0.63,0.50,0.46
2.30,104.87,71.81,177.00,8.24,0.78,3.94,0.44,0.12,0.38,44.19,3.06,26.19,0.74,0.48,0.40,0.36,0.63,0.50,0.47
2.32,107.31,71.56,173.38,9.82,0.66,3.47,0.65,0.06,0.33,43.50,3.37,28.25,0.94,0.26,0.33,0.35,0.63,0.50,0.47
2.33,108.87,71.44,171.75,10.59,0.79,3.09,0.91,0.09,0.13,43.50,3.37,28.25,1.46,0.42,0.02,0.34,0.64,0.50,0.48
2.34,110.50,71.31,170.44,10.97,1.05,3.14,0.77,0.08,0.11,43.50,5.56,27.00,1.72,0.53,0.11,0.33,0.64,0.50,0.48
2.35,111.37,71.19,169.56,10.79,0.78,3.07,0.43,0.15,0.13,43.50,5.56,27.00,1.27,0.01,0.57,0.33,0.64,0.50,0.48
2.36,112.00,70.81,168.87,10.38,0.63,2.20,0.20,0.32,0.18,43.50,5.56,27.00,1.12,0.01,0.95,0.33,0.64,0.50,0.48
2.37,112.44,70.31,168.50,10.78,1.17,1.30,0.18,0.46,0.14,43.06,5.56,27.50,1.48,0.74,1.99,0.32,0.64,0.50,0.48
2.38,113.06,69.81,168.06,10.32,1.62,1.20,0.37,0.40,0.11,43.06,5.56,27.50,0.67,1.09,2.39,0.32,0.65,0.50,0.48
2.39,114.00,69.50,167.44,9.70,2.03,0.02,0.58,0.22,0.04,43.06,7.37,28.69,0.51,1.29,3.31,0.31,0.65,0.50,0.48
2.40,114.94,69.31,167.00,10.31,2.19,0.02,0.57,0.20,0.05,43.06,7.37,28.69,1.13,1.41,3.39,0.31,0.65,0.50,0.48
2.41,115.75,69.12,166.88,10.95,2.02,0.82,0.57,0.23,0.14,43.06,7.37,28.69,1.79,1.23,2.57,0.30,0.65,0.49,0.48
2.43,116.88,68.62,167.00,10.08,0.68,0.84,0.31,0.20,0.14,42.00,7.37,28.69,0.95,0.12,2.63,0.30,0.66,0.49,0.48
2.44,117.13,68.56,167.13,9.47,0.03,1.31,0.21,0.02,0.11,42.38,8.19,29.06,0.34,0.82,2.17,0.30,0.66,0.49,0.48
2.45,117.25,68.62,167.13,9.41,0.70,0.81,0.18,0.05,0.09,42.38,8.19,29.06,0.28,1.49,2.66,0.30,0.66,0.49,0.49
2.46,117.37,68.69,167.19,9.81,0.31,0.61,0.15,0.08,0.15,42.38,8.19,29.06,0.66,1.09,2.84,0.30,0.66,0.49,0.49
2.47,117.37,68.81,167.37,9.69,0.05,0.41,0.11,0.11,0.15,41.56,8.19,29.50,0.51,0.26,3.15,0.30,0.66,0.48,0.49
2.48,117.19,69.00,167.69,9.88,1.20,0.49,0.14,0.06,0.15,41.56,8.19,29.50,0.99,0.64,2.71,0.30,0.66,0.48,0.49
2.49,116.75,69.12,168.31,10.30,1.48,0.97,0.21,0.06,0.17,43.06,8.88,28.69,1.12,0.88,2.12,0.30,0.66,0.48,0.49
2.50,116.12,69.25,169.06,9.88,1.70,1.97,0.26,0.15,0.18,43.06,8.88,28.69,0.50,1.23,1.29,0.30,0.66,0.48,0.48
2.51,115.56,69.56,169.69,9.51,1.90,1.89,0.14,0.23,0.21,43.06,8.88,28.69,0.26,1.30,1.71,0.31,0.66,0.48,0.48
2.52,115.12,69.81,170.38,9.85,1.78,1.62,0.11,0.23,0.24,43.06,7.75,28.25,0.91,1.07,1.38,0.31,0.66,0.48,0.49
2.53,114.50,70.19,171.31,10.37,1.43,2.29,0.15,0.29,0.31,43.06,7.75,28.25,1.31,0.83,0.71,0.31,0.66,0.48,0.49
2.54,114.00,70.56,172.19,9.96,1.01,2.31,0.05,0.25,0.29,43.06,7.75,28.25,0.71,0.57,0.91,0.32,0.66,0.48,0.49
2.55,113.81,70.81,172.69,8.28,0.99,2.51,0.05,0.20,0.17,42.00,6.69,27.87,0.98,0.59,0.67,0.32,0.66,0.47,0.49
2.56,113.62,70.94,173.00,8.75,0.36,1.82,0.07,0.03,0.08,42.00,6.69,27.87,0.15,1.26,1.62,0.32,0.66,0.47,0.49
2.57,113.31,70.87,173.50,9.86,1.28,1.60,0.16,0.05,0.09,43.06,6.00,26.69,0.59,1.64,1.58,0.32,0.66,0.47,0.49
2.58,112.75,70.87,174.19,10.13,1.91,1.81,0.29,0.00,0.14,43.06,6.00,26.69,0.86,2.23,1.38,0.32,0.66,0.47,0.48
2.59,111.81,70.94,175.31,9.83,1.73,2.33,0.56,0.04,0.19,43.06,6.00,26.69,0.56,1.99,0.85,0.33,0.66,0.47,0.48
2.61,109.63,71.12,177.62,9.58,0.60,2.45,0.77,0.22,0.20,43.75,6.37,29.06,0.30,0.68,0.68,0.34,0.66,0.48,0.47
2.62,108.31,71.37,179.00,9.11,0.26,1.68,0.56,0.26,0.10,43.75,5.56,27.87,0.18,0.29,1.41,0.34,0.66,0.48,0.47
2.64,106.56,71.81,179.31,9.26,0.78,2.44,0.61,0.11,0.08,43.75,5.56,27.87,0.05,0.72,0.59,0.35,0.65,0.48,0.47
2.65,105.37,71.94,178.25,9.43,1.19,2.75,0.78,0.12,0.15,43.75,3.37,27.00,0.10,1.06,0.26,0.36,0.65,0.48,0.47
2.66,104.00,72.06,176.81,9.50,1.22,2.62,0.75,0.08,0.18,43.75,3.37,27.00,0.17,1.01,0.37,0.36,0.65,0.49,0.46
2.67,102.69,72.12,175.38,9.63,1.04,2.51,0.69,0.05,0.19,43.75,3.37,27.00,0.41,0.61,0.48,0.37,0.64,0.49,0.46
2.68,101.50,72.19,174.00,9.67,0.94,2.50,0.68,0.08,0.16,44.56,3.06,27.00,0.12,0.66,0.66,0.37,0.64,0.49,0.46
2.69,100.38,72.25,172.81,9.18,1.21,1.79,0.74,0.04,0.10,44.56,3.06,27.00,0.08,0.96,1.15,0.38,0.64,0.49,0.45
2.70,99.06,72.12,171.69,9.32,1.41,1.82,0.78,0.09,0.10,44.19,1.25,27.50,0.03,0.88,1.03,0.38,0.64,0.49,0.45
2.71,97.69,71.94,170.56,9.30,0.96,2.22,0.74,0.17,0.04,44.19,1.25,27.50,0.05,0.18,0.75,0.39,0.64,0.50,0.44
2.72,96.63,71.75,169.81,9.13,0.53,2.27,0.69,0.16,0.04,44.19,1.25,27.50,0.18,0.00,0.73,0.39,0.63,0.50,0.44
2.73,95.75,71.56,169.87,9.09,0.48,2.13,0.49,0.29,0.16,44.19,0.88,26.19,0.04,0.04,0.78,0.39,0.63,0.51,0.44
2.74,95.31,71.12,170.12,9.50,0.51,2.47,0.32,0.43,0.14,44.19,0.88,26.19,0.22,0.00,0.40,0.39,0.63,0.51,0.43
2.75,94.87,70.69,170.50,9.39,0.76,2.72,0.31,0.45,0.16,43.38,0.88,27.37,0.16,0.36,0.77,0.39,0.63,0.52,0.43
2.76,94.44,70.19,170.81,9.27,1.09,2.34,0.39,0.44,0.15,43.38,0.88,27.37,0.09,0.69,1.08,0.39,0.63,0.52,0.42
2.77,93.81,69.81,170.87,8.81,1.26,2.31,0.49,0.35,0.13,43.38,0.88,27.37,0.39,0.73,1.01,0.39,0.63,0.52,0.42
2.78,93.06,69.44,171.00,8.83,1.09,2.37,0.48,0.37,0.17,43.19,1.69,28.19,0.30,0.40,0.99,0.39,0.63,0.53,0.41
2.80,92.31,68.62,172.19,8.44,1.08,2.12,0.35,0.44,0.40,42.88,1.25,29.87,0.69,0.59,1.40,0.39,0.62,0.54,0.41
2.81,92.31,68.12,173.25,9.69,1.31,2.24,0.30,0.56,0.46,42.88,1.25,29.87,0.59,0.89,1.37,0.39,0.62,0.54,0.40
2.83,93.00,67.06,175.56,8.81,1.45,2.22,0.02,0.43,0.43,41.69,0.19,29.00,0.41,0.98,1.68,0.38,0.62,0.55,0.40
2.84,93.25,66.69,176.75,8.34,0.84,1.98,0.02,0.35,0.55,41.69,0.19,29.00,0.50,0.13,1.88,0.38,0.62,0.56,0.40
2.85,94.25,66.31,178.50,10.31,1.06,3.35,0.36,0.41,0.59,41.00,0.25,31.50,2.47,1.45,0.09,0.37,0.62,0.56,0.40
2.86,96.69,65.81,178.56,11.86,1.30,3.99,1.20,0.40,0.75,41.00,0.25,31.50,2.56,0.73,0.43,0.36,0.62,0.56,0.41
2.87,99.87,65.50,175.06,8.91,0.31,2.53,1.18,0.17,0.88,41.00,0.25,31.50,0.00,0.03,1.51,0.35,0.62,0.57,0.41
2.88,101.56,65.25,172.81,6.99,0.76,2.13,0.30,0.18,0.63,39.88,0.88,32.38,1.91,1.27,1.92,0.34,0.62,0.57,0.42
2.89,102.25,64.62,171.81,9.09,0.65,4.41,0.03,0.67,0.45,39.88,0.88,32.38,1.02,0.97,0.23,0.34,0.62,0.57,0.42
2.90,103.12,63.56,171.00,10.16,0.08,3.97,0.16,0.90,0.45,40.69,4.50,32.69,1.38,0.59,0.33,0.33,0.62,0.58,0.41
2.91,104.06,62.81,170.00,8.78,2.40,2.83,0.15,0.49,0.50,40.69,4.50,32.69,0.26,1.97,1.69,0.32,0.62,0.58,0.41
2.92,105.12,62.31,168.69,8.29,2.98,2.86,0.26,0.36,0.60,40.69,4.50,32.69,0.38,2.10,1.59,0.32,0.62,0.58,0.41
2.93,106.94,61.56,166.94,9.33,2.36,3.69,0.60,0.60,0.70,39.88,4.87,33.19,0.70,1.31,0.84,0.31,0.62,0.59,0.42
2.94,109.12,60.75,165.12,9.58,1.81,3.41,0.72,0.60,0.69,39.88,4.87,33.19,1.03,0.58,1.22,0.30,0.62,0.59,0.42
2.95,111.25,60.00,163.44,8.94,1.54,3.56,0.56,0.51,0.67,38.88,7.00,33.19,0.45,0.14,1.13,0.29,0.62,0.59,0.42
2.96,112.94,59.19,162.12,8.17,1.26,3.99,0.39,0.57,0.64,38.88,7.00,33.19,0.24,0.27,0.78,0.28,0.62,0.60,0.42
2.97,114.44,58.25,161.06,8.50,1.65,3.99,0.33,0.72,0.57,38.88,7.00,33.19,0.16,0.01,0.87,0.27,0.62,0.60,0.42
2.98,115.31,57.75,160.63,10.42,3.22,3.67,0.50,0.74,0.52,37.25,8.50,34.38,2.17,1.42,1.30,0.27,0.62,0.60,0.42
2.99,117.19,56.81,159.56,10.22,3.45,3.78,0.59,0.49,0.54,37.25,8.50,34.38,2.04,1.51,1.26,0.26,0.62,0.61,0.42
3.00,119.00,56.19,158.44,8.99,2.90,4.05,0.53,0.42,0.50,36.19,11.25,36.38,0.63,0.63,0.78,0.25,0.62,0.61,0.42
3.01,120.50,55.56,157.62,8.65,2.50,4.49,0.36,0.44,0.37,36.19,11.25,36.38,0.60,0.29,0.70,0.24,0.62,0.61,0.42
3.02,121.56,55.00,157.12,8.71,1.99,3.95,0.12,0.45,0.31,36.19,11.25,36.38,1.13,0.06,1.16,0.24,0.62,0.61,0.42
3.03,122.56,54.44,156.81,9.15,2.25,4.18,0.09,0.38,0.36,34.69,13.19,35.50,0.60,0.03,0.92,0.23,0.63,0.61,0.42
3.04,123.44,53.94,156.31,8.36,2.42,4.10,0.21,0.33,0.29,34.69,13.19,35.50,0.72,0.30,1.30,0.23,0.63,0.62,0.42
3.05,124.44,53.50,155.87,8.67,2.87,4.12,0.34,0.31,0.19,34.69,13.19,35.50,0.90,0.66,1.05,0.22,0.63,0.62,0.42
3.06,125.56,53.19,155.37,8.86,3.04,4.25,0.38,0.26,0.18,34.00,13.88,37.56,1.08,0.76,0.95,0.22,0.63,0.62,0.42
3.07,126.62,52.88,154.81,8.51,2.93,4.29,0.33,0.16,0.23,34.00,13.88,37.56,0.67,0.35,1.02,0.21,0.63,0.62,0.43
3.08,127.44,52.69,154.31,8.58,2.87,4.20,0.22,0.09,0.22,33.69,15.00,38.38,0.78,0.29,1.14,0.21,0.63,0.62,0.43
3.09,128.06,52.50,153.94,8.26,2.72,4.06,0.19,0.09,0.13,33.69,15.00,38.38,0.48,0.10,1.29,0.21,0.63,0.62,0.43
3.10,128.50,52.44,153.69,7.79,2.76,4.44,0.16,0.05,0.10,33.69,15.00,38.38,0.01,0.11,0.91,0.21,0.63,0.62,0.43
3.11,129.12,52.25,153.38,8.16,2.88,4.59,0.18,0.14,0.10,32.56,15.19,35.50,0.40,0.20,0.77,0.20,0.63,0.62,0.43
3.12,129.81,52.00,153.12,8.50,3.25,4.38,0.28,0.20,0.07,32.56,15.19,35.50,0.77,0.53,0.99,0.20,0.63,0.62,0.43
3.13,130.69,51.88,152.81,8.38,3.16,4.25,0.32,0.10,0.09,33.38,16.06,36.38,0.66,0.40,1.13,0.20,0.63,0.62,0.43
3.14,131.06,51.81,152.56,8.09,2.72,4.32,0.24,0.05,0.13,33.38,16.06,36.38,0.39,0.08,1.05,0.20,0.63,0.61,0.43
3.15,131.63,51.69,152.19,8.14,2.50,4.71,0.09,0.08,0.11,33.38,16.06,36.38,0.45,0.34,0.66,0.19,0.63,0.62,0.43
3.16,132.06,51.50,152.06,8.29,2.49,4.79,0.03,0.13,0.08,32.69,17.19,37.56,1.14,0.20,0.58,0.19,0.63,0.62,0.43
3.17,132.12,51.37,152.12,9.04,2.75,4.72,0.10,0.11,0.03,32.69,17.19,37.56,1.44,0.00,0.81,0.19,0.63,0.62,0.43
3.18,132.00,51.25,152.31,8.99,2.87,4.48,0.10,0.07,0.01,32.69,17.19,37.56,0.75,0.01,0.88,0.19,0.63,0.62,0.43
3.19,131.81,51.25,152.44,8.24,2.83,4.70,0.06,0.00,0.04,31.87,16.50,37.56,0.54,0.05,0.55,0.19,0.63,0.62,0.43
3.20,131.63,51.31,152.56,8.25,2.78,4.85,0.06,0.02,0.03,31.87,16.50,37.56,0.41,0.07,0.74,0.19,0.63,0.62,0.43
3.21,131.56,51.25,152.62,8.03,2.93,4.58,0.03,0.03,0.02,32.25,16.50,37.19,0.35,0.17,0.88,0.19,0.63,0.62,0.43
3.22,131.63,51.19,152.69,8.02,2.96,4.57,0.02,0.08,0.01,32.25,16.50,37.19,0.60,0.10,0.95,0.19,0.63,0.62,0.43
