0.02,-0.9173470204843456,-0.04570528426829224,0.4641099858275215,-1.1029594734875368,2.3403087330708257,-0.5343420142123634,-0.0721008968006018,13.029067558687986,46.423232443679325,-9.647093456116531,11.951353134596115,92.44707288514911
0.03,-0.46615529237565456,-0.07286060412689677,0.25499827767899025,-0.7324804383671403,6.388777926548225,-1.797864175879481,1.1205373019794997,19.587087829066473,38.69727479976246,-12.444997263481778,17.53278388860965,-4.210511637638602
0.04,-0.41236386731895913,-0.2215221470404766,0.6424652001969324,-0.373357111225195,10.41679107172863,-3.5458439601430225,2.1523352053094484,25.906471627961647,28.622883797525105,-14.571780624525418,22.653494476095926,-107.32915697235127
0.05,-0.29922093675956063,-0.3678534297204409,0.531045694142941,-0.018795663404455834,14.305976163899137,-4.960222733568034,2.9069246171230287,31.400328842847617,14.96636459002991,-16.092790761475214,27.047499063813472,-217.3576389579445
0.06,-0.000496403972604309,-0.3963204141843243,0.6263495793599758,0.40888766333364585,17.817215397941904,-6.459105925775979,4.165714587840653,35.86167738869413,-3.8563710247505774,-16.145473521510205,29.8721341230449,-334.4537536571773
0.07,0.15428653435571466,-0.47276288162430224,0.8486996609326911,0.6825341570010114,20.977808230772716,-7.532183329143888,5.000552016615298,38.91050790418281,-28.359418260190694,-14.306054970110452,31.862582198437106,-458.8854625569353
0.08,0.4275200713463984,-0.7645747164852714,0.8112802390434137,1.476683669443191,23.583002277975122,-8.560751614852435,5.834833021102498,40.23461804800352,-59.37613412371901,-10.773195505844207,32.071363025508575,-589.861162755606
0.09,0.41280958189895356,-0.6428594015741338,1.0935310840264867,1.7312892174252121,25.47610747278932,-9.51969215359929,6.719333827469115,39.96438703326365,-97.61908724272813,-4.981290160278419,30.601856207449405,-726.580336075111
0.1,0.9130597031539178,-0.7716563489876308,0.8701386773388784,2.303373390759614,26.37122027911117,-10.296521562162827,7.393535553528041,37.262572192957734,-143.31046345079466,3.0118912616881977,26.9513312002598,-867.2676417618427
0.11,1.2811816855828797,-1.0335076057651826,1.126744974839492,2.5587474371707506,26.62866070292511,-10.637937835551414,7.607758665487244,32.4118356362028,-196.5027260680058,13.48778693834611,21.611267664094658,-1009.9098982746605
0.12,1.3521282572545628,-1.1365381271164712,1.1498995653837185,3.2593651202385336,25.547982378661686,-10.739475317615666,8.169045890312253,25.331551426053714,-257.0227374905399,26.297819889026787,14.00840544478484,-1152.3661244638345
0.13,1.7803521753929235,-1.2799306399701136,1.166951084304186,3.5570811381781193,23.48798703287956,-10.756090460265318,8.24382726993766,15.820526076062075,-324.22069865133506,40.97815447511355,4.407954153165806,-1291.7427272514476
0.14,1.9597574392315993,-1.4647477770756736,1.2904748497400995,3.712389642161734,20.294997693508577,-10.189789584106428,8.356722385737418,3.8730520737108263,-397.57351880063743,58.138377576151534,-6.695566359369296,-1424.818999090053
0.15,2.1919884574016915,-1.4737610845397269,1.4336515871885345,3.9707818645518778,15.82232633309702,-9.451737971812948,8.001017505041695,-10.311045304563647,-475.8759772693142,76.83807310822736,-19.05703415365103,-1548.288654020885
0.16,2.352766444103525,-1.3848826503978269,1.2713675636841648,3.9710604149155317,10.396091315138538,-8.013971374696368,7.727292639110133,-26.70318763536485,-557.6674763694988,97.19945600574425,-32.93189963802848,-1658.5694499569718
0.17,2.283223892901229,-1.6293451495529232,1.5412598398952377,3.6425716285637826,3.5663643175667175,-6.618142723906709,7.159895202890321,-45.16415139831251,-641.7072425233208,118.58666863154606,-47.62687465047089,-1752.0380331118454
0.18,2.3587365312526396,-1.5239328757654693,1.5068643421084273,3.5666837707050414,-0.08701202557980817,-5.735550686217667,6.816879067595546,-55.04510577826691,-684.0086618376641,129.54052168671376,-55.23185266803169,-1788.4262467608128
0.19,2.416120621741211,-1.5093085617922901,1.5986535367682344,3.2498819192771484,-4.29746324147644,-5.012371342405922,6.5901163667116345,-65.12878131723838,-726.2815089279958,140.67109632229904,-62.66893447288895,-1824.9957954217077
0.2,2.3050025059153585,-1.6344234459854707,1.6466148453878406,2.670128708976713,-13.196150064048366,-2.900599823107962,5.474853056737268,-86.58121281170241,-809.7809592017062,163.14588944809182,-78.08265616926653,-1874.8343905121144
0.21,2.1910589473386612,-1.553342116919197,1.546277663260292,1.743924259274133,-23.292653044576177,-0.6835353926406358,4.576291551086291,-108.52027274545749,-890.1392105490091,185.2554090051206,-92.65960143169772,-1898.711509748725
0.22,1.9629874252146322,-1.6033376183567383,1.4853911489714522,0.7402379019617394,-34.293519837526944,1.792980595537877,3.3190021373116334,-131.49139567309018,-965.8673604529504,206.88295334743427,-106.39519315190448,-1893.291770704067
0.23,1.3627771776705504,-1.569043932384571,1.689930417034655,-0.7545612428021776,-45.93361931935671,4.525638254073617,1.9317147586053038,-154.5533063453966,-1035.245835628012,227.278675145896,-118.67184359726315,-1857.6274693586586
0.24,0.9715383130522207,-1.7011872888686344,1.4629811490570863,-2.2816431747072072,-58.37867435859638,7.328500578611116,0.7177784776080333,-176.9196296973034,-1096.2423864591522,245.89090409426845,-129.14954162197395,-1789.8744919082487
0.25,0.4344286228783547,-1.5640597884130987,1.6753566241592281,-4.366017985784872,-71.33824073134676,10.426887476621514,-0.8232357946038676,-198.61224485416437,-1147.4497993231116,262.4856926493309,-137.24368153687504,-1689.8972331085863
0.26,-0.6528262158862324,-1.1471187422511222,1.6156206280089398,-6.47904882016677,-84.77958985276818,13.770570037121354,-2.334397836575868,-218.94708147085012,-1187.5700051039835,276.6769811615291,-142.28845671342188,-1557.3991286628595
0.27,-1.6950842697042108,-1.01719003814699,1.6022146031876154,-8.740765205822731,-98.24617252452722,16.721692723086786,-3.704706012962444,-237.48567858010975,-1215.3079666079502,287.59351390405163,-144.0083566596288,-1393.641238693297
0.28,-2.6179488479826327,-0.8226414331735209,1.554989862325853,-11.549179408362459,-111.77332985262719,19.83133563937174,-5.2488745646440504,-253.61599243063313,-1229.971087970549,295.85358313593133,-142.06834166407285,-1200.7381236464803
0.29,-3.8093166979070547,-0.7723007237134003,1.592586335434235,-14.372792059673744,-125.45175655345237,23.04893090780075,-6.389176095598505,-267.707528083472,-1230.6946427531489,300.3082516431695,-136.37832640594462,-981.0129965621013
0.3,-5.351024326121149,-0.3662460762959532,1.6192313830833018,-17.18468084486187,-138.41528088984927,26.140129953960823,-7.935809757362835,-278.29745906228186,-1217.1395209420627,301.4649394399235,-126.52354228113798,-737.6178942621062
0.31,-6.935520176703701,0.043745757128170554,1.4018928898151626,-20.47982706497081,-150.88611412961347,29.49457953812004,-8.796956798550811,-285.43657766157406,-1188.877631119304,298.62826012307096,-111.79152153732149,-475.06970352523797
0.32,-8.66580751168806,0.3961851368557472,1.2834931143296398,-23.737671885432803,-163.14519704828717,32.30654948964072,-9.78219739371692,-289.5737409830958,-1146.4397866223217,291.89445771035497,-93.25085349948803,-197.13283746388854
0.33,-10.463962062815263,0.6809086008477536,0.9608628196266703,-26.9794286418442,-174.35839379967177,35.06554009184189,-10.33739333020056,-289.96713445181246,-1089.8022181153483,281.45579912724685,-69.79193563776813,90.72100522316066
0.34,-12.468365294395571,1.1014792458065152,1.1104395116450985,-30.128700137360127,-184.54841607779215,37.512791421687304,-11.040441756578153,-286.4816870365241,-1020.1858257294101,267.3877755260395,-42.573575723533644,383.249372687457
0.35,-13.283031205038899,1.142820632200177,1.1647644087062594,-31.623720144589367,-189.29615026698602,38.75159331288846,-11.02020618579253,-283.1320960340342,-978.9316932917435,258.22854352834497,-26.72045642284071,528.9463375556356
0.36,-14.408040683289789,1.5006503176109023,1.1002635534476386,-33.42653629115938,-193.81064270545605,40.17748777934931,-11.082150621807282,-279.6236859316309,-937.9927071158836,249.44093182170366,-11.060057183588688,674.7517228280085
0.37,-16.46972725532152,1.9188019070090572,0.8088726417104124,-36.29372300675662,-202.1749193994107,42.18207264051547,-10.99561684849202,-268.6702247862567,-844.3280828313922,227.899055505914,23.98552385257022,959.5804237420159
0.38,-18.47574492320989,2.3162879717202833,0.7924307043873385,-39.297125250368225,-209.13275917945185,43.8055534895064,-10.339342487644489,-254.66504227326968,-740.926604895473,203.4576520373279,62.31952729565326,1231.9898410348956
0.39,-20.832705494416043,2.8500626692357383,0.712717353079332,-41.87286158497049,-214.71524124651623,45.368751188262785,-9.512466361254631,-237.47564502104962,-628.8032924924923,175.90117674924625,103.49100565217775,1487.0263340105405
0.4,-23.14340154188629,3.377310229551458,0.7001232860636869,-44.270700801420816,-219.14035617263855,46.64974235872648,-7.951265611604449,-217.1823327881875,-509.6878371330692,145.72087061670538,146.6728735649119,1719.4689730543469
0.41,-25.58498197623961,3.8033121888859336,0.6053998043671834,-46.30393815194855,-221.98717114228364,47.50203442941412,-6.148758392147859,-194.78758731975924,-385.4179160802778,113.16043017019726,191.48728605980207,1924.4033182730134
0.42,-27.792673963134828,4.145251284489945,0.6157112898008992,-48.40649715111261,-223.7559993851985,48.1154851626273,-4.091149727186208,-169.8250099010142,-257.429545033554,78.81806103162381,236.8526590017056,2098.19561482025
0.43,-29.919776260330227,4.663691210617547,0.42698764240982023,-49.62715987527028,-224.0659422416174,48.20563519060477,-1.3707419865628578,-143.42417486629452,-127.40342200501547,43.037079622840686,282.08393665380623,2237.922993396643
0.44,-32.19843056937119,5.026256650589378,0.5484817558262065,-50.83351157872239,-223.0835717018539,48.000761450491616,1.485937690003265,-115.93490236610899,2.655292190285062,6.324964689981613,326.35244857485844,2340.6451797046284
0.45,-34.30097711834678,5.576191642590916,0.6069724051264854,-51.57145930121589,-220.941258766015,47.6251134785414,5.549765500916754,-87.62312998678959,131.33616720654197,-31.346449540206148,368.9499074499996,2405.252305897952
0.46,-36.55436177012487,6.054855627344938,0.7875579536906805,-52.32109913124438,-217.23260910339022,46.97791494429417,9.068445013041865,-59.37838331830409,257.270004748051,-69.00702397361079,408.75741796827896,2430.346555972526
0.47,-38.68753167880461,6.511615512614787,0.7359198571917247,-52.38282609298807,-212.76189281045407,45.653583123862056,13.218991161206352,-31.488972799714336,378.9989834351959,-106.60981366301024,444.85524869989035,2416.5454929396
0.48,-40.6668529617576,7.021028554591979,0.9386602784766405,-52.01251643432428,-207.06963741601533,44.11684002279836,18.013114048046138,-4.358824147112022,494.54958002468715,-143.20506791264728,476.24740945914834,2364.9760311826085
0.49,-42.740129245470676,7.22227594278164,1.3054527709216888,-51.57551492733491,-200.38846474313178,42.498589370317,22.773321518154894,20.895696229527996,603.284882763895,-178.7663479807676,502.7300782582733,2277.186380266684
0.5,-44.315509885285486,7.662553793138333,1.5210206672170985,-50.848083863720035,-192.92520396006125,40.48027309816028,27.982634733719024,45.016433825643304,704.0439921934451,-212.98979770882883,523.2477668573537,2156.129093565583
0.51,-46.281403279333105,7.9918149369762705,1.7905193704374358,-49.68727345436004,-184.9549503487976,38.08161100431025,33.18817272204735,66.70934499652178,795.826309483119,-244.9925485298909,537.0770618561553,2005.2586261374145
0.52,-47.05167395019057,8.093696655413968,1.9490932572283328,-49.17113401039328,-180.28341578191822,36.56284959478521,35.941454027023184,76.24373572681804,836.9235877944698,-259.87066858257316,540.3101351130992,1916.8148299829807
0.53,-47.83590163007522,8.44335244046392,2.0588044490804305,-48.516640966129486,-175.93049482502465,35.28806629648737,38.698693347958645,85.84749614785704,878.1481393829933,-274.66270796080767,543.4909648950363,1828.4053655567968
0.54,-49.4312982667954,8.820156281876155,2.3339785977778074,-47.34430253209368,-166.56798636161238,32.580800442318974,44.1358132532333,102.57998760816163,949.9783310107164,-301.8947732983734,542.4197999621745,1629.8649031367456
0.55,-51.02213218759273,9.276887938006992,3.212605576692952,-45.856013731809725,-156.5623681106571,29.330917078595256,49.49464382072825,116.14172175009435,1011.250205432241,-325.7204465388006,533.2659118053272,1415.0168570841665
0.56,-52.37132439619757,9.232537454105778,3.5546121129714217,-44.090556138544095,-146.0494447867744,26.09518313037065,54.9090218533255,126.986164231691,1061.5015678108819,-346.3042034642638,515.6821603729327,1188.4924940811661
0.57,-53.65001843943805,9.565217660567345,4.2743608952569865,-42.45245276613821,-135.60850990476874,22.59178111269787,59.67830740612911,134.85845377218013,1100.7268286585559,-363.5459733523787,490.20689870051103,955.690824591762
0.58,-54.75320112093,9.714421967656781,4.659711053575345,-41.02805288886833,-124.8579160025671,19.076089364941105,64.61300874241479,139.81295085192735,1128.6289897451838,-376.8210455096264,456.5508628662745,721.1503514670437
0.59,-55.93635547621021,9.992864978112971,5.478881313881582,-39.33567004495096,-114.20926179446703,15.594662737316884,69.11949559638958,141.8879106890335,1145.398240003187,-385.86050511918444,415.0335958902925,490.7872010844064
0.6,-57.03980105880231,10.110369172095888,6.244993017147452,-37.79234365869571,-103.04880794369663,11.717587254421781,73.11072632428744,141.5472103949092,1150.9794427601926,-390.97461665692833,366.22060528001583,268.43654228722573
0.61,-57.89542255436628,10.176379177679312,7.11544963459983,-36.518043177921705,-92.50072153802033,8.184575372733248,76.24169204893691,138.69561999827226,1145.8796328212711,-391.52727907795344,310.48631602608486,58.20950492521213
0.62,-58.65448500783225,10.096061325446222,7.69856348719191,-35.03555962606305,-81.8660362507918,4.327311341740857,79.33732830083689,133.36148770313082,1130.490102892316,-387.83482573399397,249.18506642036706,-136.0251587142645
0.63,-59.70857196470881,10.02696725793701,8.3042696488021,-33.72872330558851,-71.2923736207131,0.46660429389750396,81.5687806717529,126.49255097276556,1105.0541331011987,-379.95824020833805,182.60136078810925,-310.92807204840216
0.64,-60.1267734826387,10.130565496163577,9.346225364272525,-32.513186225132216,-61.278775434260304,-3.0458412586735966,83.02940555541522,118.12920264354406,1070.2553960597893,-367.6258206007203,111.99018269221168,-464.8160448387583
0.65,-60.74652825953174,10.065438763260858,10.109500197981255,-31.8208340409352,-51.81057271052288,-6.415840679255742,83.99491671167657,108.56475774686191,1026.7183699321724,-351.3664471812767,38.42362806413263,-595.8995768706063
0.66,-61.2908050562605,9.841714720277244,11.002926401086064,-30.84595432070863,-42.47643684611143,-9.68090697191371,83.85432770095377,98.03456994170601,974.311251953866,-330.7113996669462,-36.70686338823548,-703.1332484831414
0.67,-61.588774119148454,9.953486867045893,11.644793139341333,-30.409208981433554,-33.774728867561805,-12.75313739989758,83.2087257329963,87.21134719236,913.9685045344439,-306.19396269193834,-112.48745077645113,-786.7375511607366
0.68,-61.976600896991314,9.833771147539517,12.795797056021248,-29.918917769307924,-25.609762164928974,-15.562366317078231,81.70873850694342,76.41064911342623,846.6731114483811,-278.49391769249416,-186.6276713156702,-847.4058962094277
0.69,-61.85818136335198,9.64476608754045,13.08528579781274,-29.623009994188084,-21.728348149259954,-17.124034216510235,80.33827132603625,70.8928426746087,809.7444631662044,-262.83981467258025,-222.39669630488046,-866.6805735292463
0.7,-62.093529142564485,9.66647260270691,13.492218858913713,-29.426552302870025,-17.887573359006858,-18.45508140299115,79.20950221235731,65.43791946283714,772.8881332102746,-247.31647033764168,-258.48957530721594,-886.0774507274804
0.71,-62.35553473774486,9.424297243513513,14.072433657520042,-29.248609973460617,-11.230386632784334,-20.49454335201633,76.36224354447705,54.9026689182595,693.225061467437,-213.47102215052794,-326.6578726507916,-904.8805332269725
0.72,-62.509342665453126,9.240477320612817,15.053518516915643,-28.92318573347318,-5.166688362182598,-22.660830509677062,72.61659211700649,44.977057342771,608.3685980392573,-177.36379011357977,-389.75237584870973,-905.6990618385431
0.73,-62.417220764477975,8.842338167825611,15.750034062193002,-29.020098502083705,0.34832719309430693,-24.274479936160212,68.13466739705571,35.78044274995986,519.7027999774672,-139.52194195151063,-446.5440461293355,-892.2935872624844
0.74,-62.41871586010946,8.780134209849052,16.42697201235593,-28.888913334753084,4.704738341048048,-25.554601644840485,63.05097260891563,27.4082641054781,427.3896044106114,-100.0693023796461,-495.52170853393557,-867.125869576211
0.75,-62.390437017004025,8.437568056489722,17.158907976595025,-28.90410487780121,8.480333545599374,-26.422692555494802,57.778218269359115,20.38212695765205,332.91390188257327,-60.34541245231628,-535.8982811396725,-833.6286993739026
0.76,-62.27838533596473,8.187702420468653,17.597147542528155,-29.028476547922345,11.368242732111334,-26.817266928342626,51.83691080132074,13.791666048649612,236.6785382025945,-20.48755591851091,-566.8972981249254,-795.3595975554222
0.77,-62.23740753083311,7.994456068996796,18.175991158935226,-29.23359467813951,13.179811193645593,-26.833915081274096,45.80434628154318,8.330394684870328,140.0973274803559,19.073401088998438,-587.6821029723345,-755.39283026378
0.78,-61.966670542959335,7.559254728533181,18.57060472143252,-29.114488426995514,14.337103374363021,-26.67728124893293,39.305090844650984,3.4374485001532267,43.978036964284904,57.337196204527864,-597.4646007498935,-717.3169947745187
0.79,-61.990260631717085,7.193686452510423,19.000225994603003,-29.57720654456873,14.388837568724513,-25.662054450910414,32.65476329481923,-0.20780138942830367,-50.37760013544844,93.49868769407047,-596.1955288163299,-683.7047821585847
0.8,-61.845062202924325,7.108923073815793,19.36525217387025,-29.419558403819508,13.697863431404624,-24.834318650240913,26.562626699620978,-3.716312455160504,-142.10198227843028,127.53357742057592,-583.8093212293031,-657.4889419988784
0.81,-61.71336004791908,6.79981784988735,19.35846795509894,-29.62166246958148,11.786411462097718,-23.510624709272065,20.305082739211787,-6.74430119641059,-229.91650102609196,158.3498867091538,-560.4242316587614,-640.1613129120179
0.82,-61.51715096074448,6.394439839993234,19.587337985280026,-29.63587600634307,9.319558976499644,-21.624028005982456,14.33499371261982,-9.470318238535208,-312.4678811022864,185.56972804477806,-526.2642239506846,-633.4881973632454
0.83,-61.42276898418283,6.341039815796082,19.720128169611908,-29.618345228145714,5.7255981521379775,-19.596834917648867,9.153883366810156,-12.588054556305346,-389.00450393776595,208.5075485406321,-481.907269493613,-638.7869819650534
0.84,-61.089873039859654,6.2924765638403315,19.768422935422453,-29.938116824045217,1.8022622033750704,-17.450917971222342,4.089887730996761,-15.742685145454567,-458.03695048392626,227.06223353435075,-428.31098688121824,-655.429691092118
0.85,-61.21832665628621,5.937512098552924,19.636659767290382,-29.8371897560553,-3.40002061768407,-15.016325923565356,-0.3012807338639905,-19.418837759099805,-518.562402378651,240.62286017128994,-366.3009800319143,-684.0811167855464
0.86,-61.280632972324895,5.879152156262029,19.674474865261782,-29.95659623279026,-5.93290234037846,-13.698456604029113,-1.9561489313697036,-21.57169723823471,-543.8855462825906,244.53110805456996,-331.8167670960749,-703.9653455424535
0.87,-61.28664339791568,5.97544075041148,19.777151750234232,-29.938708867563648,-8.767746433273155,-12.457374365643805,-3.6149673857302207,-24.025533594619706,-569.325994631533,248.63673164907794,-297.16447713983035,-723.6406036175146
0.88,-61.45226862353134,5.71407659073353,19.510034581491478,-30.07464802057885,-14.546454468926743,-9.743245167322623,-6.385906447434534,-29.290400224621788,-609.6343679951979,251.3292619563724,-222.10588716822485,-772.2424265199494
0.89,-61.572846918274095,5.740819704571098,19.488795010496833,-30.142330751351256,-20.939967375796094,-7.124229705462472,-8.355641591737223,-35.77731631467575,-638.4042875392253,248.65259230615246,-142.48381698760397,-827.9282638481305
0.9,-61.734559223238286,5.523258396011632,19.290042078210863,-30.215154338307837,-27.585515387374695,-4.222598640388722,-9.53957603161345,-43.24082369678573,-654.7583262527262,240.37906511440056,-60.67915275889435,-888.6901092320599
0.91,-62.04134803486315,5.499294939994991,19.047885616899475,-30.64797909613862,-34.38302108279857,-2.0062598320088134,-9.576376736112936,-51.77405945823443,-657.7237075919662,226.68603179449988,22.603373173468206,-951.011762904491
0.92,-62.16114476470345,5.789235576477004,18.859618752000237,-31.093009777335514,-40.9083205055834,0.4398916296610504,-8.499810510061923,-61.541462919824426,-647.2382192567356,207.8100033466619,105.51637047664718,-1011.9979106608174
0.93,-62.8007292291111,5.611709808013339,18.926885278048328,-31.53838312261872,-47.46761150250087,2.634366021899611,-6.818490833498731,-72.57086428277246,-622.698312001004,184.36927787242826,186.01649369322828,-1068.1275685952112
0.94,-63.21378254370761,5.628452356866253,18.72749685749354,-32.07919694863283,-53.659377706820536,4.603455284623793,-4.167606183436227,-84.43524752153739,-583.8307512651562,156.34860547713873,262.96948048030094,-1116.1759925776348
0.95,-63.82045867621254,5.855023733668227,18.922244391069192,-32.76091086807334,-59.40379254731447,6.357241270925197,-0.5658890091694555,-97.59665904875725,-530.807715209973,124.92953813015582,334.5418548213109,-1152.3551308442866
0.96,-64.59203752918148,5.858729033477431,18.669218471385292,-33.696734441744766,-64.49024663813847,7.76670782526979,3.731484460821485,-111.14143278054212,-463.6386898289034,90.02624949894143,399.2908290031811,-1174.039319530466
0.97,-65.1103701830007,5.920247365128431,18.678470705385624,-35.03374393681869,-68.87388980356685,8.445400535145794,8.44239961316511,-125.24277552849955,-382.6156154075528,52.971609935679815,456.1209966301477,-1177.6229215852188
0.98,-66.06292567526201,6.153413234595997,18.774606370840676,-36.12273822748812,-72.09813824675493,8.952646429889446,14.006870961215878,-139.62472434388525,-288.8267624200518,14.171798981998482,504.2056093296272,-1160.81245965682
0.99,-66.67296691432449,5.850733485650659,18.863123332050282,-37.47211794887605,-74.31137605730336,9.115838249142813,20.124408486820812,-153.65535889474677,-183.00342147198256,-25.43389347585759,542.5851943009662,-1121.6918205319669
1.0,-67.63334490613474,6.108143602667494,18.958602502979126,-38.91220184933269,-75.65627430735782,8.695548031010967,26.249160654665513,-167.50595899720645,-66.0874424365216,-65.154785531252,570.835843279209,-1058.4464430103087
1.01,-68.5134025747455,6.372791100876482,19.42486886025085,-40.88493829195098,-75.26122390926801,7.9684792005936735,33.00331123930001,-180.28051663649637,60.55764379366174,-103.53042149601971,588.8347418687359,-970.0020957113439
1.02,-69.13834987413877,6.325885931287169,19.841776801422945,-42.64962041035426,-73.72681255548231,6.885933181478761,39.57769686897602,-192.24716462786947,195.31402257142616,-140.4228266429845,596.0989377825208,-856.3896934213741
1.03,-69.78933300781118,6.353192025815644,20.15262452742782,-44.048217951998865,-72.08097766837147,6.045728928595902,43.03838986137822,-197.16041599716604,266.02807587016207,-157.66964309852764,594.8520805334654,-787.0910112724029
1.04,-70.0021162882144,6.405472486388549,20.385967442004137,-44.9648124179606,-70.63356964326164,5.276030231262784,46.292400919545535,-202.49866044912494,336.66404347125484,-174.90438142741706,593.5675064755076,-717.6074252416017
1.05,-70.75688201908652,6.320864819612014,20.95659382868412,-47.24309578740693,-65.97978758997782,3.20765630730484,52.84334763836401,-210.7920709367744,482.752788593234,-206.15293964559794,581.2376176225954,-554.9225319185389
1.06,-71.37431914077615,6.726653206462221,21.562320070253826,-49.374103179223795,-59.97171320896827,0.6731319466735328,59.24907201808162,-217.32320265664555,631.2034746511382,-233.02645067744874,560.208015369881,-370.0816121965803
1.07,-71.95051721058674,6.620064609493121,22.435155842351485,-51.8147768972139,-52.26640220391267,-1.874406252118231,65.11488629026978,-221.07910056213075,780.403146335727,-255.53532281312857,531.7701058408661,-165.38961477811625
1.08,-72.4081139502723,6.475388484816995,23.067469771611382,-54.2645699609227,-42.8071167296857,-4.740635079638209,70.95148621184745,-222.7712014478103,927.5971712204598,-273.4682711588323,496.8755438350516,56.103626168329335
1.09,-72.59903440179784,6.6278013527611765,23.996074107527594,-56.63090149503969,-32.2072593648499,-8.058072084607018,75.78404615038102,-220.96324063450888,1071.1310983044175,-286.0288212751403,457.8899084925194,290.8215966535609
1.1,-73.05005526694205,6.533484367571122,24.583240311770428,-59.14981719491199,-19.91532514631518,-11.358911368444321,80.54735264907868,-216.59127277144114,1208.494098725011,-293.33522498288335,415.6376899594942,535.3243844656548
1.11,-73.02250847464121,6.211347506520957,25.79462359173884,-61.56751074610278,-6.5814676426730765,-14.78684080067045,84.74342871868078,-209.10277724936114,1337.4078992219827,-295.14740892855895,372.58900201625613,784.4023828394523
1.12,-72.99192451110058,6.167985558080241,26.465532506843545,-63.829826754603765,8.069398027027873,-18.324031861879803,88.08778553413286,-198.2348343311906,1455.7629014863408,-291.55326254205204,330.6088396791775,1034.093912046033
1.13,-72.74052774644684,5.8649618137502,27.629575165369946,-65.96667193060405,24.04709234830332,-21.6696570727466,91.44461142490525,-184.83656194735192,1561.013901477753,-283.0802011897406,291.61539045496266,1280.028230671614
1.14,-72.34612190363802,5.7183116856809475,28.663446820050492,-67.82672203559316,40.324524193958176,-25.08288232912541,94.0158084672232,-168.28308847838338,1652.2099721293475,-270.0680854701435,257.70831609514215,1516.930716943863
1.15,-71.7840016314277,5.380901911185943,29.479929319576613,-69.42178762424926,57.97847007388599,-28.217008217444953,96.25098464304747,-149.1493041785455,1726.7362163373946,-253.322823565966,230.5965388458997,1740.7141807233359
1.16,-70.97210559176813,5.098747667429002,30.604925969063377,-70.83797466540433,76.09048575214061,-31.466509737585167,98.10358124880409,-127.04078605043557,1783.0853736560016,-233.15371655187573,212.08983443572436,1946.8746022629296
1.17,-69.90399845247589,4.740694041297766,31.63442845895786,-72.29099660932395,94.43163777626653,-33.84465229437606,100.04647552502996,-103.44003375720771,1820.1450645500113,-210.610635820906,204.13938820418304,2131.4217931658154
1.18,-68.80733527346477,4.372633624804022,32.66595066572091,-73.12217630555948,112.96219737182412,-36.61634199213003,101.71222720533697,-77.66492702646943,1836.8996746026662,-186.86966888181323,208.2885185921803,2290.850523444918
1.19,-67.45994495854683,4.085653132343874,33.77021860586542,-73.55574676014213,131.50713369259014,-38.660843912262514,103.38037374181974,-50.52661541612903,1832.2791977506454,-162.77607574374633,224.81974375084326,2422.1550968408997
1.2,-66.76621888934815,3.9172418454395004,34.48895309773434,-73.617677655892,140.5244179658104,-39.62762317386011,104.46685012412422,-36.44633349939175,1819.327600896005,-150.88047331215532,240.33081748741637,2472.560531474364
1.21,-65.74595666047433,3.5330299962506877,34.8322896477188,-73.90332863968118,149.64725822218108,-40.56141056675162,105.54954498228281,-22.07608627982739,1806.086624163857,-138.93882377308114,255.70220831763788,2522.8873177046557
1.22,-64.26144433138532,3.393619327558308,35.83576323262022,-73.72803970491405,167.42110393425887,-42.09202442082824,107.9890101528248,6.706301976007803,1757.716015442572,-117.04892317543893,300.5260732066343,2591.4985718873863
1.23,-62.33687061944434,2.552991445831603,36.811491736935764,-73.19225074650946,184.42718640169522,-43.606024002959025,110.86412616387831,35.92756721890669,1687.7541390551069,-97.82844404248539,360.23716242407096,2626.306042616504
1.24,-60.217610217376134,2.2312831499890646,38.00957067510243,-72.59400186526135,200.4369727280361,-44.24648262634749,114.6980200889166,65.0203455867456,1596.4319947592,-82.13073221217614,434.0938457844877,2627.5261828146718
1.25,-58.12203232122267,1.6193200845688804,39.310120346767754,-71.41080435473205,215.41187056232437,-45.291028139473305,118.93270964738262,93.35326410998239,1484.6256371806528,-70.98023049008418,522.0898964166751,2595.198084141782
1.26,-55.74294341057903,1.1803878874963913,40.5798216680721,-70.07415009898902,229.21065061067074,-45.49878082388652,124.38869414476615,120.99956051304595,1353.323948979546,-65.26159976800609,622.1929639872188,2530.1980159123978
1.27,-53.38553796372597,0.6462960311986865,41.74976889015224,-68.31260675162675,241.36004719293467,-45.9869222716762,131.15945697641445,146.9060101228681,1204.35631417875,-65.1954292570111,733.7740348249805,2434.1644536465337
1.28,-50.84826194691574,0.17025454087841407,42.91546826946656,-66.35032293961143,251.8533732599742,-46.36409676501599,138.86178599025158,171.27845079939496,1039.1229931266312,-71.47644243289017,854.7317847417398,2309.4213503195992
1.29,-48.36358121795702,-0.3870382358697794,44.583421541395346,-64.1069023521589,260.9067183940222,-46.6917977666652,148.10791604528472,193.33139857464988,860.0798382155466,-84.27499776632385,983.084880815624,2158.71083904899
1.3,-45.94502735611865,-0.9271612565443801,46.261548124751805,-61.92202504406711,267.94294149665006,-46.621690238944794,158.40545307024337,213.4813573858264,669.2562804353319,-103.58056826483687,1116.4286216649293,1985.0059204398333
1.31,-42.910294499297144,-1.5077510103642946,47.798937151635386,-59.19882834749542,272.67541494344715,-47.37384202902793,170.20284720525177,231.0321176018713,469.04958124158935,-129.49756456319247,1251.614137089338,1792.177949341971
1.32,-40.32401518232094,-2.062202299722045,49.68435110774633,-56.27187892381533,275.65957607292563,-47.92915143794457,183.6969290103604,245.91990953083675,262.6445032210443,-161.1505264531745,1386.0408950564474,1583.889527129844
1.33,-37.557844741598444,-2.6339849564231086,51.51789724141619,-53.780540879412946,276.4250982994575,-49.16060662761595,198.284424633438,258.18111259372097,52.304832093958495,-198.25691656216614,1516.4217478324254,1364.2127012013104
1.34,-34.943654836170815,-3.0571397743166147,53.6395701428732,-50.70841246739976,275.0357133974008,-50.392507554172376,214.30659056742576,267.61775555782214,-158.57174273589257,-239.53495597819793,1639.2692302348505,1136.7627769478063
1.35,-32.1113140118998,-3.688892333641367,56.08131247555166,-47.872871395215554,271.72375467139057,-52.17708834825039,231.63206499666674,274.4604880928806,-367.0278629868848,-284.3708008366183,1750.9606728181027,906.1236831350744
1.36,-29.5888871494773,-4.282320135295293,58.58125106497684,-44.89451700963996,266.13287445907577,-54.473974824872215,249.80419882157824,278.7542818686555,-570.3491014640003,-330.8218408149904,1849.3230425398476,675.5355513605351
1.37,-28.418136216603877,-4.391512723702223,59.80296418128766,-43.53080105503119,262.44518607867485,-55.79167840036458,259.48256026939686,279.80298386593233,-667.6909889476317,-354.5536977719797,1889.5412380855353,561.9896640237157
1.38,-27.025105548037256,-5.005567598786876,61.361708758311664,-41.934233233427754,258.61750291904076,-57.3175401155719,269.04494119783146,280.48625380089976,-765.2254599794035,-378.17675876509696,1929.6980516684905,448.7549319747824
1.39,-24.39840300805861,-5.350605305139671,63.87634337258512,-39.2554509157051,249.50964207421288,-60.36800175491549,288.87307083074563,280.14059539646485,-948.6005265373278,-424.2447349872321,1989.9601481450898,229.63231608383296
1.4,-22.014580149917823,-6.0668271384580486,67.16160419881423,-36.495778818219655,238.4692715993155,-64.42407613425925,309.4396724964142,277.22188271547947,-1118.1838938224523,-467.3556587051304,2026.887648519576,20.301034006878
1.41,-19.71407375602233,-6.646710863664481,70.23977892397228,-33.76215058232934,225.78645219918778,-69.18000295829502,330.07730558034774,272.53157325623386,-1271.157252188889,-506.3297614457667,2037.8441213606832,-176.1263080498049
1.42,-17.670187539942024,-7.312492767389332,73.78503936752922,-31.277908568774397,211.63188472694108,-73.99239428092899,350.66495332607406,266.3294548754247,-1404.9892848524755,-539.0116032914478,2020.8512726674667,-357.632247368332
1.43,-15.576719361941008,-7.942365977561082,77.51105907686961,-28.864261661880757,196.23820174440408,-79.27357800553358,371.05215307901307,258.9159768656196,-1517.9821596279025,-563.6157583207382,1973.9596797986792,-522.9580513148668
1.44,-13.578843427033167,-8.742321664861928,81.18443029432642,-26.681970173216715,180.22603785269524,-84.97955053000838,390.7568004721178,250.14276098883013,-1608.2394181632133,-578.9929538649754,1895.808491310781,-670.9654517682922
1.45,-11.953682459313063,-9.377201607870987,85.46265214290862,-24.191169279393307,163.06082521604898,-90.89335450745847,409.1667854710971,240.14497575958487,-1674.0415057303126,-583.0530603655023,1785.717100853836,-800.8670128734673
1.46,-10.50869896127139,-10.208859445706526,89.66564631863962,-22.268836000610417,145.58832561950152,-97.08386525773454,426.4515538228591,229.93437471793774,-1714.6479072249515,-574.8961100510816,1643.5180359084432,-912.6985589464895
1.47,-8.97490352000741,-11.175598771904921,94.07706651560137,-20.26106220917181,128.08325214511146,-103.26308190223723,442.0027990153956,219.11786488930255,-1729.4199130209895,-553.4949434752634,1469.5047456213883,-1006.8215446850355
1.48,-7.776382013245595,-12.25817228280404,98.43368299504812,-18.65901213094439,110.18995559410607,-109.50865309083113,455.84476051237175,207.97681045533733,-1717.7305600965726,-517.9857018165523,1264.0987753686368,-1083.5065171986819
1.49,-6.795053976261384,-13.14942195530532,103.06931057843622,-16.811179302101422,92.79913079150951,-115.08097078513079,467.17281049642963,196.44865430935002,-1680.3785793738448,-467.54733743683164,1029.545646958274,-1143.9219336407753
1.5,-5.9662166781305945,-14.378402816569524,107.9271900382885,-15.326585320668471,76.08806478188828,-119.87510210922746,475.8951257018213,185.26713745078612,-1617.3918584336236,-402.54068176274313,767.5218839618722,-1189.841967043037
1.51,-5.417436804272648,-15.529935285516137,112.62533101283573,-13.651564039225171,60.13328884582885,-124.3273664932317,481.65108105657,174.27451727283048,-1530.238265663527,-322.63181093227564,480.50659725101843,-1222.0498893436798
1.52,-4.951584605035035,-16.68357797492209,117.38318974290239,-12.234082315930854,45.13656219054289,-128.35859234948882,484.2679915502224,163.23776112642526,-1420.048359337297,-229.23854921906968,171.8354112429809,-1242.690793413039
1.53,-4.688205108057863,-18.141703839406787,122.19109846539308,-10.848831533581551,31.585725087420464,-130.83787246016703,483.63106868752067,152.8596532866225,-1288.590330921373,-122.37124076974574,-154.69052351809069,-1252.9542022881851
1.54,-4.511147499682986,-18.66536017023437,124.71070217575047,-10.158489891994385,25.638820100472135,-131.80992891315194,481.79937262491273,147.60923800531614,-1213.3964862272978,-63.14422055387492,-325.21032738967966,-1253.7573161415985
1.55,-4.4205924467137905,-19.236282112676804,127.19676861159572,-9.616188779865348,19.713188070587506,-132.51074208635626,479.4614707436019,142.55132002176376,-1138.0458601027806,-3.8981324953360543,-495.68219512404335,-1254.6793348283945
1.56,-4.37199140332461,-20.637280631487027,131.9168297131723,-8.523073253066805,9.27348880242572,-132.56333767720042,471.7910556815039,132.47166245827924,-970.9292252137891,124.79352338903034,-846.2721605023199,-1249.2017120519836
1.57,-4.4750004460650725,-21.975874253283152,136.36919830583722,-6.990266094213538,0.9306636216145471,-131.22317620239934,460.50456770127636,122.78164993145363,-789.9111024620184,261.70724918914993,-1201.8924799805848,-1238.6556170494132
1.58,-4.838737204059713,-23.221973094392546,141.10658882194727,-6.033363200253261,-5.479756255079374,-128.32472799364675,445.37047656567546,113.02865461206831,-598.3273906247216,404.86261438246464,-1557.9425964123932,-1223.6548226713446
1.59,-4.928771901486213,-24.739084145208473,145.24096071424432,-4.8166739968982215,-9.801783087303724,-123.78421165290686,426.58018027845685,103.69847650342396,-398.8345478936038,551.5372112720527,-1909.1567173019607,-1205.422480855657
1.6,-4.92711286210563,-25.894013486598467,149.66337661043693,-3.9632969469987804,-12.053404504691269,-117.69981142816832,404.1036799194425,94.29728565782663,-194.8816838778679,699.124531904939,-2251.009464919524,-1184.8907949109641
1.61,-5.10842603642088,-27.11019734367719,153.5621614498731,-3.0049576187303346,-12.134985898186336,-109.65745168191692,378.289461952307,84.89229845745623,10.198015488833818,844.831189650137,-2578.0380117326145,-1162.4429024009671
1.62,-5.499193828324099,-28.39195956883184,157.24552962167306,-2.0172344648898353,-10.104270846549278,-100.18001529666076,348.79555154163756,75.48787555182548,212.8474833239142,985.8735204646415,-2885.881526716267,-1138.7798996755396
1.63,-5.546818375211523,-29.681359606999855,160.43796358870307,-0.980562027762669,-5.518207850553511,-88.88739709210212,316.75889291512726,65.94160842517434,410.15718698866607,1119.7805004778386,-3169.7069412239407,-1113.3432020588361
1.64,-5.631770449049131,-30.260527687418094,163.49935274644815,-0.3283803556042638,0.7501802691807197,-76.11062488537394,281.7487803318484,56.26216903683197,598.7543192628303,1243.4298773910948,-3426.103102318651,-1086.4636569187005
1.65,-5.63660552929976,-31.200094096810822,165.91961024280016,0.488456346053201,8.79240412768976,-62.08037361013879,244.37236496624806,46.439085622876206,775.590528209002,1354.1459277142671,-3650.5575732479697,-1057.4820139861024
1.66,-5.826711794379054,-31.690063599137353,168.296977553758,0.9713488031849147,18.690069352107955,-46.74437718672961,205.01717229982032,36.304273263369495,937.8585078254827,1449.7041175949496,-3839.8379454091782,-1026.1136363647938
1.67,-5.470692196419657,-32.276023288703875,169.75903891930213,1.5470860911266187,30.219104351378093,-30.309846630981056,163.94697664450982,26.418497517307955,1083.2749459988845,1527.859043944374,-3991.6928091631366,-991.6477813536266
1.68,-4.957774565250047,-32.53098637340778,171.11328737312004,1.9972901231539475,42.98399208412618,-13.442750081118083,121.57909650636121,16.04634940329604,1209.146886814519,1586.9217075139256,-4103.61097320663,-953.4606661891794
1.69,-4.54181562174915,-32.630767515570504,171.9644695006337,2.3412725227743287,56.97734353097213,4.349573091170237,78.49010551087942,5.845421016854359,1314.3327164112911,1625.0067724911364,-4174.294239064146,-910.4182777335755
1.7,-3.567681996446268,-32.31466690895241,172.29620137676028,2.436899649431467,71.91240097416429,22.317491921744118,35.20232839669017,-3.9231694667865393,1397.1211802538435,1641.6519596851294,-4202.764591539242,-862.0802635893364
1.71,-3.224603860113239,-32.20641667146824,172.14744516653454,2.703682540587673,79.66659745791141,31.16555779159486,13.348403158317081,-8.956743874724767,1426.4314498572292,1638.532870475801,-4195.671865984473,-835.1022785062017
1.72,-2.8728960687441005,-32.010867074572104,172.1949151224811,2.43736578957526,87.13845888440632,40.27975173354288,-8.030411309276243,-13.885289927740969,1455.8690592155003,1635.423370994368,-4189.095602517099,-808.2617317273782
1.73,-1.584140304801389,-31.553266569910733,171.77006761207065,2.4456395039305954,102.83330721536332,57.703621315394194,-50.57045659069009,-23.47547568613988,1490.7960442203685,1606.7931937931412,-4133.424854897576,-747.5678984628147
1.74,-0.48495465123530923,-30.67525194075693,170.5874734188157,2.244420056659852,118.8396968556267,74.95044764589984,-92.25329625469011,-32.690527221875136,1501.1289902026729,1555.5202969035322,-4037.329730454175,-680.5985149635507
1.75,0.9078782536266998,-29.67967916730757,169.20977206930226,1.8586287134367478,134.28779993911365,91.21163210275034,-132.3554093795783,-40.94643390135423,1487.4415449702085,1482.5961062854337,-3902.080121881428,-606.7205609834352
1.76,2.5901447056980396,-28.565317505796763,167.4153173588634,1.1002773671739936,149.46962089086173,106.74911232803534,-170.4978160585814,-48.93043241819827,1450.0364082398262,1389.2234001805894,-3731.0979408959274,-526.1833226257212
1.77,4.336949255786678,-27.260108994755377,165.2635931891122,0.7737585497635076,163.90844646273544,120.68145203234454,-206.74683728429693,-55.55790632431814,1390.6626973716534,1276.8841416559433,-3526.8585507353596,-439.3332048922128
1.78,6.085806759637142,-25.579664096864228,162.49399693871882,-0.1815458943661321,177.51088353959557,132.95231324728226,-240.00094911928062,-61.11303724091514,1310.0663787878786,1147.5188503823715,-3292.616867049316,-346.89252417964366
1.79,7.9971619747052465,-24.138251456009264,159.6833603279174,-0.9579864846719537,190.07812063774244,143.9417968749784,-270.7503366219256,-65.86633562348803,1210.4687959788378,1003.7012361891315,-3032.326257664114,-250.07447582814456
1.8,10.16834887527617,-22.315909333822937,156.59159083002066,-1.8090634684577034,201.00678107375032,152.79924303128718,-298.4165605245906,-68.9910355763918,1093.6425971141027,847.7439593972076,-2750.6675444387956,-149.61219210689185
1.81,12.285865187042479,-20.531255503716054,153.42747362096574,-2.782887163473977,210.57785454506248,159.9137386334973,-322.7010411856546,-70.71511782158382,961.9338404798686,682.4156429326578,-2451.6331631274275,-46.94586170968354
1.82,14.653131476882331,-18.772207293674448,149.62823836739642,-4.016531111687649,218.8429868102356,164.9034119879693,-343.7497182770111,-71.10476961884773,817.9948601615415,511.1289723235441,-2139.9787154820256,55.98282063935343
1.83,16.856137124843894,-16.895134501289544,145.93891709569436,-4.740750062119807,225.1908871186869,167.74716394758906,-361.461283522127,-70.06885812356776,664.7233481078321,336.999943287791,-1821.07283698375,157.96724871344438
1.84,19.165258313008135,-14.949777864985455,142.16419115315637,-5.705833268249955,229.8604482594092,168.6984699986806,-375.73459976314683,-67.74069609437305,504.70378354506875,162.7065295200901,-1498.8750944413941,256.7578876323042
1.85,21.624411183932505,-13.044956380871064,138.15644655437356,-6.602739020948975,232.84942569091714,167.7254044645196,-386.83051206098264,-63.84558050843905,340.8958681233617,-8.24146507710231,-1178.5842501753948,350.84573748346617
1.86,24.05739694672969,-11.337266203773238,134.19190352136798,-7.590892689964382,234.16930151288594,164.7843743832249,-394.1529003757012,-58.83904816318929,176.3370272592904,-172.8279891947938,-864.3863425992087,438.0867872126161
1.87,26.42016406088095,-9.803497514521673,130.24700034733243,-8.323606262935106,233.54960522132947,160.2284569885961,-398.6911251624702,-52.71087694842183,13.203301858987572,-327.9138110800223,-560.7480965246176,516.6675180418348
1.88,27.449702782613222,-8.84450300751705,128.21182564292863,-8.47745542987742,232.66323235129903,157.333804045173,-399.5709273205156,-48.99060537063721,-65.99671646527179,-399.89264082151215,-416.260208387379,550.774773947363
1.89,28.638390575162965,-8.112572959773255,126.10936767711294,-8.91733805393151,231.55023797747063,154.2247373705878,-399.70688289484247,-45.45170556296525,-144.80127527225923,-471.5630662583097,-271.650686328867,584.8617829665152
1.9,30.992106169231686,-6.545435366833546,122.06296953145184,-9.122178644195323,227.85419796149407,146.66250351928196,-398.7954653752662,-37.26389825999096,-296.3600134815342,-601.1523515028349,-0.2904629539853016,641.2618951640534
1.91,33.19280959076007,-5.5356218718354535,118.18564883150053,-9.930211084384469,222.60585528605117,138.07096679293846,-394.93727953229774,-28.381453342964964,-437.8573870975771,-714.232250834957,249.89018000008934,684.8092961492897
1.92,35.27487766194636,-4.22406540806644,114.42158182090759,-9.86726076074356,216.29133261873395,128.31634542129797,-388.74927974508375,-19.25870648532011,-568.4859822472522,-809.8843293036597,476.8635368983354,713.9705362791225
1.93,37.45994581790699,-2.9954784657423597,110.7165412715912,-10.076172857959516,208.75539334721353,118.03555827224106,-380.8405928414124,-9.750716514671597,-685.5995020096749,-886.755984628851,678.0763182864979,728.3715193393932
1.94,39.2251537555945,-2.2372839859682365,107.09843825097481,-9.916721931813314,200.253218417925,107.26412966676038,-371.121503146684,-0.5507633317957986,-787.8021077939752,-943.7523557957732,852.1644998523515,727.4615121109725
1.95,41.07826061930305,-1.0766952823670208,103.46369386641118,-9.674604239849836,190.97752913269207,96.2731608872411,-359.95084971436285,8.616238271448381,-873.7726333248189,-980.6428356525747,998.4452328469665,711.4753162981903
1.96,42.75063457737016,-0.5104451530078521,100.20737880436751,-9.282960675271788,181.11189104954482,85.41516660369929,-348.0478979876897,17.355736792367004,-943.1546635243772,-997.4065674910418,1116.1551603191301,680.116902586133
1.97,44.582226457288165,-0.06973958526579606,96.88981027071472,-8.818300936613625,170.53023374571964,74.85685817515545,-335.48143716702384,25.568772935567015,-995.0548362159545,-994.7956493969907,1205.6732867824492,634.8464579891174
1.98,46.08912349138805,0.4565397919879677,93.80593576557064,-8.25184988122895,160.15357600000422,64.63126418622804,-322.23566628522485,32.668273307038525,-1029.7396210252118,-973.4434093714818,1267.8778140208512,576.1720395996084
1.99,47.591035007304804,0.9345877432558631,90.90391826698595,-7.568302327892931,149.1521616642915,54.762078921436995,-308.85878627548425,38.74848160681381,-1046.3891475682324,-934.679174197801,1302.9614658760534,505.68146230253666
2.0,49.14235506712037,0.8846533699372265,87.79537940724491,-6.855963533072025,138.769504459398,46.02806762098966,-295.59736016278976,43.84973114181959,-1046.1296037411432,-879.9321972139103,1313.4609201764943,424.4720954652067
2.01,50.11287630325957,1.2443879098368487,85.08825254618624,-6.107730717462898,128.4846918981205,38.06007341890585,-282.51985060742305,47.52167618145706,-1029.8566159138843,-811.2867704141097,1300.8495185362426,335.1764933841665
2.02,51.288320116676076,1.652533491214284,82.64044201858198,-5.498461900026163,118.46845022320872,31.232452781090924,-270.55114335734106,49.99418451260445,-998.3237199596771,-730.7350999841302,1267.696741080955,239.45960859557098
2.03,52.225381813932685,1.8234535729734442,80.11892390429831,-4.856836265873742,109.13741750745693,25.444332886464167,-258.85617200567555,51.22089739625243,-952.479633430749,-640.0960832104897,1215.965596132017,139.20364184401885
2.04,53.57036546033161,1.8340576913906956,77.88953438606491,-4.2090552029805,100.51166799436695,20.87822866888088,-248.16231876012037,50.634591743304036,-894.3829441440954,-542.4761898551787,1149.07333263183,37.25584218565793
2.05,53.80684828055692,1.8724085043801735,76.69688048019768,-3.938708416178912,96.57884294304907,19.18956244558228,-243.17295641359726,49.996377267936715,-860.0470499846464,-490.97632079806095,1109.0689751298291,-13.323238651459045
2.06,54.3187990430589,1.8910779318640873,75.30888765202256,-3.4401628288438797,92.6424146262715,17.446845851703962,-238.05789174546032,49.07097019204552,-825.6058853159541,-439.5009646867902,1068.9422532084207,-64.25877597390522
2.07,55.16035511694377,2.2559931658487877,73.18235365559006,-3.164029390830992,85.32058163776199,15.262874443084412,-229.31405021179563,46.472814384929194,-747.47589241766,-334.3753636919665,979.3284896281947,-163.15554467077447
2.08,55.89360976763168,2.2804519461530206,70.83321647562835,-2.4368255447316054,79.10489998322954,14.045598368844903,-221.57366473423482,42.22284919354426,-662.2155996478391,-228.61367488236024,882.5276378488458,-257.2086391962673
2.09,56.5165912350544,2.6297133622778315,68.67000143922336,-2.1525860272451833,73.79681660931651,14.030536692946047,-214.85021300525366,37.17550462482371,-571.6252458465458,-125.12411131810535,781.5286303012792,-344.3405283300975
2.1,57.30991007487476,2.847202706455185,66.69451385762791,-1.7460979334533566,69.54549942833691,14.765372756890354,-209.16323764085465,31.167224352698256,-477.6640852964306,-25.950999080096835,679.2145676504517,-422.8678252871606
2.11,58.03021335450143,3.056647909396192,64.73624706635297,-1.8641672043548223,66.07826088856844,16.59419275099926,-204.45161199306477,24.669071993224065,-382.3638407922521,67.03023245340887,577.6654910579352,-490.97922725886303
2.12,58.71666011794765,3.38066725640286,62.524519790975965,-1.7422199543194095,63.766798123826966,19.148409215149307,-200.69620517240148,17.377682383519726,-287.4802905206313,152.42177407276947,479.9163532253871,-547.4258165441231
2.13,59.40090181829603,3.7130708818744593,60.46695086582273,-1.5835668548402313,62.071959247886014,22.250311547858377,-197.72150346922118,9.770273550000663,-194.97652586157218,228.40926817961355,387.39371245129666,-591.1150134086574
2.14,59.942184064290025,3.8239004404854806,58.545999915326185,-1.8056284470162725,61.20834453622449,25.901418255438394,-195.62452747141404,2.2250444790751778,-106.21919861174013,293.97685658274924,302.03450544880076,-621.7934381719485
2.15,60.601050885025614,4.343666547534876,56.293834173287266,-2.2450684603190902,61.56516663040519,30.12483003585759,-194.12398406621537,-5.628251929609541,-22.653448303727604,348.03151726444827,225.63251491633082,-638.6896917696384
2.16,61.16786343668028,4.802559257562406,54.40110821462969,-2.341108755803845,62.32876540852608,34.264915024449465,-193.1719257950461,-13.265521045464636,54.00464852215172,389.94521836908694,158.9792581775031,-641.6369800920234
2.17,61.935522635731004,5.508114834278798,52.434726324810235,-2.8379678271575974,63.87328180164518,38.92936226206248,-192.09093371381482,-20.382443763184067,122.61359083539378,419.8102498615531,103.05717447168185,-631.1983958471856
2.18,62.819175841813546,5.825617349777094,50.41019780158499,-3.280165805581021,65.75487645944632,43.30140930303855,-192.25491620466505,-27.022786383720117,182.41886145691998,436.9782265241246,58.56931722104739,-608.4608414184947
2.19,63.2773459863668,6.439973834227967,48.23064282054913,-3.7955622070456436,68.15748729658162,47.45948180022298,-192.29293099184255,-33.06565198250156,232.434500079278,442.5515666668869,25.562278193642552,-573.8294707165048
2.2,63.89213455184773,7.074852541929566,46.632440161605885,-4.463748305234625,71.14239983262131,51.73305999451882,-191.9898654567731,-38.44144996829387,272.432949425475,436.30810876306424,4.278312049240644,-528.5632866910823
2.21,64.76329754311172,7.521218279979673,44.57420208099531,-4.643357167242281,74.33724010075007,55.40512770321153,-191.6219780649082,-42.71839903973396,301.77508171658934,419.1167176680086,-5.8658142745545065,-473.94864922093456
2.22,65.08822864758494,7.921965265105813,43.49184739426146,-5.017626144710634,75.92037230190672,57.42210154439869,-191.59088154181836,-44.58532670660885,311.2632736443683,405.4745494084939,-5.634267774386467,-442.9880692268768
2.23,65.59746338257835,8.038296764968353,42.563350323202584,-5.320838231800042,77.31900335809254,58.968461401525765,-191.4671874177092,-46.34266212658781,320.56441724920666,392.1559693716801,-5.613673107025793,-411.9707761196721
2.24,66.32390598795253,8.780551611497817,40.40823080046998,-5.915119504156017,80.63145911696137,62.23313145621241,-191.16156454800802,-49.324676152994265,328.7867439592323,356.3499919476572,4.964938268941262,-343.9597268689923
2.25,67.1418429084293,9.554806728175503,38.58886420581763,-5.933686102451341,83.81668922469099,64.66918197924399,-190.17506433638212,-51.098763933005124,326.9696856165758,312.82299087697834,24.2672248123479,-271.7880317156297
2.26,67.94348728985449,10.126055572561713,36.772689957220344,-6.863917711822373,87.11535090267893,66.48166055276563,-188.77198949381804,-51.92450434876723,315.28705254306186,262.86095804146134,51.85988342372259,-197.39890200258463
2.27,68.9362155475277,10.654418061289073,34.70778918106662,-7.066835025880749,89.92987024814434,67.8557019298055,-187.24726523917403,-51.72594647409754,294.50857543310343,208.09379183495747,86.01238269238023,-122.37989854727857
2.28,69.85203979036143,11.286935024107818,32.842307526732874,-7.711051428599985,92.40531752486969,68.82358607487701,-185.3718879187324,-51.35410812111505,265.38005950338527,149.98388280957107,125.94591047992229,-48.906503098586704
2.29,70.89734682204363,11.778373982467395,30.974139339459004,-8.460117272777705,94.62760266001102,69.01660712490586,-182.87444623022728,-49.70761891625264,228.75175532476374,89.57641163213707,169.9068685738783,22.28962230922158
2.3,71.59745084540646,12.329166076106654,29.374859721381185,-8.531949785351616,96.07667677206112,68.79786774651919,-180.17459383840492,-47.47668882369251,185.90993367627414,28.468633219981008,217.06083989141572,88.85968499201992
2.31,72.64175878367425,13.29387313207045,27.467060488002133,-9.059104256770187,97.40835723616094,68.04466041628953,-176.7516688465635,-44.80001347068057,137.79040842841502,-31.995955848618816,265.7572241634398,149.90473562442648
2.32,73.74656466383834,13.819820865469003,25.884085999182126,-9.417624643976636,98.07373818801103,66.77188924884383,-172.9474758946308,-41.71719978897725,85.65097195902202,-90.59378813641501,315.3393069325631,204.29436336146082
2.33,74.73450856992139,14.39695707785479,24.35491578863768,-9.435767848534905,98.35170711025556,64.78775289855622,-168.48045739296273,-38.27964589447006,30.247621302253417,-146.2208745827841,364.43068957516726,250.94806690630188
2.34,75.73427718541717,15.040554778610835,22.829031366439093,-9.76784301795351,98.1064079001061,62.740677815923505,-164.13761742017408,-34.46341843544774,-26.66880939065256,-197.9106212833761,411.7134298715933,289.6122296670003
2.35,76.6585763080232,15.358717423363784,21.08801098793872,-10.042979725686187,96.97543481384544,59.9944818755255,-159.18878723454714,-30.63925706503039,-84.33792116003114,-244.7551833683087,456.71675284084574,319.59210654691464
2.36,77.44898122237917,16.072143230090827,19.69029391171842,-10.31888884905389,95.49073384193697,57.0966239534831,-153.65136133556177,-26.986631868193125,-141.20342392567397,-285.9760871907524,498.72158183694063,340.88799632440345
2.37,78.73667290257927,16.636119716812683,18.387686360637005,-10.504599785695637,93.3419922775367,53.67420611767152,-148.19869592503383,-23.124424882786002,-196.48785526860837,-321.20102037442604,537.0277442594517,353.36789602389797
2.38,79.27988483909019,17.267919007385974,17.01190169543049,-10.318769973340451,90.82271341227805,50.55373071434412,-142.45581919534303,-19.209550876833987,-249.27822632420646,-350.09147522736293,570.7622428964441,357.5479723898438
2.39,80.10449111077772,17.264464928942942,16.368354985446455,-10.457713677647442,89.09916196810748,48.677519449197945,-139.52184118126203,-17.611821114762506,-273.7681518575447,-360.844977150657,585.3441034261232,355.74825150855537
2.4,80.411275441986,17.454822359500074,15.643422562086675,-10.721984666996814,87.72325197559029,46.75113690965452,-136.51160317248926,-15.968558690000444,-298.2059881393789,-372.1649643679341,599.9607005732875,353.8716602628816
2.41,81.34125229670693,18.25784139612925,14.230661246317695,-10.681915970304015,84.07916825679375,42.969879105010904,-130.57828320000905,-12.705004272797238,-342.96898175598955,-387.3633105715697,624.439639453757,342.8277851210435
2.42,81.94498509628919,18.658417447712935,13.21375477066323,-10.97553138568464,80.258497499967,39.2828213166433,-124.14663252694646,-9.992862926875285,-382.34638905923373,-395.807905997696,643.4407053951887,325.1380854591248
2.43,82.81435620636276,18.880692237028157,11.846689929131083,-10.80874856656072,75.6734626895657,35.5124325035334,-117.95979194751592,-7.425063129215664,-416.3561477249442,-397.6580605863421,657.3968757513319,302.2577524620994
2.44,83.43419137082427,19.168672382320526,10.87038741013392,-10.853912561571079,71.30214915131528,31.940474657799488,-111.79059880976273,-5.325067284625537,-443.97116787206954,-393.6407299572399,666.6919086076292,274.85460286635697
2.45,84.314502270722,19.44380376169837,9.807927476362837,-11.148769732268782,66.4247055059235,28.2726816204621,-105.52447534872101,-3.576794195068762,-465.2788284958798,-383.6854698777732,670.879699631316,243.89990407690732
2.46,84.67337426578806,19.890494160411958,8.791476628777133,-10.953900056465018,61.78296952462801,24.824500874038964,-99.43312021266946,-2.3418582252811433,-480.1077083310231,-368.28081290151994,670.4449303815695,210.50332101981977
2.47,85.42580432310561,20.068857205140294,7.763065742602296,-11.03511192252921,56.51131239762941,21.51555582658164,-93.05161774436473,-1.5318053797282434,-487.95932358298785,-348.6188402142394,666.0643307382143,176.19242134795167
2.48,85.83944344414776,20.20867889249044,6.934505455833288,-11.107634376745645,51.66324521234675,18.570434515786186,-87.01168645270775,-0.692945942962355,-489.36375249452135,-324.5485710559605,657.4798037382044,141.54432121752475
2.49,86.44795529376918,20.415302248492853,6.228615967787573,-10.983033975483057,46.894926341594825,15.720092714295555,-80.98092307542944,-0.5929815338260509,-484.5363403537065,-297.6872935895107,645.4568098712875,107.25889632943641
2.5,87.0491638313062,20.6264800932964,5.270983613765992,-11.10728642067564,41.87548631287751,13.119112189569725,-75.22724833583283,-0.7271435708268088,-473.2847455006292,-267.92648426025903,630.1319091075426,75.10445434197919
2.51,87.16329602652169,20.65028163075019,4.581877983754981,-11.163089790005188,37.41415116619513,10.926752349107835,-69.3934489580239,-0.7356039988532657,-456.75578558041104,-236.44011099025317,612.1457750927179,44.9426961674752
2.52,87.4233702169389,20.728991838910503,3.953843313667179,-11.361733793014125,33.08849125885868,8.796225184613803,-63.646423833188585,-1.1323411385510818,-435.0177959684615,-203.8229830069721,591.6724094780346,18.098550401946948
2.53,87.72927232169889,20.84193636484801,3.299522740376894,-11.41981973470116,28.820910304739293,7.286390523854289,-58.418378849376985,-1.6852739296798398,-408.63474466767735,-170.99888117831006,569.0985254920895,-5.516674614369969
2.54,87.88322575830652,20.852273160644092,2.6411383436781772,-11.281794819905585,25.328116683133736,6.011181089700425,-53.04994504067651,-2.495441222473728,-378.44724440583656,-138.45511872532865,545.0628905850266,-25.249934406762446
2.55,88.17882746976001,21.003971174166814,2.383184167808876,-11.45535378134155,21.86289418119041,4.999053444470647,-47.7919579881139,-2.7443407524139842,-345.1102491029635,-106.84000663879834,519.4211418861963,-40.38390444968404
2.56,88.19683100684126,20.866519214863093,2.103698160346929,-11.66949415177568,20.211857330381722,4.425796888126242,-45.48713207535999,-3.233439508694274,-327.3592384790164,-91.72585971514523,506.31194283927306,-45.79552175618924
2.57,88.4419076107971,20.987708105402056,1.830717452996266,-11.51404076082729,18.778116900886715,4.238993602489479,-42.871116644183594,-3.4281984419210354,-309.4230261086414,-76.54467421634595,492.9600100902618,-51.29049528571583
2.58,88.29130415881745,20.848889310770147,1.5944837569143162,-11.577159940322016,16.058423035208126,3.7886366988960147,-38.01969156991429,-4.037093854475105,-271.93347070686326,-48.323678122472906,465.9382268991768,-58.084648103986865
2.59,88.59803236775028,20.896220875433627,0.8272348411548384,-11.830977519398106,13.99730274457854,3.547108153178104,-33.83474409665559,-4.887493791148331,-233.37082626739235,-22.702365641554202,438.30559201899564,-61.11897524120589
2.6,88.7376337475532,21.01505113887721,0.7914640979257281,-11.83165972630012,11.957733546383377,3.630220025047685,-29.50990169210879,-5.085647536786438,-194.73803815858906,0.1466096883337379,410.28576292039446,-60.05328757129126
2.61,88.81812412657783,21.06040166109024,0.5465663642649845,-11.836930811459824,10.767299200362459,4.0230085163214175,-25.407685449205996,-5.309212231244903,-156.6717900071878,19.791146964502477,382.49804975452224,-55.60987149170902
2.62,88.63964138905199,20.851481403310153,0.07371835604693958,-11.998764246603592,9.64555025096837,4.177562513069194,-21.567362794157862,-5.695459707063954,-119.31305646504069,36.259523555132326,354.7304348076123,-48.02921939526115
2.63,88.86953325054016,21.14633592476436,0.01792538229401336,-11.850487550584894,8.900776786799966,4.684856854271591,-18.319805790439087,-5.338202224435058,-84.0201441802836,49.40385889830618,327.372783088055,-38.03298251650648
2.64,88.9288741722155,21.21844618351685,-0.22285656575401544,-12.081625591730145,8.66499985773706,5.218398518793076,-14.780006145507652,-5.3309754342354685,-50.99360021004657,58.94097801809074,300.07944133384984,-26.245757097164617
2.65,89.06020017291884,21.15556262376738,-0.20663570176159618,-12.148213682398087,8.442921826098589,5.946290335978377,-11.875613688447883,-4.873036714574816,-20.497654940362196,64.97962120787841,273.55300099569234,-12.862797276158838
2.66,89.31959528447057,21.12794440943626,-0.36216934693251124,-12.082262103574056,8.88524157159992,6.745359314709976,-9.108457032968934,-4.363073945191401,6.632310756809702,67.79719934632418,247.37992468968704,1.3367340547735422
2.67,89.30296415262092,21.37832041656465,-0.19663582435181465,-12.005884929843756,9.227832939953437,7.213393782775049,-6.799496582424888,-3.8531492885268754,30.414159267939095,67.41507874009997,222.0914247740173,15.709258251318944
2.68,89.4317009812162,21.284122469560497,-0.3260156987056199,-11.972979200435782,9.610553221377511,8.101983242428192,-4.381016056529495,-3.033664905383643,50.83460265402873,64.21592276214106,197.9533617052942,29.84488671917293
2.69,89.43792952207299,21.62031017802441,-0.380936558890305,-12.391743986437504,10.610328858796091,8.559397566856283,-2.5139282842752095,-2.1266423869722635,67.00838362615357,58.51768236632966,174.18366454512426,43.44653070702715
2.7,89.626470032134,21.671037006892576,-0.12012101095719252,-12.071547793500645,11.542529262242988,9.375237937694028,-0.9143266690700587,-1.0721922184589252,79.54824129295002,50.29478011767947,151.49509142974065,55.907332067728156
2.71,89.81878490996148,21.77986615547417,-0.1710527441444632,-12.052430371940694,12.591034962516229,9.778701179186895,0.638434425100073,-0.30513811521852907,88.48082302922896,40.048243535515,129.73341512245884,66.61560679881156
2.72,90.04643859060465,21.96221323507292,-0.32717641610773507,-12.070076954318392,13.648571360753046,9.988205582050817,1.87472189250431,0.817480587226746,93.10101669858419,28.308559854895442,109.22332792048934,75.52036969711061
2.73,89.9183489010379,22.034140576157228,-0.2507281054903307,-11.920716803767151,14.072085991558728,10.034473923905155,2.1849031568529877,1.4942398386572178,94.04064132442873,21.886808704762046,99.48808922510247,78.81167847886897
2.74,89.9714653577631,22.252012032113946,-0.1901489057436855,-12.00183119200819,14.516820701041578,10.198592755556307,2.6071912152991357,1.8421820037000902,94.93193320105799,15.512993475609699,89.73738998371125,82.30647222786038
2.75,90.15477713274727,22.08593044412518,-0.27744997556668227,-11.887848084991779,15.339212060955461,10.014277425705792,3.4145205870668622,2.9704240242936137,93.00501373487978,1.7500716651190802,71.56403660932827,87.11722737745791
2.76,90.47732830108406,22.215152800387816,-0.05499044362282803,-12.01662460323247,16.501560839575568,9.866587187661716,3.7485192050774963,3.9621328394700113,88.13118002956624,-12.23576003620048,54.506487448977865,89.77875424263613
2.77,90.66540196059955,22.366073173136012,-0.02587432666363425,-11.843510106416517,17.25564748891382,9.456940922807995,4.12673633501486,4.6865615519645045,80.59368911452461,-26.476960891125128,38.80237570305254,89.84537746546718
2.78,91.02923013510893,22.477328149392445,-0.11811185439960292,-11.806073795753592,17.81829820169373,9.110166541684464,4.18742316755665,5.542156032056917,71.01982133167719,-40.3733944773482,24.477477631868346,87.89259375756258
2.79,90.97596189900803,22.440059896241042,-0.05707356829083283,-11.768301105573498,18.298640733393665,8.196133016401655,4.295510490212465,6.583051365606629,59.070244015791026,-53.51397023682541,11.51050669085234,83.91655430126828
2.8,91.37666063830575,22.846321480515243,0.12479784018080153,-11.533506257690314,18.70379236408498,7.4691199736141405,4.089293740357945,7.054483990193384,46.19589026482415,-65.53264732098815,0.06555082501953018,78.16676483750564
2.81,91.37954367024491,22.652329298060906,0.2527458478439944,-11.448307673056677,18.807960973999684,6.786096925299037,3.6332129864369667,7.59186591769408,31.926552392339904,-76.73954677829563,-9.847730591749746,70.53509092611765
2.82,91.47974136473402,22.79535559958999,0.10553239921542112,-11.481400680530072,18.979490728763803,5.691575997023106,3.4246242467809744,7.801831900739928,17.175986713606314,-86.33736327000534,-18.493193223572895,61.81928002799915
2.83,91.99192890365987,22.804392953379736,0.10652137098576826,-11.293208448473006,18.746064551686043,4.582797841544455,3.196355846654915,8.294603209826029,2.23245455584272,-94.17441929520967,-25.659182295730393,51.91951477050498
2.84,92.00103418302582,22.745142194076674,0.057507931221562225,-11.407069113082027,18.52108044290497,3.243697434161915,2.4404697267007878,8.504081936412001,-12.472902943940543,-100.39347186291056,-31.33637624692307,41.2696114221077
2.85,92.29030234206684,23.10052468562891,0.34256474347718163,-11.279197516106368,18.157049688350597,2.0314072609602722,1.9710644837578548,8.27671314131485,-26.98070655369702,-104.78696221402258,-35.86050356429921,30.083213200519644
2.86,92.25589689553573,22.8614186655853,0.1633072394820373,-11.238970120062762,17.68530508601609,1.0446731810927867,1.5637077342239234,8.429404549069526,-40.28566147348329,-107.61833204881833,-39.07552641420535,18.76982151416093
2.87,92.32081753917933,22.719863015424536,0.16386040473514255,-11.100748477788366,17.012121051026792,-0.2918393693319388,1.0091805299626377,7.879750628607185,-53.0053897692099,-108.49087200190539,-40.94489433087558,7.587785154337746
2.88,92.68728389877653,22.85125718379981,0.20455255225910818,-11.09959404132392,16.081288843622772,-1.3086122031193548,0.5521206155773896,7.763054554652622,-64.18181233214771,-107.73531280626267,-41.87743377004509,-3.1826191000827424
2.89,92.80075293444997,22.851112143916744,0.2305702181636261,-11.03076295444959,15.005005276289483,-2.4952874977899766,-0.01888743708462927,7.278243229004257,-74.30901308505365,-105.51819058505136,-41.92938813518851,-13.512702361000557
2.9,92.828595182722,22.653133204238994,0.06307386734910653,-10.71980061145988,14.633797242845716,-2.828949487000798,-0.07567660936624632,7.068417070304051,-78.38949668379303,-103.41515550516813,-41.36070264642112,-18.378760729337863
2.91,92.83153101256039,22.647640151067655,0.3216637101635954,-10.832086790131882,14.157845866760871,-3.5469412120481625,-0.4276589292206343,6.727854628988743,-82.6078512444177,-101.8148978746449,-40.75281932304088,-23.20036340595818
2.92,92.82530207258222,22.831464899434597,0.1356086428599812,-10.784421301938055,13.255002481454392,-4.446823859334521,-0.6951693353543797,6.216709600315166,-89.35239629929335,-96.53037933804806,-38.70348935297585,-31.743340108090845
2.93,93.16393629451893,22.352488858970155,0.04952408863023097,-10.855484460601923,12.077475109607674,-5.259266070493697,-1.01897300655926,5.724585127289287,-94.50342355637014,-90.42597208782418,-36.46001669306979,-39.13173088522343
2.94,93.18681512545203,22.365842228122407,0.11797392100799353,-10.779047743668986,10.88912856076946,-6.097352732642244,-1.2598432387199465,5.156463880942675,-98.23651094122197,-83.05441951891281,-33.40231151013829,-45.63079446476083
2.95,93.3740922113375,22.156423418360596,0.298802177356198,-10.659231775018638,10.054125008767043,-6.671716705089685,-1.3712533153064246,4.515679688626573,-100.50446376299563,-75.28665626936863,-29.706109041237326,-50.932482503465984
2.96,93.3578344145415,22.33281364777063,0.10706856536539833,-10.736066249066289,9.070940725129239,-7.415968302093775,-1.6994974600021968,3.9453144112835505,-101.3412962582304,-66.85135321951326,-26.083191929391607,-55.45277339876931
2.97,93.52030439509248,22.35899607614912,0.17856558089694438,-10.647805928314048,7.919380537330735,-7.776363931021,-1.8458575850196228,3.2607426387815823,-101.14694437385252,-58.12202329655972,-22.00987009321922,-58.69170908955059
2.98,93.44895827142317,22.020934558306585,0.03557617701888229,-10.544073365989254,6.640702129538854,-7.922980823986114,-1.7866414699774489,2.669172603690677,-99.48743421185307,-49.081152137848875,-17.83596389564936,-60.83172412739252
2.99,93.69469379223189,22.21766873324343,0.1769273429501058,-10.57807210342826,5.687491173003938,-8.32263754584619,-1.825898498280224,2.2355097110883904,-97.27908560293177,-40.455465371640244,-13.872520626974252,-61.81335508528833
3.0,93.49990937763411,21.867748655665086,0.06786134382643134,-10.748778595052716,4.8058735846891345,-8.232333147790584,-1.7702321079572505,1.7677451847591372,-94.23025222200884,-31.779993176619293,-9.803291604930747,-62.274434684689425
3.01,93.7439416320132,21.9824362153854,-0.08854618682387916,-10.5934712332368,4.251624726954346,-8.454959355844984,-1.8795084523745709,1.0980607114912173,-90.69589029529557,-23.586499315710046,-6.085312666015241,-62.129797062317955
3.02,93.63432854036205,21.789417706367153,0.09378315265713069,-10.712822790751744,3.334037867218849,-8.650283160357162,-1.775028075446515,0.5356947501156621,-86.68069953341417,-15.688911466905953,-2.3982496581142696,-61.39696293369238
3.03,93.72975462674071,21.74391697669654,-0.04273106214837351,-10.646602349124034,2.8027417886460175,-8.248701499140465,-1.6300813259419338,0.4261380223531421,-82.74676392691798,-8.375113508314515,1.1425495523812055,-60.246802925776095
3.04,93.75838669798144,21.57803415987833,0.006944747941173723,-10.610124005028675,2.079119354106039,-8.3162442867958,-1.5782442041242657,-0.13679150704954623,-78.69310925559715,-2.039053234945064,4.151273010432938,-58.57739346336701
3.05,93.9784305472376,21.458480045874214,-0.159369278567662,-10.55023788518247,1.7521198594425977,-8.332503422674222,-1.3830823297681336,-0.46108272111143944,-74.5373883997157,3.81457321995473,6.793236466563221,-56.85252906171553
3.06,93.94254297380277,21.30438336646589,-0.1954191135565048,-10.363080771630228,1.2825049628922869,-8.170946873023043,-1.3358717160187377,-0.821376702715477,-70.80496429265979,8.949916296731436,8.900717274503817,-55.290776209729145
