0.01,-7.620331425694147,70.49879006993257,161.50782108095115,0.13994566204865128,-0.11705261603519927,0.18773401781794258,-0.04427916237025838,0.17758541843342207,0.008910276258454466,-0.41916706261494685,-0.3074833490732172,0.8009604227628075,-0.5565840745578992,0.013375308997443228,-187.11009850542584,83.9030112423202,5.3823158249207825,-0.036712863598648275,0.14831850614978515,-0.11793138989902625,0.0582129333869072,0.1424424672882137,0.21765990087669448,0.6107534389631416,0.4644830360453652,-0.59907564571939,0.5616063982679247,0.06585619830032541,-181.09185477129898,0.8871981829341635,10.008943680475697,0.024427268560738395,-0.17514575386861075,-0.04882274483342429,0.2919069436690912,0.026907052184409384,0.09808412328378424,0.6838994186321974,0.589177078108684,0.4631035343551184,0.6072502367991047,-0.09570608990216709,-151.93647974704533,14.597935083133986,17.266217861862792,0.1539616355098773,-0.1639539918242062,-0.02257826132238437,0.12746675055158965,0.1743698981677649,0.012389268974785123,0.4246575868234075,0.5670906653209334,0.4695045450765829,0.5024183466924086
0.02,-7.728367277973149,70.58138595451412,161.3969024397497,0.24489387645106453,0.24716853634474706,-0.04557978700506035,-0.09013090785769418,0.006896634983341671,-0.06036484793573676,-0.3471282244901571,-0.4693015516048314,0.5514046879686548,-0.38075178809976973,-0.03482180493257196,-186.86237865788084,83.96347917187026,5.152533825345971,0.2083117336233209,0.2951522141085563,-0.06888862332353105,-0.006259925423762344,0.074230267818504,0.1516327814224873,0.7217845368897093,0.5128065933414571,-0.38897334162609065,0.4770813625506219,0.13705390816685903,-180.98865740779468,0.8815641840459891,10.164336536951211,0.10304349430403079,0.08736307374162582,-0.06476152292229818,-0.037715357244513255,-0.15684987233242284,-0.037588598495484876,0.5801381364146185,0.5065786515435997,0.5155653234813045,0.48491770369120607,-0.02902379547644136,-152.1783510722598,14.39697610921397,17.15387039600993,0.0294360735150003,-0.16656153597987697,0.06599843005859525,0.34043295920850397,-0.1390455640394616,0.055272359187811246,0.3352614829014575,0.44860958937966205,0.5825874461433447,0.5516590127285889
0.03,-7.861115515826764,70.36123188204954,161.06081966574044,0.1075271342726542,0.13806699878327355,0.26007854997970126,0.04923903656790643,-0.01733874080463159,0.17729375541258352,-0.3824018657804016,-0.48175355856719937,0.6763257270355484,-0.6511542591494027,0.05402860514039081,-186.95851962618366,83.94908811295048,5.220330269884565,-0.04113669030084379,-0.04381799896423294,-0.0684850366591189,0.07781542052273849,0.22456887182153393,0.10589734635543972,0.5480047857703986,0.6832259046481169,-0.44216482229228204,0.43404309821300496,0.023332211652522444,-181.1177057145027,0.7617499580997824,10.063918618686609,0.07473849148567736,-0.009657404203934213,-0.0322306096098094,0.04826855143585225,0.15551809743212183,0.00801371792136376,0.6490737047999848,0.4752233184217831,0.39227742744494754,0.3836201616606255,-0.09922847300783544,-151.95844637568,14.350557985479432,16.963116921275894,0.1352775558540381,0.260426617318689,-0.10543447383421306,0.3843935645848362,0.12036667621383651,0.06167288671281918,0.4356509214540651,0.7503595362493568,0.4521114905044412,0.49958550706312804
0.04,-7.766197008462895,70.61054865799022,161.04407507689743,0.08400654056924069,0.28439386904053987,0.13912565347597686,-0.0626590787808512,0.34282589328785174,0.1592864328950178,-0.46841975383511114,-0.4909831785343956,0.3813140273386637,-0.6159641782102833,0.036511478939474186,-187.27097116222214,83.91969068358198,5.264591815191648,-0.00611386745165139,-0.08421458891580166,-0.09660084484555671,0.24203058480859924,0.10161160700968641,0.22196934919169917,0.6244239239511069,0.4051958125617286,-0.5810108841195274,0.3953717883342623,0.006803067438988841,-180.9563920761822,0.9582678144076852,9.955894278014815,0.053394120918569515,0.025906018049032753,-0.061461473874358574,0.009400021276320489,0.1844371945986887,0.10312340489089662,0.46363896614369055,0.5243928177917277,0.6314946088593758,0.41024876868804505,-0.14414481063489235,-151.82967224491668,14.561251152867571,17.162211409690464,-0.02690816454392528,0.0855469355028993,0.16790414570854015,0.5504813674348239,0.061892241146010045,-0.08562778617040254,0.34053095403131195,0.5501286212090957,0.5386102210634628,0.5406763538837216
0.05,-7.7716556696237316,70.77523213958467,160.90479118103636,-0.030282621289819803,0.07453776583195554,-0.07104809988417234,-0.07200276910071154,0.08603647637386308,-0.08095768575446535,-0.5569885139407635,-0.5342062226363566,0.45394011787341365,-0.5488394579148105,0.06843916155460607,-187.08483131686782,83.89819211701504,5.169615172532679,0.15521845631457057,-0.011404548202723755,0.262633338553057,-0.0034821497086595377,0.08415351059213336,0.14865490098107098,0.6492093819756883,0.6102781829115145,-0.19198600643163827,0.5981799167582095,0.18703237518134014,-181.217229521375,0.8717815690462827,10.029834087606407,-0.15504624179702015,0.04950845311129145,-0.11782604757882828,0.16407797201616836,0.06505846279448173,0.12971184694481971,0.6087624697408366,0.5714275714683615,0.4903939250757022,0.5016182951815408,0.021943114569007733,-151.9890524251298,14.600112590926097,17.20142261601392,0.07677479234594126,-0.043317642431063286,0.09562364962926388,0.8201234196086477,0.10545370505413462,0.12775279053595257,0.4103154090077987,0.4230669404182049,0.7008322455383897,0.6613931436566625
0.06,-7.696237183971879,70.68217053623079,160.88150737203824,0.1059651681894915,0.047489877673964814,0.20085255535035132,0.2554444302365191,0.23695397360829162,0.213988702533425,-0.7091977028329866,-0.4601251994375426,0.6314226543903059,-0.4874800451366309,0.061355298591668446,-187.0048674914738,83.66549248598952,5.172093085368645,0.14010721148621325,0.01261200945491724,-0.07723245486043578,0.12311781626930905,-0.058565596817445706,0.40598219899864196,0.6432788339227754,0.5662312116243319,-0.39464705440284026,0.5423022103005842,0.060445301172912455,-181.17099190055202,0.8831064401179125,10.222158748974495,0.057414424782106135,-0.07199956131094477,-0.0650713471491276,0.0990723077287016,-0.14227193709890013,0.1369962688024879,0.7007702735255996,0.5478453873685987,0.5205015834426097,0.5244124291644404,-0.020939760270009433,-151.6320005708677,14.5410855656969,17.209540489238673,0.25190978336973163,-0.018889711763332716,0.39179219906028084,0.8417680016585191,0.3482125060057119,0.34832522719929726,0.5735338469796138,0.6846637500937587,0.4474790133709844,0.5828404493037158
0.07,-7.818514580634312,70.66455107424099,160.74881333746697,0.2769530749102715,-0.09989755550636122,0.08323034560638976,-0.0361482756829002,0.2638792303724369,0.15108336434401864,-0.36867132632383454,-0.5054634206425568,0.5834433718179285,-0.44430611386864144,-0.029884931250100652,-187.00902808157656,83.87213928043724,5.187629623431886,-0.056149181663943296,-0.010316854114217747,0.003632270127078549,0.1809478959441974,0.030013444594218314,-0.061901497052640295,0.50870320145022,0.43079208312760725,-0.4883164423317401,0.5379719796313027,0.09130352037338872,-181.31698507731366,0.9863565141457892,9.851081112530574,0.07992994728366593,0.04602016133927861,0.10530053526328445,0.06424167318365157,0.22155420422125308,0.25122729845990616,0.4805642073332475,0.4008778812057109,0.48229246890386995,0.3984724883808932,0.07956344743662896,-151.5788588411628,14.706746009980765,17.164858842729405,0.09434050162894324,-0.009878873721855856,0.2354400416418053,0.8776128611472782,0.6112858578231277,0.39096503541713695,0.5412635998347326,0.670822448707938,0.5531753609849157,0.5383204346348129
0.08,-7.903456615067516,70.46713224344371,160.52397007186437,-0.1697176375850145,-0.10620235670716618,-0.14369339731740152,0.014109379562120973,0.1668163437901895,-0.05720423540281057,-0.20826672476689173,-0.4442479367636932,0.6141454297265572,-0.4875428666366333,-0.09729935603865951,-187.04316328605327,83.97064814889093,5.2052202701914,0.057166528001863254,-0.010162907343622712,0.23813946644481457,0.26864871392944983,0.019804340042685043,0.3626872397852294,0.34688439839924634,0.4649556733111637,-0.6030900984843395,0.47767206962113273,0.26269409113292913,-181.32931936129998,0.8830112508833579,10.006612803982968,0.008272880609674746,-0.049102545606091265,0.005232356816595854,0.26482810309053045,0.11568516353016317,0.22726469992623932,0.5376666891501423,0.5493441470168596,0.4875682403381352,0.3706343813871322,0.06595431890578311,-151.12725958982014,14.865154239180843,17.3030875900684,0.18565237038392396,0.06088463063761038,0.26528956753779653,1.1263991297646343,0.512349945725303,0.3198111418928209,0.3910200289645694,0.5416604869910551,0.531916480135073,0.47040204489003
0.09,-7.895520419840167,70.49250446609244,160.52354285896124,-0.12025750204062194,0.14129165606316513,0.05669552828984035,-0.04656811745495715,0.25110063559105744,-0.011488494188959045,-0.42983267708194534,-0.4709955990190309,0.5558054577694106,-0.4603936505016061,0.18061906324239613,-187.07814022103264,83.91431333717799,4.892416645511382,0.05899825993939725,0.11343321670322898,0.06426212833166711,0.09724509391853477,0.008928861242551489,0.4376446109107214,0.688217260385179,0.6263307601363404,-0.47373310200253754,0.4286644538215735,0.1487975056569371,-181.39555444724317,0.9797005611161443,10.112239332189041,-0.006880661960368243,-0.0004945013153305498,0.07081131167206128,0.1523701368955659,0.06288928454445218,0.1580696591843433,0.5023543848112848,0.4546872866905925,0.6348452897347239,0.4893037041022289,0.09446629959137669,-150.74282043110165,15.180149369898555,17.409327378658976,0.12473544143839083,0.15281921789289624,0.31812107030445097,0.9754525086143594,0.5627312391026623,0.07734087473177592,0.2562186867973534,0.6176485228216199,0.451656970984301,0.27516767474918225
0.1,-7.818103786982727,70.62814915756996,160.2654356017985,0.019607834174082225,0.03441503417483883,0.31970245534009567,0.14604047385087898,-0.11177537924778472,0.022442609058285313,-0.4555085948725687,-0.6120709404018375,0.4372373406775621,-0.6031012114538494,0.015776430425017057,-187.19294888988787,83.96759979535865,4.990420748555659,0.14754066663270496,0.2540035594613216,0.1906327436983826,0.06224447335224982,0.11177137701235051,0.300492140381071,0.4612446785007954,0.44322154677757597,-0.5631305831906505,0.41272176189958876,0.12084660835042957,-181.3509407043632,0.7537136333729152,10.060299865076294,0.041337724504534046,-0.006475434019701677,0.08935105541458972,0.04322155280948478,-0.08102351657150883,0.07447553325897928,0.498700449871842,0.5098859445690946,0.3313032213035436,0.5481332295811393,0.15965870272804406,-150.74977382038313,15.571393693811203,17.50034451115702,0.1890936981908542,0.15527115590934093,0.14804424232885968,1.0406807145613879,0.6483678864212414,-0.07479265375644122,0.7270063351100355,0.5552631313374259,0.6084583445974884,0.5840901431485015
0.11,-7.747316272181834,70.50046341357499,160.32185427529404,0.17810774579750516,-0.1645189850580827,0.03041083907780489,0.15143719768782177,0.061887091681371006,0.408742597052157,-0.4745581983534875,-0.33858618542178154,0.6561064793729987,-0.465934696275805,0.09537994471187042,-187.02642963667677,83.93874438506282,5.105749119476368,0.03416347210587888,0.24665114768485594,0.28185360016356137,0.10370022495536158,0.11898860238203277,0.04614401395481278,0.5133662258318541,0.347345413704061,-0.5503610690037506,0.5927477680094885,0.13961476244127669,-181.4857349181597,0.9139570849591696,9.826511474852847,0.04529235860229203,-0.048957445932375936,0.09237449662663393,0.17247537251803374,0.03210645694179723,-0.07630500552239132,0.5344922647614953,0.6212759216021638,0.5616521900677277,0.46888327545743935,0.19420894914671194,-150.26502277808567,15.575992653407223,17.584662189435864,0.3118323214885139,0.28029445835512073,0.26074278193191813,1.407478782143136,0.6708248337239981,0.02494794728192476,0.6339787287176062,0.5359654060231203,0.5358560084135681,0.5039643406375202
0.12,-7.7835482618865734,70.33531326587779,160.16979422438254,0.25152323384179065,-0.0551494368286754,0.06408240548641325,0.050028109954517605,0.18259219424872242,0.13669774534347184,-0.5424541280195754,-0.5084714338083322,0.5028639096084551,-0.3982542744680389,0.2683534947537164,-187.22439071300823,84.23033602470953,5.082589341207099,-0.11283249116147595,0.2031277724206278,-0.09388621382948513,-0.022255986768739036,0.21421841711535233,-0.08722487276715515,0.5216085448221203,0.37526358664779824,-0.6309563314479005,0.5014492491620138,0.21463999132939965,-181.58859310312803,1.0661824371173332,10.069856975044583,0.04784120137614919,-0.10751763230000817,0.02845928870473082,-0.03392293695180801,0.11396415149770764,0.023094861864293086,0.3154110686393209,0.3416669243749257,0.520602856286082,0.32024381068913754,0.009302702615146152,-149.94685420531218,15.95548220462734,17.612499705292343,0.29634508339932675,0.18550734873833347,0.21734971022921168,1.1657438226653731,1.0344137206366635,0.364492684887809,0.47963023353549955,0.5846851728042816,0.6507327240733164,0.6587695703852445
0.13,-7.815445365168782,70.51174435029775,160.33437277757218,-0.014897701692588958,-0.13060236631584599,-0.018030968779256674,0.1041650092272774,0.06286639302151938,0.40837403299358266,-0.7217970337600733,-0.7371342421575828,0.4056330233031354,-0.4874143407564579,0.14651570655737042,-187.2830750238057,84.25955139304463,4.687425102111452,0.03552998768656247,0.02588767701161262,0.13855186022428315,0.03566247944424039,-0.13755623030085712,0.1765236475821942,0.4627973534303062,0.48766249951983903,-0.5330281574250486,0.5288522413787468,0.15786535197747323,-181.37292053809605,1.004581242469258,9.987739649823112,0.0001069704420296797,-0.1350267070415428,-0.10009141153121882,0.09357021737820416,0.16704959862661437,-0.03342356469231487,0.41914424843371867,0.3252166285127925,0.4189090299128237,0.5628698197443563,0.1003509542937876,-149.50136737716267,16.32862492890665,18.001507463409883,0.13141259624000326,0.10719828961279584,0.4646399886268844,1.0865325517117017,0.9260183392703485,0.3963462385007219,0.5185532340127808,0.4781560406006988,0.40185848306281,0.521993670485974
0.14,-7.975738230284042,70.40799188277191,160.42819448234718,0.023752358787560594,0.08203692972642712,0.0747423051218542,0.180073332721222,0.08920303204230856,0.39297221061456716,-0.5371625444133448,-0.5752112078525811,0.6045882246966177,-0.4476464118392271,0.26162830507900353,-187.34199889148624,84.35911194306418,4.834774134677125,0.06799067636232244,0.13213266926404588,0.07503775422151575,0.022531190263477954,0.5734067047185022,0.23459594584973498,0.4986388323551762,0.44186697174443584,-0.6232897486403028,0.39697782551753763,0.3090768961797773,-181.2750735472532,0.8731418684401397,9.957253840015639,-0.06396848538312581,-0.05616595135050964,-0.1967354313760417,-0.011581554753375162,-0.007179199134344498,-0.05552078966830609,0.49216896981703223,0.5691559301183807,0.6251320050300243,0.5027592970095753,0.12387570020179589,-149.17110399322388,16.915950654391782,17.764808438781042,-0.011603015072053594,0.35698798734282705,0.4791091843011376,0.780267680553741,0.7916359927466488,0.49878844020047886,0.5012149951318062,0.5304439867599048,0.4951352458906805,0.33422197182665414
0.15,-7.848350544496918,70.28337811422573,160.09646695371327,0.22751966829676615,0.05480872354600819,0.18231522708114856,0.3874624926974677,0.24969270880932087,0.8410742465373654,-0.4237767269061782,-0.6494097186707237,0.5736368306782856,-0.5163321127624662,0.03297130887800205,-187.43879699204783,84.4165160704662,4.846694926526683,0.02142621334697546,-0.0859334772341306,0.13663953522792266,0.26133850796515057,0.35891810299216687,0.45534728333653396,0.4785199734637009,0.4218514415050484,-0.5935648612278097,0.500817989496826,0.1319662080075879,-181.51128781060075,0.8277594627935307,10.134579923351867,0.01155758883640207,0.012747792571390802,-0.03484319966962052,0.17937041552388475,0.1988000523503832,0.08862739764660793,0.5449640608176731,0.34798483913493156,0.4563167032009339,0.43195766729141605,0.021880247089718113,-148.82907344513194,17.34581087313586,17.75944587611308,-0.00019590777274779148,0.3994722981050348,0.4591529146681786,0.2428413421719207,0.6358601272198261,1.1459808845271797,0.5671197670405631,0.6335400115878429,0.5291585454524974,0.5351740611655822
0.16,-7.836297548848543,70.5113934867296,160.38303912098422,0.12089562486222025,-0.047951940768810895,0.18594977551354747,0.25240154973009227,0.3337139042702611,0.6295341218608159,-0.5746240831956568,-0.5698970529241005,0.47385594521431473,-0.38592038445177856,0.1523549914389614,-187.56302164953553,84.47156875462277,4.5485686787963715,-0.039747588613669275,0.09091263631377089,0.011018549702929786,0.329464806896991,0.08037239407550917,0.4445163687786301,0.5344604407385037,0.3954677926676821,-0.4575637526961487,0.4225221225525518,0.2825483596274295,-181.427487690519,0.9539720442926695,9.91528735915735,-0.14598239754340525,-0.053591050384454664,-0.000593268542635304,0.0029119477070580074,0.07074511556062134,-0.012835995709289963,0.444252914043713,0.4553092448340001,0.5558590203798676,0.5243528932917811,0.3568678312687194,-148.19066108932597,17.86258889500856,17.630499426080462,-0.03782632479445023,0.22841432391458208,0.505577913094478,0.06519081298452067,0.5483055767068363,1.0354190137490118,0.45796451032266416,0.49504005979941496,0.4270394113848945,0.34124382162595035
0.17,-8.106522280750744,70.27898603494525,160.03244138421306,0.05163005324617969,0.08175910197279025,-0.026882799839148062,0.2574760021200285,0.47780786293171607,0.6334139945615244,-0.43391912917727643,-0.40851246859317364,0.5734108335464654,-0.49348639839859976,-0.009216358709228573,-187.61460057852693,84.6080631107464,4.5160276188421715,0.020943872241719598,0.10887518266288235,0.13716612314771004,0.3077818278691791,0.4068426194744618,0.11712179851210991,0.6103082194335506,0.4830432773617628,-0.6540660792350367,0.3726406770073204,0.1855365562337067,-181.4633803503928,0.9583357915230015,10.046041606543865,0.06074136132843216,-0.060480715020805015,0.0158119981259834,0.10516593616533271,-0.1390944179661564,0.004328953106768084,0.44610994229607087,0.6259032806632332,0.46263097270154685,0.4990168313878276,0.16915514970315043,-147.88555190432504,18.054340418878407,17.637064387820768,0.1595891522908257,0.3249136365900026,0.7398080601518409,0.244260266334363,0.3510738691429873,1.2319087954475172,0.478325911148263,0.4268795733440569,0.2543864808851917,0.3456989969016958
0.18,-8.22256825739031,70.30205246961845,159.96885619784942,-0.06928505169322209,0.09604823788750178,0.09884946831853085,0.25792192758318355,0.3799290399205378,0.6435379045746235,-0.4800121537711268,-0.564792904298,0.43473472819928166,-0.6274166431724415,0.18834022461214853,-187.6092374208401,84.68827520955523,4.4212948600122335,0.19382931497934805,0.3622103196127507,0.037812996021094496,-0.05062032234387548,0.42416029066284067,0.11045953120442717,0.35222424761582405,0.4223479546405152,-0.5518884759287375,0.4318151674524465,0.23244258640550539,-181.50514940471095,1.0663321765185854,10.134292338617646,0.046163272546714276,-0.004071201260739556,0.14058248000659815,0.12006682870339515,0.14109559622198825,0.07357489228289003,0.35879366140752483,0.5118711942442505,0.4801507917554039,0.5370089465416475,0.3608381095340897,-147.53203922951178,18.202988943118612,17.468196489016037,0.2052046151867506,0.38038865253020293,0.4213725476108871,0.46636153647217526,0.17014210545451552,1.13663785872374,0.5526206429651426,0.5412383491236747,0.5389907966580217,0.519032995766999
0.19,-8.401151037376668,70.06084918114173,159.74139311956972,0.024498552896691866,0.1521589965560592,0.13711355642861744,0.34249364055646814,0.40425944024636723,0.8613435593523635,-0.6280538434536513,-0.48391369486790925,0.45240131812211004,-0.4926885897992267,-0.023131651097427403,-187.87670776126674,84.92286953741541,4.419137075744685,0.16157426302059627,0.36474933130422926,0.2091390178116661,0.1792918953416623,0.34752480669931557,-0.025457417244188513,0.5288790880303839,0.4878938449417619,-0.5880019434553732,0.45061785968700485,0.15239985754645774,-181.59580090063406,0.8581731074338311,9.967720547214139,0.018219931933805732,0.03249805502669484,-0.025473311844197453,0.05803981498910932,0.06031408687876241,0.04106624283300382,0.3588289411389211,0.6380023352912824,0.51436076733073,0.4882388645987476,-0.01558796671234211,-146.7731804414776,18.678085664718335,17.286506335254952,-0.07276590056267744,0.18841216877672837,0.30026848222073693,0.43168942773187713,0.11810558492012016,1.3523850627472715,0.32354112112772015,0.4973003705550453,0.37868953992282617,0.5072875433663777
0.2,-8.686154930555555,70.00584284999866,159.48186281448432,0.11449168181535624,-0.061409601077851476,0.014811639288565565,0.7732421583481534,0.4607937922804769,0.8277945115538069,-0.4349732024040501,-0.3886066056671654,0.7435893453411864,-0.6952332004653724,0.3179206594400227,-188.20139557081012,85.11264120387328,4.061127110463273,0.2568901522921238,0.35683178726745113,0.2215385606273399,0.46443267546896566,0.2914312047188894,0.383032660742018,0.3507660822650417,0.5623377457103406,-0.4578048066783179,0.6165142460116526,0.1657906472561485,-181.46900889082073,1.250967007883902,9.861265946233134,-0.00600975653741751,-0.08083175607574405,0.11700042647149651,0.11278923491895679,0.2691160136580886,0.060491576287757504,0.46464745858085754,0.6469702867207416,0.3709750400485917,0.5130577523291097,0.15389800791891564,-146.6571221519228,19.19944622625542,17.241356962097175,0.056021318526519585,0.15113491360826434,0.4210123234724344,0.6858303822635434,0.19212927869695073,2.1583115079790502,0.6282252508038402,0.46264686377691044,0.5261383449609479,0.4273069057660304
0.21,-9.091990740535044,69.89466294821986,159.62065167059026,0.10595136416142331,0.25672395874240883,0.053830459811274496,0.7775240613331542,0.6731492507139332,0.8069626975202265,-0.5095645130512148,-0.5799534992199018,0.592907415427333,-0.4535990014779124,0.10810333736957646,-188.39038572155098,85.58095906286617,3.9815365960738553,0.16250260091720733,0.30482879532650353,-0.05350808968001558,0.36710962048076756,0.288782857429662,0.2026341504912978,0.4572767419268737,0.592802551190561,-0.4210342364612648,0.4766516431795534,0.1484370177773115,-181.5430144557581,1.123384531948499,9.973517017542223,0.038150320319816945,-0.1553305676044787,0.12145574355932869,0.08613217138818824,0.07590675490536963,0.04459179621516875,0.36752775134291404,0.5364105738600603,0.47190663760290263,0.41216085965404214,0.17693298339231484,-146.105108121042,19.33790235880434,16.924755597295952,-0.05276803648170697,0.06469372479090167,0.3064207534591683,0.9226979993078996,0.062309556218770185,2.6315035861912994,0.5182933706957846,0.7552544825798279,0.4119606445159372,0.36730259618280053
0.22,-9.255705181515006,69.31292398377903,159.72711264365344,0.32392349310729684,-0.061589125181948534,0.07734127266994023,0.7052998813600644,0.5430129548023229,1.030728258220473,-0.45940136627679423,-0.6695499032687383,0.49867902275654674,-0.6388905259732349,0.21720250175096073,-188.78329520163553,85.77744448749341,3.8443742500158042,0.18412225163824303,0.6249534460980548,0.1132587549077429,0.33633904922835395,0.2934267583118867,0.43497709943424784,0.5734755651966704,0.4581099079370734,-0.5437702944673501,0.6445199221910897,0.0173960931126374,-181.55160587965673,1.0437344783317344,9.966730654353714,0.05279103487228407,-0.06486446156727438,-0.009993655358534982,0.23721064751057053,0.10167349435712976,-0.19573239959150893,0.6073305372070353,0.55333607700828,0.47614959842114324,0.43831332030437187,0.24774323665724074,-146.13776036341045,19.821087311392297,17.087827226405086,0.013623191966744014,0.039859583766177174,0.28158567303580523,0.8065932035646561,0.2766118799589337,3.134757932458505,0.5921813233998592,0.688691943114021,0.6760822592300411,0.5549584265211656
0.23,-9.850347891774929,69.1375773265597,159.8280339586576,0.14886904620122876,0.19577258142259302,-0.003210716847611657,0.6678333709902095,0.6202372006625162,0.8114366140259796,-0.5560706304607506,-0.45996914217941487,0.6425547092574596,-0.3573237626742958,0.2523171830833921,-189.04479685085644,86.10361176205402,3.7684798555018073,0.40303123745965874,0.46494749563968985,0.17509886969627272,0.4010891837579603,0.42622958953597057,0.47113041769291264,0.6143564956085539,0.5103213164854971,-0.4116087186084171,0.5204012872579988,0.3040124218960619,-181.40027958784376,0.8112619899516533,10.1726442224437,-0.1107845751571012,-0.06363471477204982,0.0033190876386293665,0.060941293575556,0.06121187218985159,0.11424478154449667,0.5444950279396891,0.6424311016046963,0.5712274937633777,0.5848236376552375,0.27170272472376833,-145.7109293388576,19.675635372554662,17.13029892159124,0.02698183554436298,0.33024437060031,0.2617685583217509,0.9694920168090277,0.6035320563125199,4.389341823840738,0.5362583557417303,0.5851184943494518,0.49002451853571605,0.5344280647224314
0.24,-10.637154501672738,69.00490555590294,159.57924056708887,0.4302096119137747,0.5064763364032276,-0.012323082497062219,0.6234371700537439,0.7055849385267616,1.2305493347293623,-0.3887670055910622,-0.5312771415366433,0.38579334584268377,-0.37548202031755196,0.23807945163532868,-189.55191951440693,86.3127606593823,3.7699448149647496,0.2686342799577931,0.9494263956534552,0.1705550790922894,0.7689500609836687,0.2801069508706924,0.557678829304803,0.750101717590163,0.4928542065343573,-0.6508120281058606,0.44554760560529955,0.1460143463661991,-181.47511512877105,0.9068875387894513,9.949558442065406,0.022611358035306423,0.1261888198895693,-0.04099597201855931,0.284942802633858,0.06823695778656104,0.08191774301511266,0.5483846261573259,0.5401488900302327,0.5731359655513064,0.6021810381696476,0.3228607965259287,-145.42932049237788,19.742948520046447,16.875008390464185,0.06309911344320421,0.2141876102367547,0.4736815077255236,0.8255755393256917,0.6505769365103992,5.071371483147126,0.5215767174405659,0.565115450147627,0.5117358878106325,0.36221265759878335
0.25,-11.323297637588613,68.42022833426911,159.55803262378046,0.7023137337699675,0.2006839089575958,0.041026475880887425,0.44516223113860465,0.5073862703772912,1.2913617591962123,-0.475074245131727,-0.4803596191071096,0.5677673088371442,-0.6436828030632938,0.28767210520975883,-189.70897803117768,86.1590377776787,3.832308130976256,0.2951492318663809,1.0448639329250455,-0.01852359153056686,0.924553145654809,0.4140357464864181,0.3541842457970463,0.49305471861089195,0.45618873698897844,-0.5173399761671736,0.5523056540355006,0.3183535766959679,-181.4068260869139,1.2281618214291885,9.93503845338969,-0.17441211228433445,-0.1819402523710797,0.12311365024620194,0.0856602933709156,0.1935095837564485,-0.138402175228922,0.5296354390666337,0.7134472548668853,0.5325869194970352,0.5046285959703911,0.4303174914400145,-144.7530723124863,19.537459631810588,16.733463949979875,0.1598966695093863,0.25314472516749076,0.3568368822859076,1.01641167373418,0.7812473207753503,5.363651477957334,0.40940059670578516,0.4170254177872858,0.6232879843817594,0.4884394269060319
0.26,-11.891544939277429,67.96546708149246,159.3481455341867,0.07625344019357144,0.3750399776517578,0.19799068388567226,0.8978309797731462,0.436195343185933,1.0895528669227426,-0.1847075587468074,-0.48942518025202547,0.4434512917412778,-0.2421489548269451,0.2544057669352231,-190.381170768827,85.87520065924812,3.892706951578997,0.488271288079295,1.044850019989868,0.2021848273934298,0.9280436273126931,0.15262754050377883,0.5450396172115589,0.5928249680573394,0.43333388845834975,-0.3925293086795199,0.601718951083528,0.20237529442026822,-181.51975900628224,1.0261844191316944,10.046768185988265,0.15779519394451766,-0.056040412003569955,0.07796172554005203,0.03259374347382167,0.08713632300774302,-0.21108466299541268,0.5943252669054107,0.3874740914060054,0.6662014832638726,0.48760655703323547,0.20511344305656679,-144.29744580892077,19.67495413156086,16.64399181734066,0.025351160230433892,-0.03317534404808889,0.6928913792553085,1.3565979060393007,0.9989530107065256,5.116295078236111,0.4417331730755385,0.5490770218582897,0.6389935173786084,0.3840514183012264
0.27,-13.153426112028372,67.48990036838131,159.02596887686767,0.5610251283249185,0.4892950348613721,0.143016776327347,0.9994000488377195,0.3589529483253906,1.2625840394644658,-0.369137047157861,-0.4193572769846793,0.5751383627590421,-0.5929485712722817,0.2155556264532247,-190.83059685021553,85.10889459976592,4.1315933629860435,0.48239445948394216,1.2743711840903442,0.20905233602029802,1.1872896678990223,0.42793306796998526,0.7040183327828583,0.5528702717295692,0.2548457596073465,-0.4212116853836682,0.573752723670527,0.23776855829036742,-181.52554512726968,1.0397200430074192,9.938150325481406,0.07926409712533694,-0.17349348525601546,-0.15844139738155327,0.18178469753206483,0.028296165575607497,0.24742314851439345,0.5217469027374866,0.46779503930588356,0.6325973428756521,0.37944822268361444,0.40367681055347704,-143.66220854432927,19.42960168488421,16.546582094807675,0.08400260239615322,0.11786422029630123,0.601176526577319,1.6945212125843638,1.1502241122672787,5.113179714321098,0.5605032722607599,0.5380815738872451,0.4690675469593643,0.5088697364509065
0.28,-14.189692886564691,67.03865833992532,159.14150515014913,0.36749575224335373,0.49583061849706594,-0.03959919541894404,1.1543459729334309,0.20677363922768882,1.5207609350643478,-0.33315093053141864,-0.5505013516062431,0.6487064421043056,-0.37318117049888133,0.39479433961219956,-191.29742601157423,83.92002249291099,4.328239631221948,0.49843496016721606,1.5213970159111059,0.07818736735396652,1.431817384987708,0.3921871462776177,0.4914908960141131,0.5733938370389604,0.31338213258992775,-0.3733539241632683,0.40801528009509874,0.1882136084108553,-181.50354232485887,0.966257644066431,9.951049640601159,-0.1393081660001904,-0.014882216773008227,0.011488408143438376,0.09856220831864944,0.1731334939382967,0.02478447536409803,0.5186143708598574,0.685949881054218,0.5780626206295467,0.4777654048182819,0.2745699522459212,-142.7799274203371,19.354974313097447,16.41180433740797,0.19896977736827248,0.13521100311031356,0.5506447246670594,1.3258116686551369,1.4849380674457042,4.986563711382706,0.43966065230703893,0.7501944876957294,0.7062935706765072,0.5656983846943855
0.29,-15.246811901936498,66.4008866672376,159.1117001425596,0.28916790558578076,0.7342949512990632,0.027351760059302187,1.5476634229665538,0.12622182944962873,1.1175551412944045,-0.38382710420629373,-0.4074506326536674,0.6880233026951559,-0.576736423773698,0.2155061076434726,-191.8580288795021,82.53992161785175,4.24915269727459,0.6022282728046091,1.5297404468865756,-0.07630184934613311,1.9511689695999388,0.4836514857098938,0.1270502932313308,0.46378837737027656,0.44060312391049244,-0.4344918138390883,0.5670556238982952,0.2930997548583748,-181.45446284838422,0.8800976440403152,10.121990551739238,0.09518444751681963,0.024031150698914594,0.021574960083779116,0.10694472399802604,-0.010740744795399791,0.3545838871799962,0.45948021627769026,0.38302526279110555,0.3144991826394725,0.3970539715822308,0.37831094729555365,-142.03226879459712,19.53204086653901,16.002240662305724,0.17559859124632626,0.14582383860113424,0.7704733671888669,1.2005010356396841,1.0737347458974933,4.4621315982795755,0.3975575857869046,0.5894901686208521,0.646464075199753,0.2935475105268384
0.3,-16.036124552161898,65.67589615521041,159.11256986433204,0.5646663384638237,0.9949332360289302,0.09850469092242757,2.654777538940741,0.5516275032222858,0.8871136238461667,-0.5098166967042106,-0.5115497146361605,0.4880912731721272,-0.4955408644600663,0.16692147930644724,-192.12016687616762,80.36286313670259,4.0870646727960676,0.3919363165897864,1.8834024320216365,0.04650013012109864,2.5662086608156423,0.2966852025316329,0.7721917620930377,0.46305254361466386,0.38347596241478304,-0.23762465974855884,0.5334831358803255,0.4066922020299636,-181.49132021090253,0.993466610983773,9.927253465128844,-0.015269336063330932,0.10052803528127047,0.09310204859467808,0.1545762969181843,0.044070202017078376,0.4237474655186898,0.6603887753007085,0.47108002256519516,0.48161031689867073,0.32418902116438447,0.4618327988825825,-141.21688485487243,19.55292626040404,15.91888341331573,0.06609473703731128,0.24825647747616938,0.5459962994481237,1.2549397432592275,0.9939522388715151,4.2269033683637,0.5394131319507038,0.5667843178994652,0.49809774106394467,0.5477554526680392
0.31,-16.92012923072413,64.20132169105808,159.4968193788324,0.2828566626235924,1.160424112488081,0.17719359173145244,3.8042685050771317,0.8864515483157855,0.6656982314757596,-0.35952108165955593,-0.5188896002770788,0.6293312557383244,-0.609881127649168,0.40735227353102066,-192.12827313255383,78.47235855095663,4.035530004483706,0.32698043789413034,2.1608667966583246,-0.03663635226764586,2.8454532636524714,-0.06752220539234201,0.9711870597606365,0.40010244662392863,0.2641811402162499,-0.4476270339127733,0.45489036307236586,0.28499473697233885,-181.22939723754834,0.9502307952410453,10.050640567572836,0.16874268785028604,0.15627301256146997,0.06786887467807612,0.0651787856110087,0.1883804473921316,0.029481138416627264,0.536490060908563,0.5927560976222939,0.4358762631985841,0.38174187424511297,0.3677195613169552,-140.43456406935633,19.787250136306856,15.382136717588347,-0.04832037560262323,0.018131177815384203,0.7643874049184817,1.2799972380149993,0.8568642394916253,3.755425879501158,0.5320183872156922,0.538571288649579,0.54007416512777,0.4138527607788232
0.32,-18.84457053441526,62.274335120318575,159.72243233805222,0.3364175999369288,2.014449927605585,0.46168051689579737,3.354923313374536,0.936225039345286,0.04624427510770461,-0.5028789399929806,-0.4569397437887349,0.4842582815099023,-0.47385490563722027,0.04744572905088512,-192.54099691138373,75.83737527643552,7.040784462061427,0.2715185854016549,2.233500270406251,0.08563548914507146,3.24818606838363,0.11271558949310276,1.2177332257536764,0.6063870011694638,0.37503307032249955,-0.4679712959555945,0.42393839535099903,0.4782365040572555,-181.21176537390764,0.9469691511134939,9.907142806099266,-0.0422597657099072,0.020715459718480267,-0.011785271964720005,-0.04145814752268287,0.315836089571324,0.20430968572911506,0.5535376227590191,0.704668231031053,0.42218736639126564,0.3275949540920334,0.3256709984562219,-139.52487473323131,19.669893617037506,15.052889764336857,0.05688993010663255,0.1737122863428638,0.498476661922367,1.1057806662171772,1.040077393460767,3.2171178487381438,0.5095694116093996,0.5521120981438385,0.4798569137028412,0.45398326496053387
0.33,-20.273832207040634,59.50425406208936,160.04045641925,0.0009868478770562773,2.3635164582675956,0.943541702641159,2.139632922900695,1.4539128145469837,1.7026566937752736,-0.4018128160322434,-0.5748090091142661,0.4754425257454962,-0.38924253556121,0.5168186403761925,-192.8271571445159,73.53327680371163,8.996067242160215,0.12753215218205438,2.1606860039619082,0.16281632337757063,3.1755459904131365,0.35341054567337293,0.8769080078396223,0.5161807651012782,0.623226092146106,-0.3808619661938844,0.5522832270021483,0.5173277185359444,-181.11312824058584,0.8376751602168659,9.932708781475121,0.04517423578589814,-0.0710783820688528,0.02261235337284796,0.24244068263604168,0.1637281263408344,0.17963715429882937,0.5585474402996622,0.5725798317469363,0.668539458640068,0.3246812809294958,0.10935202095617985,-138.97205481788072,20.14768141967056,14.880266699925555,0.17900369670572083,-0.19111521213198154,0.5945712122357825,0.7124637560723055,0.8337913516522147,2.0034526837890074,0.6885574554089522,0.584460586465776,0.6572077308332129,0.6652145496811033
0.34,-21.12324437740048,58.29352463305082,160.01021492502113,0.10076368206139547,2.271734736117375,0.8771880967720659,1.7574209552865805,1.4225687563497946,1.946842833389076,-0.5796917799819146,-0.29095819000774464,0.6342872281113517,-0.672111263210559,0.2049677790558087,-192.81455684102335,71.95275099804752,9.509603415001141,0.026713904531790636,2.261976048329437,0.18139213917813157,3.1205911848214445,0.29047462101559524,0.7682563175655395,0.6310971441342498,0.4743112503423518,-0.42878855777552577,0.46911088061974,0.40896076263334064,-181.09622704327518,0.7572436425927397,10.039648664461232,-0.03783051709100147,0.13003490090560396,0.058972101122162925,0.2946815000053141,0.20907902085055152,0.17533287490496852,0.44416776945156344,0.5177838574086431,0.5230706583140305,0.45688438522032443,0.46937669060547055,-139.01658303203692,20.05488856883112,14.579110254371162,-0.0020344917752548874,-0.01732477471037777,0.5156006288751579,0.7854261134716508,0.4607853290232824,1.457883863626481,0.5723550643872846,0.5038802883761965,0.63828660132472,0.24735343388584613
0.35,-22.191048974544096,56.82949292375416,159.85209354816342,-0.09323719212378263,2.0357279516920435,0.6607240296221943,1.7133105752157258,1.3919054435715361,2.217875033332523,-0.28811047855298366,-0.6514464339157399,0.6188015886660342,-0.5084316724492632,0.40591197810764884,-192.6207684279333,70.98736369479262,10.161121670646631,-0.04790586915243315,2.3131411092565237,0.17155108383842277,3.2985678645011625,0.4680204734149748,0.7987009254781832,0.7039560191285047,0.3805192514573742,-0.2204656172617083,0.3710169416384087,0.43234223355457335,-181.18754254040138,0.7506102460012207,10.07878778883333,-0.07493403948845595,0.21661992942919606,-0.1480709702257918,0.48265626560716485,0.11955451806968337,0.15915130084387064,0.5852018217511992,0.5031363728313935,0.4755597688214426,0.5470315951955014,0.28005106312466904,-138.67100488854354,20.354992445517986,14.018252104597693,0.20219249562274338,0.17258325194146906,0.3659348687706521,0.5350628580679657,0.574380239278395,0.5120387200215653,0.4538493090330097,0.39740700308678023,0.5411511882567743,0.42800070617242786
0.36,-23.490085977418154,54.39773763743536,160.4119600984258,0.29480476089402774,1.9932439607885921,0.8440327848885228,2.3140427421646037,1.161537416533411,1.960319460607087,-0.1811588304553692,-0.4880407264326344,0.5695009423298348,-0.6259559170384092,0.39604972054220694,-192.336609225346,68.68706275966683,11.130441207950545,0.05406591324169001,2.3130940014597683,0.11507917404680068,4.505183261389666,0.06467272137787605,0.8961556520268835,0.6550711167321667,0.5261153718268423,-0.49260107896582145,0.5967434637512296,0.32788728935842065,-181.18960336510833,0.6444221044339333,9.825432930952969,0.06706533566349682,0.1202858737058262,0.026316036498351757,0.47790298175739865,0.07839127299748655,0.6485648232545307,0.4124408915131488,0.6056574065286222,0.37020995063906015,0.4827246094013489,0.42220443312851574,-138.23949494543825,20.403088940998,13.930028067306488,0.27790675057241376,0.04775187749937623,0.4699526030576407,0.6641214554530582,0.7020339876680086,0.6520979833127151,0.49237435905976246,0.7564275454402829,0.543470461759782,0.33690034414919284
0.37,-25.12856844626965,52.02173528458636,160.70205175591371,0.2234776368743472,2.2908362453105062,0.7687551116572302,1.8413881871019384,0.551694058266046,1.257050389356718,-0.26994594396552174,-0.47376766757831773,0.6349733570455938,-0.49501387700442,0.34708183391560443,-191.39800053975,66.02116107186338,11.461604099295418,0.4087181437914981,2.4512024830796633,0.12495891682479382,4.713047163339347,0.2791432302391131,0.7771730546235696,0.5783348817159125,0.40304617547069854,-0.32355676684375356,0.4557739515668264,0.17960040608123096,-181.2592508476106,0.3966078460117898,10.015165533164899,0.17898912281220233,0.39315475034574865,-0.07102422230728256,0.4695833879829314,0.6099370781434322,0.3557866201837683,0.48747870037596935,0.3607200473568566,0.4813908722301271,0.23539795756425097,0.45464803147769317,-138.0711796772114,20.609043092958274,13.292115556002592,0.20290075135951907,0.17434259986445566,0.23625097684207322,0.46086347242881565,0.8705582670890119,1.2882146557796248,0.32125240528753657,0.39716291550073446,0.6914178940589318,0.3309762317774888
0.38,-26.744684418097172,49.630361463176584,160.68462828950007,-0.10566521039965351,1.6109390049671939,0.7084402198656743,0.4675490859830181,0.5692177154162574,0.6833602511494078,-0.4153048361679754,-0.5664052425578028,0.6021559109037105,-0.4708844783950733,0.13542436475466266,-190.88410683136212,63.33399069197284,12.048087439884446,0.07269169920851974,2.460134581956352,0.1475014000590709,4.0811794346403785,1.614639048269815,1.025955390329335,0.6625380801457377,0.5468822775257607,-0.3866256041831945,0.459996164822619,0.32608490698556863,-181.3485725963413,0.04536432465474355,9.804910771017717,0.150897765273605,0.37003579551178645,-0.15376078118811595,0.32159876572880564,0.6187017416062177,0.4327577784159332,0.3759212346958287,0.6240796354765727,0.4853212413982433,0.3505670909607245,0.31166999192724687,-138.09083705509207,20.70039025008911,13.158400990947076,0.21065523964479216,0.2172742810121849,0.09084049306445585,0.8469510652446802,0.8401427413249747,1.1063154575709122,0.3984608051909192,0.34530385205551695,0.49261307546169775,0.4769014313075148
0.39,-28.111958458975774,47.966512608267124,160.5527377579682,0.31206744443657447,1.1838948251842907,0.5544300650056565,0.2847456393842653,0.40639299585474653,1.671663012345129,-0.13850201546702282,-0.44343265432912343,0.616549796741946,-0.43752138530462953,0.4727507599258076,-190.35516180516495,61.00739916492608,12.35179355697418,0.2230141402667529,2.3418083983844276,0.06314256570070763,3.816239889572796,1.1263018044832294,1.0957866540441359,0.7097825166520569,0.3182864845311593,-0.4631639373182069,0.5717872027211901,0.2757728628235687,-181.29072574350786,0.32668031699951927,9.701282919157519,0.21889703286236312,0.14703639830512355,0.20375607900111845,0.22046640282653987,0.8712154439138491,0.4585761557453714,0.4495947740205254,0.5553055650797538,0.6159175530139706,0.5192449837143075,0.31070952249233347,-138.20239385559157,20.988903415071416,13.100572549641722,0.01408363016689923,0.25483943923390046,0.6368086599546847,0.25617719188489957,0.6607520325817788,-0.031800757239524066,0.2382513732654677,0.6239312022881531,0.4294336156024756,0.6557804850935639
0.4,-28.938038369323223,46.44637838255089,160.65390375154857,0.25387971167083356,1.3144408272849035,0.4553105783270321,2.153907167265369,0.26618169526415053,2.7939101649172375,-0.2557512564077453,-0.27288742526465337,0.6181612247093857,-0.5218697266704545,0.2860918743307961,-189.77925620941565,58.52973501642983,12.642374341871308,0.005288364426410133,2.271904551895945,0.13660651585652883,3.4993391088930235,0.9522444726877141,1.9441083754597375,0.7817321647238892,0.2602621642272648,-0.3871804673858551,0.4880707767237923,0.43821903629659265,-180.95380225987745,0.3497242492294428,9.466400930077576,0.18633272482777474,0.14520464196726657,0.3032706157487714,0.24453168553476584,0.7009907665826592,0.49540842458677536,0.5188712707137279,0.5535305922216286,0.5156967805597045,0.5707628926361185,0.3300980412005495,-139.00848270234553,21.08097176314748,13.298594839989173,-0.017224678197927328,0.06644242797558661,0.618929525427682,0.08198034580232187,0.3136386294245562,0.23157975389910426,0.31751098882862483,0.6206087032199932,0.5564094105430044,0.46515545176701406
0.41,-11.165385626287245,44.1870506840235,161.22809505919489,0.1329846989973379,1.8687598736199802,0.22907006907015215,1.1464221901255474,0.34940730139666115,2.1399474505725387,-0.36657884002716645,-0.4245859063739593,0.7714748101308644,-0.29450798022821495,0.256870884867611,-189.6459043760118,56.15039894370623,13.142715871523155,0.22093069858019204,2.034777859735853,0.09964230754987952,2.6117494850477616,0.5685070789694116,1.0500580167848592,0.8252373636322332,0.6306854018011476,-0.3030102595287967,0.4585604186875458,0.2490309816338709,-180.66002589833556,0.8592682500419846,9.611939950731928,-0.03436068098744456,0.3712992801640355,0.20656021138177316,0.19530994837480758,0.7239922598185039,0.45065638257213336,0.5084119407286354,0.5295546561009685,0.4824698082493551,0.5213963246782343,0.168486012899421,-139.4558762450965,21.26833827357259,13.377407977258581,0.19614149750652365,0.045870477155620676,0.4795179447750737,0.03230414289993637,0.10901840927453882,0.42800668251521734,0.5064354455004149,0.740006882014744,0.5178976634663441,0.34963970615146867
0.42,6.219474698544581,41.96030588970989,161.94516766691441,0.2857020173221959,2.529849617964273,0.2236142662853566,0.3922924656213437,0.611852321111787,1.5913916082205821,-0.4023964188176814,-0.505180993607842,0.5722975971143377,-0.3674752807235824,0.3313222039338706,-189.35493656364542,53.65389589096682,13.5433407842579,0.36180065035507936,1.9019726040527771,0.13886465059899333,1.4083247375663204,0.3816570834043963,0.18971542820056683,0.6245541770717798,0.36336366998859193,-0.29395729829993333,0.5228174745492313,0.6333457266499681,-180.5975881344757,1.3317060927312367,9.592314413271978,-0.0005326830855190076,0.279898642855325,0.2556586058058825,0.5313097366018515,0.9558370717665771,0.312144651005331,0.4986185830667208,0.5401658189241203,0.44720252285262496,0.5733860894621432,0.47599706240574124,-139.72294080535858,21.563723784084868,13.486752050273786,0.07454283698544859,0.25708774841115506,0.2876420143720188,0.13504415004886772,0.2949041591470185,0.44619505682201366,0.4618980689324761,0.8658173087024572,0.526955360489294,0.4285581986561645
0.43,6.023871882232849,39.06847775810759,162.3215440022496,0.30277882288625135,2.7156583833145036,0.21183938476061598,2.878977719666818,0.14619363454878534,2.0316124707257908,-0.4904047852712228,-0.4507466913465633,0.739163207664889,-0.29157088468694525,0.4010429754160861,-189.867277520409,51.49006407928588,14.486075279932209,0.13024647961483657,1.6690425860955544,0.07245536641737828,1.1891603699213102,0.10550591813784746,0.1550917244796651,0.5934393429600372,0.2855451927888872,-0.3966790446810801,0.6122399238045435,0.48170401981282546,-180.12709332697992,1.6239312979243599,9.67615768858697,0.07436761909699988,0.2751839704399781,0.019508756139447525,0.04790999127769008,1.0297398493761845,0.040651539966476025,0.4787036241860931,0.46569351668017994,0.5276944950531733,0.3430347984072025,0.3015585170894659,-140.30388132946595,21.74797228676983,13.606682420861791,0.09571300038179219,0.46479533458944094,0.02697115915079727,0.1671719485175472,0.16775900822917159,0.42707786253152485,0.40615903954634736,0.4569135119840432,0.5084227107305345,0.31455380301142255
0.44,5.7141221163381335,36.48802483809859,163.0007402675604,-0.024863414122901495,2.7805524730151476,0.34933860782162846,3.512590080162753,1.0815689166058413,3.688639336790296,-0.6888294713894005,-0.5508188019127106,0.5460595932014156,-0.23174154767517557,0.34234135925296716,-190.34250669522515,49.9461850671149,15.14488630427658,0.36948212073270026,1.529512983097557,0.16898161353086982,0.15367906511245077,0.4772152012310193,0.057766504555284814,0.6500706670537985,0.4799546620154709,-0.2869198295670904,0.4539130218189746,0.44793459354002796,-180.13748719099982,2.120629506109702,9.466300116756146,-0.1383708322866122,0.33250695011673936,0.24953953500233197,0.4306738023583303,1.268166082204923,-0.12597753984739132,0.5900542015966697,0.45129346564467965,0.36812435918498077,0.4602221077492141,0.346501409199812,-140.1107023347369,21.75901820609793,13.87279448147753,0.13998474990551396,0.44424933401773253,0.1856196212694051,0.44549568971921966,0.3701668523878292,0.5987638749487764,0.3573214856497865,0.6155797180648898,0.43494939210458883,0.4913501247278974
0.45,6.175596557907702,41.57380504862482,162.18069335337808,0.14378652836716724,6.0550583403984355,0.25087588837278924,2.700841619487603,1.4980436123102865,1.0816018979957347,-0.4309213545415546,-0.7644194085713618,0.5747413141868492,-0.2597202882222501,0.48959128276092456,-190.6634796313114,48.07044578948977,15.721831984187135,0.05822703006688197,1.6505623754600152,0.17940459487937974,0.7717474836197914,0.6739806476781167,0.42189481124007683,0.6862501556961224,0.44220481174892956,-0.47294703490929024,0.5788900938938691,0.40568707815327754,-179.57130978021237,2.6593699638465083,9.651289167425665,0.014600017133565131,0.3014969928567028,0.4393335329623581,0.28517714224396035,1.3442292739896617,0.1537001155958511,0.6479894828564327,0.5851843018151036,0.3591809880113144,0.6906599229847643,0.34028979877886456,-139.99234594235693,22.210681712760113,13.994317208277549,-0.009499854587383894,0.21520422241869983,0.06839116941823885,0.157124016899079,0.20819611571451538,1.0048296709079607,0.438630751802065,0.5104307903102386,0.5828496179772954,0.49510007744391243
0.46,6.57187871360982,44.96405541440522,162.05147747045422,0.28729869172742456,3.247567461035869,0.5986063523899954,2.821396311956755,1.6069851555524832,0.8657867089567246,-0.34952885649831333,-0.46970971193532723,0.6570329353906487,-0.22587394198547492,0.3934382857225864,-190.42584264048108,46.219440140126274,15.937680723196884,-0.013604173053699542,1.6024784591639014,0.20600911139772837,1.5612682809206126,1.1015755745084261,1.6210729276890687,0.7176841335086229,0.3494693046621751,-0.32110212826424134,0.7378559619384168,0.4373858660829151,-179.4693814187238,3.0666834888021546,9.680196712390288,0.0630491607317567,0.3303532316261965,0.630383302507264,0.09523817666057866,1.0631457125094672,0.40695243497032607,0.44456550797130134,0.5285388233565217,0.5764477215482012,0.44067756383077467,0.6154621237772846,-139.95806126815637,22.410994313477968,14.042181034208369,0.07792211065281804,0.20046489863896189,0.1879203727978758,0.12629096377337626,0.24523193693812792,1.0943829317961853,0.3730095017083054,0.6299208336820638,0.6480897487654664,0.4079432567936735
0.47,10.539600112998043,47.787939232314784,163.50389781431875,0.6913444262604348,2.3980313328041225,0.961223527748786,1.4812751217236804,1.274165482418771,0.21176324827317686,-0.5278703609782438,-0.4247963644807434,0.5957602753966823,-0.12119973799424383,0.39768541356917897,-190.57581036440035,44.0466875562102,16.426801838103287,0.023366067672511204,1.6911487964843006,0.025576573309161924,0.621385742496767,-0.05828802465263199,1.4279616414798357,0.8651819746437397,0.3340618638462519,-0.18318047203005616,0.6417677320050011,0.335661191282466,-178.79753309489536,3.532657208444728,9.730015899186538,-0.1155941156065105,0.3260915810477877,0.5688077904151303,0.14139146239741504,1.364351177781533,0.7994717552475632,0.5472953799085765,0.36816932294523186,0.5448623080609407,0.5804343434006457,0.38274237847542436,-139.38359426914357,22.80743340828864,13.954907795315824,-0.06311431595270463,0.128940740985735,0.5063757235219273,0.07866776284072925,0.4021497650823851,2.142599995318259,0.3648473228787859,0.5562632007144688,0.5715621643098345,0.39272875871326973
0.48,15.508589045757361,51.18492345614927,164.65785243146547,1.006802797742965,3.3173462503965707,1.1676836671513686,1.4827564445706383,1.0020971408670718,1.0190626952065334,-0.5535273011846467,-0.6503169075585636,0.5503576406930173,-0.08594059731473527,0.4779314968429441,-190.3942020659115,42.05419405190086,17.065929773930826,0.21976902316660332,2.0411421698003647,-0.06713403228075492,1.1465525742533118,0.24402685558780207,1.2197480235433604,0.5114602197956327,0.35923927142698253,-0.5037357457801012,0.49309212268984515,0.46196423792977825,-178.10589949826166,3.779337314300194,9.841813826454631,-0.12264409700222308,0.11174023055272772,0.6421112560331815,0.019398983252082332,1.0680135774001251,0.8856522247097818,0.6065423201289596,0.7289693383938451,0.28739644170708345,0.40147981955002043,0.35583647213019554,-138.74514471174263,23.024685204920765,14.0801520980767,0.06297555556117254,0.09101810686704587,0.5318467684952946,0.6072507714194029,0.38820107813102955,2.3848451757312876,0.45726388221779923,0.498424621895803,0.5728769839406943,0.48132852940866017
0.49,19.970629178894654,54.36931913008877,166.09648576868918,1.2587267621530787,2.6870515643274353,1.3916532396936003,-0.06627556944847743,2.4025339208749825,1.3869807471180702,-0.6338431380850345,-0.5653465700408609,0.6024963423084102,-0.3168199327371086,0.5118568951148048,-190.3569437997598,40.186840184801675,17.24065277890005,0.17696530152965562,1.6212970512865819,-0.1097142487183437,0.39681184757419236,0.7302902738723589,0.5518655770786784,0.6145787926037845,0.25598841471738176,-0.2750852373387955,0.5776078139444494,0.5006206504587919,-177.222050375911,4.185478601727072,9.811883193696888,0.11338518306515614,0.06909983841102654,0.41235095163102714,0.30842699936759743,0.9369491644773807,0.7774729210753109,0.387740552851331,0.6355449045014205,0.6034085695931869,0.37845460717681817,0.4635141569958243,-138.21504758284428,23.43952522554792,13.688276033812116,0.03084115985541081,0.05440426142981762,0.4802618169020707,0.6740688401831599,0.1966903999226344,1.9562353045401886,0.5074666747382371,0.4062993422040242,0.6103283730946336,0.39829942561435716
0.5,22.36478217180527,57.18854703316668,166.7135276666195,0.4904220305669511,2.868262581582318,0.5086462192021823,1.4662632338802544,2.465840672841453,1.5724323850868018,-0.6058797090281961,-0.6939221941858837,0.370373237719811,0.013141885109837798,0.30342523707796354,-190.41180669669353,38.768438153123476,17.746465637395602,0.2250234204042559,0.8718928689613118,0.1095686245377511,0.11207533816547736,1.1412080264908129,0.15659892017582464,0.652248181507937,0.0963449656084509,-0.22074820678369367,0.5279923371873106,0.4127048974732727,-176.345370115134,4.351586503511686,9.593681776144878,-0.006821557272722753,0.0892639320871264,0.7120973415843882,0.023667845030345754,1.172108268819751,1.315119228790976,0.4079449518158344,0.4733781616268394,0.48871899904736693,0.4041048444080566,0.5429670880365834,-137.41751938273893,23.638485011312564,13.503945379233697,0.08043133323232654,-0.12111041948689592,0.44694456617898215,0.35076482542878423,0.4492070867810119,1.985682302154328,0.33299550037427206,0.5010626476228125,0.5307796147864869,0.37512319820776446
0.51,23.39579345522797,58.19152841459663,167.14006332018565,0.3483107340233962,2.583507600711233,0.4886158026485256,1.4268860007044286,1.9397586914503897,1.2222042761801264,-0.4905203742109211,-0.49750374785724827,0.41936358608566876,-0.20580079036183696,0.6502478599077677,-190.3473415244526,38.105580724369624,17.909069080792776,-0.02097856903715023,1.0775996179934197,0.296916598017427,0.20272604230001467,1.2385915392589681,0.2122529081888393,0.8293060348067555,0.41599269600906535,-0.2870488794235854,0.577303046133789,0.44831320449903544,-176.05183599259288,4.462061596731435,9.368672352271815,-0.023126876143891792,-0.009966779070108941,0.6596575787154135,0.23967223886217787,0.9386528095669625,1.6139292409225723,0.6082306254211693,0.6670283798161707,0.5538277017313837,0.5468987477715322,0.468361577481315,-137.0478496455553,23.816285629013013,13.546272168897705,0.21920163872836365,0.06059362624439354,0.709867017239087,0.1201332622030481,0.703445010305767,2.1670505955913986,0.5133094066656289,0.5260632162356349,0.49468913012844484,0.2788715879169239
0.52,24.406216961744057,59.347582829027495,167.53011407656854,0.4237124313397389,2.0385510781167517,0.3143411278401478,1.9275086694974606,1.242908940110144,1.0817394714049815,-0.4932566911201024,-0.6362167885902134,0.3697616484516981,-0.23831986460235535,0.390506558816878,-190.32721117806705,37.94417787523744,18.159563816079537,0.225814298352363,1.0350369090745692,0.07184749988407195,0.14743238318932758,0.9301689627566785,-0.0191737224265965,0.8964909795355397,0.22513361888954705,-0.2924480030545784,0.46685570030300777,0.58688259215359,-175.57392821237903,4.591341308473717,9.23355234874621,0.26225314934446464,0.025528225398414983,0.6689019780523546,0.313870184485861,0.927298434726785,1.9646906900773469,0.45387996986080226,0.5262536548025153,0.5538012193990819,0.5232365383731403,0.5350003908862524,-136.8815830500068,23.829689030700006,13.422172211805872,0.14887442763463038,-0.07222164694231284,0.6452546007259194,0.28915550180900307,0.8111268498457755,1.9445337230002169,0.49503714431952645,0.4989121904097708,0.6925607706810515,0.4702218546529428
0.53,26.158739483635777,61.36409861561227,167.98058259979894,0.12370121655302856,1.2571630734908834,0.2268658074600122,2.081393757083111,0.14360211312855362,0.06402872921414539,-0.771531439284215,-0.5733448625467005,0.6309511912122838,-0.18092805363860365,0.7068160013476026,-190.31181997582615,36.89545748063324,18.647835206304965,0.19208107481268738,1.2220817814020095,0.03806555808583076,0.23297976755283822,0.8955367204849548,0.1322390402058086,0.7425897974277507,0.24750789166800166,-0.11582783063469143,0.3937332993488921,0.6221204260164391,-174.51912651113773,4.8600364802324245,9.170950944884806,0.24061133435485818,-0.009326988109869927,0.9107696839868358,0.29729965395097285,0.6941482793519,2.840969020359768,0.3049260206326965,0.4119397494246485,0.46769866358768813,0.49903416122231137,0.3442222282459235,-135.9617138801748,24.04648330090352,13.3527864798056,0.10456208686283308,0.014691215248939508,0.7148199086943336,0.24320794628894005,0.6615666793376282,2.715736438834698,0.4263238881220706,0.5949973400689582,0.5660773219644143,0.4501766090667104
0.54,27.640057476558983,63.407751996858245,168.80705774173734,0.498271331261803,1.2690557113869354,0.462741547561233,0.35412540275599946,0.6938663431174529,0.9679768016731546,-0.7173259869829908,-0.6818332103248029,0.49741700293836705,-0.05524473628616905,0.6658605435205492,-190.10377847435478,35.50067130215827,18.61662324036762,0.24823163978061125,1.2447908541399433,-0.07141699139831602,0.8088307300792045,0.736963589846355,0.3641312519141464,0.7926734196793632,0.24522819256686942,-0.32827151020823114,0.5305443760076992,0.6485509151432928,-173.60029241228176,4.702076783538587,8.661058632267338,0.10574070077579717,-0.05631984223952713,0.9530822796691484,0.4952959235288801,0.4871604861304394,3.8340938934438835,0.5433735723061497,0.5469360064704579,0.6320313265540145,0.5370381043806935,0.476395709860556,-134.83964396988728,24.033337486713844,12.96545301714238,0.1963027159369016,0.04912132261616162,0.947387363628717,0.22359531956836662,0.5467805552188698,2.5721854388733827,0.498880067981838,0.5444288806713939,0.6319209395185819,0.5634333759048352
0.55,28.801400556903943,64.4598985686665,169.67024295172675,0.31668003674633716,0.9728051546874431,0.4720500146077333,0.6630430517543091,0.47948253423062925,0.6268202246539512,-0.8323757623947337,-0.41678105092468065,0.278739113893161,-0.21733552331183273,0.445357422537629,-190.5210002057758,34.95353997007265,18.706694083877057,0.01953967092203135,1.1454601346095232,-0.016827768065553098,1.267119221303353,0.7394895202754164,0.7115490410687592,0.721907449014055,0.48042972246567794,-0.24107603520069643,0.6121365642782374,0.4108076219114833,-172.64483733862477,4.738843665170241,8.251893162456277,0.4416518127386193,0.09587219901605934,1.1788939916982841,0.6153213768817598,0.3955874876020121,4.384711977581417,0.4815819329768415,0.5095450171876553,0.5876710537877883,0.47848676701146986,0.40866435969380804,-133.911661439182,24.04907735546939,12.753365064958523,0.32090336316866724,0.09336023285083739,0.9243271241393565,-0.01553770531962767,0.6501178764126022,2.433765568175539,0.5301777792455072,0.47797656205663536,0.37890684712896394,0.4600405130526369
0.56,29.80077621739417,65.89512269544369,170.3943588330607,-0.10146646770148281,0.68777411635966,0.4094779220142065,0.8002942031180394,0.3778650095559206,0.14649602007450374,-0.6213453936550397,-0.7857006773907496,0.3515349016903506,-0.24986305477773596,0.6066158373642193,-190.32354622589563,33.37843322877152,18.61965459760268,0.15187468724205355,1.1993196296574282,0.011945103394872748,1.2952197610119713,0.33279315393773673,0.808277469823711,0.6436381691489542,0.20306637232174737,-0.17462155241054425,0.6527294375718312,0.47681336354907783,-171.61541573977573,4.755230003727721,7.6354497692601715,0.3601332898841665,0.2710124819960222,1.0082306479611771,0.1859568956850698,0.3695190631936641,5.191125591615499,0.4929214337971369,0.49864346429225587,0.5460802438808002,0.4128006760564952,0.49613692613054616,-132.6264169749039,24.17725549853237,12.397829664316937,0.23560360333236327,0.3113272720496475,1.068084592372679,0.4056841906234742,0.6357626385399835,2.7313001344110313,0.44595201911385174,0.5124069127754228,0.5253440360490209,0.4322714049735419
0.57,30.571503507146332,66.78443041805298,170.95582742847262,0.0705089522708679,0.6716389464035815,0.2932131728780124,0.5896650141601733,1.1024967190725157,0.15904408314252766,-0.7079845916952986,-0.47667983858192314,0.1800353106560688,-0.20099250936289553,0.582570686061151,-190.11948593711904,32.258875010408744,18.557396103998403,-0.08462764055052648,0.8755082320674303,-0.07935295084829985,1.2730233988699442,0.539586184164589,1.238405695692088,0.9014507539534657,0.19229188810134187,-0.16888734776438413,0.6548439638689595,0.5454814551137437,-170.23269783906304,4.77002393018634,7.35796874150349,0.32967133987774067,0.11240868214121266,1.0458690782436784,-0.028339544413551326,0.3853166414661692,5.490183828622049,0.6018526460889705,0.5539000496143967,0.6512104569083703,0.39127622149621083,0.6431193826910213,-131.08465440863273,24.166456950996242,12.089542065128176,0.1898312061519949,0.2882643617429105,1.344119125013053,0.11526289190167019,0.25280308191497397,2.936125210786645,0.24576674723592093,0.641693811300712,0.4809263739814439,0.31037225814378105
0.58,31.641515435817993,67.39868524979394,171.77859783603574,0.6905856953647569,0.6807870452198567,0.19887431954133378,1.3976174144562155,1.6298218338333694,0.013496604937467002,-0.7236768130130867,-0.5090005420560291,0.26691640635350794,-0.2415900901122149,0.41185925938357604,-190.19023499620596,31.36108002930164,18.787945441814234,0.05034521549230277,0.8027868390703321,0.23093098015609342,0.9176370994371581,1.1302552076494023,1.5764930412464917,0.7477146687125229,0.32529280505132896,-0.20518684890142463,0.38488775683051546,0.634817047921372,-168.83172979234647,4.935283773856706,6.836756823830855,0.3823394909359568,0.32217090366610857,1.029588993255208,0.02644751307468015,0.41061453778916107,5.399795236138175,0.26541791852548013,0.8024096054658532,0.2556463704791723,0.4759839414707797,0.5589351088980163,-130.0874551112685,23.76547094213863,11.944137791863572,0.2737276068879507,0.3021314268359067,0.8673421478805708,0.5404315705747911,0.9202873420837749,3.4235618249911073,0.2748175347054814,0.5393744478903926,0.4606543711152976,0.4949309124159542
0.59,33.12589584838868,68.10067021276107,173.88057268727525,0.4645343163273521,0.7655607663817873,0.33214556578751186,2.061337316627479,0.8895394130721176,0.2518649061548597,-0.6362197189229767,-0.583353704820117,0.2608577332742844,-0.3695994935890714,0.7365847606250139,-190.0007672513118,30.037452673979075,18.626922178220564,0.12947181884891767,1.0529240514505407,0.08478096825921698,1.9555721103268007,1.6856102112210962,1.053351631334041,0.7731933460283035,0.08217572608140308,-0.10075013644160005,0.40539396732542266,0.6124844223979915,-167.87221101500924,4.9687140290902825,6.366651249350831,0.14498132808370992,0.2181398014117384,1.0392152370890817,0.4080941878640622,0.06988467497411202,5.292632035852172,0.35188148911395184,0.6961900457506602,0.5105367787774653,0.3536400231409411,0.36629029181015715,-128.81905394352418,23.921014571820443,11.896746217517327,0.4599138727313698,0.11697262923934754,0.9952295138672151,0.5123991809621197,0.7351488648681026,2.771776269647088,0.3323729510414637,0.4024285457258469,0.592756572532178,0.2829949733413506
0.6,34.43091842321334,68.74725763845963,175.0763592436228,0.44340527208054215,0.4009610652018058,0.35841082673836355,2.2264651168882255,0.9223244375076574,0.8032984801766739,-0.6492366888941409,-0.5719794914799993,0.3554662163589055,-0.30998862339468686,0.6777813193086197,-189.91476783852875,28.816402648259817,18.185722116231403,0.6096453457354306,1.283621815124437,0.10614448680288292,1.7194431172880007,1.2159096318259959,1.3176438232987187,0.8151081243245393,0.2876648855564288,-0.11235269595403684,0.5891057076978516,0.6167820595749776,-166.73730274410727,4.73748256817589,5.755892361107186,0.364078798233082,0.1661979105759569,0.8699046266229162,0.6029813930354286,0.35356964236490057,5.031522174219451,0.5215144483012663,0.4260846611444731,0.4766814228870056,0.611715839082779,0.5190087161314408,-128.2443835245394,23.7344120933567,12.447060437320971,0.7032304477729149,0.28041657662041874,0.6208027336877581,0.6020462837500774,0.906895218042226,2.7362520389842517,0.4653470499932268,0.6887839726539411,0.6702358942851344,0.35190178203128336
0.61,35.603865114522065,69.3715808063763,176.59625475180937,0.4077915220825593,0.4834592276813585,0.5219742322545478,1.2549160797775696,0.8025836584704626,0.5164193968289871,-0.691198712895705,-0.5584333010910071,0.3920724383026748,-0.17451266805414645,0.6542757864696203,-189.71937671220587,27.59155046189452,17.842645115385775,0.07422183032526758,0.8893529402216529,-0.07993312458337216,1.1550345848567385,0.7120561521341814,1.1578043432663405,0.8052138719633339,0.40006496473115527,-0.20529666993221948,0.5483069539507804,0.5530629249593049,-165.35318860985697,4.749236168950512,5.6019349735412085,0.09498278980421002,0.0447654886980303,0.8550328456580766,1.0398015715012792,0.4992895925585492,4.904477580130034,0.3749570281844828,0.5720109703035356,0.542098189023778,0.42234830007108437,0.5566368041435634,-127.57826142359079,23.506182527159396,12.847028152683878,0.6922005185695159,0.3551396702670025,-0.015120427702781082,-0.008672789502250686,0.43419809397440284,2.2955336896014193,0.505674093239968,0.6388738918225056,0.6129276460520728,0.5625975252648533
0.62,36.486151278279166,69.57400733059512,177.50710696158654,0.004791107816949164,-0.047656747165366595,0.3426578148554385,1.3801561736362546,0.6790778857838246,0.15738632837073877,-0.6912203035064584,-0.7266178788209126,0.20231059819120645,-0.14707607442777204,0.49077070131511147,-189.51706899630875,26.617439308267354,17.794433501003812,-0.11718843886230942,0.901576302287908,0.15872946036555013,1.3479292125343394,0.8678260577337891,1.6008941942109662,0.5710536748905648,0.13242220071692345,-0.15778678341282823,0.6595014886984396,0.6122794956413358,-164.4082106949815,4.840274774726665,5.242636385387258,0.30197753012929296,0.14975168063551086,0.8022084907295088,1.1080758306761882,0.53669325773757,4.093258915547409,0.5483787809347589,0.7457922169901257,0.5126779267970027,0.4498484995050165,0.45485820137547506,-127.47418053132327,23.238305395068046,13.898692200847469,0.8047262730134526,0.46404997471987597,0.278067025307594,-0.050858091466520254,-0.0032999274482925205,2.3173002897584176,0.4515150444679646,0.6297016799715945,0.5501316450846816,0.5341940433510958
0.63,36.79195251552536,69.51564575990086,178.27079562658625,0.17103094571876806,-0.03789284164397459,0.17158827919844613,1.5606928459641698,0.9436247529835671,0.49578651462260936,-0.7355092498731477,-0.5015524951697149,0.35058408292860566,-0.029748124352298205,0.4775195934633961,-189.01401142574701,25.55955288604686,18.05289188883772,0.04563161699903654,0.9946757759640201,-0.1689748669803519,1.5734246866308002,0.9807940036290654,1.8242959688359437,0.8543391217288825,0.05018003131052348,-0.22058066505950438,0.5884699730821388,0.7586174373644775,-163.70316334962905,4.9652750138082435,4.864124491979882,0.048435306650940896,-0.09130573296104563,0.7249639408372522,1.096503130603046,0.5823125392731189,3.3134664965582226,0.3225488981335712,0.5969132740108156,0.4466125611179752,0.5363141732760587,0.6874075554671072,-127.85047386187097,22.72515630987396,14.870946795101545,0.856648007192202,0.081019161068546,0.19830673264543697,0.1038430741748824,1.2470944190934599,2.3332042957592516,0.4385608406052767,0.4343437960351383,0.705155561903379,0.5231145499115647
0.64,37.301102924380416,69.71631374445589,178.96187838202914,0.10101202452227012,0.14303364456234963,-0.03818262407355458,1.467233337288894,0.9809933927839514,0.4218576551433493,-0.7330642387402752,-0.7288569233429016,0.2965316271713218,-0.22645674223329595,0.7291343311137503,-189.27242968412077,24.61315279833056,17.821951638680186,0.15276207304015366,0.6645547358224823,-0.04587642728820916,1.413734805838004,1.1456718466403693,1.6902866270028623,0.8167446150690958,0.07491592580770526,-0.2522830012689697,0.5953501435420828,0.5224118751574578,-162.91251425439003,4.98108137079354,4.6569277686287105,0.024514959666177838,0.09520745680070594,0.5958671164632829,0.6781665814142196,0.33117311874182775,2.3295261804331053,0.3322431249509207,0.7302387902236553,0.7335793638651994,0.575130072894911,0.5809708444554064,-128.01761881333334,22.61700456690152,16.007584690684872,0.7421087487658078,0.23647769717036507,0.49398082757065614,0.12514110920308502,0.4466956920127716,2.119271110863802,0.5495267152499301,0.7323413529190075,0.4479265048422101,0.436722299223286
0.65,37.68909374418958,69.90475111884182,179.0714702125376,0.043627848779980466,0.2745525626542141,-0.0012097264333969758,1.9520476917403902,1.0116096273380542,0.22590231344916745,-0.7280763116877011,-0.6229272259143256,0.3507969143724533,-0.09076310662330744,0.5268443871394778,-188.99252703299715,24.287981682617087,17.501883393123823,0.0036804308583273104,0.44134320952976913,0.0557056516790021,1.2156289095113018,0.8834192656308588,1.4666916142306343,0.6403752878319754,0.18944212524660675,-0.10452996482349476,0.5524871008851328,0.4400656603179909,-162.03936493735924,5.122196107272367,4.884708899812812,0.01583612155144974,0.19516662464928217,0.5950351941004325,0.7583669474025997,0.6401421280007045,1.4119859206227976,0.29417164638032395,0.4574053662955298,0.6141600451396331,0.5788236273401545,0.51227519100304,-128.30413303592556,22.230594605455885,16.856687883981788,0.842698511471223,0.2072513908375453,0.37371327740699384,0.4231635690677423,0.11046989548652852,1.5029813368072413,0.17647326119599374,0.5569010263411932,0.6413406199110342,0.37001418137520903
0.66,37.95725252692291,70.29250839603884,179.43156588582423,0.24576913072527917,0.6540183939960723,0.063034700782215,1.2003469201874837,0.23089931028849933,0.11215820937131712,-0.7882493472741264,-0.6339699623622072,0.08756001177123879,-0.1251453825831785,0.8219337209760749,-188.94575841367975,23.69182396521481,17.372716654448602,0.32875033644621093,0.4054580889769757,0.2478448317928073,0.922874458607837,0.8848783181440174,1.027000225485374,0.6329702664571418,0.12834295068967866,-0.04512638303490213,0.49769052281673953,0.6573507095769463,-161.54090816723945,5.480786173180599,4.956245843052299,0.1668442035823761,0.2447141709007362,0.30990289702439455,1.2481369290108721,1.0737548616671109,-0.08739719429009196,0.5801564086414908,0.6236112433960278,0.4154218292747509,0.45324837686227754,0.49350866100748697,-128.62912298593716,22.214137171894432,17.99776243953483,0.688808259162653,0.017747593269997544,0.4607678514960346,0.46150414694878916,0.9743222520727993,1.1034834512448126,0.3243211181462743,0.7528168697577697,0.38588149508353564,0.29004103515722957
0.67,38.40925854828668,70.94482435511642,179.85817938270776,0.31564950438631567,0.5403050028235014,0.00699519815259911,0.7785275873075597,0.5131381361733591,0.05277761953682014,-0.6075587550025745,-0.43962286519453325,0.27345125419417776,-0.02688158649964595,0.5748182043084795,-189.0179388180153,23.10194493156171,16.994783020772307,0.20194057232582197,0.6522749506999658,0.06464802446515798,2.6591079517055705,0.119853050444741,-0.07389051096150268,0.9296882228524515,0.1711235245363507,-0.3020032212187178,0.7285323111490037,0.8390084802795936,-161.2056961083613,5.629543375440533,4.988097325235053,0.3240183998161919,0.17998543085572347,-0.06590351426688248,1.270822872293222,0.8676102304170659,0.41206498476872927,0.4715177827938032,0.6887706422672835,0.6308818779290368,0.31263924557903494,0.5533510543965574,-128.90778269617195,21.656546918349598,18.711565318842503,0.6950376126676319,-0.044127877954694736,0.35023737898899665,0.13636946277507392,0.6508130672920265,1.4338539573307327,0.35503525229514776,0.8432237872248857,0.6089283329151894,0.3587178644243162
0.68,38.495378571997215,70.97211011107028,179.53293148307844,0.07019500803054007,0.3211030898791711,-0.1322269749862992,0.322422930128527,0.24827904243901028,0.4463443671606912,-0.7143138636637417,-0.6193026626739766,0.18244978316233526,-0.2113315239837451,0.728787147733982,-188.81384864346344,22.960114058661986,16.84859819033573,0.28116373227144087,0.49376927550706673,-0.020875755161,2.028687870116297,0.16003687883426243,1.180045454484407,0.7083243174133904,0.02248958752275451,-0.38098066339729725,0.5717560548433926,0.5613281078380619,-161.07927638724257,5.8151437683117,5.2410869472516,0.20187992182644054,0.3209558498669518,0.008428787617081324,0.9221513265328662,0.7841487674920954,0.5201043626934007,0.3844342204910267,0.5380664652860478,0.704473019592134,0.26863604880086367,0.6483839746784236,-128.88879991349097,21.589906417888702,19.182397791083428,0.7197774731682978,0.02840982322662436,0.08024559793923294,0.37186216497284796,0.4176124130605392,1.4363322949352115,0.326078853232753,0.49679231708000193,0.5635875596630754,0.3899979845684443
0.69,38.31481862251975,71.29012803982224,179.3243220782082,-0.017049474753295074,0.10497498096788441,0.18619388605146175,0.5283955118294842,0.5298220611305029,0.6080667352322233,-0.6129346427483794,-0.5939880322503385,0.40215413069533185,-0.04996723488261548,0.5593975948144375,-188.7500686967087,22.842729510703926,16.722309752421374,0.08193129403945232,0.2543973655441176,-0.047031360381133265,1.3204007222385503,0.49388304461600085,2.2587891550625905,0.6914541424507645,0.14499398970413224,-0.23353615746333076,0.7299850232588303,0.6134677867308128,-160.8119844952086,5.90525210399221,5.217911279722414,0.2828561839184208,0.03779025788420362,0.1626326707512841,0.7187228878655947,0.7845118092941346,0.8106971281512187,0.5174826077764783,0.5984685285719394,0.4986966900783941,0.3314802631555835,0.37735696067759367,-129.01835119477983,21.384878294124746,19.698160848858215,0.5010219805126631,0.224963873102262,0.3595828035638715,0.16861087172436437,0.14168481591859863,1.805207514363868,0.40523063063526404,0.48543767075662564,0.5806177591737028,0.4639951853524169
0.7,38.404335373304406,71.14770949790883,179.15576750309552,0.09827386493837617,0.0479912024132334,-0.030947744927583693,1.6575525702770388,0.3770024364209974,0.5222684917405851,-0.6230352833328471,-0.67229029823875,0.26971910889857686,-0.06578041127793074,0.6700271387226886,-188.7140708569163,22.47079674424558,16.890018610019215,0.14300727515132047,0.018263897515581762,-0.008854446204272967,0.0899484858561765,0.3183594986482462,2.365451716866211,0.6743385733614656,0.23899224794961493,-0.031298279714426,0.6697230010696364,0.721479304128134,-160.69026414124045,5.896827201660064,5.863249567634914,0.15602608041604477,0.3072194715787204,0.06512253468472595,0.007782645350407822,0.7508105065035265,0.2067295598774396,0.3857243746216987,0.7796318084776911,0.6742583156371963,0.27886800247518617,0.6732628224994441,-129.29967360457383,21.06610634972714,20.36867850902683,0.44275811760566786,0.13085428427326237,0.38156076183309234,0.8386569666668622,1.2031827572145215,2.7298405591614965,0.4568298500428067,0.566944621816856,0.6246639841069329,0.4842294343889213
0.71,38.48934780727665,71.46413980798351,178.9511465255695,0.19787273106406084,0.16577185840386102,0.1907152897114581,1.3160115120021079,1.2233903612563357,0.16385085672179023,-0.7962829524752325,-0.5689727064012007,0.14010224057851817,-0.21464128496733487,0.6429596448001348,-188.6818319615673,22.67854710211157,16.930323520711077,-0.04821603687051737,-0.10457709648630568,0.12224532375313105,0.04550766361183053,0.748966121905814,2.1374777609435403,0.6379595457248346,0.02987438466595682,-0.24843778345590029,0.44726065985672636,0.5985480099519376,-160.62800000832556,6.045194291257886,5.896337430163333,0.1552942074877285,0.1430476874295771,0.36714193993298494,0.17729970117050414,0.8559797067797903,0.5449013166126019,0.2486193753130271,0.783450198167603,0.7790999218466563,0.378356243511367,0.5032272704163042,-129.9672741149625,21.04723714002148,20.856973880251722,0.7448914236469483,0.1625541972189585,0.6734556558534758,1.7972918738465156,0.7751600661678517,2.768497683016753,0.3996683734383627,0.5518409478979522,0.6390673376833453,0.33315418566031213
0.72,38.640061529804974,71.73574770493312,179.4276937360669,0.2373731006701118,0.23774116118178668,0.08879032341567386,0.786655520342373,1.4176838095645519,0.4295888233773703,-0.8080964074328915,-0.5987909025605282,0.2856952134068067,-0.2388891592973856,0.6465854935382378,-188.49618070066305,22.65269671694526,16.84706291534011,0.30974192697490327,0.05754764648401188,0.08493677127877045,1.2095177377549056,0.7635655021593413,1.6534139226728997,0.6347990041996276,0.1870760629990665,-0.14465047359622676,0.7345184085143385,0.8903517877494818,-160.1288577369577,6.491251928171358,6.025960833005896,0.12036582082664816,0.16758755790009308,0.041287548253144096,0.15895462613947375,1.1970554803996778,-0.036329281580141995,0.3110633522931347,0.6273053399991008,0.6309955236607516,0.4565439595852268,0.673283853852976,-130.74448561424157,20.77953598230173,21.992344247604063,0.646202596720791,0.3172061123399779,0.938943051758013,1.407863925295604,0.19951976184542775,1.6912687693374546,0.358920475927221,0.5961789665045073,0.48994960583053326,0.387701330604568
0.73,38.979931667013155,71.86496931644615,179.64740018833908,0.041117586114716415,0.000965487703203663,-0.026419999698139185,1.1451310419578213,0.24017627785954931,1.127250904298463,-0.7566772653033887,-0.6228873886939956,0.24684706137783852,-0.12791277380345256,0.4985399009699824,-188.3449983612469,22.63745736181416,16.566607279864023,0.26674843842140156,0.26794825934056254,0.06710828965243575,0.6598524553432297,0.9745708540760247,1.4782616077494497,0.7154960413945511,0.06972201051069728,-0.3080644578084364,0.6643604967176924,0.9504587245036835,-159.8777416654989,6.439213126722478,6.052292249565503,-0.00766891219835375,0.3003758851001187,0.1964984418147886,0.3084327699784205,0.8220145927976044,-0.03569836048800064,0.3027225971101201,0.5152591727284247,0.397952773536709,0.38396275840490124,0.7238809794095834,-131.8464332708804,20.484243716508796,23.103623991885584,0.6819200685265754,0.042234392744873755,1.061046958045807,0.8116935554289677,0.4693000023563995,0.5995849282973518,0.5742261474217067,0.6243260083329111,0.6234207552565711,0.43141185371589397
0.74,38.9181051038793,72.1670502627185,179.72564169064557,0.20414867242642126,0.10261108618325222,0.06222471209178891,1.2405226183899327,0.18815821274760347,0.8520856093977696,-0.777164852980454,-0.8056203762981864,0.4479752171901725,-0.09217608211351908,0.6224396129237124,-188.36061370303963,22.75630585357768,16.589289476999294,0.2446566660851252,0.14712688611245867,0.12307744625427738,0.4955760296661915,1.1041113379475207,1.4426897945876054,0.8362620821160452,0.19797783541753278,-0.31020279008228285,0.4967627187186371,0.6546789207478221,-159.34401283899498,7.00716048453294,6.089403696912082,0.16634717736628574,0.27315400536463047,0.3298447254663637,0.10326865599837959,0.4052706695670053,0.2198574529474237,0.35299948250743307,0.4017320030799454,0.5012600054975342,0.3509006861862697,0.8045785329160882,-132.86960495597046,19.92607927607869,24.18842295853329,0.48021583520496125,0.19152054260891663,0.974633312047365,0.3561118088587877,1.4935475704198702,0.25176385116752337,0.4256557584415185,0.47522059305336184,0.7068147044172116,0.43239686229300545
0.75,39.17045333244656,72.43807807477214,180.03113095583333,0.14930945669519935,0.44275361886409464,0.32324201713256406,1.326716097052548,0.27002324985458015,0.4858840794150003,-0.7587427467189654,-0.7798548098563721,0.11984445573707682,-0.04388170778714616,0.7922926711097711,-188.29533637256444,22.769824288827245,16.632441844761313,0.0830474872520505,0.05001220296793345,0.21255531414554907,0.1477277833705482,1.0677997386073106,1.1343761111530528,0.9789777264427436,0.18985362735699718,-0.30157469717218766,0.7467771476836629,0.6986335439449063,-158.858078941894,7.343713741836686,6.020078872296325,0.14630219115636262,0.39103924697235093,0.5002518264633534,0.2140053016566726,0.012632583640452992,0.7371114233314685,0.3872378355768062,0.5811455292264928,0.46673153166735737,0.5854658368868185,0.6302992045779248,-133.37471262931447,19.320577579012856,24.838778501012392,0.34552305057386545,0.07921938681485771,0.5407200241056244,0.4253401959589968,2.686207531580922,0.34738998847290986,0.3209637779213531,0.5430957220627074,0.5689911326267736,0.4185389527000036
0.76,38.96744956416028,72.50115415979892,179.87984592036906,0.012665720260504255,-0.07527534252517795,0.0317041427942525,0.06996788677687717,0.9936155454501279,1.311113027681083,-0.7308219121663584,-0.6692968703426034,0.37130535972266815,-0.20850359402228064,0.7631846959688061,-188.15306172943602,22.967844174599623,16.685773182927132,0.1412746769241704,0.23846974411512517,0.10628999087243882,0.5844698250588451,0.7616254882828187,1.169515290462463,0.7551247263523049,0.19191452639327503,-0.25832408854694644,0.5340101827284843,0.8549622472780367,-158.27287077602645,7.716798122586426,5.942381290503987,0.19021737698860464,0.24102309390137544,0.3987165008937735,0.2964022182579709,0.08464593438191775,0.5827602364361586,0.5050960429679238,0.7524340061706958,0.653766408343446,0.47978883372761005,0.6721771978532224,-133.5221106858584,19.47338090614143,25.28196399308168,0.4132605026674683,0.1823144852525795,0.4614812475286806,0.6370645574327168,1.5684834068626692,0.5185235337243325,0.4794814833242834,0.5239163592275117,0.5849571285789095,0.3724218568773194
0.77,39.31703955138907,72.40641256876425,179.47147747651343,0.08788506349063452,-0.11489918874461733,0.3426369098596617,0.610496453160203,0.611307388855939,1.8300196445627057,-0.723571223396675,-0.5717028849214613,0.36390937100650683,-0.1611564472358308,0.8569138105731389,-188.10117958478193,23.330893433170107,16.529497968618728,0.19380950713503675,0.21412774103376847,0.06899452317772722,0.9773052695077693,0.39076606364748967,1.3111210214645768,0.6528386573845778,0.1866434426925324,-0.15601121958953426,0.5396916927271627,0.7494943776981121,-157.5503416575684,8.48113809718292,5.596660598812394,0.2088217782721813,0.39502283109974967,0.7152444664594253,0.47022190142775816,0.1693733739542876,1.2940901462024161,0.282906858106301,0.6947370444532965,0.5445242003515592,0.3968336712331594,0.8033340272536019,-133.46930061517153,19.305081831452735,25.555832090482706,0.32606041069024055,0.18789040924982078,0.18993191652424307,0.5421514714006872,0.6099999911582502,0.7368681798372725,0.4165635141321669,0.5067854733680854,0.8329864245290922,0.49877349929787546
0.78,39.2765036122161,72.55024935181517,179.22990124336846,0.2125593802230834,0.0837414558873011,0.14555148295047166,1.472901435757066,0.5098750804867638,1.5084211180903422,-0.5631567884353621,-0.4296699151829257,0.05693434457564264,-0.2859933795842549,0.7606528199760687,-187.9860944580385,23.762320054464674,16.492056609802443,0.04675649827137897,0.14945900280975666,-0.24377799295198196,0.5429999981855431,0.3030611320065766,2.1944849050353494,0.8083262858832567,0.08714351090204124,-0.025535238970817248,0.5994211604480707,0.8909248262397116,-156.66969673288904,8.694042469307252,5.283984663072744,0.16165510947373668,0.4054638008483978,0.6946290162145378,0.5292922969591166,0.09660993742339459,1.355273901603933,0.18520257666133597,0.5094406314899506,0.45591236907236293,0.34751087689094823,0.6426384565443285,-133.3432154644122,19.117208079289313,25.851282513487824,0.32969375182607363,0.06428914343775066,0.2429440437589395,0.06775327776976202,0.2554759471465786,0.8283937822513008,0.39482498482521955,0.4381570233595915,0.6580566685174393,0.3370281520078786
0.79,39.574594325916564,72.8279484101396,178.6466048736,-0.2243388892669259,0.19592814060198518,-0.03361414049123018,1.5859026556349254,0.41227967937779536,1.1489994037885243,-0.7037290291808156,-0.7145874943723092,0.19089660336967554,0.10192194870061813,0.7108327087963275,-188.0186467139686,23.951110927940547,16.30314658980275,0.03516926092062456,0.08157077861164304,0.05002757667675335,0.8078292325947019,0.46459876580887033,1.641251286887244,0.6253086124186654,0.20143450442819727,-0.19385191744842212,0.6446898422822913,0.6878205533542876,-155.54919092810457,9.366260192128072,4.714324423415391,0.4677962079860451,0.5827283972899646,0.7733288956061537,0.5137947908508811,0.26879168397638836,1.9495542166145239,0.602889161255906,0.7333199415659003,0.5522187320286437,0.19790215629553254,0.719764111534241,-133.54774107369371,18.85354028707589,26.355987143034717,0.19819015267144677,-0.02109294094987857,0.3763436115402156,0.17154638997951321,0.3760164304009601,0.48067319034695066,0.48412372700126155,0.5396812366737154,0.6841127547308069,0.3318050916658777
0.8,39.71911275062117,72.87528459676282,177.87095581050775,-0.11680519323397287,-0.11445301117015234,0.19539631478704503,0.8501728603980262,0.38851648992416,1.1184414149022328,-0.8327231643054165,-0.48858593778178583,0.027865959936740126,-0.14199920830718082,0.6300655301336118,-188.1964431375167,24.12169038245198,16.1604775530425,0.18141002524609026,0.27035937262853726,0.05682964619337828,0.12058354831446083,0.576776944936684,1.691078982479551,0.7045747690963226,0.08219962466290472,-0.2369554722260109,0.5920139811817908,0.8264639620915925,-155.25074951399566,9.92262598429441,4.298425202663656,0.4730713823299747,0.2495730564621102,0.4023754667170254,0.5937486725386596,0.36170149765004167,2.2238198080402736,0.4111427226341469,0.6408574650258463,0.47569210639492154,0.2346747258390897,0.9485586878104281,-133.72359421309022,18.693552597144976,26.718800863605424,0.05748409672034746,0.3510222397600275,0.05855758161707845,0.0948675209686965,0.06635248510432987,1.0879864474503491,0.4119290709263153,0.5447640377013622,0.6705607891907729,0.2591541260311431
0.81,40.21705974603133,72.9849231229392,177.30536140386155,-0.013723968944218498,0.003349724174768944,0.06204309077436439,0.4372479813318292,0.18468045974453726,1.3796808359392128,-0.6895806482490444,-0.4507690483817437,0.16860221065178263,-0.06629279866614822,0.7774362760288104,-187.81617103956782,24.168455059765076,16.076051628333204,-0.06811013381180467,0.13905385489377048,-0.023682812290303216,0.5633741902121909,0.36959740394863544,1.7852852171243254,0.806073935668217,0.24418332033478143,-0.07841131522905831,0.6384642583180832,0.658014580834637,-154.3141009647779,10.421010649652374,3.715510842795903,0.2925381968573505,0.3801810203992935,0.660957454332221,0.42261348527385634,0.17755335395528335,2.422903843507348,0.3340705711705766,0.5654384005372712,0.41534529709819346,0.40997918587199594,0.7390200191445944,-133.73219549638586,18.370462174896783,26.63851404902494,0.09967212034098072,0.09669863238648994,-0.018375382971503346,0.6862798813893746,1.6664594963941113,2.623971824794467,0.4954131728374579,0.4681884061081728,0.6313514595814818,0.38811265528453365
0.82,40.23346867435236,73.04439640579727,177.02898259794938,0.049553389953002215,-0.012356932177621717,0.004091160164679061,1.0384526836483645,0.40016724005991666,1.5200250764001164,-0.6811822582347864,-0.6508870584597746,0.26294359680475526,-0.12191190338325018,0.9741354293140285,-187.9425021895546,24.292880827973445,15.968849086413947,0.06729236775088449,0.07944032159300099,0.017972221256935234,0.03829008442484378,0.13882399263247897,1.1005255678175887,0.6695223276686398,0.09278965119915428,-0.1320232170109444,0.6785143930719545,0.7296632959889356,-153.4332334056286,10.73835200947712,3.2046960649600496,0.2634114628533314,0.5868733907869353,0.9099833828472158,0.20310511115072327,0.08040232478109405,2.2173997966626153,0.18595128251473772,0.6114672059098984,0.6879420283663732,0.4431870650523971,0.9335064843096854,-133.63437324677375,18.245487818726822,26.631267152847762,0.09731208981910043,0.22829610726753113,0.05111097656543423,0.7478625380305157,0.47252507609728056,1.359478820906268,0.5520298473988667,0.37245388121181877,0.5387017141774431,0.3499430991620606
0.83,40.047684421512955,72.90757686601303,177.11038805047514,0.0429796650369257,0.16129991278109054,0.09918574867962249,1.1755214687160618,0.6363605015180152,1.8278803781875492,-0.6496558538520185,-0.6086357639625917,0.19419206592458021,-0.27315098852247943,0.5933961071843595,-188.03147250978088,24.50042841086814,15.910526218432855,0.017672967903883518,0.15572071545683164,0.251935872988177,0.7561519400738297,0.19942033999718337,1.835941869784426,0.7678362296606372,-0.09841665664866084,0.014519201674277532,0.619439291080918,0.5739829608458754,-152.36736397212388,11.163719857409777,2.458669966281813,0.21022340270424333,0.42370501564121477,0.8708431849738976,-0.08563233441791833,0.15981544590569777,2.293591015781397,0.5266376046184138,0.8116719837781705,0.4300539220353831,0.3455352733426919,0.7880733001374522,-133.34851469441992,18.130921200637843,26.47954564273396,-0.018340410313385222,0.2677803320104761,0.17126191616479375,0.5546293392714894,0.44932754675498365,1.3154131850191182,0.41902962829856605,0.463276805626193,0.6704860434584522,0.49344137870729265
0.84,40.536123089742965,73.06262907233703,176.9497204310461,0.1683213631490165,0.3294565731433164,0.058302588533644575,0.9248437381173437,0.3705155166140408,1.8271531779319434,-0.8125506491753229,-0.6960519820257198,0.15602599575142198,-0.24142602610234687,0.7424898428120257,-188.178093881469,24.500601160861585,15.53675420359787,0.08674971207496332,0.1108912422718195,0.1739094717978204,0.6570130365560304,0.7554667339256089,1.3913144421296715,0.6318797742400422,0.1555665393251558,-0.09068067023970655,0.640450953772196,0.9108844572666359,-151.16680104666906,11.412518359275765,1.7436425581858885,0.2991846157818855,0.03995284666851481,1.0157184292208912,0.39838134167577044,0.17067498940717765,2.63993256301311,0.17757334025339672,0.8631924964704853,0.608900300921057,0.42640100402746733,0.7363731755094741,-133.19410607923814,17.96713520595184,26.423331963136505,-0.0029476354176886724,0.1510885585632337,0.06524357943551659,0.5071398475791076,1.6752152958095141,1.456056449882701,0.4584035556904508,0.4644359159201965,0.5460738474687405,0.3121500438335975
0.85,40.44887887804424,72.98337061567706,176.583439243559,-0.07356051378981052,-0.0371767370036333,0.10928701848865038,0.830232572352141,0.3842888393948436,1.5697889375253535,-0.9486101217128101,-0.4702017852316698,0.34332467161635416,-0.2003762672377584,0.679088788850229,-188.30354875454182,24.617137024274424,15.639450612840372,0.43661238523449664,0.19611719432773045,-0.016517390389013495,0.7729324846552902,0.9655439919137858,1.3099644897488782,0.8556371233123847,0.35925513079219223,-0.22204453788573494,0.6146225089987255,0.8596854176157833,-150.39180797197392,11.450571712516139,1.3959921123325838,0.4549303080013367,0.12913212955887998,1.501510202759473,0.28727295789880564,0.2140466992794453,2.8402540743294264,0.13526586549322162,0.5437778290662064,0.6238857900953229,0.3680774666466192,0.7034431300631677,-132.7345297783319,18.106420722300207,26.309387743453176,0.2538306505103608,0.2457309094622859,0.2628463880840442,0.2840804050232497,1.6899511029214418,1.5093923145887476,0.37460629868935835,0.3153606712546455,0.7029836226675762,0.2545612432521007
0.86,40.42791980692524,73.0324866573801,176.50921095254787,0.04912019285014821,0.2725580784500467,0.0986161171644441,0.5858553766539042,0.07757468461435005,1.5553735198640957,-0.6668938416758887,-0.4434041843646305,0.09366944940549429,-0.03787828585854239,0.8256887954819047,-188.20816034922584,24.207996128534926,15.418046811607715,0.35244589993396686,0.24282716549173117,0.0955910039995319,0.7742402632129034,1.2466160831312614,1.1542985190177775,0.6751053624427891,0.10223932795392267,-0.1503062123173982,0.4931364740074256,0.806083815934281,-149.6177905991416,11.794557658258825,0.7450681979814608,0.5887301545408437,0.14996692181217405,1.3233145306775742,0.5233218631564953,0.16651692518378788,3.0949762799083427,0.25514119572962063,0.6417108159562046,0.46053079902874655,0.3751480007177312,0.8823249923986349,-132.4950215090244,18.00946569143115,26.355288386317525,0.17564982627397402,0.07827872450506884,0.5713581760430837,0.4164263735244075,1.7678815103789565,1.5530020166920517,0.44085231610205394,0.46598796754558997,0.5539351881779264,0.47991935932202157
0.87,40.59465269438043,72.83341549157346,176.41974032313806,-0.0018726366990445276,0.512474207442602,-0.03998666975961865,0.7891177403261709,0.22196725773423695,1.9701403534193913,-0.8616311138165074,-0.6653032494536026,0.2761828707958446,-0.1231133496453612,0.7743995496138635,-188.33925574776026,24.08138085487621,14.94198298860653,0.31016226136006597,0.334685617981557,0.033513236615080946,-0.043560244587450184,0.3162630560357124,0.6095151350429697,0.4624755748406676,0.21070456952066477,0.005963302864421899,0.6520130972359051,0.6806510757625176,-147.71617622965698,11.824130719135615,1.28797533456178,0.42392249158245593,0.11530390886776977,1.5805522463288686,0.3663730716310033,0.2669136814421256,3.1197650778179162,0.36192862701624645,0.6634197778898603,0.6931857909199032,0.37976122191422695,0.8513158936543349,-131.9698710971934,18.10175968197709,26.268325312088162,0.10568122552791005,0.10757637845679613,0.5207083731932534,0.8135495252149768,1.2710032095235058,2.2462650775826303,0.6044347480228888,0.45209108716728735,0.5979929673664072,0.04980703435484107
0.88,40.03901157995122,72.23576819332189,177.79375214260904,-0.08885720967242844,0.26594310564694734,0.3040807243006129,1.1234578057912317,0.23761651286628171,1.4142157912265294,-0.7614962451372898,-0.5917278181035257,0.3233524772866471,-0.1541251433350012,0.8948205117699994,-188.48420283746907,23.511170369125693,14.753648562312952,0.11442382051895617,0.5491216085192971,-0.10935092543111934,1.639338334390095,0.17966042695822135,2.32136829655588,0.8326617187276057,0.07087741319368597,-0.2001879761413024,0.6962921920482544,0.9308234796111152,-146.56896816010936,11.937677792787163,1.6146877985045198,0.47470791463676415,0.1833393161806497,1.2314959097141782,0.3354232253925298,1.009094669060368,2.79276631310076,0.2956891539716496,0.7672670997802638,0.48203830801093583,0.12551827302259816,0.8551507374899115,-131.32295625336485,17.927735565916432,26.048073234574694,0.04406477228700878,0.2622162252450255,0.30276429497988266,1.3702682556863484,0.9992189139500568,2.831474490914447,0.5082420240321953,0.40244008378825935,0.5577201376822656,0.543177041129682
0.89,39.354603522839845,71.67387920787428,179.3192787848773,0.049301242073014825,0.14521885487599856,0.37128564753062876,1.5164570109504045,0.4901595708768444,0.8234762448710651,-0.9311074778304035,-0.5408954562934054,0.12601687302627435,-0.1735905785683608,0.798876777876381,-188.44869874824528,23.049324013482888,14.831397596703583,0.09514912314856334,0.4836452542842915,-0.003198384920112124,1.3622695098079207,1.0257209332715684,3.085978186186991,0.8945262101203891,0.12062698158636226,-0.18498279044136998,0.5954503612483336,0.8104004213987369,-145.10572986384017,12.21085437489062,2.039239566117323,0.46973889044849837,0.1575535488612608,1.0783219343279338,0.2977921807103424,1.6536365126399195,2.5738500520940244,0.35552087416073946,0.7100189707458859,0.43748341033066235,0.2934345673336343,0.7306888228075332,-131.0645401801312,17.919554491609453,25.81435378115512,0.046128044608481994,0.3199872469240431,0.2697037583615211,1.4495868853196006,1.9273622131161376,3.0026379356048896,0.4598380927539507,0.4846439995387522,0.5498910366253108,0.23615700695726272
0.9,38.9953277425656,71.9318566400756,179.30555471988285,0.31878489798929455,0.14289685682366451,0.20422575019997277,1.6157617817603374,1.1986275315574555,0.8121640186337844,-0.8248547187528164,-0.5559778058319558,0.34780860392321483,-0.14000040528485128,0.9589721253647954,-188.64102709486414,22.558401850915274,14.770800598411391,0.0739876557398635,0.6379628285117594,0.18483766113952604,1.0207256584593671,1.0217273467114327,1.0198179375345777,0.8379687773565309,0.14684979386710756,-0.08198910742913645,0.8352934757498452,0.9560599069509423,-144.93583164509081,12.06778149083235,2.2618076881585822,0.66173935479738,0.27892804538021915,0.8270615729137251,0.46149852805517017,1.663784598328267,2.6403228697127092,0.3694154060074386,0.6872957798682858,0.6668264759648063,0.42366640203207073,1.174513638477691,-130.26681626235126,18.19449897480897,25.741824139438673,-0.05644643509669405,0.2218773170456215,0.6358662073306964,0.6099385279158251,0.11446598466002064,4.277091324484836,0.4734456628046684,0.3947596002157852,0.5502722470811817,0.4793000046723328
0.91,38.387396577391506,72.08783225691967,178.39175970009975,0.0825545408363362,0.36143269807532236,0.20291477738658042,1.5149571625022407,0.7729378131811967,1.5176605897581759,-0.6941742859138486,-0.6319360840956699,0.18739051037910728,0.003145517309837892,0.9949342383701968,-188.6059641809944,22.291072062188977,14.455665973174792,0.3292256664021565,0.1530403436609265,0.2371982142311293,0.9667675739980487,0.1800068530060053,1.3335086958307456,0.8389171225919296,0.23286677119999463,-0.00745665703044221,0.54316668905914,0.8605441689267661,-143.94978135833108,12.393206130079653,2.7908240950180563,0.6463985543211191,0.3348969816907179,0.5872624472859548,0.49458109588525345,1.761336113531477,2.2937138905883128,0.4627981218582481,0.8218455435376766,0.48412180613038847,0.3084002775228534,0.9125314617346775,-129.8312617303599,18.097135820102853,25.528559038465104,0.27461240576049395,0.3417242862033473,0.37022734927414835,-0.09427898703280221,0.28772938677213417,3.0918786534115315,0.29774264653708477,0.47500427703417997,0.6445091678228515,0.24098199306594492
0.92,38.13957058287174,72.47506405344242,177.3228223393412,0.19537992893078449,-0.1614824221455752,-0.10769446766403348,1.7810781725783345,0.09486860316843745,1.844946743610511,-0.8541714405416116,-0.752190114019228,0.2563646802788298,-0.23888665429798084,0.8187600773331367,-188.73549072157616,22.525688519393462,14.09318127993243,0.291482641473253,0.09149515010888244,0.006290723706257717,0.5359529132751297,0.7409492279184374,2.482736533302891,0.7962576695490882,0.26969024478101655,-0.1840268910350007,0.5716043764240756,0.7147978638029729,-143.79827558326747,12.78185023521594,3.4585712866675795,0.5809650107179862,0.0806910010406022,0.11215093400466251,0.4721576413878355,1.2856720674482305,2.0506118274206404,0.18586840077161745,0.5765826656680876,0.5303000722942562,0.23100214873143815,0.8884957548940186,-129.18955929999078,17.952277777336608,25.714524471750888,0.1505092461390321,0.2556018527926291,0.2933302002166544,0.49481150279154956,0.46269934132031176,2.9496216761657403,0.444062939668287,0.6201978180408064,0.5078858520139393,0.49552615406597
0.93,37.76810496938578,72.2292328524597,176.61888264971245,0.2660663047043552,0.1399429630693414,0.09187522193786374,1.9119443348671772,0.4422935444454888,1.303169120982434,-0.9138424692180597,-0.5014053590565962,0.28411586155689217,-0.34722062789422686,0.8900372570850169,-188.45490690938337,21.95474571927878,13.719747754197902,0.4519684529737622,0.49650479589243085,0.13077555233991797,1.3353252153064559,1.8305783261497457,0.5085330554220608,0.7943492252954832,0.254656453653644,-0.28441774920155527,0.5245811425557181,0.9992425549889186,-143.64808501670763,12.864498803042027,4.383429946498671,0.47556485732715925,0.22018068027665105,0.20582034511528827,0.2518598621640117,0.8259245862279925,1.9378573234713667,0.2337769154606915,0.6804920158807173,0.8174595069608425,0.3236250282035853,0.8484467079757894,-128.5761357889557,17.812197805900606,25.397965031628303,-0.006305026919375151,0.11140467878675306,0.30533518373380475,0.5833123040637153,1.8175885881777505,3.257601895171575,0.5477439713187161,0.4182371161765338,0.4772233409321448,0.3634102157321973
0.94,37.475437732452235,72.50493249677926,176.7718865083412,0.033680389813741815,0.15741741779604654,-0.057455613687547175,1.9109474701551723,-0.16093898160025608,0.8281412388468208,-0.7750087660652476,-0.583355147104596,0.24042429183846584,-0.18563785781733405,1.0181289036788415,-188.47999765929154,21.83122955847348,13.39738085028131,0.2689150450357546,0.14654881470862105,-0.008748734763579694,1.527654296298967,2.4706004746130787,2.254163843269118,0.791416600881324,0.11942926316548605,-0.14585717580426186,0.48215835592251627,0.6856178721231357,-144.0108321896976,13.434896283972783,5.022409151841743,0.620434552506652,0.38764113949506385,0.41211717453466634,0.3097440646944714,0.590509813526233,1.7251190142353954,0.3303913356080702,0.5927051043376559,0.5718194601025168,0.1313297431472045,0.7763571951473318,-128.33532493762556,17.751355016706885,25.790095707582662,0.048069044376890774,0.1966513964321373,0.14868662557556495,0.6268122528243357,-0.026237403532830363,2.9326190704359094,0.4904575166429907,0.37418618082559396,0.8538081620496327,0.5141001872289175
0.95,37.372473127514375,72.7426577937424,176.19815788552233,0.10097910711855804,0.1692615620583071,0.19038188094867164,1.949423433607421,0.4893321988374503,0.5525250233800709,-0.8245625137585803,-0.7504871800701575,0.19184859935968782,-0.01909464795915433,0.8922214642792324,-188.69722794523005,21.148425695809447,13.45340718240228,0.3107181416871869,0.5820642392248504,0.054134920032286156,1.4469372564438192,1.0790660068897562,1.350114616485608,0.7668532767865335,0.06609653814805572,-0.2764820785148494,0.5592190076720478,0.7702591609334317,-144.53124316173694,13.404536703491845,5.646849954166871,0.6222439435550338,0.15260626575544012,0.39658498680070986,0.8491897193442718,0.055340042548581776,2.0493608690037926,0.20949546909840727,0.7092406038440476,0.5700254025409535,0.3217932830926311,0.8372347509975127,-128.4699043393805,17.387510264422886,25.80942231502341,0.21655305904341327,0.11124201573278575,0.1563507719702433,1.0396730987371186,0.9696890900742897,2.638205346625301,0.34143393431116253,0.4343805420010802,0.664717381554989,0.28563562386478386
0.96,36.94300977210488,72.94647413491087,176.119341151829,0.057799351886128086,-0.007054106658599152,0.18610069770770837,1.8458602222700495,1.205507127797838,0.5516967009145367,-0.8283492493809566,-0.5162063135720911,0.18988579722543716,-0.03652591656490123,1.0382375993602428,-188.6019481407315,20.394100096841367,13.305159019854873,0.3822039982785005,0.766824501342184,0.19861257620737338,0.9125504856394229,0.14921221503729054,0.7744072911288207,0.6857678662354091,0.3426217668740109,0.035814104027332844,0.5332607256474238,1.0051906938836714,-145.07626059904658,13.564219266537206,5.992584427134955,0.5692328060837782,0.22028024038302274,0.47885661556170306,0.6295931354698211,0.03291298914917501,1.7047052486249497,0.3226504623228108,0.5750989087389351,0.44071953807746267,0.25197771989533835,1.038025031596085,-128.42620637992792,17.41144436693702,26.403129899468894,0.1475492651917629,0.19781297851626323,0.1667344927911138,0.43657651377820667,0.5625070174203901,1.3830157851308895,0.43120035040823396,0.574288890338808,0.6958757885881258,0.21528865195785435
0.97,37.270434372161525,73.09179805886761,176.75954220450348,0.1417275574604979,0.009067061549401068,0.1731115964135823,2.0086345635859746,0.3865895867064111,0.5208471739124896,-1.1225748726632307,-0.7121706110849827,0.2720298372106436,-0.22935346230641626,0.9432731482351657,-188.67673870225383,19.447373857132945,12.924191562890222,0.6235148991132999,1.0565819712329474,0.19829468181375692,1.9781763400250696,0.08245963697864753,0.7003714216121966,0.9229641309255657,0.0834407779147841,-0.15710298483667726,0.6515740055061527,1.0156107302148591,-145.51768731705295,14.032737593822418,6.157940859687901,0.29592648143203415,-0.0006668090358955547,0.41385695513115633,0.5106594504643995,0.05197657604185471,1.2462745097480825,0.291742368765586,0.7365776843972016,0.5950412445954715,0.13611665108050802,1.0133340429623365,-128.5385983624107,17.21353964428119,26.487578283324126,0.1679970570254643,0.04631260561601532,0.06689024588308246,0.3771229175196996,0.26019947909561025,2.1208165866580644,0.5764255649176204,0.6959572377672691,0.6341672062657433,0.4255353757607223
0.98,37.208250758512996,72.86700904932121,177.01034360712745,0.08576650035091757,0.18134646818863354,0.05055061134132191,2.009543345342212,0.5302219561068912,0.7683529843109549,-0.5971931581201284,-0.5343489943458689,0.33780544380483063,-0.054751441910002974,0.8829141362380675,-188.58190822917905,18.476551533875284,12.671101900896497,0.2955925956099351,0.6544833011815993,0.08492466679453173,1.2185193978298827,-0.09907830275169179,1.5757866943979704,0.6996967825936635,0.1621990757341254,0.023893944840566145,0.6281323938341924,0.9866515230181466,-145.98193238032093,14.039515943095767,6.530865778525668,0.36040738837052166,-0.07902600468148466,0.28061803813454694,0.24901614190445429,0.3524677194056919,1.893778345171462,0.27415583822569956,0.5255132272251528,0.6858061762244346,0.32517582282086577,1.023808653595207,-128.65576273291157,17.029907679751975,26.783491419112384,0.2512319639175533,0.010477367440794987,0.3426690177017819,0.6917608496702203,0.7682183593424875,1.56914818460915,0.7030810832646799,0.4002131442092445,0.6252408842665584,0.3924373810231242
0.99,37.21155604152737,72.63637169249147,177.42919378141625,-0.035464120171381106,0.14407215246997085,0.02794740006588097,2.313365761437465,0.7442492888785235,1.2758618535315447,-0.6372392040345083,-0.6855737236908113,0.0615285266804351,-0.24302524057504765,1.052241574569743,-188.29388345152032,17.31561052928286,12.268914401083821,0.47554785452764836,0.7209254785155348,0.05908184700043155,0.9601245231055899,-0.09379246415126097,2.140033769856199,0.8515222992153326,0.2951689134765324,-0.2821328171348488,0.43944282849213434,0.8993627212198082,-146.09438422919817,13.995306389185977,6.804933218818042,0.38069589027832185,0.10274094495733538,0.44102378329725894,0.34992353586170527,0.569234643975703,1.995090293391535,0.5787117000399145,0.6497813513343162,0.6709838192138692,0.1934334494116476,0.9268974138717962,-129.10717886322487,16.92505543235288,27.14592980822578,0.23734253620195794,0.1753079183987779,0.7599785119031552,0.48547413987925486,0.5274603771568229,1.9995957362175514,0.5294792614065083,0.3985522097666794,0.7339997228385092,0.34965028455855035
1.0,37.132528238759456,72.77697485957857,177.23377378275396,0.08515125387453235,0.04897540585311157,0.09446960938195853,1.5583755346175123,0.9108583286709475,0.26114283921149084,-0.5264891495267304,-0.6714388756965266,0.2307772515938885,-0.0446335176282702,0.9412239835733939,-188.33423730222083,16.672790251235252,12.02613453288505,0.14336050514373205,1.172339775829344,0.1483256692040733,1.1466622391891168,1.1892382937866735,1.6602938221557357,0.7279367185065304,0.17959464907208283,-0.26583505138436736,0.6382740169604428,0.9381562430931181,-146.4365197179256,14.304987693256777,7.323214387438555,0.11707711770885292,0.053798864100570526,0.3968448113107449,0.48076108299078535,0.9048908414158188,1.5327352912525765,0.41464361511017356,0.8298256633693498,0.5967425150589959,0.06648682096400976,0.8319035539067445,-129.96353904417063,16.83475634320551,27.38357348247577,0.08746378804415644,0.09827219878811938,0.6575258335878816,0.2511296519355757,1.248690582886407,1.42195305069409,0.31454028194787526,0.48024226097085826,0.7175277614022378,0.4767443634004602
1.01,37.41947705599315,72.39482956387174,177.83500058393264,0.15207241083756676,0.5175345144913055,0.0838743378321641,1.2116248406330188,0.6285272811981212,0.364723439770614,-0.7172198110295399,-0.614231004354417,0.2594573150769281,-0.2346070475868765,1.0845823665372727,-188.5190695604918,15.763847238938169,12.261292794379568,0.0028682207800661158,0.7492759479756832,0.1159477664434824,1.6601756974301716,1.1944295643038914,1.9000960673251204,0.7738705557203321,0.16981406510318392,-0.17318649560796318,0.5294075702040684,1.0036084380911892,-147.2029114424384,14.040035190137806,7.357051311988063,0.2159316685773177,0.24157413640946263,0.2889915253664056,0.5677799672858368,1.7035914027161894,1.1855471829415045,0.38353425499238425,0.6611356448617407,0.6504404192852598,0.2579165013369549,0.8824497217983521,-130.84042745474903,16.73461214758588,28.106141404013595,0.26218254623730375,0.463430112042938,0.689028160826862,0.3615920824175449,1.849755230714388,0.6924111989518352,0.3449412331354564,0.5003858304360982,0.7163855957495862,0.534293637531716
1.02,37.36812604195737,72.196024798852,178.1123390909515,-0.05464946225412369,0.13832130729595887,0.16776002662518208,1.3633438657811834,0.5523146946930262,0.63215076485947,-0.7439743116933369,-0.5592401965811896,0.12697916401278397,-0.29055616949938556,0.8153152839700117,-188.47613108654588,15.438690174620898,12.371006604020554,0.13016185761571628,0.664592839158901,0.1009874246663256,1.2727477091366413,0.5591480468544995,1.8735510851323744,0.715747765924235,-0.09939482189010414,-0.24538348998761716,0.53703530634749,1.025724994453228,-147.28772126413728,14.058373011255688,7.2207404392747,0.011265841740810106,0.1348465263659147,0.5075339897577467,0.15174932402367244,1.7403110121087926,1.1596185848176397,0.3817813244580767,0.7495236628758114,0.48995321233364053,0.42662198200106716,0.9151710491336762,-131.30755415306712,16.685466604722585,28.2756045493267,0.07017390339977114,0.12200409296954057,0.4621031904806766,1.21826733151523,1.066069625126834,1.3259995260915391,0.5640981092461872,0.49967484301533455,0.7296725472201386,0.4053102231327398
1.03,37.28863710921897,72.02937881695783,178.41263378657564,-0.1371281989862942,0.3761006891647283,0.10551089401470876,1.636317537695047,0.5089791156875991,0.9493677526883655,-0.6903374251231705,-0.7522689013128256,0.3682294278409678,-0.23077004719817143,1.0239656041973293,-188.48671320734917,14.824787059266683,12.545284778239466,0.55834884789479,0.8724374832694972,-0.019582144506011062,0.4455832704414121,0.2083724592176599,2.0341549814856914,0.6249200208641519,0.19886549777952323,-0.17373439953135889,0.6897806424065176,0.9358040450761207,-147.7621345483756,13.894042195070558,7.256980790438521,0.07683584060107118,-0.03370148784289102,0.647649263328509,-0.0335316440722816,1.690780102154748,1.4209045638121187,0.3766701094782489,0.6336798753159977,0.4801464277547168,0.4073996774473852,0.8583896443957897,-131.60503797966732,16.800960607449507,28.79180706529937,0.25450614315428977,0.1298443244815994,0.2745303405125766,2.1709878181747575,-0.017935700144123046,2.1360055016770367,0.3639255738026208,0.5228011779802342,0.6333292320949291,0.47738114694858347
1.04,37.403922623584556,71.54234597970431,178.5944162837148,0.01734896321181076,0.4980110975853695,0.0585815060548862,1.4880509345621709,0.24886140511829297,0.7480200421578234,-0.8005181162408745,-0.7676198081201973,0.06308790187580851,-0.31469283822472116,0.9908240994412216,-189.0959737071649,10.210092997771602,15.111431404611608,1.8491579872199182,4.861138580825189,0.2567693826395298,2.989395054823619,3.370911689740375,7.553200195179302,0.6656032774577961,-0.007677316822685978,0.005987828111365154,0.5358707820698724,1.0845326782828661,-148.23191848310833,13.99304795543256,7.278339982963316,0.008989942513709284,-0.0200989046828714,0.6353766254640032,0.41147654096375197,0.5014549072125831,1.846061909623684,0.3776806809204517,0.8031342126459736,0.5372967840289578,0.3733158653595331,0.967435586381529,-131.95217052916323,16.862758702279326,28.96969990023548,0.41013875124177157,0.33663488470287173,0.3943129416185822,1.3012875297234465,1.2335194993458658,1.7296060670067528,0.4489541693244814,0.5771694938878033,0.5841016297887104,0.3954291654657751
1.05,37.42752885400181,70.51171233169212,179.18213480768603,0.10118906020358888,1.2793425019115692,0.23266165494005558,0.315261978506413,0.6098903530529062,0.44099438766603993,-0.7150081786439564,-0.6772904316672363,0.2810861290821971,-0.10705572568544111,0.8430443017933784,-189.097946013251,9.436923029960939,14.456133404618043,0.25595689419518997,0.7435290765232658,0.29583528451337304,0.7141047264424802,0.6517152350225117,0.9579564785842833,0.7393160974740636,-0.05221954901216963,-0.18676928763029652,0.4117047996874613,0.949683689341375,-149.16316200242812,14.236307810358245,6.967428485965517,0.09962554327152694,0.17964994478052443,0.7884586501709204,0.24771799441220582,0.3692820097707,1.6508050577936353,0.51703869659027,0.7472842733005987,0.6481928217816305,0.38108918598148506,1.1063117839308834,-132.12833231916025,17.194369612285325,29.378819443079834,0.40508108269118326,0.21255216915113376,0.24200756570968257,0.08571716751569125,0.8167510905605337,1.0874873745944766,0.3478138007469937,0.2481938979087907,0.6914320823890427,0.42961929608292204
1.06,37.3613133451495,68.93414434018757,179.24436431162613,0.07973660822199354,1.1978642407891313,0.06859224785580484,0.43777809872528756,0.20327192428976903,0.4956960081113335,-0.6930359198163751,-0.4506617683828307,0.2553825843301001,-0.11484826595355391,1.0153293555565461,-189.20785480111803,8.42773016798958,14.396269727519385,0.20488728122779437,0.27200358463733765,0.28660273549414483,2.265511698910785,0.20897119862600294,-0.010417909341905465,0.9386283088492715,-0.07420062524247135,-0.1828590711527453,0.46200266527715006,0.9871267330923432,-150.28883733670818,14.417397870620704,6.565847052637336,0.10639443702670627,0.11585938247125277,0.8939241660748918,0.15223239993115945,1.162701643399454,0.6832193599016883,0.3769498264327699,0.5559067561269359,0.5403978744790887,0.2332703119647459,1.0066020054011267,-132.42502798391752,17.068140261095497,29.735096512997988,0.17345872662200146,0.26961844809889557,0.43688563288402377,0.8386186667782187,1.7687252533083697,2.07971353324959,0.44329170832247117,0.40067838228702723,0.6457351080385098,0.6195620806360358
1.07,37.07766463923689,67.45151711111691,179.33771048689655,0.32766703865189073,1.2903898088315422,0.09473530872242832,0.28255476883364417,0.3713350547335947,0.6504777680464161,-0.9260348218720965,-0.5309263326029507,0.14209042650187503,-0.16369773177732333,1.0338853502806988,-189.2521493988113,8.508655753910608,14.863591146331498,-0.02021462422166051,0.31328553036832674,0.11276749291054412,0.2983955073049094,0.6648190148275102,1.165517794412935,0.8435148937188133,0.04680757459326942,-0.1357515949779075,0.4921267960321648,1.0147153231135788,-150.53472788072378,14.75248469526565,6.1134962923969445,0.10321434868453265,0.19122360288332468,0.38854767883696845,0.057458796620899866,1.523832984640235,0.6772138855052677,0.3473151046008012,0.5749705947709836,0.7165613508778613,0.31870793670444403,1.1042447587234463,-132.53289053544682,17.272153585885672,30.234968499203216,0.3125473267459513,0.24437284396736683,0.15478624408187214,0.3542367368847469,0.9981913828399499,1.30399350860076,0.4459339853083889,0.5113348771197846,0.7819802731630301,0.35657998718186557
1.08,36.491162474715125,65.94287461862721,178.9976687638601,0.3052457902979335,1.1252576132395744,0.13520337447289077,0.5239315566105256,0.459551428593844,1.1949077900841467,-0.9346869912664564,-0.5114259165810926,0.41586893139436665,-0.07444461126415507,0.9912940959506181,-189.24229545318425,8.917015952925526,15.055210496259885,0.18710707115817043,0.24189944534840988,0.13544813762731128,0.5637867688878944,-0.00135019016324393,0.7802593536062856,0.9106795426457006,0.016212186425584724,0.07470620530977788,0.6778738965232585,0.8807196585658869,-150.95845625534318,14.690598382908894,6.279497617771906,0.018564498778083346,-0.07160818868505832,0.22467088889105488,0.517272841266891,1.982774628039812,0.5288852859454563,0.44263862819425037,0.642162950192074,0.4564404784292617,0.23241794754085882,0.9606166329967671,-132.54334148615538,17.835443114086743,30.754168752119547,0.43920350503689465,0.24421995907864563,0.08101624531843121,2.3971508418272554,1.6915096153044837,1.4354994568683968,0.6063601107973112,0.39395412124937834,0.6387860412685812,0.536635978816787
1.09,35.900900234082954,65.01697463559225,178.6771903026666,0.12145583273418574,0.5344887698119243,0.16486776895157457,0.07537357747016216,1.1941302791362982,0.6482827676369008,-0.8743495358338297,-0.555326283455876,0.33241408332789074,-0.18013479198343313,1.1327620605234343,-189.57729866514126,8.530012252312597,15.015571638236715,0.1098014838153987,0.0897079175763509,0.3831014748267415,0.9407966122413292,0.35692870824739686,0.4606491448795379,0.7571213997469463,0.09980558808525994,-0.09673064415034097,0.5814030684710004,1.0826619181205823,-150.80901752839756,14.727558968862356,5.907685552381209,0.23692575771446858,-0.049978421428621134,0.04260228600060453,0.9246859662928041,1.3444525644457552,0.25716863499454623,0.3344563255510158,0.6547644257323062,0.5832368750433006,0.24328207753417058,1.188199972421052,-132.20715058342745,18.269928955467787,31.05984875506419,0.5920942759096978,0.27532563385005,0.32757395432708264,0.6130491189363457,0.024043506623965323,1.0887494413973706,0.5507706105741671,0.2754228083528248,0.9190284895222166,0.2879613959957884
1.1,35.075044484036155,62.81284942246456,177.50077633304605,0.1330863400127073,1.5375466431794682,0.01727008584844153,0.22299092346428248,0.8834268837496806,1.282922243160288,-0.8202211205036789,-0.5660599413991936,0.2817726947774343,-0.0028474398599044326,0.9486586969073927,-189.9516168947479,8.258088864513955,15.400944149999683,0.28145142758294645,0.1441444068426557,0.20311429383191149,1.337971501456925,0.802616548685616,-0.05673079512566517,0.6436400860559482,0.038109984987158035,-0.1006369592924619,0.7030310847466485,1.0215780091786526,-150.5163233608981,14.605084813414566,5.560952364967407,0.293772051626828,0.11923441930705084,0.19420377227968713,1.0752492220862488,-0.10594146812648268,0.015585925167019316,0.34853882089687005,0.7168410921699969,0.5714153995172304,0.2672859842244519,0.9864505490435825,-131.91496473505535,18.567730047386597,31.92976223572232,0.6052814939940498,0.36046690196373177,0.12472269765838728,0.5469474579292464,0.38234735276549925,1.0834707001310662,0.4064377565193747,0.4670481890483801,1.0604791776357207,0.35254477299954684
1.11,34.03983941016555,60.630775961499424,176.53429819053733,0.1676442139372871,2.3121774990451818,0.3848869542177839,0.26601484708259704,0.7413506104197232,1.7712593059901574,-0.8543504221801499,-0.6485096374270511,0.3001255442203113,-0.1739531949891969,0.9041235945479379,-190.42549681117683,8.67064124068817,15.594463695116023,0.48664324688899163,0.4577102817640437,0.2562432085304803,1.1754143572265763,0.1766079664587939,0.507173235377297,0.7982216135144325,0.14391501355582945,-0.2656659712638927,0.627206181091653,0.9407322036401071,-150.18726653176054,14.331941707929039,4.836354835684012,0.6887450676740501,0.14118686340268877,-0.07179013375069201,1.3130979083661676,0.472296006623598,0.24261688478645693,0.314265709534958,0.7160171953835185,0.6972350415896711,0.43163471474161874,1.0339319153861721,-131.79387038442974,18.86338829890803,32.640491814074565,0.7056968677587045,0.484669798220141,-0.007235117650903178,0.233058559556294,0.7206785932216095,1.2590823667661628,0.3182143034769961,0.49102396714433366,0.6818468140640641,0.31636354020339746
1.12,32.49848954003689,58.48529773968162,174.93272732476132,0.3429621001744676,1.0527141163077562,0.5187170043855828,0.606916415168071,0.7391827368032734,2.5960652074863586,-0.5393068538217622,-0.6452510170060947,0.4177562079284009,-0.12825741970931914,0.9623675386671987,-190.64517968062393,8.902611797031224,15.92422210695723,0.009004357528132658,0.5474238188234155,-0.18468062123678988,1.0032788713939573,0.2667112906798427,0.23285404086312037,0.8302878144882357,-0.04055392251967639,-0.03219670571538674,0.6854318682647126,1.162120767080426,-150.37438321978536,14.082416288894079,4.234525733970702,0.7006231463151208,0.24961485360278476,0.5832173418860553,0.3974372368224252,1.2730677781793485,1.5566673802811979,0.16151531456055052,0.4931060544016265,0.5248181621161936,0.3674225582326474,1.3107646529641788,-131.3358824149929,19.341271465740387,33.733384319488884,0.9008025457600471,0.22404245234620188,0.4590178447800767,0.4654857629669399,0.0637253337699592,0.34397643901220437,0.4731187900963535,0.5471908155680986,0.7994976471597872,0.3361053357765645
