0.02,-48.16502956412691,85.68295085826753,177.91222044685395,-0.0755712889727792,0.0062278530304427,0.0608048684469853,-37.16848136377679,87.59009117964254,178.04000751667127,-0.0243414865737985,0.0070303366108909,0.0030119577726288,-199.3968661042993,0.4664459082908604,9.485819829620626,0.1828871676365528,-0.0016413672001939,-0.0504214141936517,-149.75223845725102,11.84225940301796,18.44188369773065,0.1093929540127049,0.0071106408785252,0.0780750666432152
0.03,-48.1260001440654,85.72643312034259,177.99024764888233,0.0831411172818474,0.1403651609361766,0.2241117683322762,-37.40033852821608,87.5582063798594,178.0900300502665,0.1185649078618172,0.0487205128547377,-0.0680859452216873,-199.44708170323523,0.5416775761949172,9.301900381882184,0.2264154770958886,-0.1328746675500414,0.0650959855296839,-149.69755695502585,11.875862167646302,18.534851733069413,-0.0671475818375229,0.0131295713139114,0.1025401206331718
0.04,-48.24808142567527,85.61273424282436,177.80395554635444,0.099336925281492,0.0796511052322746,0.2197088199075405,-37.40456630293741,87.55703849204556,178.0388200968098,-0.0277149673126713,-0.0246789061113144,0.0859593864680128,-199.4065815575875,0.3690320775881803,9.30531155454868,0.0506675436964951,0.1998932805643848,-0.0956077646691589,-149.65158087681726,11.82356402224666,18.45701111931969,0.0004741445508852,0.1078960509006724,-0.1045455109973901
0.05,-48.13944391534305,85.65279949521769,177.84244521144225,0.0826405854759377,0.1885799316957084,0.1749669394386982,-37.41218310835861,87.60038265905534,178.12489567777536,0.1888105650186854,0.0141887117686179,-0.0826701699866836,-199.5454633153128,0.6710618799890158,9.415565651061762,-0.1591621571506114,-0.0134176095338162,-0.0390061516284825,-149.63300498970906,11.851090640335997,18.426995064022364,0.0431037456709689,0.1743523030436452,-0.0181748780030291
0.06,-47.91485480227889,85.43779629758524,177.9866679120773,-0.0004264942757143,-0.0616843211642462,0.1855506909924009,-37.20810979255572,87.68010177897938,178.12854190667463,0.1189975920249905,0.1074657020376685,0.0448820460941893,-199.39050043453216,0.4070417185084508,9.1752692421572,-0.0958871427067663,0.2386978758423455,0.0796821962538189,-149.4704031376089,11.94951824089718,18.22934840979648,-0.0357811618201575,0.1709229881139294,0.1604123326097936
0.07,-48.094301060031,85.57720670644224,177.82247589374765,0.1320237695782232,0.0368466930667472,0.0849263632275544,-37.21259244358486,87.56716417557968,178.07605928741657,0.0444331162344947,0.0970636006494809,0.1591511587601226,-199.29484230247303,0.443151768542807,9.41420354444179,0.2472265573532704,0.1425044381312101,0.0464625064765485,-149.56796697440748,11.72926710889082,18.37129191857558,0.162601249608551,0.2049272447250724,0.1532142363281995
0.08,-47.93377362126634,85.56820239212502,177.77542520848436,0.0265182364335927,0.1449327033830197,0.2969635777152085,-37.32373222675318,87.62684543241882,177.94435079077704,-0.0879505444366778,0.0960813509460137,0.0502241606671068,-199.12873240996137,0.4870316791605766,9.479766818697422,0.0530566950352327,0.0569095774784784,-0.0141696775208363,-149.5470617073696,11.93819535258885,18.25430444261625,0.1503421221231303,-0.0213833875391692,0.1007197554356013
0.09,-47.98778929419167,85.6711534804943,177.8480870949946,0.0809770801497334,0.1053337935832436,0.1015870312049109,-37.222502816645786,87.5868265202358,178.0188256732685,-0.0035690828384991,-0.0595578083799506,0.1472498047061277,-199.05180035891345,0.4031200758587973,9.24142980009132,-0.1118090424271028,0.1339441886422041,0.1220944473952866,-149.5152889932315,12.071282508274576,18.36153259697505,0.1056364043358236,0.1006456729231536,0.1661593478618431
0.1,-48.119924841028606,85.62732865420348,177.81946186357658,-0.0280782367673218,0.0833474172520741,0.1689409389230258,-37.17350788466074,87.5031720006272,178.24382272946968,0.0685029715537284,0.0474610241137358,-0.0243145788201401,-199.25040676763356,0.4960572655891707,9.372842138567927,0.1974364907745314,0.2660081586185924,0.1780861493820754,-149.63531491209108,11.915591629952493,18.429496463801115,0.0379672321203242,0.0748539416209093,0.3742816290660586
0.11,-48.10961608229791,85.68133520264236,177.63684204645594,-0.0215828516630791,-0.0027826077492393,0.1406123783372081,-37.26809513135496,87.59739379681399,178.11434019082645,0.0745932914415453,0.0631652251493757,0.1122018669859448,-199.12476175938255,0.378113337237716,9.392599735453102,0.1304983030730386,0.2569302393546464,-0.0969213731476546,-149.38242682789274,11.818662526518304,18.434448996625864,-0.0168252965477419,0.181916703063672,0.0006242495408216
0.12,-48.20261113615662,85.60805544562169,177.76750809968848,-0.078210296333966,0.1736723457105976,-0.0073230740540924,-37.20036594233101,87.32178669723548,177.98829304484312,-0.1594699092607931,0.2300684188726178,-0.0028601888993436,-199.17903285431103,0.4322336888003978,9.365889919339294,-0.0338320875617253,0.1219009559797789,0.1782127580999344,-149.2911638619459,11.94583456554576,18.402412258115344,-0.0452747107442917,0.1307713727443386,-0.0619200467610616
0.13,-48.17472189284236,85.6619335753901,178.0029475925257,0.1426199384531569,-0.0778149846386024,0.2665789536756426,-37.39631951566478,87.61708605200731,178.00405518371693,0.1394543399314197,0.1212501712807157,-0.0831246077230753,-199.20552588128768,0.5177271752377658,9.44297099284595,-0.1731587723021943,0.0810085958762468,-0.0512007648747134,-149.1731000736008,11.96154876873826,18.4753536273892,0.0052117349705562,0.3273638396507586,0.177112296335087
0.14,-47.912122670145365,85.63175511305258,177.8676885255497,0.0618901756013889,-0.0475175693854648,0.0664571595051742,-37.24385101382013,87.51056998324157,178.11328829082225,0.109315372993986,0.2042311470961872,0.0247522046239533,-199.064452146674,0.3202701718237538,9.43582068929228,-0.074600608807093,0.2920972885855363,0.0032845125795185,-149.30789946239875,12.02337011872688,18.302750992104265,-0.0925339239527358,0.0453102520908803,0.1893228118362446
0.15,-48.08478242188336,85.61402317821903,177.86617991233794,-0.069019859454423,-0.0602837805099306,0.1566061088554362,-37.14841924846576,87.5970848204512,178.13453250603814,0.1083562317981912,0.1091232860411843,0.0069953073524136,-198.9815950865008,0.4568373051296006,9.457697889484908,0.0388568065743291,0.2354109040633014,-0.0197814427536249,-149.44711044956466,11.957457759044429,18.29669001810884,0.121179934767104,0.0485079282741489,-0.0173581441714537
0.16,-48.1113221216505,85.48132589127013,177.65783130328805,0.1299663984135476,-0.0843919310335321,0.2121646270091423,-37.225660128143645,87.4087643606633,178.05733909789112,0.0607299116257557,0.0671687116694322,-0.0464627494113879,-199.39431878842373,0.4279496089149674,9.39626335978076,0.1542756594355502,0.079454652868196,0.0394457313580248,-149.41392089527048,11.944612673755715,18.39349936811445,0.208746651985777,0.0898193455430423,0.1740298664806066
0.17,-48.117537279022,85.67635680405546,177.73938437870896,0.0677638277788085,0.0645590962301377,0.1593381950024709,-37.43660115611342,87.52032879971351,177.9631466444984,0.0561043916729871,0.0439210308756898,0.4242474267273635,-199.24031015973347,0.4906189436850001,9.31733873956343,0.1892749265623173,0.1774764137646069,0.0476083013382323,-149.35734903055396,12.00784365440881,18.327203623949227,0.1065414034446286,0.0809910756995768,-0.0361914514310304
0.18,-48.26918184445761,85.70299274521635,178.01232007138918,0.0418962486826804,-0.1413365141029438,0.1914558474188149,-37.46168936151729,87.62514444438558,177.97133822648172,0.3851742742712223,0.1156074476979062,0.0513711523538308,-199.23024404672088,0.335344902701079,9.409388492955816,-0.1321967034255916,0.0164763326877733,-0.1606149260883283,-149.4217857149158,11.99284507272938,18.347959197530816,0.0215085633913214,0.1199542822692657,0.0639436870965305
0.19,-48.469137505936,85.55482006545957,177.7631993367329,0.0406198739440729,0.0928776961042373,0.1673196856615267,-37.248959232597,87.55620905174554,177.89467548007977,0.1031203413840528,0.0110516786713042,0.1988304417902628,-199.22062055807243,0.4748892346492153,9.086761744657178,-0.0243619078962466,0.1348633044299406,-0.1487520753384013,-149.44759526033124,11.847702715815329,18.46984118421569,0.0962578858574996,0.038884169731955,0.086369886669982
0.2,-48.03528626148588,85.66528149489885,177.76915738374552,-0.0363578113204944,-0.0288944471091267,0.123009238987735,-37.2624092703475,87.41896823794917,178.12730863009864,0.0161369710389375,0.0538771463010949,0.035591857789328,-199.0929977340596,0.4043495944901587,9.267864370544704,0.0198237291997721,0.0373975060830267,0.0485379426509555,-149.33303785948988,11.863785602099158,18.381781788702806,0.1782875869207191,0.0272448450260969,0.2041726439642954
0.21,-48.28307431340068,85.72637992911802,177.99233057161737,0.1036268389371076,0.1552666781389655,0.1571254086102976,-37.35523202250933,87.51383835700973,177.96529024153108,0.0899050421333682,0.0892745468794878,0.2084552587125408,-199.17606139107187,0.287552748014959,9.302995531822193,0.0025564140720025,-0.0151050386689558,0.0288912269018683,-149.37536922568702,11.8417474903564,18.53666439842011,0.0374470897240071,-0.0410659959258967,0.0462015554671209
0.22,-48.21242082175913,85.74395663784033,177.9103120679731,0.1523131691396624,-0.0474991946343479,0.2287569154761323,-37.20004771328674,87.46834528352717,178.016554743002,0.0094220546677845,0.2852507770548226,0.229763967278527,-199.34517256543435,0.4281858504098504,9.27662745247022,0.0176360620878658,0.1018029709572691,0.1690289246397822,-149.43529494758656,12.01343745649972,18.309007768520924,0.1376998520645432,0.2022252336909958,0.0374270370535223
0.23,-48.14751986644642,85.59845097605486,177.8082047295498,0.2057911268236615,-0.0702282597210324,0.0494359864528841,-37.6011924787641,87.43723128031958,177.89931392492664,0.0436201344467422,0.2190113461077975,0.0259554184702854,-199.1661849373752,0.4666700139746079,9.447958535299088,-0.0102806093905585,0.0351308559670388,-0.1713605943059213,-149.5867407344332,11.87302949216839,18.20629833242139,0.0242129620952085,0.2825266570081181,0.1995552483881272
0.24,-47.96177009579871,85.67050528446781,177.85059121382778,-0.146482888080579,0.004518218361306,0.1393050786844845,-37.565795282401965,87.52480610829237,177.9501080748478,0.0411503446087992,0.0964432522608472,0.1007864099838472,-199.09272590564456,0.5351753421811427,9.36550051250229,-0.1635045417876221,0.0153116461138395,0.196773638096001,-149.23865278668794,11.986367423540266,18.2872627863774,-0.0837856255633445,0.4402313622092045,0.3691968821150342
0.25,-48.11364155139911,85.67723138625043,178.1441960604986,0.1241473281351056,0.0111859465488144,0.1198363619672302,-37.59011428462437,87.62909695816343,178.0180899902182,0.1269512392310207,0.194414918454224,0.0193578400900949,-199.1588112270533,0.4508639948997763,9.044738545852384,0.0021477882529879,-0.0260674988653491,-0.0418105471068453,-149.3028762367057,11.771727099682536,18.418085194878223,0.002778770005609,0.0171388545813443,0.0472706923196417
0.26,-48.153559426049554,85.7516910599986,177.90963923090186,0.0727109911353167,0.091861487081678,0.2581141816542465,-37.32446125884667,87.48545145674977,177.862023886508,-0.0716697565947646,0.2799338206749459,0.0043080918272752,-199.26326743890556,0.5107416138383505,9.413869244852952,0.2333784351746328,0.0254184245449931,0.1885130245819698,-149.49757715694994,11.979682308150672,18.42498400930356,0.2115169315165188,0.0165217496486378,0.0164145450008547
0.27,-48.01182275533338,85.64942431221145,177.7221028938386,0.1248403568522345,0.0284863276230854,0.1055776752003407,-37.22619203505396,87.40523711424997,177.98381641612656,0.0880641322967978,0.1877144912947087,-0.0199622001549201,-199.2039807761523,0.5233593795545803,9.09744901764633,0.2072322237209753,0.2543063144945789,0.0564305362847776,-149.56028604919643,11.934808665587235,18.111758897813026,0.1240106845845607,0.1724019913013089,0.1133287826432209
0.28,-48.00991680914501,85.8075361454078,177.7857403793456,0.1525031680329132,0.019335776288921,0.3163955028457312,-37.16491651546705,87.66873084416744,177.81054199148008,0.1110202418467091,0.0843048303874154,0.2338503436653991,-199.18465978339628,0.5184471492104761,9.208596281283803,0.1377138997076416,0.1899614088172861,0.2711209682841436,-149.49209939752004,12.02870023640653,18.133084016522872,0.2247172075098827,0.2344571540571954,0.1385532639729906
0.29,-47.99008234024281,85.46892974388511,177.76334719308375,0.0666025546073846,0.0774782203400238,0.1271734031206738,-37.28170572742479,87.72407937663742,177.95650672124475,-0.1814731735152628,-0.2027576756881071,0.0219046183061087,-199.27429316495815,0.3687191148435506,9.089705523934398,0.1447329271227338,0.1724339588486622,0.1646981727010062,-149.14294607930276,11.736587819938142,18.158684381922534,0.2024459013465029,0.1164502381001129,0.2432799397722626
0.3,-47.91262959647083,85.77635413942485,177.68972928040273,-0.0746496902303687,0.0509485920318973,0.2281262817806292,-37.57357905881387,87.43413197139833,178.11738120664546,0.1501776646191995,0.1374163621186187,0.0662540608415943,-199.1184537239822,0.470631763845645,9.235034867884766,-0.1949712891427314,0.1099665791996595,0.1664624578128163,-149.31592170605288,11.791356695722856,18.114622097118584,-0.0620264289463517,0.0492359198009812,0.1390129515785515
0.31,-48.3961254727981,85.63137368921095,177.68340345703143,-0.0556525854178109,0.1203740597106512,0.3885496711368865,-37.308155588294426,87.44363494712098,177.92579546560466,-0.1152520544481736,0.0753710272246523,0.0324865140460937,-199.35220592643324,0.3718722999672408,9.081718678221788,0.0688167543925964,0.0795970777287053,0.1208915431899314,-149.48332808075116,11.725619087514664,18.38349088664528,-0.0530923910961889,0.1361910951406998,0.0288350436986838
0.32,-48.64862366002203,85.56792663206663,177.66954585664166,-0.0175309119197796,0.0394435296408281,0.120982977956496,-37.02982174011358,87.4440851655363,177.94071993351034,0.2250487370019517,0.0500355784678609,0.0010240051842587,-199.39397850390628,0.4109240326595013,9.129835432650962,-0.0473389211668392,0.0669261625419881,-0.1557080766155399,-149.30589746693303,11.852036865025395,18.36887098360468,-0.1006994762616367,-0.0792660469186833,0.1020483296262358
0.33,-48.47619690452396,85.49909584113554,177.71636220815515,0.1006573988927364,-0.0609294734558978,0.1991285733405487,-37.15524278580233,87.48143071003516,178.03393182949,0.2390934556047999,0.1762082662444187,0.1149453354355708,-199.06309994501692,0.5076518366857247,9.20200416720148,-0.0702397708303616,0.194309643195256,0.060878088539913,-149.26902812271462,11.866389703641142,18.40532488844063,0.1380002989697662,0.1611317069289153,0.2362136673015512
0.34,-48.54397463780859,85.79376065937694,177.51833306083176,-0.0057229723223086,-0.2084624849683588,0.466643634974791,-37.25258388542587,87.72674147422866,177.94053273792667,0.2910277513703848,0.1724233226753496,-0.0294726233943727,-199.1520102134744,0.3888141812784049,9.233006426389544,0.1561941877888127,0.0615755231197218,-0.0371620598902674,-149.36529951930953,11.702389403930612,18.28707606932009,-0.0047454735434137,-0.040926202773695,0.0503739801769625
0.35,-48.56391534349558,85.68502690731124,177.58440411685234,0.1769892620311182,-0.0646899279324219,0.4398714064571885,-37.52206470142559,87.50014641586253,178.08831974685015,-0.0841602943344189,0.1725750738948475,0.0259860696515292,-199.0981752871673,0.4644905940824535,9.11538012160596,-0.0401732461112804,0.0310247620438728,0.0196184741699728,-149.62681671904284,11.902662578834086,18.276453866608943,0.1710021778938701,0.0009062889720417,0.0401190830411372
0.36,-48.39428194623939,85.61573020555774,177.76663886037574,0.1325807474960701,-0.152404121123853,0.2884938428252055,-37.17513727665583,87.56631648002163,177.87633348763393,-0.0503171873429474,0.1601330474885461,0.3730218803955266,-199.31124383163183,0.3466738767353676,9.311814021657334,0.203929740378172,0.217362586812839,0.021352419155341,-149.31430821361135,11.938288310121802,18.385108228779814,0.3037474128818501,0.1334253125967923,0.1050712176394405
0.37,-48.204289808490266,85.60903845495191,177.70745259346717,-0.0552193251294536,0.2725637736699505,0.5058297486540843,-37.33972833745491,87.75586577799068,177.92248090502272,0.035218831435106,0.0270917569504854,0.3152108117913569,-199.33367451859675,0.4436130728300733,9.168821739469616,0.0970756084072467,0.1665372426173217,0.1889681286367124,-149.37631931521713,11.987562475519736,18.24114989464508,0.4325348772914296,-0.05218022609764,-0.1489395836910539
0.38,-48.578451033109,85.73084192081762,177.98079377046358,-0.0464638576973324,0.0563534154779855,0.4312278772168688,-37.388667701243854,87.52872342261344,177.6389989222962,-0.0069587703446531,0.3151692726930364,0.6579453138059441,-199.18396054720276,0.5506154143308893,9.239941326131811,0.2546817957771381,0.0317351315536985,0.2301544356996503,-149.05645463589693,12.029172580046056,18.32120732193813,0.8465772907832367,0.3007336253447859,0.0684371174706433
0.39,-48.37728018724616,85.42177423685773,177.7094552438895,0.105549247456505,-0.0481497134732904,0.4628846687224233,-37.51497869710784,87.5259271433923,178.00124284013123,0.09724219726403,0.2142811235121166,0.4821416273503152,-199.00715718978196,0.2126100988905623,9.095781757074995,0.4907552551365871,0.173108701288937,0.0397079287947926,-148.82761887251857,12.013966262688315,18.16082950462587,0.8402686643710187,0.3127569884887254,0.0721189508496568
0.4,-48.34634162884195,85.56151750121684,177.5946757864127,0.0866494837872801,0.0221625334200265,0.5154980632982354,-37.39673555556256,87.37529372600918,177.6545674293285,0.2366798926051561,0.1700152205265719,0.1321684544225907,-198.9112238793516,0.2232187582768691,9.162693322959722,0.2803860674688372,0.1394114696686774,-0.0309092971220845,-148.6631562423382,12.144474875341356,18.30272826883435,1.1242212109963068,0.9189716786071516,0.30201995142242
0.41,-48.06709606169698,85.26262045023213,177.5482484822427,0.0715314628556171,-0.160860072610709,0.5870202222015178,-37.54955122325295,87.46756769458335,177.80297408438923,0.1317718248903494,0.2081542942083973,0.3493080498739967,-199.02237931333795,0.4005714172304188,9.321365070640086,0.0644068577660182,0.1684678934515818,0.0226885403594647,-148.48542644689869,12.344420656455044,18.202820736327,0.7230194944967274,0.5708265927829189,0.3574950100792667
0.42,-48.33121271874069,85.20415838861892,177.5672081019011,0.1762743457233577,0.0144714456362727,0.541378058189228,-37.54968621292623,87.40884503413501,177.68496149587656,0.2045404229901591,-0.0161724390746518,0.4471711065935024,-198.86289262763987,0.7195697062469966,9.30085431833188,0.6363476861522864,0.231649657295435,0.0939342426188055,-148.57105782915053,12.92609953182692,18.2654814701758,0.823961568550291,0.333273847340187,0.05276308076262
0.43,-48.146486276421854,84.70901538780542,177.7850012934888,0.1124192163760833,0.06992600406397,0.5867341139795993,-37.48951742033927,87.41867847418705,177.72415461248383,0.3571748465399945,0.1424671059700195,0.429621661280591,-198.94233017224263,1.0021509591268485,9.369945758022018,0.5066019325632372,0.1175748355667472,0.1042335311574259,-148.77305591083035,13.31060465602414,18.21641842808909,0.824539696574959,0.2868843381785097,0.0362412578818673
0.44,-47.94611415427701,84.74381267504684,177.8875123207594,-0.050737834427246,-0.1149889751622651,0.6413747359436913,-37.40869849030579,87.3216067502801,177.7595680198632,0.5490464648348508,-0.0393945022039554,0.2355769725510057,-199.10529013713443,1.3146232975519043,9.512731766017714,0.6362135872642671,-0.0334010024955994,0.1079871711723655,-148.7544407363805,13.867348782829309,18.182074070970128,0.883063536238045,0.1703780217244634,-0.0306851324219795
0.45,-47.79120179289063,84.92600789096277,177.6568858998017,-0.1010535552767469,0.1772514508271973,0.4306696794635388,-37.35000883474946,87.45225928002807,177.82924432577622,0.5045464456154916,0.1303316381116433,0.0741343938225565,-199.07187797723589,1.870477396604916,9.798348888182216,0.5006294441963388,0.1140569907549132,0.2352844036745953,-148.8436575184812,14.513567530940785,18.121270516714905,0.7951176150664353,-0.1937580867726877,-0.0867365239229731
0.46,-47.68403550070701,84.78196737348618,177.79363849747153,-0.1466223375031325,0.3074918790178108,0.5038828986752926,-37.32922297218337,87.45573580611979,177.36057135303545,0.1940121512793373,0.2536021870640836,0.0206437848591291,-199.19003831969025,1.9773066848307383,9.862373288095297,0.3623913891805528,0.2763289692188732,0.0662859977525699,-148.72026243914053,14.923072347065858,17.88994768321057,0.697561981664839,0.1110561040602368,0.0976224330563435
0.47,-47.78468021017655,84.57795738599727,177.75500472566603,0.0410936127655148,0.1104321906990302,0.6109542051359318,-37.39971231255872,87.1722801263988,177.5975766367323,0.2929467372923801,0.1709059073654804,0.2221316172524257,-199.21657457080948,2.366144415271592,10.405166067392756,0.2895396825113216,0.2711183266122774,-0.1728435451626306,-148.62380188442117,15.468302769740298,17.75603426148744,0.1587572389568297,0.1230798150978352,0.0007849530705437
0.48,-47.69802858824058,84.54052408257276,177.84881798719957,0.0699624321501556,0.1036714842015601,0.4586880916518849,-37.250771800912666,87.21411093121738,177.78543984510253,0.2123624236404709,0.1132731078553831,0.1072313896417115,-199.60521991988992,2.7753285969792416,10.297079230580056,-0.1072647055543912,0.3205679665150321,-0.0042600514387357,-148.4862092811335,16.168062509023738,17.768551782925442,0.1340119535158007,0.1132454738723419,0.0457326427204234
0.49,-47.7110319365412,84.63090516559312,177.81876436888123,0.156759741987228,-0.0936236836057396,0.3828942300196242,-37.50555616966177,87.24932327653042,177.82801963074945,0.0471922683816847,0.1764299299344489,0.1617513803106544,-199.56402450183768,3.134259758138513,10.652717594550158,0.2475275527812398,0.2510050453685641,-0.0737666601472347,-148.35472566306078,16.839324894746504,17.734094395787583,0.0147712934287524,0.5978232687674596,0.076156484248296
0.5,-47.57328854450157,84.4190484064231,177.89164672668971,0.2628469049959344,0.1199579069946417,0.4240567273854834,-37.26025387312637,86.84951786251622,177.76057590778734,0.4632041878510363,0.2470492461825275,0.0364958816598732,-199.65504217948333,3.6758319431702375,10.966795531858336,-0.0882681739553906,0.1612306002789413,0.2229977070371117,-148.42038097327,17.122645431690557,17.72816661080504,0.1943445569158259,0.6179775795321448,0.2444323162137152
0.51,-47.49791062268381,84.16879920874833,177.98713978276302,0.0618177676219269,-0.1051315978381301,0.5590693168740163,-37.088230720949504,86.25437792256004,177.7189201485819,0.4704465697896451,0.5380091560581258,0.3734181809466898,-199.6525797443201,4.614819251052076,11.329715532984835,0.4922747037477764,0.3269900105724244,0.0799074650904114,-148.34326517164823,18.29072529139264,17.94083421102217,0.5572214181785569,1.122537175218666,-0.0305049489141672
0.52,-47.34053839488392,84.07418236069702,177.99558934248736,0.1020093936776295,0.1211231813699985,0.3281496379761077,-37.08991219261123,85.83458813113339,178.05147869240096,0.4251494379518105,0.3623902203168584,0.1557893607690529,-199.5330016210445,4.99613638639924,11.482219848630018,0.5459788202020411,0.2482934880201876,0.0700435310960958,-148.1841810249949,18.490472246208853,18.29465330196268,0.3655060137905627,1.0748722176770138,0.1964278468933628
0.53,-47.39536153760277,83.86222590274137,178.05647216041788,0.2765379855997874,-0.0014880698951107,0.4338708117029904,-36.91836151248624,85.29767549624157,178.1854560209502,0.3825900406438642,0.0937197092997996,0.1678422766115445,-199.3563698965181,5.289515640168811,11.707809850712922,0.5377048616737269,0.1229069157815692,-0.0881435825104004,-148.17046123454688,18.8025362511492,18.509268389400926,0.746016078135673,1.447289143629844,0.1844133215451939
0.54,-47.473320244919776,83.73020788518409,178.13049803607586,0.3164055667647995,0.1391042277341321,0.5137883761868473,-37.1372064136052,84.72100128032531,178.155437578436,0.3699859432181767,0.034779479859821,0.4775215837795939,-199.19017303310855,5.533835915757109,11.886239718257698,0.6980519934990357,0.1515443027898188,0.0122408030669239,-147.94069511963704,19.16104919598855,18.816010553171083,0.7295013501113071,1.1902376607199718,0.299551879289462
0.55,-47.28876054626922,83.77991468103808,177.95523362710512,0.2925509395688331,-0.1186740158890724,0.584462051983991,-37.02402674673153,84.0437438135495,178.29159871467357,0.6762230172868472,0.1399902647863989,-0.066011241222799,-199.11406698121723,5.646892485235214,12.015407750479884,0.6686852258793048,0.4481935656433808,0.1055852312418346,-147.7528398296212,19.341947984693658,19.064888626546864,0.5648903169887293,1.183636024533644,0.3617340697711801
0.56,-47.18289922354005,83.58470466950449,178.3230248989973,0.3289691621991445,0.2732564142629329,0.6309449782435068,-37.25570097113977,83.22209487977035,178.34291323305547,0.3996539304711389,0.0374479124992271,-0.0161664410178073,-198.6407858765473,5.68481784115662,12.197241386186212,0.6815273768266569,0.4371921626567853,0.0820459873318509,-147.43801964920212,19.763998657805303,19.5960656983351,0.6291445935931584,0.7729535408297067,0.2631106150502095
0.57,-47.41347090863369,83.30171367496483,178.11399216526556,0.0216319101994965,0.0932893533017796,0.6660873524555391,-37.013505121552456,82.17751352362372,178.5028704130684,0.2649975487465404,-0.078157234800082,0.1816610957323856,-198.398899861373,5.864078091969403,12.408090560414102,0.2643815226744289,0.0492999374909054,0.603769848772233,-147.31087851160115,20.05191835635601,20.10968497076572,0.5431631511023964,0.8052026366564717,0.8184965281358092
0.58,-47.39594234031537,83.12356420695687,178.18817710796043,0.9351111494249372,0.2378487547262922,0.5697787374991513,-37.07862508028244,81.34783941402284,180.27427116689267,0.5109117230109196,0.0957782582731384,0.1847971857770434,-198.0642614691297,5.852301228355538,12.288615714003368,0.1976225195455823,0.3095230429357139,0.7968123338369447,-146.7247418718457,20.367328995125348,20.603598922916447,0.7708908771182966,0.8026073249168141,1.0006789048427498
0.59,-47.54914183177375,83.10560998185163,178.03026087511157,2.743392581570036,-7.779624344780856e-05,0.156632022522595,-37.226820437266205,80.48342867580659,181.71922561413783,1.030395844833025,0.1864232102644696,0.2956987461414557,-197.49824827314745,5.9748095782358766,12.351488567826369,0.25724115135306,0.5898191380153749,0.7837658215842964,-146.31616902376098,20.47715247308032,21.126444460483395,0.9119514912727154,0.5436358271576197,1.1772156441616364
0.6,-47.734253050090935,82.5477518500906,179.34026969354642,1.8240769794147609,0.0888048130516286,0.2855808559006785,-37.1304626619256,79.24438057675435,183.4118773233805,1.00961557160951,0.2416054493083252,0.2775850837316133,-197.44295296918983,5.899882447823861,12.54329310997003,0.7603940631753617,0.8383021168454299,0.9454236013844076,-145.88953639836916,20.881780934434577,21.85187525455741,1.0172703041797193,0.6321823143798097,1.082496982577854
0.61,-47.78400470330092,80.75511072216462,181.51680048131493,0.55099712096369,0.0054528928761193,0.9721075619258348,-37.053653634766086,76.94646907032973,185.9342957016765,1.120134225455353,0.0551773078320084,0.0406841079977036,-196.21964130475837,6.081877293208633,12.869144606644907,0.8678074335796176,0.8493092425049958,1.1170160491661736,-144.90832764655045,20.96204384322385,22.76165940047202,0.7487927924958176,0.2557320979056439,1.3143456964418192
0.62,-48.34146930042662,79.84420380401428,182.1502544142565,0.961774296611621,0.3040628661782146,0.2157275122982788,-37.166279382672776,75.18506502277236,187.10589829878137,1.2912776764016571,0.2334350584585789,0.1531277651803276,-196.1054153601941,6.011454235053353,12.91782072823514,0.8652881352299201,0.3870545139697843,1.124435323755788,-144.4525722407742,20.850316821631505,23.149838498670327,0.8966086174818709,0.1188134993278637,1.4615615246542402
0.63,-48.63644742674332,78.64214245704719,182.464676523146,1.159650402398119,0.69776769735338,0.0672410892305219,-36.761493441959615,73.65851312837746,187.90850886145608,1.1901382931886553,0.1673307028314981,0.4527906008073777,-195.2309709269856,5.731459331052841,12.94567571391304,0.5988392430924196,0.5350267207211549,1.489186997742935,-143.79818023734632,21.0262313369044,23.425621894057045,1.0002069802645468,0.3427637244215646,1.5658019991553944
0.64,-48.76466798012254,78.3945719497685,182.44395135475312,1.8212267056373512,0.3529478396963872,0.4698943220794846,-36.59462436798927,71.79842595222661,188.7835188636861,0.9203122736274442,0.039730347044129,0.4187251715771732,-194.76047447187412,5.608981844151467,12.909136303380164,0.4154613881870239,0.5279487287606986,1.41028012803766,-143.27259850373645,20.92115480029644,23.527400291905355,0.878635610212479,0.3812908082953702,1.6819608755600124
0.65,-49.12262333874609,78.01515924857539,182.9338081829121,1.4989963389508414,1.154691693776602,0.543262992615091,-36.623324220290336,70.08862336471925,189.4008788534235,0.078427272537875,0.1966529790905014,0.2171067009479059,-193.7280363465045,5.412821650827859,12.851968293795558,0.4725348447624982,0.3046698125477935,1.6994141130476708,-142.77237212006966,20.89875131932048,23.6550134652538,0.7207618865569642,0.2375027548004045,1.6474364849008485
0.66,-49.28830663902252,77.66209498881642,183.0499738206764,0.3694975537937834,0.5582644409504138,0.627286511948572,-36.38237838061063,68.31672388531223,189.43990893756668,0.4881546216524274,0.0407082726218049,1.260105529373652,-192.9385408207386,5.362792135943514,12.931450740193796,0.0931421103976375,0.0842268391807539,1.565453657662845,-142.35542094532067,20.70193149077522,23.96851124130505,0.8069594659677202,0.4143431524834552,1.4268279154529362
0.67,-49.3507758221543,77.29462002057728,183.2741350330128,0.5491069288856008,0.4044490167245681,0.5352352318023065,-36.22730566084911,66.38490599268015,188.89965168934688,0.1215922996874492,0.4987412406211252,1.087665948301892,-192.0383148461701,5.02441980457047,13.08425641136309,0.2854207356643662,0.3386154229499004,1.7422502317484443,-141.94200671121658,20.349199864135308,24.158930902018927,1.1763418464393731,0.5313212188698302,1.553983205146836
0.68,-49.68503365516691,76.58686752608112,183.03471251669117,3.143990778745809,0.5787618984305976,1.027545874475374,-36.00868735682315,64.49004466212239,188.4422286781426,0.9133518484183252,0.107537014180062,0.3353597133347996,-191.3966410930792,4.9284395775910745,12.996717963563617,0.4072797398991791,-0.0014717869591001,1.570124185549898,-141.3635962638342,19.8875098881788,24.28432108720468,1.3558877250443369,0.3450329471666462,1.2956007970843244
0.69,-50.274652841008994,75.97357968340064,183.2622352677336,4.146633051212457,-0.2041480308824328,0.938341984541622,-35.76240107185546,63.71303859743767,188.17617258166305,1.6198567331314275,0.2717859357153467,0.9524019594097388,-190.82419851024156,4.359847593040996,13.038895776461631,0.7727610156124132,-0.0075567073103776,1.018764402779888,-140.98465748541724,19.65736878058222,24.121832459236614,0.7381652845997805,0.1287011879037763,0.8045756308165662
0.7,-50.89672028717956,74.4907517554762,184.13106928906305,0.7469898654816359,0.2970877344507966,0.9934333430083944,-35.84226820055942,62.28904369816455,188.05436032868823,2.357117655447129,0.1908730804482896,0.4512122140211388,-190.27437293615705,4.212548059569231,13.202651797343188,0.9701228629415072,0.2288326717542038,1.1975550839261755,-140.84611989244786,19.179468658005916,24.46170003668677,0.1889984479757726,0.2033494955191571,0.8128494235773849
0.71,-51.55808782525179,71.46153428782533,185.15778380413565,1.1435300026249613,0.3614381392266989,0.462745871216125,-36.27951682973232,58.33473011893248,187.62210739902852,0.1401057970262272,0.3486279663026483,0.244385015245513,-188.85256127438703,3.5376642544475234,13.318921221044956,0.1110836369388614,0.4808483490345213,1.299881317599895,-139.91269923784458,18.587619227200843,24.41748398630375,0.5554482658488972,1.2171491638732146,1.2170929312753116
0.72,-52.29753739572227,69.90760271002237,185.35530051665037,1.084882340179098,0.2529347636454334,0.6454448196164045,-36.31998443375605,55.999252898859226,187.70416825045243,0.6597603143105998,-0.0390410584686305,0.9844847893604292,-188.1077923242213,3.0533031505765726,12.943860928319433,0.300375362654366,1.0826499342926184,1.7796584885444653,-139.637409268182,18.368084004512816,24.437389468728444,0.4716464681888393,1.283906889597164,1.570518313642023
0.73,-52.86931584407547,68.84616131799515,185.5126842740584,0.2928220850281798,0.913268851642272,1.7092526227568527,-35.913314128775035,53.67212672004656,187.18386783671136,0.5729728110340258,-0.0956008622345252,0.6755143685754381,-187.25087158185144,2.695401174308625,13.153818881033864,0.1133789902517612,1.6609251432771477,2.227718224158343,-139.4802896517661,18.18691298857667,24.74193791406137,0.6934108236581341,1.2281638610045498,1.9105817138155503
0.74,-53.06095111927216,67.93102186011625,186.60219646861023,0.8457028133237565,1.7916932721468488,1.7272381661616545,-35.44829895667129,51.434113495200506,187.1316659568098,-0.0988982147892107,0.0510203740589444,0.2566604171086242,-187.19681443842697,2.257591638247673,13.091851466786956,0.090993010215716,0.8681185579137872,1.8896005311546304,-139.73278577863456,17.833067721133578,24.88667437201274,0.4648262605846106,1.0527482406087518,1.6532277015166088
0.75,-52.92321710150722,66.72418475028063,186.92702628341695,0.8613928695042422,1.6833654529615103,0.963162371353045,-35.44430331092094,49.278607982589406,187.1215483069075,0.260182503729523,0.6784530841541417,0.4279093379840258,-186.70756971482865,1.7822818698126537,13.18071137419561,0.3838202770822091,0.2777300660824723,1.5731126054886908,-139.65401832412516,17.427997592557293,25.08248155206936,0.1522124576451478,0.998621995367539,1.3658452810713595
0.76,-53.0802529251996,65.94123814048395,186.72323407335563,1.0670948173259611,0.3203603011021364,0.8556682207358011,-35.53981852554086,47.269622104399296,187.14440917277892,0.0922589485158532,0.7460977109275787,2.0362396622054586,-186.6113053939286,1.432309812770132,13.275485907509523,0.0514882438399892,0.469576101346811,1.6767812613088628,-139.94689119073846,17.055298733675095,25.276726693240114,0.270069348268157,1.372548590812353,1.5965516426376485
0.77,-53.648011129284654,64.80295980350454,186.5068784085637,1.452118396772942,0.3236726712958623,0.9120423332901544,-35.68422101870664,45.00446013062308,187.14540751102905,1.367644814186883,0.4603138598136332,0.7416575226321954,-186.32258151427573,0.8985224900895288,13.492657355141011,0.0485999313302376,0.8513712542404906,1.756088925774925,-140.05406288974976,16.860530432949655,25.546749959219333,0.927226689309756,0.9825425226918948,1.420506571869224
0.78,-53.93030460294548,63.71955400514008,186.5872305991142,1.286601164392938,0.1921125173609109,0.8201786146254564,-35.6219738829816,43.37208353519701,187.1879509550138,1.345644586234629,0.472094073988111,0.3518687412959483,-186.0759872836031,0.7222294669893448,13.298235471818993,-0.0461069490659598,0.2325240453472882,0.9077241335155404,-140.16514096954393,16.332118538967062,25.81273874214125,0.8716807339969845,0.4842454122740705,0.7928915350899797
0.79,-54.03984458056814,62.607335016887184,186.8988627978173,0.9369365791542426,0.263647543716572,0.8500194411495907,-35.69913870017051,41.39278175052196,187.138188819045,1.3895159520857965,-0.0056442809714321,0.3094038681634798,-185.68391730614243,0.5919537175259393,13.077287463180298,0.5103402176059881,-0.0125132514240325,0.2604297011254801,-140.25525265397602,16.029734913180032,25.99854733595368,0.2534084356911443,0.5332621146500559,0.4764022235442191
0.8,-54.25133026205885,61.48696573848262,187.06820217028516,1.015724334221314,0.4760795130735754,0.3134552436265312,-35.382336786266166,39.9878648602074,187.19299087363885,0.5270989894119441,0.7163403056211725,0.477981328217085,-185.3379017848618,0.3700258766443536,13.484646254102252,0.6678349759771092,0.8001505215498991,0.2483688758169618,-139.8937751886087,15.829093957632669,25.8659578925602,0.1033155939126546,1.273587822438888,0.712873005521045
0.81,-53.77277212398605,59.76894377883323,187.8644969806017,1.435482103832982,0.4563082937611167,0.2413149307426464,-35.885162683148245,36.24540220039727,186.99371936396835,2.3626164320021834,0.1320830115959892,1.0027300605726237,-183.9096091111011,0.4913502201202989,13.375318454120569,0.6320694124783534,1.6699525511352595,0.3674050466329641,-139.58118322420583,15.57968626069032,25.51837806159901,0.2481438302111447,1.5166763275880997,0.3628639516825707
0.82,-53.54115594927021,59.28011125601359,187.9742250254112,1.54494738600046,0.2019665900417357,0.2319960212846697,-36.1281682067644,34.550660789369815,187.16404474248512,2.4486202842125104,0.3551227065203185,1.0670641240607786,-183.5067293950118,0.8106578853017541,13.2220750015718,0.3436636717697475,1.7296050205114804,0.4356786107905703,-139.71246415292472,15.314073618191903,25.201769475752076,0.0925305082896998,1.311858346222082,0.2024481520477164
0.83,-53.41653514954318,58.62099789117684,188.25170643879355,0.7081017881833299,0.0566051230330565,0.1529607559773056,-36.2492425194934,32.90964577730995,187.0873055315913,0.874613931684668,0.4529050097982011,1.0907553592154473,-183.3140462693305,1.0071314640154758,13.275643319493314,0.5597510631100614,1.9841393240118057,0.3171625056058641,-140.62288287823597,15.126164845831406,25.270668175503094,0.0985051368946483,1.105682596079771,0.4488660849074793
0.84,-53.12034283264123,57.584725652694665,188.5967751611881,0.4396844294654422,-0.1297736010045038,0.0865508184719921,-36.65020431842251,32.22247771535584,187.37687387694425,0.0272721328365704,0.7615159775858115,1.8322099395741012,-183.5895783610981,1.3153568347843414,13.20014684431538,-0.0138222857530539,1.2934828600796329,0.959888398384032,-141.63442985576063,14.775071083510678,25.539434185992683,0.0570963656249555,0.8153307514134077,1.2451261738775183
0.85,-52.908090887765326,57.14069596158855,189.16902453572465,0.4890846493811063,-0.0881155108423421,0.2029746037565195,-36.95954073037442,31.45078807876467,187.12795726432427,-0.0649228069139977,0.555508717818503,1.8036970108705448,-184.15083061030805,1.6254470956879403,13.402198359646874,0.4374007601315776,0.901377123768722,1.378750055175637,-142.97105518452676,14.515245223696343,25.72499052050177,-0.0431995807658055,0.7765648678219723,1.5181168821261817
0.86,-52.660838628474295,56.449521454113,189.21430858702084,0.7475099922457844,0.1242426801944013,0.462782178397722,-36.926126489998765,30.28186811270863,187.24052807459125,1.3039198130522371,0.1471472176322513,0.802345466022761,-184.56398462229157,1.7222207984201048,13.571302756446777,0.4060945954207998,1.0563076913382812,1.5725251127958215,-143.7847640404453,14.016764613616576,25.935774430951643,0.7326181499083831,1.0688124316858565,2.403811210336473
0.87,-52.51023096780117,56.205120507288,189.4146241243698,0.7038952442687962,0.2071749818658631,0.3113084684664914,-36.81706719259829,28.778393369867537,186.97330628987464,1.5991693360728712,0.1708088828074799,1.010300797794011,-185.06635811067304,1.819541671566072,13.848628222481471,0.1811249185953033,1.083684186770065,1.80002008274806,-144.7765567004245,13.969066762377718,25.82872073129455,0.3147134940840851,1.073645379123208,2.258261197423192
0.88,-52.40591608554601,55.61275196146553,189.5830339352998,0.6694713234791475,0.2873948902586689,0.1575606446359231,-37.03687768251829,27.87035868777797,187.2021215517034,1.3054062841172835,0.1830249281148019,0.8007811430394195,-185.2347570168687,1.8886741945715304,13.6724564987495,0.1539197282702574,1.0976622899945938,2.205536600033566,-145.41969870838486,13.773433375359115,26.31861242577256,0.6239292095864263,1.3281363717535026,1.9965947289732573
0.89,-52.28082659644544,55.04992743249512,189.8397395693444,1.1935454910599768,0.5745297860457215,0.1914431034970346,-37.14843234494845,26.75950198706556,186.74826133573848,0.8835238279541979,0.1969845721968078,0.7137628024865335,-185.9673447015808,1.8632331671376328,13.944427741765436,0.1999438704236718,1.1255578546867606,1.2643421192050182,-146.57712280777497,13.500807261072222,26.32839337852984,0.200193052347316,0.666224553037742,1.7446820371755662
0.9,-52.529692552313584,54.74171695090697,189.80255557470971,1.02039482677908,0.2915178973204866,0.2852492871496502,-37.18543428034195,25.68334090937137,186.31806477525063,0.731629929210856,0.1727578955629027,0.6624605958941429,-186.1429694815925,1.9680962491642475,13.41927678120008,0.419279573529309,1.082351479043054,1.3149898648440872,-147.84875797984745,13.154475088699645,26.392123566336505,0.2597998059495525,0.0927268280047685,1.4248096276298623
0.91,-52.35311135787672,53.99412749711342,189.81294107708632,0.2386543649623961,0.5659033894225248,0.2905546682873144,-37.320081280092815,24.09492394917487,186.3760608895369,0.4449634075368178,0.3577175816379437,0.711779782157678,-187.0074488760794,2.085001794628168,12.965793501494897,0.258399910610025,0.3449009869616626,1.7533092924161089,-148.9195688092428,12.746510762168064,26.33715447918792,0.2987395310664485,0.7753598563503671,1.630376561976791
0.92,-52.31986052087307,53.8958549303037,189.92761146135751,0.5819481603515656,0.0413263761762012,-0.0970043286399851,-37.30174648179475,23.03184237543064,186.23732334602107,0.5365828608062164,0.0277963667720801,0.5075325648043979,-187.44280544146704,1.934875364687357,12.560637395318142,0.2746061032760313,0.7152062922932558,1.4424905174529494,-149.6630024083403,12.848961914247631,26.49771295376316,0.1607908228553457,0.196433580700241,1.5690529755197125
0.93,-52.40941744961742,53.407449410866015,189.79052595808815,0.4302052899767044,0.2162119376637641,0.1419230503936602,-37.51996400811366,21.89114543488071,186.1427922497605,0.6561353496572381,0.2436141465812781,0.5617217978574943,-188.0325259291615,1.805487292480452,12.063297498032307,0.2297789280749742,0.6736167585609437,1.3286225937182614,-149.88504009873353,12.546338412729794,26.411118902036904,1.123783461631833,1.0069727244782556,1.1740215333052473
0.94,-52.38046925586073,53.07207591412225,189.95241820326865,1.0202096541782084,0.1271042392259524,0.1629379710897447,-37.583003362580456,21.85104714968897,186.1209949890332,0.6440732741870635,0.0841225317545392,0.7767550300751515,-188.2127848606713,1.6687365472117566,11.777391837176634,0.3549749023776784,0.0760154475746277,1.0616201068485267,-150.43753074946522,12.003060833039916,26.564070444635075,1.1143214802907953,0.541407573723315,1.5429255685483156
0.95,-52.34108000394014,52.991158377382014,189.7982479103531,0.9052137602858222,-0.0764155731400911,0.1027350288230067,-37.6432217496547,21.116286251024803,185.94983052992905,0.4273266120851625,0.0963317729102339,0.6575575300465751,-188.3152315118013,1.6506462808626805,11.684943590820804,1.2105663128974669,0.6369158890192693,0.6521445755906536,-150.4964760945395,11.782920916466017,26.43786543296517,0.7493566213257602,2.8966105632084003,2.111624766176232
0.96,-52.57962218107512,53.015983598359085,189.89856424949707,0.2829003855878124,0.3367956478785422,0.1215565572064071,-37.66316848007011,20.26492565479376,185.7690995809836,0.2452429758591138,0.1702652997343749,0.3066522239073838,-188.23930625982487,1.6048827414269666,11.002975205712264,0.8326308470116626,0.951808055030908,0.3924778329539727,-150.04250321066263,12.075035445039711,26.37223596431596,0.6234391862434588,0.8574318766094429,0.2706460722561965
0.97,-52.215480590529566,52.891468761716695,190.04819842255247,-0.0111387425819819,0.1343661492995529,-0.0216652292880561,-37.642256695645166,19.764015453541603,185.8520186294752,0.2611717400971561,0.2852125093170715,0.6419211743222815,-187.7653291963164,1.7572242664698992,10.313672965892728,0.1065799618712734,0.9703773344780666,0.723341315998467,-149.511451670622,12.213238405215472,26.43863768905895,0.7338881065050885,1.6038946066932136,1.0070537818469445
0.98,-52.19874060409063,52.83962565037466,190.1538690362806,0.2983164800850201,0.2147859588559791,0.2078086337812973,-37.532697698991086,19.1447463773254,185.8356543878612,0.7812502866560519,0.210937760447089,0.7026900272003925,-187.18259330050185,1.498376468499753,9.703467142922577,0.0671993803096783,1.178952502202341,0.993940580627678,-149.3298076522155,12.6239500736637,26.47333293742675,1.1727901951694155,1.388080484068273,0.2443038154555243
0.99,-51.8684690414194,52.794267448351626,190.14669453865224,0.5890568714913579,0.0551017307974967,0.0033934648709114,-37.76612811658477,18.54182718493494,185.5418979061679,0.8346424091911886,0.2682064464386162,0.4714649142594053,-187.32678057871885,1.4676005502060911,8.997471728455896,1.1951792613601226,0.8587138765245239,0.657742194544946,-149.68734000492606,12.255488512644654,27.255593290834188,0.2997818135973655,1.781800540841489,0.7187487993167206
1.0,-52.12802535283856,52.691443794714,190.1125845492272,0.6809428570433661,0.2212738719767681,0.1515520040749354,-37.97048379378058,18.132281245502337,185.78542138977332,0.2996149297869908,0.2121511996878238,0.3202209298309929,-187.81325327603147,1.4035334764959788,8.455510485896548,1.07456841713553,0.9255605099867148,0.4440237454506434,-149.35007508056205,12.08197806445954,27.976619965135622,0.4127633184848742,0.4547433054030909,0.2848397410977935
1.01,-52.55031830506015,52.23845426314119,189.91365150799805,0.7609011979638644,-0.1202090745974979,0.1562794394042878,-37.92992880656004,17.518388727354168,185.2727747699428,0.0250489402584883,0.2721658360545584,0.8121332545764007,-187.8189413047841,1.4731291589604802,7.7906292323560145,0.7260104650313781,0.0560094718015278,0.5789948374171593,-148.93893347651726,12.533027639257035,28.69769718735628,0.5502520239171342,0.1610912873980773,-0.1489692530439546
1.02,-52.67120408394548,52.29580187262468,189.95160498886509,0.7425403466270505,-0.0487121918579801,-0.0481016169305412,-37.88546960246653,16.83097898273563,185.35301757875763,0.0298284258039417,-0.0271814714082995,0.5196081880231054,-187.79900171615,1.6451619130515691,7.843089662388137,0.5966030833959004,-0.0834552485229886,0.0406933556426138,-149.39342064801735,12.34157404099537,29.00246317450107,0.2361650352025276,1.3212390758742574,0.2513165050156991
1.03,-52.56165844468545,52.37821872994494,189.88749686947853,0.6659671102950233,0.0764973153507284,0.1599045874751584,-38.15002829377396,16.65062534183804,185.26154448079137,0.3450709429080035,-0.0749285437970466,0.4433685798858299,-188.0583528862556,1.9401967362119728,7.493814348461939,0.5130380718874921,0.4250802651967049,0.3781281955395952,-149.765901521238,12.468718198988917,29.673625354443065,0.4885295390594111,0.0983780791376067,0.2697216901058474
1.04,-52.409754899248725,52.59506174571997,189.7380171562642,0.3239429675964436,0.1555760772064753,0.0827517799451593,-38.00409092456745,16.3661915751217,185.1601689464863,0.5502087634654658,-0.1046774447247117,0.0625587216632278,-188.3750224334368,2.074141972372373,7.0932971016738335,0.0822870481216153,0.0918380020183348,0.6038787585923018,-150.63546969315018,12.087548669519125,30.209202878298036,0.2658160911054471,1.3410124461394326,0.3548772156979177
1.05,-52.59465512703225,52.54326387350623,189.8706971369936,0.2345261965940569,0.1840913989145015,0.2853616072413872,-38.12324986458038,15.98972056783646,184.99483653835875,0.6926291962563716,0.0020414025836454,0.266538642752017,-188.65149692283995,2.114561817671402,7.032371427860226,0.2363888344303666,0.3771157152260164,0.2671344271889295,-150.8323273319082,12.153050211725937,30.413255759972703,0.5267666601246778,0.4504018326699383,0.1503588819854873
1.06,-52.36154893631674,52.74972467064096,189.973528193293,0.4435718904247869,0.2383719370317912,0.1842931107859172,-38.39899239196436,15.786387788329426,184.86425422825727,0.2461897945507936,0.1002089219363414,0.0573231178698249,-188.7796281179848,2.173565930637376,6.9642733508539845,0.7500077008422233,0.0818172680034521,0.8913557339410958,-150.6152546314436,12.393592372518592,30.82946842850178,0.7716556743440085,0.1690441589493664,0.7621904122338165
1.07,-52.32397128409739,52.690860253284136,189.64495199243456,0.6675746193154952,0.110882372342995,0.3689550423283422,-38.260646364443176,15.51850457799133,184.9679055856882,0.6708058061894319,0.1463975333771612,0.7954982772338831,-188.80296271960805,2.3583508745830217,6.752197811720517,0.6324847647373572,0.6467120942225949,1.2599455921641851,-151.0915093652749,12.509383605947592,31.10551338830792,0.0757740786211514,1.653980487743346,1.7048273440527943
1.08,-52.397796069103535,52.66402512707423,189.925508654022,0.4072734841088471,0.0057453218598852,0.0935077564616959,-38.30526924284441,15.43707143461322,185.05517680895227,0.3616202362598843,0.370252880343575,0.6784059519470934,-189.06461776187575,2.216072985529722,6.481471401565697,0.4180289501826683,1.6448948480487582,1.3580208070476174,-151.3598876319436,12.00113957629259,31.73579805232016,0.2857300843639278,1.686732370706666,3.3132275037910466
1.09,-52.49441638599215,52.80113584464497,189.8541506048367,0.4401268582008515,0.0659480013755304,-0.1814843502418017,-38.20484101993615,15.51983051841822,184.91786755053388,0.3834119976792716,0.3341909241189886,0.7452008048437977,-189.52704283365244,2.2099196497999016,6.2906300758398,0.2938254028474574,2.7204477036777583,1.0714234923783563,-150.9940544151139,11.928698773593805,32.31860264563709,2.1919420198108304,2.956689915790696,3.8624110178063615
1.1,-52.36308818819786,53.002989857284255,189.82819085837792,-0.0042051938898602,-0.0506518829169616,0.019982002395559,-38.224567340850086,15.31582954737872,185.09712123933411,0.494996968301804,0.4699114244454639,0.2449623501659087,-190.00457807876484,2.443958052496141,5.90217830638682,0.4112602114670044,1.5646533865940395,0.938011060538686,-150.71870610993298,12.279677699801548,33.44994237514502,0.6535492070868163,1.6795824751225672,0.1492352359619974
1.11,-52.22458082959844,53.00367610189824,190.0061448164375,0.0840381278852636,0.0955396390938,0.0587390691930459,-38.36636950651784,15.135895352094822,185.1662181221316,0.385816785787454,0.1105939929129289,0.6119913169420049,-191.23885606874248,2.529403171687053,5.306643170226439,0.5357416446138842,1.6658336437296029,0.2541215325319882,-152.07502858509113,12.195322040937446,35.347569074729634,0.3329313664653678,1.8682681180378935,0.222668258654681
1.12,-52.04647297382479,53.10295603697613,189.7696806184408,0.1092265974546767,-0.0027522095032105,0.2524518015127849,-38.52687675539407,15.22530400984215,185.13939323184837,0.2320460307319651,-0.027709482704129,0.0374256645310879,-191.5546556289652,2.481867292697259,5.044109445158036,0.7572025870726596,0.9739859256016774,-0.0198681002963504,-152.429745032473,12.039574286499487,35.81579187303321,0.4908634266662127,0.6543396190544585,0.6071322553866618
1.13,-51.936017682434006,53.17996950053243,190.04110539191063,0.2549747885157541,0.3079712081821469,0.1401587232925978,-38.65290823474626,15.379957488441612,185.1260816921028,0.4282054369676437,0.2510529659438554,0.0466209649121695,-192.16575961585573,2.5673877811188808,5.055275441180528,0.857890734110975,0.9922298616245268,-0.0056939909311458,-152.35763923532198,12.445745069189256,36.11291639602341,0.5294133373661759,0.7073715577630088,0.2518644891736137
1.14,-51.763823803035216,53.12942901615518,190.1195158022541,0.1455034498645678,-0.0438827493738991,0.2320647765256737,-38.53561544351963,15.41081112226055,184.85953879885213,0.1362452875124889,0.5841270858737078,0.046081378852733,-192.34450811234572,2.559624406520153,4.935123840546124,0.1063323093593677,0.1966304394598064,0.299617855252605,-152.82651927869043,12.427235128063526,36.67364189583701,0.1730500410557917,0.1561457615708298,0.0103024928573466
1.15,-51.75516381328998,53.33029546547363,189.8782695722072,0.5003017536985248,0.2218855823099461,0.1141456618987654,-38.39604447140609,15.46645594578406,185.11329520088665,0.133233175273254,0.0919252036414482,0.3075525517923545,-192.3823453431944,2.7832723964215256,4.808583916345192,0.3874467430345054,0.5100539471125471,0.3976389907426475,-153.398881862762,12.39764621106553,37.21714837733044,0.492516230786124,0.8750443469841722,0.0802136700560064
1.16,-51.856008017329565,53.37901458525797,189.7815576642484,0.3654072058380397,0.1023925106259144,0.1281501257057115,-38.52639069345479,15.598022756605872,184.70020399091416,-0.050521488393911,0.2720161588713679,0.0312063219981868,-192.6132826654308,2.835792694836456,4.628350879166623,0.7776985902989199,0.1996489341801805,0.1760758668507697,-153.8688627718516,12.588628598173356,37.59571408398792,0.2263447070204998,0.0676331900704869,0.0867031834913436
1.17,-51.79431863563824,53.382959972184025,189.7517305511292,0.2858601099396404,0.2298530840098785,0.0786018772651029,-38.40845427933148,15.324706846889576,185.07204226543976,-0.0749906276845175,0.0193480424279023,0.2641010204661332,-192.72353493232356,2.801779615648347,4.817017944318172,0.5144219967392829,0.0681511766746265,-0.0366910096089112,-153.41905517456502,12.875459692056523,37.84957481075877,0.0880484106570869,-0.1473712756578995,0.4285313323228636
1.18,-51.45814817588538,53.53145138838807,189.92902088875837,0.3215673032269879,0.2685238586334478,0.0406613833458247,-38.31867483479638,15.50735974127326,185.04586512088252,0.0985832436302348,0.4398362772076454,0.5286681917869485,-192.8840974708332,2.737617188708841,4.699366169117278,0.1441837505216348,0.534960436981482,-0.0696362950164529,-153.38506335069243,13.156906967792665,38.489668516171534,0.4911352960103077,0.5053036648381676,1.0775502284325351
1.19,-51.61715253462228,53.46512760679189,190.032463856017,0.630474673003853,0.2362999403219928,0.0744460389682316,-38.67413037639313,15.574733288607163,185.1852318051012,0.2771242517980566,0.3851367286781368,0.3949466663860447,-192.97044342129408,2.5349924492516465,4.50981440361183,0.6159041756328391,0.4521648929321216,0.2607771730893294,-153.0915621878763,13.450055196002644,38.57591893051305,0.30510584234677,0.3237755898321548,0.3777470193810069
1.2,-51.37016566468969,53.62167244443581,189.86923290436715,0.4888278304639164,0.1407435412533054,0.039052189463068,-38.628592019080536,15.17216094847138,185.26932127897751,-0.0148845510274855,0.2406724846077359,0.262919968908171,-193.33364079215696,2.723265033005278,4.548699488415778,0.2616031939652107,0.3410530253337472,0.1090695452725266,-153.31748846280226,13.558699621251977,39.193284457596384,1.2089823550097127,0.452025648950879,0.5568685467199292
1.21,-51.43211665956039,53.82292342184351,189.8929275787829,0.1592537158891998,0.047703492148086,0.0803688999224345,-38.42680756748042,15.49059088029052,185.0240223253658,0.7171590774184731,0.3358570072812793,0.5849221138884502,-193.7386986449252,2.650036562286169,4.553618289373882,0.1836306404277611,0.4027383884622679,0.8367807585790756,-153.3455568687634,13.763209896613262,39.72820395911004,-0.1730514540228484,1.51698911691766,0.5783806366739914
1.22,-51.35129649905953,53.83935787489503,189.89216029223624,0.1975931591729439,0.1759831938068534,0.0878119875723771,-38.32226628538136,15.124746801537698,184.9999505361499,0.5261512809442547,0.338865365491658,0.103502103741206,-193.78274722371503,2.4732857602043423,4.400247579029077,0.1573430451450586,0.1881118985474017,0.7610266252899082,-153.00825188480533,14.174023542470824,40.022394409465065,0.9739410252813532,1.5841053216802865,0.8621556127666901
1.23,-51.27172976282535,53.79495603001729,189.7189329659116,0.8998962569005724,-0.0461737938865556,0.0385963535199393,-38.40069202473072,15.422896868089463,185.21643155125668,-0.0911595304536577,0.2435027075035553,0.7103826315290884,-193.97687635893035,2.5346836526637886,4.445967288892522,0.3873804309510443,0.7234297045294379,0.033248724254517,-152.73801060616236,14.545832586639744,40.25280219912607,0.2387856535924275,0.6661906775747454,0.1861471625646776
1.24,-51.38079642101202,53.99642605750757,189.6670066119653,0.822243951171582,0.1767948232362569,0.0010411092783036,-38.33246912609186,15.221024387263554,185.15118298643628,0.0765375727187101,0.5098020395091685,-0.1166350212670699,-193.92798174327436,2.459712712632035,4.435365006292681,0.4183560303153769,1.1284055963930937,0.2135905923372326,-152.8617337121116,14.7611000026763,40.29702507984612,0.2985541875372847,0.1550072560843248,0.4154055051987399
1.25,-51.27663912300206,54.05680001301591,189.78874412177584,1.2725248988791749,0.2660915149198159,0.1381599124669233,-38.24308360125077,15.025429275133176,185.18458589290964,0.3945155164533076,0.4884287623648438,0.2740238079407379,-194.12733836448965,2.295940020583903,4.457754750789024,0.090141002504143,1.2991245051887317,0.11687043509318,-152.50186107832943,14.914871042610402,40.653692712926926,-0.0572458699565804,-0.0931144921053616,0.9212788449716082
1.26,-51.11211340112847,54.25950861947762,189.83447581428527,0.9043010479625008,0.4450887290864093,0.413961112169646,-38.04735577882239,14.870535251079398,185.03889233229305,0.381001821493621,0.2727911236960757,0.2620972417647194,-193.85997226907364,2.2781223249496088,4.221328977833388,-0.0690978022921025,0.9000638658177019,0.1958405772918224,-152.29193788404467,15.28617703287342,40.74374809188555,0.4394134853649917,0.1869903206949153,0.3240681140707795
1.27,-51.08518343993136,54.53876721473132,189.79926378661096,1.0618225527039475,0.0850980079508991,0.3074956570359585,-38.07096676178866,15.190830727215888,184.94562758021056,0.3519479832103012,0.3416887355407726,0.4181483162407357,-194.0169021170664,2.2642008328557424,4.109911705574039,0.382401123239454,0.0806330165770278,0.0546484361946258,-152.46088296620158,15.390825177153925,40.903733308467466,-0.0435477089591116,0.0609542855001728,0.4861012195568872
1.28,-50.85217473352636,54.70651126391248,189.70425984292373,0.9052699103748004,0.3501216852366085,0.2553965548214489,-38.05811045309651,14.954912493103947,184.89605787607243,0.3810290209099887,0.1782959073203456,0.2082156578071553,-193.9389121187133,2.3419447541468164,4.12295433943764,0.9350443086083188,0.0527933924893999,0.1259237370474338,-152.46921678323454,15.395127520397986,41.06419829631065,0.1950388660070386,1.2990602674471088,0.5765971901989828
1.29,-50.89988886415171,54.99795495334915,189.6548905092976,1.0407584432972865,0.2184242295754075,0.3188608848629608,-38.01945120169744,14.939036439929517,184.9342311350986,0.5760569422832561,0.2293560848133953,0.306183247078057,-194.06699651827904,2.41043305318358,3.784027667850943,0.6099364469301789,0.9461770427857208,0.0668708301160181,-152.60793963614535,15.3883590749158,41.22167278507713,0.1674239424489394,0.8092433240496897,0.827460949969816
1.3,-51.414936383563536,55.107756196554014,189.42404003054187,1.123537278872138,0.2830949195774533,0.3304557620078682,-37.87577975761459,15.160585300804597,184.99490920530533,0.5583556314881638,0.4337055722187485,0.7797442779481338,-193.8491764119387,2.1201256328258618,3.8214943920091455,0.4858700875047926,0.6055328573328249,1.509492611187474,-152.63220793666824,15.405228015601107,41.69080779092656,-0.0841981486061814,0.4307762954573466,1.045423593140406
1.31,-51.3654134368856,56.01853261838215,189.47815011661555,1.3260314952503842,0.1170945291063526,0.0528673872931549,-37.70337813836645,15.49363872012991,185.2953879579281,0.7197056105306027,1.0085209000266253,1.257409811549361,-194.45525472457555,2.3154843111381,3.5074782629667123,0.1191706460398227,0.2924300845469335,1.0481975666961176,-152.20392315595328,15.693618590609413,42.29724412197398,1.844284207294215,0.0308863799034586,1.7684668179281111
1.32,-51.03052470629269,56.21693881034351,189.34652394053785,1.0856910906746555,-0.0410309398304354,0.1792756480037897,-37.94874415226325,15.71612533309168,185.14222860625964,0.8829847556522988,0.7126905549192789,1.4759215188219452,-194.4031718218371,2.313172095103172,3.4541154834214467,0.8560845146811732,0.9849187511540732,1.259734962429781,-152.3117296680055,15.867813711984958,42.837187111558926,0.7273668116492136,0.1432364480802407,0.769119007642765
1.33,-51.04823377354616,56.56831701256497,189.4023951226584,0.933456438323182,0.1512016590817574,0.2421287926138759,-37.8229600699201,15.982642620138597,185.28484157886612,1.1715500672698007,0.2594927765714382,1.2132145925648978,-194.6000957786109,1.983126091666639,3.344899414566946,0.8531726061595892,-0.1953807467094239,1.123495628960927,-152.80850716434617,15.8654528079352,43.48879281816069,0.3131500867911832,2.08115359224784,0.8577450551815851
1.34,-51.01635926285549,57.05219776482314,189.5070149383975,0.7802640403931751,0.1316871069192759,-0.0647473174888043,-37.75333036644358,16.385059085297073,185.41007084253104,0.9413611520377372,0.0331651084654085,1.290752187050235,-194.64743547994877,1.943842848391961,3.292081099543585,0.1581691553910038,0.5666785177692466,0.840041303946061,-152.72756266998073,15.997044246011772,44.22740974468881,0.6952577572973827,2.034642067618331,0.8219851098499642
1.35,-51.21273999753448,57.751888133671,189.4936764317993,0.6575636029515889,0.0070417747171143,0.284819383100892,-37.599360232728834,16.77590513243733,185.3580573114494,0.8749337210018672,0.4678615033887233,1.317818260543312,-194.85228683452308,1.5076295631147762,3.2786882805661595,0.314932530514437,0.7632465231677635,1.0163116651886208,-152.36808425566792,16.26849145970852,44.84903317869858,1.0295101783416232,1.2728113679267363,1.2690143269891498
1.36,-51.00808428162521,58.23235720403631,189.3601308258648,0.8563151898549475,0.345409567539676,0.0601991439845832,-37.7120857518517,17.140420645633252,185.246715338386,0.8072327828894678,0.290417237565869,1.6564959915728676,-194.72193093119168,1.5814203020419129,3.2560275365989,0.1965862379524087,0.1025973574715494,2.455589229859185,-151.88061624695692,16.779790348516016,45.41122970197586,1.4431450980516252,1.2260052013785336,1.382602673494402
1.37,-50.89532804840906,58.927252092035445,189.1770214148284,1.1198477555483106,0.0389160375234061,0.2486370362453172,-37.68498072253813,17.850282965236808,185.51917044957597,0.83602525067636,0.2673559887436558,1.4787625925482284,-194.8060199625049,1.2248543654151054,3.406484838876721,0.45747355725799,0.0845735875801164,2.244899373123125,-151.64596677913582,16.933990263238563,45.91896310523373,1.4464196757777257,1.4840864307223107,1.9955779948738948
1.38,-51.28279424396909,59.55863643980992,188.86314326426807,1.2321821698585853,0.0801066950662836,0.2039881585951523,-37.752113457717655,18.30289115630281,185.32182164213933,1.0372580377708998,0.1820330036173957,1.1398452162069472,-194.8757098620747,0.7831922190445129,3.6341722509491214,0.2101850799682014,0.6746057846497302,1.823018680953646,-151.30119941032356,17.479064207065537,46.37307559139786,0.6607633366075194,0.7898001579950472,0.9749361319003104
1.39,-51.54543685006841,60.41682898583392,188.43814555869287,0.4724867195822184,0.1291026634965967,0.1577112408729597,-37.59023012023733,19.060756972228543,185.4643749612873,1.3648149026117309,0.4526218624336995,0.9581771840459304,-195.00976244195616,0.6555043266849814,3.773150208899493,0.3373975355338419,0.2854657316115355,1.7201837521105423,-150.92720822448652,17.879726394850607,47.10282377999693,0.3000565823612121,1.889862544035916,1.3003200248246838
1.4,-51.2900871143695,61.01763744701549,188.3937698011923,0.1721708577596931,0.3143246501680885,0.4119702903826041,-37.37715809388112,19.86089734384193,185.58477037890856,0.933052113217166,0.0686960186678975,1.17289541064537,-195.08237521624957,0.1242923826872862,4.1112064415460985,0.4311576553846999,0.1921038389980417,1.498435704462122,-150.80929837894885,18.004964565169093,47.772783798561136,0.9805600901369032,1.3590161711892597,1.6713984779400863
1.41,-51.571722541653415,62.7557265883901,187.8231749510824,0.3094331361839729,-0.0868063064172458,0.4304262274765043,-37.35616421240984,21.78956333801956,185.71562394607287,0.9538404961525146,0.2521975787493634,0.6230062878781539,-194.48113663011432,0.0563797096085523,4.228363541860127,0.196269189714772,0.2940448823766305,1.470575358891341,-149.97398757587624,18.970822457754483,49.088481600452695,0.376782729214662,1.3751918992721934,0.7964442613385727
1.42,-51.64943987755544,63.56762284489984,187.56745645866403,0.4231360253324117,-0.1056725777006938,0.5780826120385617,-37.38869684420436,22.592210476099385,185.63499745763912,0.9494070835976812,0.5331169009998303,0.8144621637467259,-194.57264849314123,0.207965786288544,4.7061399609612495,0.2147916010057025,0.1422620225254226,1.388334221791001,-149.27303884707044,19.70644034850911,49.65971700799221,0.0284434436093173,1.7020862282364786,1.357248772679345
1.43,-51.76309387487583,64.4546808382364,187.1822289333852,0.687204208357807,0.3417660007884994,0.4573330882081988,-37.1438651409245,23.85473908029657,185.76082017758856,1.1267077442671496,0.427322485500146,0.8101733250961518,-194.76445677629025,0.4413789636754282,5.086903806920528,0.8899811479073851,0.0977835881672564,1.0352889451652914,-148.75414091911364,20.03544587673735,50.667090063110095,0.2843588038902676,1.1051966645477782,1.950670012422472
1.44,-51.85892981391731,65.31087311688302,186.5023935608089,0.4525817334465932,0.2692267830122994,0.3683441729999349,-37.25115370630096,24.92230840832718,185.826177179742,0.5338281621721421,0.2081702144774017,0.6365634651810707,-194.480198767876,0.5543626365465244,5.40452603290646,0.880765981396659,0.3887661965621367,1.4924483575021004,-148.5620984266242,20.278202759044238,51.36659739303015,0.7742690162143219,1.0342832331361298,1.5958297828798365
1.45,-52.07536996975538,66.39990288762696,186.27048608465083,0.1670007288094696,0.2805011752782454,0.6756546684597147,-37.24632914823615,26.37208199146651,185.92391840320732,0.4214105474500778,0.2857383326424986,0.6388201694987772,-194.45447638985067,0.4866935185561435,5.745245692418945,0.5832578715558676,0.8010399727856797,0.9823740895392468,-148.12871149579306,20.6743496346439,52.04164252999125,0.3095893482113386,0.7895870440356327,1.195249879806092
1.46,-51.81916606142473,67.68492182460521,185.55737325829423,0.1574028950355227,0.1329103266496316,0.453869627883962,-36.78169246644276,27.30182186286166,186.0703727719653,0.1614267914373015,0.1195725046752392,-0.0699076503495047,-194.1640318856642,0.8021556156921943,6.151824356097486,0.1004276974661819,0.2415033126282348,1.1372582513493774,-147.65760137117817,20.98553775939225,53.08574429861845,0.3616997075843493,0.4326632420929564,1.244306870659444
1.47,-52.03278620668501,68.36482797657469,184.965809474822,0.3220982812801177,0.1970541799450501,0.6034939663036651,-36.76738008181645,28.522969993373383,186.29552468437225,0.6872767346089531,0.2427696604385622,0.2521113020134061,-194.28733303235973,1.0684911069866505,6.269073391072973,0.0899334141788091,0.0438286192095554,0.9217454831196878,-147.0358311152871,21.59997349158091,53.85762644144455,0.2733808788933122,0.2380622094146221,1.4073633738939688
1.48,-52.047124133940805,69.74719793853866,184.4156527196659,0.0907950695187681,0.1446223399242487,0.1880231201343931,-36.76742970380655,29.969036122985514,186.3858577430789,0.8757680601160208,0.6121761979118499,0.0003686165174017,-193.69742741766015,1.3427967324410142,6.793609006276077,0.3885327821692152,0.0094928290336206,0.4560660815003969,-146.35405711323898,22.219596009760423,54.713136966593765,0.3959096320935148,-0.0172498592053938,0.8366680030517494
1.49,-51.91346999234289,70.56899482925859,183.8719474371341,0.1068306182291249,0.1750850960928389,0.5476734852099885,-36.67301757203782,31.25427457530285,186.373310099746,0.7430094654092623,0.2324813272838299,0.1253155487624132,-193.5867590333306,1.61906701106671,7.235039087325947,0.1930504131105608,0.024272813959786,0.1910746144619327,-145.76942650651054,22.764626078171023,55.70448533857302,-0.1045419686425669,0.3621365431621087,0.3527733525266372
1.5,-52.09357898699235,71.6901541127942,183.30957228692463,0.1446800885018827,0.0303254658812287,0.4863001747448557,-36.40217075622926,32.78597398298377,186.8003229021116,0.5570104936429711,0.2127412793368638,0.0919552081343637,-193.4895417793072,1.92831435912108,7.717130378587138,0.0841612116093521,-0.0163732867935225,0.3350632440423358,-145.2593023383965,23.11632936071129,56.51267566275292,0.2670308064277887,0.3620265452877979,0.3549816288309999
1.51,-51.91284367021608,72.97592817340826,182.2517267588105,0.1917307910822178,0.092729963300281,0.3996088572398103,-36.412228559871664,34.81598487801085,186.6149789690816,0.1285403544867688,0.1802609331978331,0.2422233036569263,-192.96517248740943,2.5664068227341463,8.408216795270588,1.1955715195810153,0.5422986420411648,0.2444213148529086,-144.17822164308114,24.0665121367308,58.13625341876891,0.8770517665866471,0.0627350170507237,-0.0489952059122901
1.52,-51.88486637912393,73.7338477586489,181.34906099015348,0.2514037533247906,0.2841379519573569,0.7415636562264482,-36.37806805017589,36.19300192230821,186.90289644732584,0.557567994189672,0.2803861226635311,0.5063797945479385,-192.4494278150525,3.004029762317636,8.812685048340754,0.3051573919094656,0.9655698842923156,0.4186817116840349,-143.87611273274538,24.434078281376223,59.13900359862237,0.3715538555436771,0.8432630255879824,0.5800449838015898
1.53,-52.03040425323472,74.67280187657937,180.387583155794,0.4044841032967321,0.1933932778951029,0.4819190213697746,-36.13245031093058,37.62211270370516,186.89743269028452,0.3813764416698194,0.266692655999762,0.3500447328579251,-191.93705082971337,3.0924527327763704,9.190718247328777,0.3710582840962392,0.5010334333416,0.3896598254660686,-143.2706404725369,25.0102134725273,60.1816479674916,0.0187770187946046,0.2738178505504686,0.5452992586959823
1.54,-52.17739599845824,75.58006908765543,179.4885492094188,0.2904832859311158,0.1423386495416025,0.2766596581623087,-35.86317740450666,39.19759791127322,187.0984780020009,0.4278355261792023,-0.1811225436280334,0.1511838994446152,-191.7511395947897,3.3221062148483886,9.58164010626077,0.3957443466609239,0.4132371884359097,0.4036338973954609,-142.8026954214563,25.54953159467827,61.38464264230365,0.2372781240590772,0.4648715365655557,0.0938197244377068
1.55,-52.00843010865957,76.5480869280262,178.18554459677495,0.1366263992946869,0.1000680036891102,0.330569826368423,-35.859850084170134,40.5465823583409,187.1247663609713,0.1090316153306909,-0.0489303026726017,0.1965264640906805,-191.75162525913692,3.5966662849678888,10.022082168152004,0.5424950125969161,0.1344075024599577,0.4593307384905865,-142.33636724495096,25.96836971662691,62.41758981095188,0.5174479429837214,0.4872883254430712,0.1473702635790574
1.56,-52.290401393166285,77.21023025655373,176.96515074490117,0.4558037668769932,-0.1076003161103135,0.2960168240036909,-35.552723282118286,42.17449142303425,187.35939994154637,0.1106455135668706,0.1752685195184489,0.226213847560615,-191.7170654648882,4.024613177412558,10.628959825368735,0.3310121437067593,-0.1845299008631806,0.375908770463596,-142.38281381250624,26.246051551549066,63.56497734994549,0.1408361603983897,0.511705151702559,0.4435456752040332
1.57,-52.24595486867646,78.1027479127676,175.47272745435265,0.5655704555534302,0.5355544985855876,0.2601286485704569,-35.52346998989395,43.65926781604927,187.7239239356821,0.1734046897631074,0.3273650567517445,0.4742935821991654,-191.8315451553288,4.129458858339888,11.160697220859234,0.5943073070660301,0.0905899963418388,0.4666289039504331,-142.23407170939188,26.569479855935874,64.70445535408386,0.1899771700503825,0.687834313402078,0.0390406743109202
1.58,-52.42320135222916,79.04516141245496,174.197625048594,0.3283834604168593,0.3738749122818081,0.0147073875819157,-31.549881596109323,44.97640982444121,187.83810656191343,0.1152974500129327,-0.0037875284193608,0.6181222849959149,-191.71468066733885,4.515422393517306,11.749822034645808,0.5628669268564417,0.0400628382152997,0.3772662140867165,-141.92080197890547,26.881742881434125,65.87136499381175,0.3097072626398894,0.7239565000463593,0.0952489226647284
1.59,-52.66987155320062,79.74437455580765,172.2062861400971,0.1786080139729361,0.2819858050526949,0.2636639795685584,-32.029698126789384,46.442769935202,187.87351355333317,-0.0037887933393095,-0.0537998112482304,0.1014040285765506,-191.72723058570708,4.526918266093728,12.318805316344566,0.3589314710901626,0.1102937590708472,0.6714677404435305,-141.53368959951348,27.23907316171108,67.10039482135593,0.654474749168273,0.5419908273369884,0.1600674594156243
1.6,-52.61948035839491,80.42753627811571,170.07572991834533,0.5351729487411234,0.3053868315702439,0.1469338223525116,-32.394232631853534,48.0425394770332,188.25222338329945,0.1902799130944374,0.3007353967110193,0.453036788329953,-191.99628696811405,4.855686978745238,12.687157165151442,0.4625980079656529,0.1400007878212215,0.6420815025587665,-141.77248273532672,27.62262894474084,68.40042200161247,0.3008125201939459,0.0838502564224424,-0.0690405655693489
1.61,-53.2151085857456,81.53449315695565,165.5498396251893,0.2012580240106569,-0.0152027904670646,0.1146983218389971,-33.222449757160575,51.11478606146498,188.5608547237359,0.1889628886916711,0.1983642684177251,0.1003628380528585,-192.1133472923975,5.255180866853071,14.310402693694178,0.0974511893669804,0.6171968143579778,1.19164485495094,-141.4571391358145,27.840711542898028,71.36488295741214,0.3950364474152419,0.0175598157632987,0.2200551396555067
1.62,-53.29814498364002,82.48830242048099,162.82703666849315,0.2777023871245998,0.2811697587074806,0.0655260327545075,-33.79934107247174,52.5473533134123,189.05013938598032,0.4626375331206022,0.1199142076488462,0.0769193168791648,-192.0921192959657,5.65015758654774,15.19550841676391,0.1848144543606046,0.5071243965812353,0.9281767996757292,-141.26340642106257,28.58496901582093,72.87090424926048,0.1227454673292489,0.0885598976191746,0.5479340960456702
1.63,-53.30072965978605,82.86044939678746,159.55363220444852,0.6243960806303767,-0.0127534992171038,0.2712660209680686,-34.26346411744547,53.82160299994127,189.39592241862297,0.3791672649940706,0.1034188920017433,0.0953121501678951,-192.2517020172876,6.134476751009619,15.919837381441791,0.7601539192378614,0.0643471380187852,0.8912478377366853,-141.25243201760264,28.92106603564429,74.42106659487546,0.0236557396036397,0.4984548064731789,0.1424994022193235
1.64,-53.44419515042212,83.46193335013007,159.35834671012103,0.7988997790170431,0.1998380156100327,-0.138292866637344,-34.9667723533662,55.588557143556656,189.67385670123235,0.5179274521837193,0.103659244737425,0.3059146429576297,-192.467391529424,6.060222887872032,16.986949247749255,0.5081619873053889,0.1258698181223269,0.8607989518447481,-141.3457587547576,29.195971192634307,76.50173602108471,0.2759341976492085,0.3289626626563705,0.4709701179284984
1.65,-53.53790226746904,84.00270717708838,159.4665541877283,0.4516285161223723,0.3943367200653403,0.2452868793583433,-35.684675100911626,57.0609802976862,189.28218279970483,0.4202247571235557,0.169874242354142,0.0598282667675469,-192.8937139094451,6.278379384856341,18.043560605214036,0.0476485889334516,0.0864633534942243,1.3218829577633655,-141.09847691630685,29.435015978414885,78.21002930063177,0.313490712751983,0.6832934319655104,0.1230918667852427
1.66,-53.84449519835758,84.29145592727743,159.37054294914614,0.3021446644769976,0.1801768110704666,0.2091640763653212,-35.92244889694675,58.42824269363178,188.87693378583333,0.2378567166834345,0.1593912928133896,0.0767542575050888,-193.30440783657812,6.481959404558511,19.226905940767697,-0.0082386990570454,0.0159394206125563,1.2810751941281309,-141.11602551484376,30.000846269640395,79.71859236470816,0.100843188033778,0.4818434410794437,0.1956989036090503
1.67,-53.748288650820015,84.69211248925045,159.36646528351312,0.2949285918927027,0.3503153285833116,0.369996586045051,-36.407586165357,59.95036486858587,188.4448872887771,0.47578459726541,0.0655634959242745,0.2473697364409901,-193.58875081337064,6.92158607413805,20.22137794233445,0.1766734181415633,0.1592165244017321,1.3861993345369596,-140.74489880414157,30.411334436059715,81.68201179732239,0.1390642565846528,0.5326778835674747,0.3478293486440809
1.68,-54.05545216197741,84.93797018051414,159.26377957682016,0.5602832211742466,0.0927800901958677,0.2948283666174081,-36.55182115731575,61.23777541494456,188.1033356840675,0.2163373980319292,0.0175176343156418,0.2114787864993299,-193.8351020980093,7.150071444659654,21.47380212300656,0.092151035554411,0.3553627309864389,1.2240306129462604,-140.57052036599788,30.884693505668366,83.61713255911728,0.1478974668087134,0.8851482966966224,0.4914403144238585
1.69,-53.98060748917848,85.26165058454151,159.16992342846342,0.4502410519547446,0.0356595338359296,0.7618681292944225,-36.90034291533495,62.935492532996086,187.6780701210265,0.4991730277298384,0.0051158351243924,0.0468810100979638,-194.21989269578395,7.095480523588289,22.854083898549227,0.587578807444948,0.4134836261949191,0.5886209130737878,-140.2976496204387,31.18821468660103,85.72198987170613,0.3611113333138943,0.2494841119720879,0.1404489447509181
1.7,-53.98645239282551,85.21539198985069,159.27680088385833,0.3984860933820591,0.125094547328114,0.2517723089323199,-37.11486405720758,64.19747041467858,187.0478910761816,0.7767756440990958,0.3681614031192436,0.2134847493910246,-194.33292789412928,7.569068116836817,24.09819493537786,0.3290211889859818,0.3765366734997679,0.617352969325373,-140.59632033472764,31.21353228421031,87.392930321701,-0.1014986670200009,0.4033049525688646,0.0872145750083681
1.71,-53.99237510271829,85.35391335511697,159.086154177865,0.4579325865835509,0.3100263553474907,0.8353760100773651,-37.89488279309113,66.80899346448726,185.8109757180979,0.1689491498406035,0.2076915411919997,0.0059268163310361,-194.5534908216629,7.963838949963358,26.7368128409499,0.4748949503158178,0.4716949633670013,0.0817881612131468,-139.52747342055468,32.080508924401386,91.33003683984064,0.1048340648940595,1.2735625797246946,0.7504299365519858
1.72,-53.992904022348455,85.31412744050489,158.99870095539953,0.6254049648384982,0.4588275379240609,0.9452862949845788,-37.940227939184105,68.07545115488028,185.2882623308484,0.6633552014027687,0.239940730081956,0.2719273503517636,-194.88792091683544,8.379187063145135,28.09005185606507,0.3629724056025059,0.323552183456687,0.1160763398896859,-139.25505030096392,32.50804316325534,93.2971616905465,0.1498539181245697,1.0318381683057378,0.9301599276659744
1.73,-53.90815968939592,85.3672720465304,159.0480296725626,0.1390248553273565,0.6885294331117899,0.5870034301254061,-38.20435768156634,69.29382690982851,184.71603790561375,0.7618153972262433,-0.146215719103684,0.0399621190385444,-194.9291304630379,8.605409687951045,29.642481103562776,0.1985194672905772,0.320891085421627,0.4529400307174254,-138.75156122870868,32.6964395212282,95.37665473185224,0.3658615893399372,0.6719481932183718,0.4668056999985034
1.74,-53.90740233168788,85.48630041329528,159.35140683880036,0.024836558685082,0.6270496179164169,0.2449424483667469,-38.4128945456115,70.45513478520279,184.21067973729464,0.4009117982617438,0.016163475388928,0.1911343199376092,-195.06745283619816,8.95755612702974,30.963800581416777,0.2141212148966698,0.0875755975449658,0.4614124706916959,-138.33600003009718,32.94746564879545,97.02246600288063,1.0698842426039463,0.542100789211532,0.5400436057652013
1.75,-53.9114788848828,85.31450257787493,159.1036409647496,0.2139991347104617,0.2498358129265006,0.3249624420816538,-38.68203765946648,71.58840676590795,183.7178809533736,0.3716636491422526,0.1798931873009286,0.4290007114304534,-195.33875052779712,9.13317196836291,31.929997205401875,0.2829774453536328,0.1681466797663764,0.4769530449891965,-138.07677384243968,33.01154603983279,99.04266990440188,0.9978729194340848,0.1285688661629337,0.2289404652545817
1.76,-53.9152409838204,85.01963005888166,159.317879693045,0.2454646452611698,0.394441857116676,0.1356882704755073,-38.77098162473688,72.91594510108041,183.0283086131461,0.7593658221292231,0.2396855983237689,0.140706055906793,-195.42190831420527,9.474366096433368,33.33975428288207,0.3769570049914743,0.4097637718118403,0.6679300395848585,-137.62949855715306,33.28026014881719,100.90611836015836,0.5782061414396563,0.6936854831117619,0.3165842148630138
1.77,-53.87186096498458,84.6752087836965,159.54638171250932,0.2781834194546968,0.336337206268307,0.2196838921051546,-38.662800438853154,74.03307912249991,182.4373862872313,1.0530541084852008,0.2222737310665317,0.49960015025941,-195.3280993557049,9.851924214420434,34.74869274685682,0.2329986095377016,0.3803630860276909,0.9471583475402768,-137.251144532476,33.41258726679914,102.86283328808064,0.5310803904397976,1.1023594804057757,0.0449648127511923
1.78,-53.96955480953858,84.64175234976838,159.681957601066,-0.1257483327039982,0.3377139231774636,0.2123587204264075,-39.04153213746057,74.99382642507607,181.4283002624497,0.7617103111523661,0.1041912574841577,0.5468430604907774,-195.1695217133237,10.145700074224727,35.98027895586031,0.3759434697688116,0.5109504580347913,0.6775689497980817,-137.38923078513596,33.30621949366517,104.50460513459284,0.739238367449119,0.746479278621039,0.0334081730011687
1.79,-53.81557800408107,84.50791989690029,159.72295622044444,0.3370804825226837,0.4635803853335546,0.2581554885766633,-38.98888297107537,76.24956188678726,180.52521486643585,0.6709976200900051,0.6471559908557776,0.6306374089915254,-195.28113675630817,10.089254099173246,37.32485194496083,0.0711451938073008,0.2049644760647624,1.014648087791812,-137.17389361900803,32.941629587195784,106.239219713696,0.3171761640773211,0.4566524232358496,0.1998226818526749
1.8,-53.79033552296636,84.45011508426958,160.09572815660417,0.8103964171196576,0.2773956088702863,0.5626689030508343,-38.9102907693516,76.75120843441339,180.09809745790574,0.5800093878125414,0.5108499578092753,0.3682685684720628,-195.48719673123173,10.291185891520676,38.53382298241308,0.0946572319689805,0.2746069038326186,1.0757888132618587,-137.07720182127738,32.833768561321264,108.11100408807854,0.3112523562969643,0.1387346898261772,0.4061776660968142
1.81,-53.7128885614719,84.14172772596822,160.23911209137336,0.5806116072925468,0.1319679205852666,0.5721674019030457,-39.046666306125154,78.52036070190375,178.61394985982184,0.0555616298156861,-0.032851935914708,0.2342434221779235,-195.49372684960096,10.232047396957949,40.81714706356591,-0.0634136044527127,0.4459609826856611,0.5191976613072607,-136.56740122380987,32.58546470989171,110.80348978974098,0.1452767605039208,0.1411838774496206,0.858620249142286
1.82,-53.63158311720216,83.9530557193776,160.2902784692695,0.1544527679850061,0.1236056545391273,0.4681518458407646,-39.09864132329871,78.88641242493095,178.09255926047322,-0.0259124116485108,0.098681441917732,0.1643254754546165,-195.6923961943328,10.584592278275055,41.98527463826896,0.246877212813632,0.4248351282404735,0.3474727005790736,-136.41845563056458,32.59971776786017,112.5542546613802,0.1490828216477421,0.5797384569744227,0.0058077570548251
1.83,-53.237383415032205,83.81287086750949,160.16677856513317,0.4087435637122756,0.0227068742627435,0.5884702537287851,-39.09778710265063,79.5662162185247,177.26535411282302,-0.138694745876162,0.1379969474129689,0.0986426274327419,-196.0345997162304,10.340007012329984,43.63913736901928,0.0823056288625787,0.6952682552029595,-0.0172435441572596,-136.09924223252008,32.159626564076795,114.35210287193186,0.415542744831877,1.3397615336777335,0.681746256850301
1.84,-53.10651073811525,83.72416596407544,160.3920657008057,0.5764079552744419,0.2101389562887721,0.6142742663256774,-38.87985239656773,80.48552670899838,176.1675472062624,-0.0101946507813762,0.511954954899793,0.2744562693921383,-196.06824435005217,10.317500590235436,44.78037393614966,0.4999783784488676,0.5193983015227022,0.0006450469397986,-136.18748170957932,32.01719353218689,115.8009560107757,0.5060212057651777,0.7453717050520968,0.0495482119675862
1.85,-52.773377813572345,83.65980920082467,160.25279846099158,0.2583892072651217,0.0747133215848796,0.6071055882410565,-39.079352659592445,80.94201170913546,175.09575623564348,0.2405695836648335,0.4138306502242597,0.614340185579874,-196.01523762241743,10.422857963281515,46.23257387528292,0.5493958950248704,0.5202405473710127,-0.0807569114905855,-135.94450863156675,31.79571251708176,117.06714757713256,0.9183372190015856,0.5182161576756207,0.2645412905382273
1.86,-52.23729793603698,83.79458380732176,160.14116784527252,0.5102387476122838,0.0975449026445149,0.8037259489458367,-39.0183046141241,81.45956770733711,174.1171313865661,0.4645306915344911,0.4072854314375125,0.4171344130476149,-196.3430181474777,10.16370069767043,47.58195041520312,0.1475276597332544,0.2584341205137047,0.5546737054996128,-135.51987265911745,31.815370045881465,118.33438281309152,-0.1694963580368517,0.6086837441321177,-0.0569005216701126
1.87,-51.8071424169975,84.11797570308632,160.14160333693383,0.345682789860046,0.4151556003061544,0.8071280795782256,-39.19448440752775,81.83582230732343,172.5641132992747,0.6868428360517659,0.1313070721051537,0.4387395348270876,-196.2829360849427,10.289415699685764,48.79965731801871,0.1995831143176918,0.3162163491124277,0.2613446874927766,-134.96024705334395,31.880340682681343,119.3273790360034,0.2521079022647392,1.281331923772403,0.8695452503984716
1.88,-51.06582712738669,84.124362032283,160.0204597181221,0.1388344414456871,0.357486077826978,0.7304170975809966,-39.06493525162371,82.33209569753939,171.1474735496984,0.380704273206697,0.0176589525300698,0.2558826565330517,-196.31497775264543,10.487210476423016,49.858149128752565,0.5791097767503108,0.398648212892971,0.0641294325273606,-134.88201722456756,31.946431906302053,120.140275144631,0.2288800130526262,0.1416234730574819,0.6522726737844279
1.89,-50.60328353345933,84.22480019249818,159.6467510744585,0.1146418674798569,0.3799562332981652,0.5247958025803865,-38.76794050876634,82.6189005014718,170.39620403805813,0.3770170300247497,0.5844420229863132,0.2673978347636196,-196.1640637316626,10.560524875150543,51.43077266903349,0.4045567360503687,0.1323328902100748,0.2068797823719802,-134.8508024690343,31.8526351915681,120.91472171615646,0.3822556668095421,0.0293736373267418,0.5745704865821823
1.9,-50.068522438485736,84.46673313054289,159.3247529452666,-0.0149731932502071,0.0446012356845433,0.5056968287471747,-38.71122900620229,83.0966091854306,170.4141014194339,0.4366810553503148,0.3436552174740003,0.241749088668082,-196.17746869856052,10.579373430260189,52.49890620166234,0.170735953273803,0.2192162423537513,0.3602362688876477,-134.48084657478566,31.94325237014865,121.64831377070996,0.3956214745993789,0.5850777785741161,0.1872958132210097
1.91,-48.717156172873054,84.64217153536838,158.91758701202878,0.807645424313447,0.3365622279004264,-0.0617003573251289,-38.152130762167744,83.89066186261563,170.28849360711453,0.8489533850818847,0.2425261535384214,0.4512336626500954,-196.4412747622311,10.180365234304588,54.73995213240463,0.1696428616929367,0.0925689012221431,0.7150952500549733,-133.97811824178265,31.936167985485397,123.03159889091296,0.1875950466661586,0.151520386511349,0.1027044274416212
1.92,-48.26905765473386,84.72693259043811,158.78716547336342,0.0015684498980225,0.8393121769997568,0.2688871414581317,-37.58691098334612,84.15603778241884,170.25359106366935,0.483183986383881,0.4852035477551485,0.1785822154079687,-196.5217412524991,10.068818589132206,55.74846240812254,0.3096932295320717,0.1529621234380749,0.3887552617995713,-133.71822556537597,31.97708228062427,123.61311335342636,0.1867648999656077,0.2509863801135637,-0.1014306450208656
1.93,-48.19515948203605,84.45937581914993,158.895519194943,0.3943235339114899,0.1990723476664674,0.2559325526894043,-37.08453208257913,84.75280738338292,170.49235695351445,0.0560533046596821,0.5160843675001692,0.1244052836519709,-196.17016136941064,10.088703422026544,56.66878059524461,0.5769404363066736,-0.0168958384222497,0.3913068913460918,-133.5727611348955,31.81718386291676,123.81408326343752,-0.1002775410504672,0.6103078205335207,0.1400418831612613
1.94,-48.14484072814285,84.2819802679487,159.11266254537233,1.1350653198376028,-0.0751228517063261,0.3178164096836536,-36.76592395229429,85.02012793301613,170.58000866119275,0.0753605579918933,0.507889300784645,-0.0060859595676912,-195.9664838987673,10.108901519196536,57.69114849536915,0.5527620162652312,0.2276038583624895,0.3415623416608919,-133.22721153294643,31.79780370734178,124.51056342543176,0.1179221669969413,0.3214983065436425,0.0878259801661633
1.95,-47.989754238866766,84.31267097644648,159.10841499189834,0.9586971023240356,0.3078911178255517,0.6368385263177329,-36.294321608770126,85.44670929240111,170.6144984415486,0.1894983049889937,0.4610324894988427,0.5364892225807085,-195.6519896777221,10.098298092084953,58.58383110378141,-0.0753050208308468,0.1316189559109823,0.061496289579582,-132.658717505028,32.05612410893065,125.00951605409723,0.4596864942292273,0.3129320631793182,0.2634380611128744
1.96,-47.72903823314376,84.55588955150282,158.97710837750327,0.6680816009054549,0.1077755773803981,0.244536616886327,-36.12426759679884,85.61973166198935,170.70626247831876,0.1824518274012771,0.3819409657917081,0.3569035499816468,-195.14682086741303,10.153742034916997,59.5635032225491,0.1768308594365238,0.0894876134021652,-0.0209381043967503,-132.33368538695444,32.31246366783152,125.20707519400796,0.6896663184121617,-0.1218162291517514,0.1081882678600037
1.97,-47.5464572628596,84.52042632780419,159.11483051346335,0.4455080409747018,-0.0200450612006712,0.4008506912280589,-35.58182547696597,86.1905076085478,170.8099806998342,0.8799602154102798,0.025768070309299,0.0705846643047906,-194.53461955028013,10.156498118906866,60.41267245902029,0.1169571725526396,0.3120952654901608,0.0358971519459468,-131.9762463922429,32.260950991369846,125.49594773604512,0.3235071186706387,-0.196657908433795,1.007052521168874
1.98,-47.269099588548464,84.58485192803082,158.97147482307165,0.367023512277959,0.1071900313998918,0.3665862500897204,-34.9860979016932,86.40098549880688,170.68932139338963,0.5883582310568234,0.1627923607486925,0.4808723990148287,-193.95380263596147,10.161912525482014,61.26445805018845,0.3928264429739029,0.2441585032414768,0.5666809842424749,-131.90907760400563,32.01538186714032,125.91314250659975,0.0645050241071813,0.1119670579758535,0.0945196047470336
1.99,-47.08615856476631,84.82478714065786,158.8321089405192,0.1115108278333194,-0.0122298523119316,0.4983441650493918,-34.618156319326644,86.9192232221625,170.78870516898252,0.5674403382637546,0.3049238588041787,0.4096009799026313,-193.56236417801776,10.3911613554699,62.196540913067885,0.1137788831872883,-0.0301492245031425,0.6412431698060018,-131.18726694206373,32.554801953058046,126.11385601340751,0.2218842289769663,-0.1481941981472635,0.0971962752116268
2.0,-46.98761822378192,84.57068125945423,158.96240151979927,-0.0023888201140786,0.0152579046983603,0.345834473514883,-34.375967924420166,87.18135904253236,171.10061271848133,0.3672089423021408,0.2939268357371504,0.3847391434826217,-193.54212737830971,10.077402484941455,63.120287083354,0.1106205608944236,-0.0395315081575248,0.6539143536534635,-130.97080511374816,32.62683191901588,126.28185486623734,0.2766262827304766,-0.1584403145868912,0.2170596168200712
2.01,-46.836005861933565,84.84977781859553,158.96038923200254,-0.0587638579633083,0.3952400072649493,0.4249774781620254,-33.942665797413426,87.9559041740344,170.97627025149507,0.6187155273142092,0.1567869350705353,0.2564777953755954,-192.4271401137881,9.884283218109706,64.50855088711889,0.2084689349794516,0.4806614486603056,0.7907674540453511,-131.4148881546723,32.1626532691373,125.97918396377972,0.5219883084519015,0.5505980383513938,0.9239427625185668
2.02,-46.6576922622049,84.94448302587841,158.77895017723216,-0.0087781043587266,0.1867210070422277,0.3858027076720661,-33.64260165952345,88.22120450528843,171.30211263596115,0.4836226444710483,0.1716599718621493,0.2020550541260846,-191.86076533381248,10.049281253600748,65.27926947085092,0.1079120712406939,1.0189909873290202,0.7621296777063385,-130.66666910719033,32.68845679792859,125.90021705561338,0.348720243441227,0.5013527092604405,0.3076765338782239
2.03,-46.21150293235741,85.15111808765032,158.80435411809708,0.3106037352976339,0.2434399539864293,0.2878368788083832,-33.44747586623608,88.45058942488143,171.16578970979486,0.2023836303030221,0.0623115736914205,0.16956132476463,-191.2942054525525,10.14290357885322,65.8027091118573,0.3572159513394782,0.6768302711234788,0.3849476690071959,-130.12192859592415,33.0720766163709,126.0462566131526,0.0557627913136519,0.1230176628237258,1.1263384063383322
2.04,-46.12941653070003,85.21833189859368,158.85410170895298,-0.0265587059566709,0.2999755507126352,0.4221060339315041,-32.91138404112229,88.39478542028937,171.18151888752783,-0.0358418313815594,0.1916329380192092,0.2705678017103188,-190.6232642575465,10.247124180445413,66.2284218837095,0.6278621798777116,0.5282384659729507,0.1725123209580567,-130.24806478763185,33.19095822902182,125.8673044023261,0.3556966359201288,0.2649181623125526,0.9615189695453792
2.05,-46.11147655632599,85.31813037276794,158.9319101601659,0.04755835879841,0.2293904619105308,0.2915776621564949,-32.96592380843481,88.33226249545497,170.98171913677473,0.037381818200746,0.1034351949321977,0.1342786930656124,-190.2753712782965,10.2013563302066,66.79567643790335,0.3819628051830178,0.7530945784995616,0.1946962914877457,-130.2433534561141,33.14257119731488,125.5083871165052,0.1665540916551801,-0.0439900778799917,0.5924169606649212
2.06,-46.0532483144132,85.11927581853728,158.7293293720582,0.0381744047278224,0.1405226196019052,0.312429626766659,-32.93786002322732,88.34283734195132,171.27255887410718,0.2216817281663693,0.3732835872347528,0.8526675403631118,-189.79607366115928,10.36311804076641,67.46962319425639,0.6687030705847962,0.7791217057697435,0.654489963064724,-130.01867371738166,33.04472627826554,125.5310389299956,0.1572933397726432,0.1163807904503627,0.6038786385325345
2.07,-45.79671015372946,85.36227340143553,158.79607943211232,0.0947363952377169,0.1756111241000594,0.2700061353514227,-32.68098086395321,88.38475923047278,171.26158430104758,0.1474785161416215,0.0871436775188885,0.655839315191585,-189.85348766888475,10.19604710441862,67.86606559605207,0.2541160440770766,0.0592464020584241,0.7493703364099705,-129.85183140292912,33.24959225717902,125.27083378026484,0.1050700694975377,0.0144730376878993,0.5865396352643234
2.08,-45.95537429734121,85.36113506240781,158.7671115902034,0.2293499583270865,0.3044764330798539,0.1757619602710518,-32.684119599539486,88.46271477082472,171.22059164235088,0.0341924041060379,0.5174224398725465,0.2376475235706986,-189.77271921625075,9.913614481468729,68.32626430125319,0.9952768390263028,0.4929788412900797,0.6643245616242592,-129.54306357301175,33.55291054848609,125.24804313407498,0.0585115367617879,0.2420267025218195,0.5440450864262929
2.09,-45.84424806772831,85.3145217791542,158.70464323245648,0.2451409072607697,0.0975730789505904,0.2188685680391588,-32.48753619320256,88.43465672647606,171.17700456666407,-0.1268710259548346,0.182240361378159,0.486541751386417,-189.80390909921329,9.97043321880791,68.88927778498557,0.3431229497400869,0.22782823269926,0.9312867830637974,-129.75750617591163,33.45662030175459,124.82745358139046,0.5868424493978865,0.7542586814531581,0.4745814934935377
2.1,-45.988770142352784,85.54188106574617,159.0215749505508,0.1057611575794354,-0.0460014011617426,0.2048762415245956,-32.46419030171049,88.61105913729116,171.02006203804405,0.2293393343560907,0.3069660432985791,0.2960664583968241,-188.94758353802345,10.091530996024646,69.22259910507464,0.5249328473207316,0.8012794879072689,0.7645016322842301,-129.5382520908217,33.267846057717385,124.47830589440984,0.0091704842214788,1.532542165211346,1.6342039387197036
2.11,-46.09940884054907,85.4711878568935,158.82632414258086,0.0589634548840281,0.1975290917631318,-0.066634692869656,-32.2158851414114,88.65437767679379,170.9128858300498,0.1257324530631094,0.2171086559129015,0.4676388384395924,-188.0036380523428,10.3337395518078,69.75874772267265,0.8902073936755512,0.398638624847617,0.6655994364209804,-129.2522123484266,33.59566777589473,124.11399217338185,0.017109884975642,0.3238703037735594,0.5906850170579965
2.12,-46.066901914585245,85.43774126877184,158.67691075269653,-0.0810440488396492,0.3497586757044776,0.1082381153180384,-31.952064642632266,88.74798292044255,171.09188356806033,0.3069628374916997,-0.042449228381258,0.413534787686997,-187.89191646047493,10.221090996421845,70.27498101711474,0.5754735268738564,0.1380021613098466,0.4086651512248598,-129.05799970456252,34.03383959394102,124.21703621792368,0.1592850020945519,0.5573877027146066,0.4929359077528027
2.13,-46.16957706074313,85.63327392435254,158.95382995644704,0.0539075509403871,0.1507903101200545,0.2880564869216272,-31.911171463622207,88.87570749441866,170.8231881289213,0.4509579515330854,0.0204102486827823,0.0609123918164473,-187.7747917642778,10.019778703391042,70.66900849835353,0.0121821911965672,0.0534140917933804,0.4842854584898063,-129.29060252473465,33.79318016700495,123.95729708575736,0.2097423126500137,0.9647104272179252,0.6704243732829798
2.14,-46.22427899672532,85.59540686070584,158.90123450062785,0.086337995628216,0.1675217183580466,0.1713374595879528,-31.83626786935755,88.94560411684576,170.88847908727675,0.0502449761513571,0.1064002663385084,0.1362522793460764,-187.9649128115984,9.752841593089045,71.27551297131897,0.3997782885212438,0.126319237839191,1.0598994322648974,-130.0521469868919,33.606817017558605,123.92742263510004,0.3167026988995698,0.8933136547374666,0.2290056212501749
2.15,-46.363118531844144,85.43038908145579,158.93978936977695,0.0608942390105558,-0.0884700943556034,-0.0164041084324925,-31.902748960605187,89.03496883902544,171.2284165199245,0.3113488264916036,0.0242721990922301,0.1183576720925067,-188.12214277985677,9.404927488561398,71.77845187037438,0.0413333237220508,0.4422758173489796,0.8178497025074875,-130.467816857636,33.30013742199347,123.7810499900154,0.565927611392267,0.6020255783848281,0.2265447960166162
2.16,-46.43622514035873,85.53736605801971,158.80921433758292,0.0118853052628006,0.1044240166392156,0.2222554010021092,-31.77811227921256,89.09881737500017,171.04472117764385,-0.0880726922431621,0.336868241474015,0.4760701946906734,-188.39171253486256,8.845647619728004,72.26440208179822,0.1383014400420969,0.4666477148611354,0.5613635521254606,-130.6942638610328,33.27929691581456,123.8303267622094,0.1715336358709576,0.05257699392738,0.233170946035284
2.17,-46.41116485282611,85.60967894943707,158.8768819095596,-0.0445362549587256,0.1745385018887373,0.0814662772791537,-31.852054601058445,88.93916170799994,171.39627303547968,0.3974875928848941,0.0777436128432555,0.2608899719422691,-188.819606032231,8.558189769649106,72.81519999533549,0.6599903040688999,0.3177996682364963,0.6392619927353856,-130.7777477266321,33.0971794452251,123.58441254298822,0.1110312312779406,0.3942747907947064,0.5193983217742009
2.18,-46.61988360679823,85.49490520036171,158.94649438345394,0.1480332439146749,-0.0029184751493789,0.0226873601336553,-31.764158762624056,89.00583465519321,171.32809664423388,0.2901907659738829,0.0078467504468581,0.2116298896964922,-188.7600379930268,8.617770561966868,73.33503337680949,0.436896784883613,0.5688728555823852,0.6624999967388823,-131.37287210972113,32.834257295863466,122.91583160982688,-0.0422967219629243,1.0011637598571232,0.3425946036401771
2.19,-46.58342502532001,85.58794745627826,158.8475377767177,0.1072167884401334,0.0781753586490994,0.1178062527240628,-31.701389203483654,88.75759310398475,171.2237379855475,0.1131497147701708,0.2353247671257721,0.1127792407565428,-188.5926210177202,8.76850229692035,73.75781032915175,0.2819198825726478,0.287862442727025,0.2556589403156236,-131.5152452691862,33.13400221972389,122.85574529290136,0.1746299239226764,0.8484562860431878,0.5019465862643455
2.2,-46.70940517203804,85.61411594256835,158.7280449015067,0.2146675997358302,0.2276377907692306,0.0334451562248476,-31.916278857730443,89.05202243079705,171.2598557675536,0.2709473455739786,0.2202020348968444,-0.0051780789771378,-187.95374064666223,8.795991196179486,74.09967894300947,0.5551431814463998,0.7917206022523853,0.8556541269826186,-131.62906530714395,33.146277017853265,122.51928730187412,0.2105134960279472,0.6684317947470251,0.8681968136619764
2.21,-46.549035075509416,85.60759683945442,158.90604153677305,0.1657322775523242,0.1535916067924805,0.1265533845436922,-31.91077377326483,88.68218180982586,171.15234830030698,0.5464044304213944,0.1199991696389221,0.6352077131653671,-187.33465009502672,9.080371420587309,75.22456362829017,-0.0942884279980191,0.8967462555662281,0.7984738960228828,-132.06979645064658,33.09245031229717,122.10913089497222,0.2370252741939023,0.4994299231417569,1.336650318594652
2.22,-46.61124851071342,85.49817118138401,158.84915825785072,0.1891564895717321,-0.0528956369048171,0.2778662501707791,-31.898716738124342,88.43328598957346,171.31275666710135,0.25153524858924,0.5660564473813217,-0.0138556444413968,-187.26306701266725,8.807957723673075,75.4215412162576,0.268496625473535,0.6873746043580065,0.8155006976453443,-132.26938451651262,33.238434851204325,121.91210926385546,0.189029284251986,0.3915221682629962,0.977513261390326
2.23,-46.5640209212067,85.60261453300889,158.61566070037665,0.0963864842425548,0.0971548715813555,0.0926230290776617,-31.931205230073328,88.39880577061848,170.984439692811,0.0508116673491047,0.3746706709674298,0.0841984278883253,-187.29304421387823,8.828536312672036,76.09780863144132,0.2334034325433001,0.3533883658863055,0.5334117257634616,-132.3125262942036,33.048408369649415,121.7546701828786,0.2394046758861432,0.4980901835635796,1.362197990487156
2.24,-46.657933995762384,85.49762829179991,159.019974889082,0.2242131692254853,0.3835577835293607,-0.1920629456163629,-32.0880066845858,88.44232192447886,170.93794253935732,0.1925526589232351,0.0376033603441083,0.1154837435433999,-186.9808946432716,8.90725201928533,76.26983276356029,0.7990766338500692,0.42450744496562,0.7282123303653671,-132.42403585708223,33.1973274971797,121.5658631480736,0.4194688068254805,0.4497944725580086,0.4712590370750569
2.25,-46.686174544494186,85.56061416771425,159.0705915254464,0.1883797093851987,0.1317879507444203,0.0980306960190208,-31.911316490876736,88.16373987427421,171.19665158517117,0.4030057286652026,0.2291974335992625,0.0328016226433339,-187.06369657771117,8.545556839818913,76.64465181721529,0.1600302573611832,0.2381842748764631,0.521052482224304,-132.40876319801566,33.36129837587023,121.41013837305208,0.4145511088248763,0.5781470260242597,0.1778236133582426
2.26,-46.92979542755151,85.38350718417006,159.08435024384295,0.0670172936552907,0.1068347246416948,0.0004355094348903,-32.08933818482171,88.056016854118,171.171515605917,0.2329562037859971,0.1098095247488235,0.4541598920142209,-187.00824176451528,8.539257174333423,77.07665715234921,0.809429441656014,0.0364432716063975,0.5013209907828522,-132.58821197798,33.31874560611195,121.7271903005647,-0.0963371842683433,0.1963634634072581,0.4712109661549291
2.27,-47.19974157282911,85.50547677519567,159.07098907245097,-0.103836947893971,0.0765669069569278,0.0995693240609111,-32.0972589431505,87.96249542453897,171.41754791625783,0.3820089677891542,-0.0482698840701439,0.6443571091096496,-187.0859104698808,8.823801239582297,77.35328856743169,1.1240913525555258,0.2686493562548981,0.4115273111525712,-132.6593433173694,33.183127532339824,121.1905523526892,0.4141807638106798,1.0558775359950965,1.0105932577131722
2.28,-47.32977032419926,85.39368565748505,159.04838822179929,0.3863800008090656,0.1339845466350715,0.2767005829793494,-32.083870969442884,87.94916879643017,171.0351750726011,0.7125818114976175,0.508609291315258,0.2437730733261309,-186.65731191745388,8.912200438570821,77.69796469320134,0.6220648899545169,0.1963474436186074,0.730303270479353,-133.14012220291903,33.061622604251035,121.04715597699636,0.5100381978803664,1.233004129889216,0.4714093124335272
2.29,-47.47440789838292,85.31094698843333,159.23108202773977,0.2293455473592136,0.0855104493667548,0.1261891164297854,-32.31356412677301,87.9902821761051,171.3174341133826,0.298376384905889,0.2820168432402544,0.2689416853332232,-186.20740215407275,9.066150753074938,78.05383548739438,0.7288598104744496,0.5328709053348056,0.9945368688927584,-133.0914267639608,33.349450218121845,120.9863691267148,0.2060354053965926,0.3023781725764803,0.3389378369577689
2.3,-47.664921716117085,85.21490135429768,159.1980726462281,0.1071550932261644,0.1995350650964831,0.1943646207370555,-32.107280837754814,87.63241070832153,171.26149966963808,0.2475415088249646,-0.0401425093885999,0.2657197281545096,-185.96539446945133,9.232766165781165,78.00908579180354,0.4650206847637511,-0.0530600736699906,0.786326465297345,-133.3573303895492,33.323891160668246,120.67640884223384,0.5161833863610241,0.4159192574947019,0.7352082555246353
2.31,-48.0859308047385,85.24887661216029,159.30807663898975,0.0615704522935269,-0.0899596403825663,-0.0989009287341894,-32.590435434202355,87.38108207677331,171.30308068167025,0.6133669559920806,0.01579571715158,0.1278317209840592,-185.94502739852848,9.031563709442596,78.76334569575144,0.346832979845252,0.3569695482804909,0.0773785968470756,-133.64076457301724,33.44938864048207,119.97281219609206,0.2525346306543701,0.4692846090598265,0.7224910704459093
2.32,-48.16028692594457,85.17804026057757,159.20546102642427,0.0355004812725966,0.153151724547801,0.0711657624332069,-32.70520232865961,87.29308525601866,171.3842317212942,0.6086005289606102,0.2710716746769565,0.4300848461997123,-186.0356980748508,8.997792890473036,78.91089782100237,0.4867564213058437,0.3490039973031323,-0.0319105169067691,-133.58335947253553,33.737536845154416,119.82107467907872,0.1451746524556272,0.5824480340912984,1.121738611647917
2.33,-48.31924290954197,85.06887854759574,159.0665428508753,0.134652285028774,0.2972576523093586,0.433253569745644,-32.57481676670361,86.94295104289819,171.53970428420993,0.1362051990145565,0.1479203593461454,0.1978618635147873,-185.67580614255283,9.211685085186527,78.89639547464998,-0.0365043359421018,0.2977279322986013,0.6255575324815449,-133.5685204849555,33.82141684292064,119.80926572829526,0.3228038030925627,0.7499992709031428,0.9085183975840164
2.34,-48.47027961558677,84.9537117541752,158.9619096239031,0.1282821894449501,0.2168427920552346,0.34876650065501,-32.88680431660629,86.81103641607403,171.32509023563836,0.3059371218344963,0.4142396337908608,0.162632100388501,-185.37054392782716,9.307154489258314,79.23115009503931,1.4151890495663877,0.2063900420307297,0.141891662740291,-132.96724201579892,34.4156405390048,119.49003359806142,0.1654750099096035,0.4938353380581843,0.6946925337679415
2.35,-48.42593466130789,85.01508365820003,158.9241934070463,-0.0748929848571146,-0.0251834922453975,0.0823817335154339,-33.22566376827346,86.68521783051274,171.44210924661078,0.6039664263112319,0.829120684681865,0.1690782114104842,-185.0830881225107,9.515692932497728,79.2040935975948,0.5763350853438145,0.6548056826707928,0.2564041042250725,-132.61315008361012,34.90862945125521,119.39672899664454,0.073012928655194,0.4035513731751411,0.4864165284645005
2.36,-48.53119982762137,85.21806058406892,159.02379912367758,-0.2870291185633795,0.0665199130971372,0.1291253989927351,-33.13638248751741,86.32667513900412,171.40314670207033,0.052977985235767,0.2451796600479613,0.236180561542576,-184.6476908768123,9.950934892631423,79.0446296229925,1.4328630142323926,0.0941454572733583,0.7020869636778979,-132.32816576244906,35.20494964886934,119.18189558808552,-0.1610434270082605,0.0636260493317002,0.9413466127042076
2.37,-48.49429606453208,85.01591761754997,159.03689602965795,-0.0623922098890848,0.0670967880517498,0.0097144007229745,-33.27930440229204,86.21939984303856,171.2028113206427,0.3389355318643838,0.9468208477919212,0.6924270906386395,-184.49517650415743,9.92779155269158,79.36414350200471,0.9886437606186528,0.9913756750853614,0.0788893388244673,-132.5007920975311,35.13664579750554,119.0244313866832,0.6642526249596482,0.2945937554431971,0.6563922136287355
2.38,-48.60563432660973,84.9920596590285,158.96812107310606,-0.1986515533862444,-0.0166582598393924,0.3171190194207534,-33.217700510515435,86.08217445440539,171.20741396643663,0.6249483776497207,0.759027477009119,0.5703677678991822,-184.70888323496848,9.618693876830754,79.51217869741566,0.8058920185934824,0.3146638818965956,0.8234762837367693,-132.22631424587112,35.44316003477094,118.94676200548936,0.1892991174265335,0.1782580224660896,0.2175974492875715
2.39,-48.688439505768734,84.73470142846963,159.01151821755022,0.0584742457412029,0.023180893037675,0.0775601081873947,-33.45842628453523,85.80254034751185,171.3424602272637,0.8600054431797076,0.4525958444486062,0.2811562849982535,-184.31166581301983,10.08558789441724,79.6437041835343,1.4673270214925105,0.7317097181784316,0.9820705273071254,-131.82151824575163,35.45752843288826,118.7143889589533,0.1336670450975824,0.4046058702273417,0.9592879952263912
2.4,-48.8945963035424,84.80076453482887,158.81276522397795,0.3533965350098378,0.183769143641195,0.2651453416757802,-33.61265980946256,85.58744707561515,171.13499698702444,0.2611951203631265,0.2843121750345848,0.0618160028666024,-184.0339335058602,10.19456610348341,79.45310127973045,0.4250439942795662,0.606289534233668,0.0279214726431858,-131.63465438030104,35.85114948607393,118.634002672257,1.9990382976758467,2.320882388258762,0.7918845110133153
2.41,-48.77489484485118,84.72750725287992,158.75726202416882,0.0432365202457777,0.0699233560771763,0.0461166457221006,-33.622169839886254,85.3173139982132,171.15304830411856,0.0307312280316801,0.0489417221218855,0.3383168292599698,-183.429548605156,10.33999559342211,79.35916010036442,0.1584055039973885,0.7094369822045004,1.142141148314957,-131.29511601734836,35.95915052050563,118.5818374795942,0.5822572385772369,1.1984815246807046,1.379982415468478
2.42,-48.53590029653012,84.67724382238869,158.8072006985586,0.0997478286418909,0.2718376255823938,0.1022235247818528,-33.85107876162437,84.99529347532678,171.08874963702775,0.3654744774007921,0.1649564514288848,0.0095036886085425,-183.60440032890492,10.794932906244345,79.15123267795619,0.8057541908240174,0.3715757194600654,0.7908492525483499,-130.84158749099308,36.47226359986548,118.42766959322522,0.5488520571142721,1.9024658171152933,1.629423186482501
2.43,-48.85223798735064,84.70056685099809,158.8048344405245,0.0753692873996986,-0.0075324728989396,0.0389825212589688,-33.793960219910815,84.92862078241686,171.25310504372135,0.205818280229258,0.0344004651886851,0.5156669612372123,-183.31463864348055,10.6409768513258,79.21758066651225,0.8830373055963348,0.4234988879519044,-0.0040507062828565,-130.57865594758934,36.6762418636241,118.48108187737871,0.6073021133831038,0.4119589040593553,1.4048767362284449
2.44,-48.92519287264099,84.66859866086219,158.7463088790265,-0.0497814788741264,-0.1187025211314637,0.1286285652051336,-33.876293986512486,85.004678838555,171.16269373191165,0.3534209968527173,0.3638246940989145,-0.109579187966986,-182.8996962507814,10.95568423159697,79.21646634060968,0.9224683375312306,0.3830745494313436,0.2254437605313082,-130.37866357223243,37.14719571086461,118.86737325649229,0.9826272689406608,-0.1289164800937686,0.3720121253153451
2.45,-48.95552534101108,84.59207798747151,158.75636554155238,0.0749317652857783,0.1523839916961873,0.2860817086676177,-33.9794957183152,84.97304883591448,171.10445174512537,0.0576103567657772,0.2064313341380291,0.041579195062846,-182.4845093315488,11.040654427206125,78.71996280832761,1.3307610236273812,0.9425810923604596,1.2186020706706038,-129.95698603734675,37.25524961113053,118.72392625180608,1.039421618249743,1.4793321976915017,0.321587855661615
2.46,-48.63483129806728,84.55066134472825,158.75908118297409,-0.0448258123617666,0.0185769608633555,0.2745281087740236,-33.87890285074251,84.62932981929784,171.12645953160603,0.0345567911789685,0.2064124107067658,0.3622644690457434,-182.4075386787817,11.263104003598032,78.6408890841083,1.365339997058419,0.8414086287343796,1.0496555896072348,-129.96620499669103,37.42732254467511,118.53767102250906,0.9473028795679724,1.465170558083805,1.5293704352416884
2.47,-48.85810287676752,84.7203969429282,158.69080376998363,0.1485052546282381,-0.0481810129370789,0.1271102782392699,-33.78742557148754,84.63705249952186,170.9372105879222,0.0944822679428286,0.1883916989833617,-0.0344420398773109,-182.703091145638,11.093095061394608,78.76168762688647,0.4908003510746194,1.4337702534498968,0.7292394085613454,-130.19551052323658,37.11712165014056,118.24730943349036,0.8194805625858286,2.276968335663369,0.9565815081949144
2.48,-48.462220385378245,84.65895285159432,158.7636203000978,0.0533210841801212,0.170094779156869,-0.0989808350173753,-33.87979087187157,84.66361175648231,171.25227181032852,0.0172224030906834,0.6026337222038869,-0.0672268524363661,-182.91363128453403,10.973037449089947,78.88310843743953,2.2631038344248884,0.6432764700106246,0.1956606341473024,-129.77826334903557,37.49709737374673,118.36453969902612,1.0180818623073111,0.2216543833105145,0.6640805627195258
2.49,-48.501736734129736,84.36730015564103,158.7776592270575,-0.038747424279206,0.245760490456293,0.051083351161001,-33.767719942587426,84.59426237472343,171.1620060260203,0.1514676018598774,0.1139952820873478,0.0227596805326808,-182.28534282901967,11.294052764042458,78.92974802609429,1.5042437110604123,-0.1487874720083147,0.3033802969001345,-129.55662235953235,37.7381994875723,118.02016288540672,0.4939724314958111,1.38715774069641,0.7968384803787663
2.5,-48.462489192544815,84.60465634015503,158.63645820419416,-0.0047539220240387,0.4429720901233676,-0.1870047777739354,-33.83697102331913,84.50690929066242,171.229303210197,0.1294392090562347,0.0878670999115576,0.2526451911755835,-182.14647325984143,11.556532224334926,78.7252812174617,1.1179045010831348,0.5357487135975183,0.0821588935650076,-129.33481578917883,37.65261300854495,117.37133210446306,-0.0089735631031301,0.4642069952603469,0.9173259660828836
2.51,-48.35868748310478,84.43631604663379,158.83614877189558,0.1416380349879771,0.0636780625339009,0.2860176522952202,-33.8957838781659,84.11549264467102,171.2862175798843,0.1848436317631474,0.1059839865066779,0.1341193590148834,-181.89153688997112,11.616145410297475,78.94299304757745,2.1532272327775868,0.8619327991190924,0.2306503141801629,-128.96654698797707,38.90275272759605,116.25638778009368,0.6653795863426518,0.637441213559674,-0.0399165669422338
2.52,-48.46628326377549,84.5849318188333,158.80191554857328,-0.0029679310103723,0.1936652609358672,0.2308907631921416,-33.82691738009215,83.9990427295331,171.4897052879913,0.0890567279707397,0.1067633277779455,0.3655024815566567,-181.60925325420067,11.655087170148748,79.23471912307446,0.0882303830388697,0.3486529675105596,0.6999966634834537,-128.84508926552417,39.15402622993002,115.74584219757912,0.6301037417628356,2.028156152422828,0.1670538783312925
2.53,-48.39999466359569,84.68777270344924,158.82757211803627,0.0305847883110092,0.0577299672251579,-0.1954856740795214,-33.43289799937009,83.89931175829553,171.3838194935028,0.1307916645888643,0.1693880769298077,0.5893702643302167,-181.4577733047966,11.555346044238112,79.46299284231644,0.8690113651337126,0.538429449567983,0.9566139047270168,-129.4038863977749,38.78004053761671,115.10941760810512,1.0351575013744574,3.0298402798112383,0.4838407582399878
2.54,-48.56097050751245,84.46354597026527,158.75765453221956,0.1531332271228315,0.0899680890683776,-0.001457719596468,-33.398310319256,83.97092008746439,171.50104049137678,0.4443465059440677,-0.0083224857574646,0.1494464788520944,-181.68274168705707,11.30709277538024,79.8240670396813,0.4439381328093849,0.7616759154459541,0.4537719204346574,-130.05223782644896,38.76430034237016,114.63867866191798,0.2131366598337315,-0.0765278260798204,0.1242209548584641
2.55,-48.32454693965903,84.61595362133998,158.40624182378298,0.0279256287754796,0.1693478473331061,0.0440134529183317,-33.29054381929373,83.9510216613705,171.643156481275,0.3989748731407049,-0.0487730182152312,0.0851480791325039,-181.9154863152179,11.086155915910895,80.30644700644916,0.5150460358606842,0.2775046454727571,0.5741051936705992,-130.13900765181984,38.82534662123009,114.58751965145036,0.159143484390551,0.4145920546315723,0.2198867110689896
2.56,-48.360040903028434,84.32045248493577,158.76389642103192,0.3074458729754679,0.1542937194704992,0.1364201838127116,-33.196979165595245,83.57159623340533,171.69553008796308,0.0781831594294513,-0.0157940029123817,0.4057806337425005,-181.73389060262105,10.826069622066123,80.60634084523633,0.2812844788997979,0.433268857955985,0.6437978447938939,-130.91310568080817,38.39515881496435,113.96471826327112,0.0286141627866427,0.2910837142466524,0.6746071880873384
2.57,-48.45914047927005,84.19649103287387,158.55592011354872,0.2419165099074905,0.2468623658103866,0.2798384576887349,-33.20300600586624,83.3938163439737,171.76836613546925,0.0880573786711638,-0.0007079003658368,0.2366907800335155,-181.2353454244532,11.302375044297207,80.93099666936554,0.4945740584822947,0.1315064877188594,0.6845003280860907,-131.0106411727557,38.41379027024001,113.76071900112292,-0.1022268366190782,0.5553504401681121,0.5245793119624247
2.58,-48.33884556235117,84.33593655784266,158.45713493174543,0.0443836399325391,0.195933230457607,0.2435978114840739,-33.279006940561985,83.47251512381645,171.747035071294,0.2416210327944307,0.2948097877706472,0.1764910324081311,-180.89673412108107,11.2982226054734,81.11228599573354,0.8266110150482032,0.251871151748791,0.3576675472218638,-130.87448413125875,38.56972183934408,113.4066325050436,0.2959827218471854,0.3475479815852416,0.6677197284656365
2.59,-48.351303663306425,84.12643255677152,158.52638774766484,0.2942742366748748,0.0628628798227909,0.295181108467082,-33.27434209121615,83.15402474261536,171.7896079250186,0.110515640675655,0.0446743642374005,0.1462446971298303,-180.2194654575889,11.75997311049852,81.31935453459857,0.1632996837493869,-0.0881527582101725,0.5633626974448077,-130.7565618108476,39.07531232332298,113.11176679333012,0.3690856795588726,-0.0006282078486763,0.4486689538876625
2.6,-48.39078988276465,84.15097614618244,158.48396495367535,-0.0027779597530741,-0.0144289835957569,0.1511418611831118,-33.132253364300205,83.20351539864899,170.60667456447206,0.0457166445903052,0.1496276645185527,0.1976058363482055,-179.7797506039269,11.933413753580004,81.68970140969952,0.5813047691167359,0.3969702138167976,0.9046715391364448,-130.75761295404448,39.02956220625944,112.6546804904353,0.1294341422982673,0.7872270429106365,0.6665490404401418
2.61,-48.34621811113615,84.3768826847641,158.4607507859651,0.0396651059250345,0.2051546759921075,0.1937509541234984,-33.184929121136385,82.6925550966026,171.0343256390704,0.1024476000089625,-0.0562081931524925,0.2446528350756357,-179.55723324455894,11.985109204868476,82.49372081180655,0.2510773095898739,0.0194737239555562,0.630216661909053,-131.74057582904538,39.31581873234035,111.76564545206617,-0.1313773030915318,0.2779294692745242,0.90317313961305
