0.02,-48.16502956412691,85.68295085826753,177.91222044685395,-37.16848136377679,87.59009117964254,178.04000751667127,-199.3968661042993,0.4664459082908604,9.485819829620626,-149.75223845725102,11.84225940301796,18.44188369773065
0.03,-48.1260001440654,85.72643312034259,177.99024764888233,-37.40033852821608,87.5582063798594,178.0900300502665,-199.44708170323523,0.5416775761949172,9.301900381882184,-149.69755695502585,11.875862167646302,18.534851733069413
0.04,-48.24808142567527,85.61273424282436,177.80395554635444,-37.40456630293741,87.55703849204556,178.0388200968098,-199.4065815575875,0.3690320775881803,9.30531155454868,-149.65158087681726,11.82356402224666,18.45701111931969
0.05,-48.13944391534305,85.65279949521769,177.84244521144225,-37.41218310835861,87.60038265905534,178.12489567777536,-199.5454633153128,0.6710618799890158,9.415565651061762,-149.63300498970906,11.851090640335997,18.426995064022364
0.06,-47.91485480227889,85.43779629758524,177.9866679120773,-37.20810979255572,87.68010177897938,178.12854190667463,-199.39050043453216,0.4070417185084508,9.1752692421572,-149.4704031376089,11.94951824089718,18.22934840979648
0.07,-48.094301060031,85.57720670644224,177.82247589374765,-37.21259244358486,87.56716417557968,178.07605928741657,-199.29484230247303,0.443151768542807,9.41420354444179,-149.56796697440748,11.72926710889082,18.37129191857558
0.08,-47.93377362126634,85.56820239212502,177.77542520848436,-37.32373222675318,87.62684543241882,177.94435079077704,-199.12873240996137,0.4870316791605766,9.479766818697422,-149.5470617073696,11.93819535258885,18.25430444261625
0.09,-47.98778929419167,85.6711534804943,177.8480870949946,-37.222502816645786,87.5868265202358,178.0188256732685,-199.05180035891345,0.4031200758587973,9.24142980009132,-149.5152889932315,12.071282508274576,18.36153259697505
0.1,-48.119924841028606,85.62732865420348,177.81946186357658,-37.17350788466074,87.5031720006272,178.24382272946968,-199.25040676763356,0.4960572655891707,9.372842138567927,-149.63531491209108,11.915591629952493,18.429496463801115
0.11,-48.10961608229791,85.68133520264236,177.63684204645594,-37.26809513135496,87.59739379681399,178.11434019082645,-199.12476175938255,0.378113337237716,9.392599735453102,-149.38242682789274,11.818662526518304,18.434448996625864
0.12,-48.20261113615662,85.60805544562169,177.76750809968848,-37.20036594233101,87.32178669723548,177.98829304484312,-199.17903285431103,0.4322336888003978,9.365889919339294,-149.2911638619459,11.94583456554576,18.402412258115344
0.13,-48.17472189284236,85.6619335753901,178.0029475925257,-37.39631951566478,87.61708605200731,178.00405518371693,-199.20552588128768,0.5177271752377658,9.44297099284595,-149.1731000736008,11.96154876873826,18.4753536273892
0.14,-47.912122670145365,85.63175511305258,177.8676885255497,-37.24385101382013,87.51056998324157,178.11328829082225,-199.064452146674,0.3202701718237538,9.43582068929228,-149.30789946239875,12.02337011872688,18.302750992104265
0.15,-48.08478242188336,85.61402317821903,177.86617991233794,-37.14841924846576,87.5970848204512,178.13453250603814,-198.9815950865008,0.4568373051296006,9.457697889484908,-149.44711044956466,11.957457759044429,18.29669001810884
0.16,-48.1113221216505,85.48132589127013,177.65783130328805,-37.225660128143645,87.4087643606633,178.05733909789112,-199.39431878842373,0.4279496089149674,9.39626335978076,-149.41392089527048,11.944612673755715,18.39349936811445
0.17,-48.117537279022,85.67635680405546,177.73938437870896,-37.43660115611342,87.52032879971351,177.9631466444984,-199.24031015973347,0.4906189436850001,9.31733873956343,-149.35734903055396,12.00784365440881,18.327203623949227
0.18,-48.26918184445761,85.70299274521635,178.01232007138918,-37.46168936151729,87.62514444438558,177.97133822648172,-199.23024404672088,0.335344902701079,9.409388492955816,-149.4217857149158,11.99284507272938,18.347959197530816
0.19,-48.469137505936,85.55482006545957,177.7631993367329,-37.248959232597,87.55620905174554,177.89467548007977,-199.22062055807243,0.4748892346492153,9.086761744657178,-149.44759526033124,11.847702715815329,18.46984118421569
0.2,-48.03528626148588,85.66528149489885,177.76915738374552,-37.2624092703475,87.41896823794917,178.12730863009864,-199.0929977340596,0.4043495944901587,9.267864370544704,-149.33303785948988,11.863785602099158,18.381781788702806
0.21,-48.28307431340068,85.72637992911802,177.99233057161737,-37.35523202250933,87.51383835700973,177.96529024153108,-199.17606139107187,0.287552748014959,9.302995531822193,-149.37536922568702,11.8417474903564,18.53666439842011
0.22,-48.21242082175913,85.74395663784033,177.9103120679731,-37.20004771328674,87.46834528352717,178.016554743002,-199.34517256543435,0.4281858504098504,9.27662745247022,-149.43529494758656,12.01343745649972,18.309007768520924
0.23,-48.14751986644642,85.59845097605486,177.8082047295498,-37.6011924787641,87.43723128031958,177.89931392492664,-199.1661849373752,0.4666700139746079,9.447958535299088,-149.5867407344332,11.87302949216839,18.20629833242139
0.24,-47.96177009579871,85.67050528446781,177.85059121382778,-37.565795282401965,87.52480610829237,177.9501080748478,-199.09272590564456,0.5351753421811427,9.36550051250229,-149.23865278668794,11.986367423540266,18.2872627863774
0.25,-48.11364155139911,85.67723138625043,178.1441960604986,-37.59011428462437,87.62909695816343,178.0180899902182,-199.1588112270533,0.4508639948997763,9.044738545852384,-149.3028762367057,11.771727099682536,18.418085194878223
0.26,-48.153559426049554,85.7516910599986,177.90963923090186,-37.32446125884667,87.48545145674977,177.862023886508,-199.26326743890556,0.5107416138383505,9.413869244852952,-149.49757715694994,11.979682308150672,18.42498400930356
0.27,-48.01182275533338,85.64942431221145,177.7221028938386,-37.22619203505396,87.40523711424997,177.98381641612656,-199.2039807761523,0.5233593795545803,9.09744901764633,-149.56028604919643,11.934808665587235,18.111758897813026
0.28,-48.00991680914501,85.8075361454078,177.7857403793456,-37.16491651546705,87.66873084416744,177.81054199148008,-199.18465978339628,0.5184471492104761,9.208596281283803,-149.49209939752004,12.02870023640653,18.133084016522872
0.29,-47.99008234024281,85.46892974388511,177.76334719308375,-37.28170572742479,87.72407937663742,177.95650672124475,-199.27429316495815,0.3687191148435506,9.089705523934398,-149.14294607930276,11.736587819938142,18.158684381922534
0.3,-47.91262959647083,85.77635413942485,177.68972928040273,-37.57357905881387,87.43413197139833,178.11738120664546,-199.1184537239822,0.470631763845645,9.235034867884766,-149.31592170605288,11.791356695722856,18.114622097118584
0.31,-48.3961254727981,85.63137368921095,177.68340345703143,-37.308155588294426,87.44363494712098,177.92579546560466,-199.35220592643324,0.3718722999672408,9.081718678221788,-149.48332808075116,11.725619087514664,18.38349088664528
0.32,-48.64862366002203,85.56792663206663,177.66954585664166,-37.02982174011358,87.4440851655363,177.94071993351034,-199.39397850390628,0.4109240326595013,9.129835432650962,-149.30589746693303,11.852036865025395,18.36887098360468
0.33,-48.47619690452396,85.49909584113554,177.71636220815515,-37.15524278580233,87.48143071003516,178.03393182949,-199.06309994501692,0.5076518366857247,9.20200416720148,-149.26902812271462,11.866389703641142,18.40532488844063
0.34,-48.54397463780859,85.79376065937694,177.51833306083176,-37.25258388542587,87.72674147422866,177.94053273792667,-199.1520102134744,0.3888141812784049,9.233006426389544,-149.36529951930953,11.702389403930612,18.28707606932009
0.35,-48.56391534349558,85.68502690731124,177.58440411685234,-37.52206470142559,87.50014641586253,178.08831974685015,-199.0981752871673,0.4644905940824535,9.11538012160596,-149.62681671904284,11.902662578834086,18.276453866608943
0.36,-48.39428194623939,85.61573020555774,177.76663886037574,-37.17513727665583,87.56631648002163,177.87633348763393,-199.31124383163183,0.3466738767353676,9.311814021657334,-149.31430821361135,11.938288310121802,18.385108228779814
0.37,-48.204289808490266,85.60903845495191,177.70745259346717,-37.33972833745491,87.75586577799068,177.92248090502272,-199.33367451859675,0.4436130728300733,9.168821739469616,-149.37631931521713,11.987562475519736,18.24114989464508
0.38,-48.578451033109,85.73084192081762,177.98079377046358,-37.388667701243854,87.52872342261344,177.6389989222962,-199.18396054720276,0.5506154143308893,9.239941326131811,-149.05645463589693,12.029172580046056,18.32120732193813
0.39,-48.37728018724616,85.42177423685773,177.7094552438895,-37.51497869710784,87.5259271433923,178.00124284013123,-199.00715718978196,0.2126100988905623,9.095781757074995,-148.82761887251857,12.013966262688315,18.16082950462587
0.4,-48.34634162884195,85.56151750121684,177.5946757864127,-37.39673555556256,87.37529372600918,177.6545674293285,-198.9112238793516,0.2232187582768691,9.162693322959722,-148.6631562423382,12.144474875341356,18.30272826883435
0.41,-48.06709606169698,85.26262045023213,177.5482484822427,-37.54955122325295,87.46756769458335,177.80297408438923,-199.02237931333795,0.4005714172304188,9.321365070640086,-148.48542644689869,12.344420656455044,18.202820736327
0.42,-48.33121271874069,85.20415838861892,177.5672081019011,-37.54968621292623,87.40884503413501,177.68496149587656,-198.86289262763987,0.7195697062469966,9.30085431833188,-148.57105782915053,12.92609953182692,18.2654814701758
0.43,-48.146486276421854,84.70901538780542,177.7850012934888,-37.48951742033927,87.41867847418705,177.72415461248383,-198.94233017224263,1.0021509591268485,9.369945758022018,-148.77305591083035,13.31060465602414,18.21641842808909
0.44,-47.94611415427701,84.74381267504684,177.8875123207594,-37.40869849030579,87.3216067502801,177.7595680198632,-199.10529013713443,1.3146232975519043,9.512731766017714,-148.7544407363805,13.867348782829309,18.182074070970128
0.45,-47.79120179289063,84.92600789096277,177.6568858998017,-37.35000883474946,87.45225928002807,177.82924432577622,-199.07187797723589,1.870477396604916,9.798348888182216,-148.8436575184812,14.513567530940785,18.121270516714905
0.46,-47.68403550070701,84.78196737348618,177.79363849747153,-37.32922297218337,87.45573580611979,177.36057135303545,-199.19003831969025,1.9773066848307383,9.862373288095297,-148.72026243914053,14.923072347065858,17.88994768321057
0.47,-47.78468021017655,84.57795738599727,177.75500472566603,-37.39971231255872,87.1722801263988,177.5975766367323,-199.21657457080948,2.366144415271592,10.405166067392756,-148.62380188442117,15.468302769740298,17.75603426148744
0.48,-47.69802858824058,84.54052408257276,177.84881798719957,-37.250771800912666,87.21411093121738,177.78543984510253,-199.60521991988992,2.7753285969792416,10.297079230580056,-148.4862092811335,16.168062509023738,17.768551782925442
0.49,-47.7110319365412,84.63090516559312,177.81876436888123,-37.50555616966177,87.24932327653042,177.82801963074945,-199.56402450183768,3.134259758138513,10.652717594550158,-148.35472566306078,16.839324894746504,17.734094395787583
0.5,-47.57328854450157,84.4190484064231,177.89164672668971,-37.26025387312637,86.84951786251622,177.76057590778734,-199.65504217948333,3.6758319431702375,10.966795531858336,-148.42038097327,17.122645431690557,17.72816661080504
0.51,-47.49791062268381,84.16879920874833,177.98713978276302,-37.088230720949504,86.25437792256004,177.7189201485819,-199.6525797443201,4.614819251052076,11.329715532984835,-148.34326517164823,18.29072529139264,17.94083421102217
0.52,-47.34053839488392,84.07418236069702,177.99558934248736,-37.08991219261123,85.83458813113339,178.05147869240096,-199.5330016210445,4.99613638639924,11.482219848630018,-148.1841810249949,18.490472246208853,18.29465330196268
0.53,-47.39536153760277,83.86222590274137,178.05647216041788,-36.91836151248624,85.29767549624157,178.1854560209502,-199.3563698965181,5.289515640168811,11.707809850712922,-148.17046123454688,18.8025362511492,18.509268389400926
0.54,-47.473320244919776,83.73020788518409,178.13049803607586,-37.1372064136052,84.72100128032531,178.155437578436,-199.19017303310855,5.533835915757109,11.886239718257698,-147.94069511963704,19.16104919598855,18.816010553171083
0.55,-47.28876054626922,83.77991468103808,177.95523362710512,-37.02402674673153,84.0437438135495,178.29159871467357,-199.11406698121723,5.646892485235214,12.015407750479884,-147.7528398296212,19.341947984693658,19.064888626546864
0.56,-47.18289922354005,83.58470466950449,178.3230248989973,-37.25570097113977,83.22209487977035,178.34291323305547,-198.6407858765473,5.68481784115662,12.197241386186212,-147.43801964920212,19.763998657805303,19.5960656983351
0.57,-47.41347090863369,83.30171367496483,178.11399216526556,-37.013505121552456,82.17751352362372,178.5028704130684,-198.398899861373,5.864078091969403,12.408090560414102,-147.31087851160115,20.05191835635601,20.10968497076572
0.58,-47.39594234031537,83.12356420695687,178.18817710796043,-37.07862508028244,81.34783941402284,180.27427116689267,-198.0642614691297,5.852301228355538,12.288615714003368,-146.7247418718457,20.367328995125348,20.603598922916447
0.59,-47.54914183177375,83.10560998185163,178.03026087511157,-37.226820437266205,80.48342867580659,181.71922561413783,-197.49824827314745,5.9748095782358766,12.351488567826369,-146.31616902376098,20.47715247308032,21.126444460483395
0.6,-47.734253050090935,82.5477518500906,179.34026969354642,-37.1304626619256,79.24438057675435,183.4118773233805,-197.44295296918983,5.899882447823861,12.54329310997003,-145.88953639836916,20.881780934434577,21.85187525455741
0.61,-47.78400470330092,80.75511072216462,181.51680048131493,-37.053653634766086,76.94646907032973,185.9342957016765,-196.21964130475837,6.081877293208633,12.869144606644907,-144.90832764655045,20.96204384322385,22.76165940047202
0.62,-48.34146930042662,79.84420380401428,182.1502544142565,-37.166279382672776,75.18506502277236,187.10589829878137,-196.1054153601941,6.011454235053353,12.91782072823514,-144.4525722407742,20.850316821631505,23.149838498670327
0.63,-48.63644742674332,78.64214245704719,182.464676523146,-36.761493441959615,73.65851312837746,187.90850886145608,-195.2309709269856,5.731459331052841,12.94567571391304,-143.79818023734632,21.0262313369044,23.425621894057045
0.64,-48.76466798012254,78.3945719497685,182.44395135475312,-36.59462436798927,71.79842595222661,188.7835188636861,-194.76047447187412,5.608981844151467,12.909136303380164,-143.27259850373645,20.92115480029644,23.527400291905355
0.65,-49.12262333874609,78.01515924857539,182.9338081829121,-36.623324220290336,70.08862336471925,189.4008788534235,-193.7280363465045,5.412821650827859,12.851968293795558,-142.77237212006966,20.89875131932048,23.6550134652538
0.66,-49.28830663902252,77.66209498881642,183.0499738206764,-36.38237838061063,68.31672388531223,189.43990893756668,-192.9385408207386,5.362792135943514,12.931450740193796,-142.35542094532067,20.70193149077522,23.96851124130505
0.67,-49.3507758221543,77.29462002057728,183.2741350330128,-36.22730566084911,66.38490599268015,188.89965168934688,-192.0383148461701,5.02441980457047,13.08425641136309,-141.94200671121658,20.349199864135308,24.158930902018927
0.68,-49.68503365516691,76.58686752608112,183.03471251669117,-36.00868735682315,64.49004466212239,188.4422286781426,-191.3966410930792,4.9284395775910745,12.996717963563617,-141.3635962638342,19.8875098881788,24.28432108720468
0.69,-50.274652841008994,75.97357968340064,183.2622352677336,-35.76240107185546,63.71303859743767,188.17617258166305,-190.82419851024156,4.359847593040996,13.038895776461631,-140.98465748541724,19.65736878058222,24.121832459236614
0.7,-50.89672028717956,74.4907517554762,184.13106928906305,-35.84226820055942,62.28904369816455,188.05436032868823,-190.27437293615705,4.212548059569231,13.202651797343188,-140.84611989244786,19.179468658005916,24.46170003668677
0.71,-51.55808782525179,71.46153428782533,185.15778380413565,-36.27951682973232,58.33473011893248,187.62210739902852,-188.85256127438703,3.5376642544475234,13.318921221044956,-139.91269923784458,18.587619227200843,24.41748398630375
0.72,-52.29753739572227,69.90760271002237,185.35530051665037,-36.31998443375605,55.999252898859226,187.70416825045243,-188.1077923242213,3.0533031505765726,12.943860928319433,-139.637409268182,18.368084004512816,24.437389468728444
0.73,-52.86931584407547,68.84616131799515,185.5126842740584,-35.913314128775035,53.67212672004656,187.18386783671136,-187.25087158185144,2.695401174308625,13.153818881033864,-139.4802896517661,18.18691298857667,24.74193791406137
0.74,-53.06095111927216,67.93102186011625,186.60219646861023,-35.44829895667129,51.434113495200506,187.1316659568098,-187.19681443842697,2.257591638247673,13.091851466786956,-139.73278577863456,17.833067721133578,24.88667437201274
0.75,-52.92321710150722,66.72418475028063,186.92702628341695,-35.44430331092094,49.278607982589406,187.1215483069075,-186.70756971482865,1.7822818698126537,13.18071137419561,-139.65401832412516,17.427997592557293,25.08248155206936
0.76,-53.0802529251996,65.94123814048395,186.72323407335563,-35.53981852554086,47.269622104399296,187.14440917277892,-186.6113053939286,1.432309812770132,13.275485907509523,-139.94689119073846,17.055298733675095,25.276726693240114
0.77,-53.648011129284654,64.80295980350454,186.5068784085637,-35.68422101870664,45.00446013062308,187.14540751102905,-186.32258151427573,0.8985224900895288,13.492657355141011,-140.05406288974976,16.860530432949655,25.546749959219333
0.78,-53.93030460294548,63.71955400514008,186.5872305991142,-35.6219738829816,43.37208353519701,187.1879509550138,-186.0759872836031,0.7222294669893448,13.298235471818993,-140.16514096954393,16.332118538967062,25.81273874214125
0.79,-54.03984458056814,62.607335016887184,186.8988627978173,-35.69913870017051,41.39278175052196,187.138188819045,-185.68391730614243,0.5919537175259393,13.077287463180298,-140.25525265397602,16.029734913180032,25.99854733595368
0.8,-54.25133026205885,61.48696573848262,187.06820217028516,-35.382336786266166,39.9878648602074,187.19299087363885,-185.3379017848618,0.3700258766443536,13.484646254102252,-139.8937751886087,15.829093957632669,25.8659578925602
0.81,-53.77277212398605,59.76894377883323,187.8644969806017,-35.885162683148245,36.24540220039727,186.99371936396835,-183.9096091111011,0.4913502201202989,13.375318454120569,-139.58118322420583,15.57968626069032,25.51837806159901
0.82,-53.54115594927021,59.28011125601359,187.9742250254112,-36.1281682067644,34.550660789369815,187.16404474248512,-183.5067293950118,0.8106578853017541,13.2220750015718,-139.71246415292472,15.314073618191903,25.201769475752076
0.83,-53.41653514954318,58.62099789117684,188.25170643879355,-36.2492425194934,32.90964577730995,187.0873055315913,-183.3140462693305,1.0071314640154758,13.275643319493314,-140.62288287823597,15.126164845831406,25.270668175503094
0.84,-53.12034283264123,57.584725652694665,188.5967751611881,-36.65020431842251,32.22247771535584,187.37687387694425,-183.5895783610981,1.3153568347843414,13.20014684431538,-141.63442985576063,14.775071083510678,25.539434185992683
0.85,-52.908090887765326,57.14069596158855,189.16902453572465,-36.95954073037442,31.45078807876467,187.12795726432427,-184.15083061030805,1.6254470956879403,13.402198359646874,-142.97105518452676,14.515245223696343,25.72499052050177
0.86,-52.660838628474295,56.449521454113,189.21430858702084,-36.926126489998765,30.28186811270863,187.24052807459125,-184.56398462229157,1.7222207984201048,13.571302756446777,-143.7847640404453,14.016764613616576,25.935774430951643
0.87,-52.51023096780117,56.205120507288,189.4146241243698,-36.81706719259829,28.778393369867537,186.97330628987464,-185.06635811067304,1.819541671566072,13.848628222481471,-144.7765567004245,13.969066762377718,25.82872073129455
0.88,-52.40591608554601,55.61275196146553,189.5830339352998,-37.03687768251829,27.87035868777797,187.2021215517034,-185.2347570168687,1.8886741945715304,13.6724564987495,-145.41969870838486,13.773433375359115,26.31861242577256
0.89,-52.28082659644544,55.04992743249512,189.8397395693444,-37.14843234494845,26.75950198706556,186.74826133573848,-185.9673447015808,1.8632331671376328,13.944427741765436,-146.57712280777497,13.500807261072222,26.32839337852984
0.9,-52.529692552313584,54.74171695090697,189.80255557470971,-37.18543428034195,25.68334090937137,186.31806477525063,-186.1429694815925,1.9680962491642475,13.41927678120008,-147.84875797984745,13.154475088699645,26.392123566336505
0.91,-52.35311135787672,53.99412749711342,189.81294107708632,-37.320081280092815,24.09492394917487,186.3760608895369,-187.0074488760794,2.085001794628168,12.965793501494897,-148.9195688092428,12.746510762168064,26.33715447918792
0.92,-52.31986052087307,53.8958549303037,189.92761146135751,-37.30174648179475,23.03184237543064,186.23732334602107,-187.44280544146704,1.934875364687357,12.560637395318142,-149.6630024083403,12.848961914247631,26.49771295376316
0.93,-52.40941744961742,53.407449410866015,189.79052595808815,-37.51996400811366,21.89114543488071,186.1427922497605,-188.0325259291615,1.805487292480452,12.063297498032307,-149.88504009873353,12.546338412729794,26.411118902036904
0.94,-52.38046925586073,53.07207591412225,189.95241820326865,-37.583003362580456,21.85104714968897,186.1209949890332,-188.2127848606713,1.6687365472117566,11.777391837176634,-150.43753074946522,12.003060833039916,26.564070444635075
0.95,-52.34108000394014,52.991158377382014,189.7982479103531,-37.6432217496547,21.116286251024803,185.94983052992905,-188.3152315118013,1.6506462808626805,11.684943590820804,-150.4964760945395,11.782920916466017,26.43786543296517
0.96,-52.57962218107512,53.015983598359085,189.89856424949707,-37.66316848007011,20.26492565479376,185.7690995809836,-188.23930625982487,1.6048827414269666,11.002975205712264,-150.04250321066263,12.075035445039711,26.37223596431596
0.97,-52.215480590529566,52.891468761716695,190.04819842255247,-37.642256695645166,19.764015453541603,185.8520186294752,-187.7653291963164,1.7572242664698992,10.313672965892728,-149.511451670622,12.213238405215472,26.43863768905895
0.98,-52.19874060409063,52.83962565037466,190.1538690362806,-37.532697698991086,19.1447463773254,185.8356543878612,-187.18259330050185,1.498376468499753,9.703467142922577,-149.3298076522155,12.6239500736637,26.47333293742675
0.99,-51.8684690414194,52.794267448351626,190.14669453865224,-37.76612811658477,18.54182718493494,185.5418979061679,-187.32678057871885,1.4676005502060911,8.997471728455896,-149.68734000492606,12.255488512644654,27.255593290834188
1.0,-52.12802535283856,52.691443794714,190.1125845492272,-37.97048379378058,18.132281245502337,185.78542138977332,-187.81325327603147,1.4035334764959788,8.455510485896548,-149.35007508056205,12.08197806445954,27.976619965135622
1.01,-52.55031830506015,52.23845426314119,189.91365150799805,-37.92992880656004,17.518388727354168,185.2727747699428,-187.8189413047841,1.4731291589604802,7.7906292323560145,-148.93893347651726,12.533027639257035,28.69769718735628
1.02,-52.67120408394548,52.29580187262468,189.95160498886509,-37.88546960246653,16.83097898273563,185.35301757875763,-187.79900171615,1.6451619130515691,7.843089662388137,-149.39342064801735,12.34157404099537,29.00246317450107
1.03,-52.56165844468545,52.37821872994494,189.88749686947853,-38.15002829377396,16.65062534183804,185.26154448079137,-188.0583528862556,1.9401967362119728,7.493814348461939,-149.765901521238,12.468718198988917,29.673625354443065
1.04,-52.409754899248725,52.59506174571997,189.7380171562642,-38.00409092456745,16.3661915751217,185.1601689464863,-188.3750224334368,2.074141972372373,7.0932971016738335,-150.63546969315018,12.087548669519125,30.209202878298036
1.05,-52.59465512703225,52.54326387350623,189.8706971369936,-38.12324986458038,15.98972056783646,184.99483653835875,-188.65149692283995,2.114561817671402,7.032371427860226,-150.8323273319082,12.153050211725937,30.413255759972703
1.06,-52.36154893631674,52.74972467064096,189.973528193293,-38.39899239196436,15.786387788329426,184.86425422825727,-188.7796281179848,2.173565930637376,6.9642733508539845,-150.6152546314436,12.393592372518592,30.82946842850178
1.07,-52.32397128409739,52.690860253284136,189.64495199243456,-38.260646364443176,15.51850457799133,184.9679055856882,-188.80296271960805,2.3583508745830217,6.752197811720517,-151.0915093652749,12.509383605947592,31.10551338830792
1.08,-52.397796069103535,52.66402512707423,189.925508654022,-38.30526924284441,15.43707143461322,185.05517680895227,-189.06461776187575,2.216072985529722,6.481471401565697,-151.3598876319436,12.00113957629259,31.73579805232016
1.09,-52.49441638599215,52.80113584464497,189.8541506048367,-38.20484101993615,15.51983051841822,184.91786755053388,-189.52704283365244,2.2099196497999016,6.2906300758398,-150.9940544151139,11.928698773593805,32.31860264563709
1.1,-52.36308818819786,53.002989857284255,189.82819085837792,-38.224567340850086,15.31582954737872,185.09712123933411,-190.00457807876484,2.443958052496141,5.90217830638682,-150.71870610993298,12.279677699801548,33.44994237514502
1.11,-52.22458082959844,53.00367610189824,190.0061448164375,-38.36636950651784,15.135895352094822,185.1662181221316,-191.23885606874248,2.529403171687053,5.306643170226439,-152.07502858509113,12.195322040937446,35.347569074729634
1.12,-52.04647297382479,53.10295603697613,189.7696806184408,-38.52687675539407,15.22530400984215,185.13939323184837,-191.5546556289652,2.481867292697259,5.044109445158036,-152.429745032473,12.039574286499487,35.81579187303321
1.13,-51.936017682434006,53.17996950053243,190.04110539191063,-38.65290823474626,15.379957488441612,185.1260816921028,-192.16575961585573,2.5673877811188808,5.055275441180528,-152.35763923532198,12.445745069189256,36.11291639602341
1.14,-51.763823803035216,53.12942901615518,190.1195158022541,-38.53561544351963,15.41081112226055,184.85953879885213,-192.34450811234572,2.559624406520153,4.935123840546124,-152.82651927869043,12.427235128063526,36.67364189583701
1.15,-51.75516381328998,53.33029546547363,189.8782695722072,-38.39604447140609,15.46645594578406,185.11329520088665,-192.3823453431944,2.7832723964215256,4.808583916345192,-153.398881862762,12.39764621106553,37.21714837733044
1.16,-51.856008017329565,53.37901458525797,189.7815576642484,-38.52639069345479,15.598022756605872,184.70020399091416,-192.6132826654308,2.835792694836456,4.628350879166623,-153.8688627718516,12.588628598173356,37.59571408398792
1.17,-51.79431863563824,53.382959972184025,189.7517305511292,-38.40845427933148,15.324706846889576,185.07204226543976,-192.72353493232356,2.801779615648347,4.817017944318172,-153.41905517456502,12.875459692056523,37.84957481075877
1.18,-51.45814817588538,53.53145138838807,189.92902088875837,-38.31867483479638,15.50735974127326,185.04586512088252,-192.8840974708332,2.737617188708841,4.699366169117278,-153.38506335069243,13.156906967792665,38.489668516171534
1.19,-51.61715253462228,53.46512760679189,190.032463856017,-38.67413037639313,15.574733288607163,185.1852318051012,-192.97044342129408,2.5349924492516465,4.50981440361183,-153.0915621878763,13.450055196002644,38.57591893051305
1.2,-51.37016566468969,53.62167244443581,189.86923290436715,-38.628592019080536,15.17216094847138,185.26932127897751,-193.33364079215696,2.723265033005278,4.548699488415778,-153.31748846280226,13.558699621251977,39.193284457596384
1.21,-51.43211665956039,53.82292342184351,189.8929275787829,-38.42680756748042,15.49059088029052,185.0240223253658,-193.7386986449252,2.650036562286169,4.553618289373882,-153.3455568687634,13.763209896613262,39.72820395911004
1.22,-51.35129649905953,53.83935787489503,189.89216029223624,-38.32226628538136,15.124746801537698,184.9999505361499,-193.78274722371503,2.4732857602043423,4.400247579029077,-153.00825188480533,14.174023542470824,40.022394409465065
1.23,-51.27172976282535,53.79495603001729,189.7189329659116,-38.40069202473072,15.422896868089463,185.21643155125668,-193.97687635893035,2.5346836526637886,4.445967288892522,-152.73801060616236,14.545832586639744,40.25280219912607
1.24,-51.38079642101202,53.99642605750757,189.6670066119653,-38.33246912609186,15.221024387263554,185.15118298643628,-193.92798174327436,2.459712712632035,4.435365006292681,-152.8617337121116,14.7611000026763,40.29702507984612
1.25,-51.27663912300206,54.05680001301591,189.78874412177584,-38.24308360125077,15.025429275133176,185.18458589290964,-194.12733836448965,2.295940020583903,4.457754750789024,-152.50186107832943,14.914871042610402,40.653692712926926
1.26,-51.11211340112847,54.25950861947762,189.83447581428527,-38.04735577882239,14.870535251079398,185.03889233229305,-193.85997226907364,2.2781223249496088,4.221328977833388,-152.29193788404467,15.28617703287342,40.74374809188555
1.27,-51.08518343993136,54.53876721473132,189.79926378661096,-38.07096676178866,15.190830727215888,184.94562758021056,-194.0169021170664,2.2642008328557424,4.109911705574039,-152.46088296620158,15.390825177153925,40.903733308467466
1.28,-50.85217473352636,54.70651126391248,189.70425984292373,-38.05811045309651,14.954912493103947,184.89605787607243,-193.9389121187133,2.3419447541468164,4.12295433943764,-152.46921678323454,15.395127520397986,41.06419829631065
1.29,-50.89988886415171,54.99795495334915,189.6548905092976,-38.01945120169744,14.939036439929517,184.9342311350986,-194.06699651827904,2.41043305318358,3.784027667850943,-152.60793963614535,15.3883590749158,41.22167278507713
1.3,-51.414936383563536,55.107756196554014,189.42404003054187,-37.87577975761459,15.160585300804597,184.99490920530533,-193.8491764119387,2.1201256328258618,3.8214943920091455,-152.63220793666824,15.405228015601107,41.69080779092656
1.31,-51.3654134368856,56.01853261838215,189.47815011661555,-37.70337813836645,15.49363872012991,185.2953879579281,-194.45525472457555,2.3154843111381,3.5074782629667123,-152.20392315595328,15.693618590609413,42.29724412197398
1.32,-51.03052470629269,56.21693881034351,189.34652394053785,-37.94874415226325,15.71612533309168,185.14222860625964,-194.4031718218371,2.313172095103172,3.4541154834214467,-152.3117296680055,15.867813711984958,42.837187111558926
1.33,-51.04823377354616,56.56831701256497,189.4023951226584,-37.8229600699201,15.982642620138597,185.28484157886612,-194.6000957786109,1.983126091666639,3.344899414566946,-152.80850716434617,15.8654528079352,43.48879281816069
1.34,-51.01635926285549,57.05219776482314,189.5070149383975,-37.75333036644358,16.385059085297073,185.41007084253104,-194.64743547994877,1.943842848391961,3.292081099543585,-152.72756266998073,15.997044246011772,44.22740974468881
1.35,-51.21273999753448,57.751888133671,189.4936764317993,-37.599360232728834,16.77590513243733,185.3580573114494,-194.85228683452308,1.5076295631147762,3.2786882805661595,-152.36808425566792,16.26849145970852,44.84903317869858
1.36,-51.00808428162521,58.23235720403631,189.3601308258648,-37.7120857518517,17.140420645633252,185.246715338386,-194.72193093119168,1.5814203020419129,3.2560275365989,-151.88061624695692,16.779790348516016,45.41122970197586
1.37,-50.89532804840906,58.927252092035445,189.1770214148284,-37.68498072253813,17.850282965236808,185.51917044957597,-194.8060199625049,1.2248543654151054,3.406484838876721,-151.64596677913582,16.933990263238563,45.91896310523373
1.38,-51.28279424396909,59.55863643980992,188.86314326426807,-37.752113457717655,18.30289115630281,185.32182164213933,-194.8757098620747,0.7831922190445129,3.6341722509491214,-151.30119941032356,17.479064207065537,46.37307559139786
1.39,-51.54543685006841,60.41682898583392,188.43814555869287,-37.59023012023733,19.060756972228543,185.4643749612873,-195.00976244195616,0.6555043266849814,3.773150208899493,-150.92720822448652,17.879726394850607,47.10282377999693
1.4,-51.2900871143695,61.01763744701549,188.3937698011923,-37.37715809388112,19.86089734384193,185.58477037890856,-195.08237521624957,0.1242923826872862,4.1112064415460985,-150.80929837894885,18.004964565169093,47.772783798561136
1.41,-51.571722541653415,62.7557265883901,187.8231749510824,-37.35616421240984,21.78956333801956,185.71562394607287,-194.48113663011432,0.0563797096085523,4.228363541860127,-149.97398757587624,18.970822457754483,49.088481600452695
1.42,-51.64943987755544,63.56762284489984,187.56745645866403,-37.38869684420436,22.592210476099385,185.63499745763912,-194.57264849314123,0.207965786288544,4.7061399609612495,-149.27303884707044,19.70644034850911,49.65971700799221
1.43,-51.76309387487583,64.4546808382364,187.1822289333852,-37.1438651409245,23.85473908029657,185.76082017758856,-194.76445677629025,0.4413789636754282,5.086903806920528,-148.75414091911364,20.03544587673735,50.667090063110095
1.44,-51.85892981391731,65.31087311688302,186.5023935608089,-37.25115370630096,24.92230840832718,185.826177179742,-194.480198767876,0.5543626365465244,5.40452603290646,-148.5620984266242,20.278202759044238,51.36659739303015
1.45,-52.07536996975538,66.39990288762696,186.27048608465083,-37.24632914823615,26.37208199146651,185.92391840320732,-194.45447638985067,0.4866935185561435,5.745245692418945,-148.12871149579306,20.6743496346439,52.04164252999125
1.46,-51.81916606142473,67.68492182460521,185.55737325829423,-36.78169246644276,27.30182186286166,186.0703727719653,-194.1640318856642,0.8021556156921943,6.151824356097486,-147.65760137117817,20.98553775939225,53.08574429861845
1.47,-52.03278620668501,68.36482797657469,184.965809474822,-36.76738008181645,28.522969993373383,186.29552468437225,-194.28733303235973,1.0684911069866505,6.269073391072973,-147.0358311152871,21.59997349158091,53.85762644144455
1.48,-52.047124133940805,69.74719793853866,184.4156527196659,-36.76742970380655,29.969036122985514,186.3858577430789,-193.69742741766015,1.3427967324410142,6.793609006276077,-146.35405711323898,22.219596009760423,54.713136966593765
1.49,-51.91346999234289,70.56899482925859,183.8719474371341,-36.67301757203782,31.25427457530285,186.373310099746,-193.5867590333306,1.61906701106671,7.235039087325947,-145.76942650651054,22.764626078171023,55.70448533857302
1.5,-52.09357898699235,71.6901541127942,183.30957228692463,-36.40217075622926,32.78597398298377,186.8003229021116,-193.4895417793072,1.92831435912108,7.717130378587138,-145.2593023383965,23.11632936071129,56.51267566275292
1.51,-51.91284367021608,72.97592817340826,182.2517267588105,-36.412228559871664,34.81598487801085,186.6149789690816,-192.96517248740943,2.5664068227341463,8.408216795270588,-144.17822164308114,24.0665121367308,58.13625341876891
1.52,-51.88486637912393,73.7338477586489,181.34906099015348,-36.37806805017589,36.19300192230821,186.90289644732584,-192.4494278150525,3.004029762317636,8.812685048340754,-143.87611273274538,24.434078281376223,59.13900359862237
1.53,-52.03040425323472,74.67280187657937,180.387583155794,-36.13245031093058,37.62211270370516,186.89743269028452,-191.93705082971337,3.0924527327763704,9.190718247328777,-143.2706404725369,25.0102134725273,60.1816479674916
1.54,-52.17739599845824,75.58006908765543,179.4885492094188,-35.86317740450666,39.19759791127322,187.0984780020009,-191.7511395947897,3.3221062148483886,9.58164010626077,-142.8026954214563,25.54953159467827,61.38464264230365
1.55,-52.00843010865957,76.5480869280262,178.18554459677495,-35.859850084170134,40.5465823583409,187.1247663609713,-191.75162525913692,3.5966662849678888,10.022082168152004,-142.33636724495096,25.96836971662691,62.41758981095188
1.56,-52.290401393166285,77.21023025655373,176.96515074490117,-35.552723282118286,42.17449142303425,187.35939994154637,-191.7170654648882,4.024613177412558,10.628959825368735,-142.38281381250624,26.246051551549066,63.56497734994549
1.57,-52.24595486867646,78.1027479127676,175.47272745435265,-35.52346998989395,43.65926781604927,187.7239239356821,-191.8315451553288,4.129458858339888,11.160697220859234,-142.23407170939188,26.569479855935874,64.70445535408386
1.58,-52.42320135222916,79.04516141245496,174.197625048594,-31.549881596109323,44.97640982444121,187.83810656191343,-191.71468066733885,4.515422393517306,11.749822034645808,-141.92080197890547,26.881742881434125,65.87136499381175
1.59,-52.66987155320062,79.74437455580765,172.2062861400971,-32.029698126789384,46.442769935202,187.87351355333317,-191.72723058570708,4.526918266093728,12.318805316344566,-141.53368959951348,27.23907316171108,67.10039482135593
1.6,-52.61948035839491,80.42753627811571,170.07572991834533,-32.394232631853534,48.0425394770332,188.25222338329945,-191.99628696811405,4.855686978745238,12.687157165151442,-141.77248273532672,27.62262894474084,68.40042200161247
1.61,-53.2151085857456,81.53449315695565,165.5498396251893,-33.222449757160575,51.11478606146498,188.5608547237359,-192.1133472923975,5.255180866853071,14.310402693694178,-141.4571391358145,27.840711542898028,71.36488295741214
1.62,-53.29814498364002,82.48830242048099,162.82703666849315,-33.79934107247174,52.5473533134123,189.05013938598032,-192.0921192959657,5.65015758654774,15.19550841676391,-141.26340642106257,28.58496901582093,72.87090424926048
1.63,-53.30072965978605,82.86044939678746,159.55363220444852,-34.26346411744547,53.82160299994127,189.39592241862297,-192.2517020172876,6.134476751009619,15.919837381441791,-141.25243201760264,28.92106603564429,74.42106659487546
1.64,-53.44419515042212,83.46193335013007,159.35834671012103,-34.9667723533662,55.588557143556656,189.67385670123235,-192.467391529424,6.060222887872032,16.986949247749255,-141.3457587547576,29.195971192634307,76.50173602108471
1.65,-53.53790226746904,84.00270717708838,159.4665541877283,-35.684675100911626,57.0609802976862,189.28218279970483,-192.8937139094451,6.278379384856341,18.043560605214036,-141.09847691630685,29.435015978414885,78.21002930063177
1.66,-53.84449519835758,84.29145592727743,159.37054294914614,-35.92244889694675,58.42824269363178,188.87693378583333,-193.30440783657812,6.481959404558511,19.226905940767697,-141.11602551484376,30.000846269640395,79.71859236470816
1.67,-53.748288650820015,84.69211248925045,159.36646528351312,-36.407586165357,59.95036486858587,188.4448872887771,-193.58875081337064,6.92158607413805,20.22137794233445,-140.74489880414157,30.411334436059715,81.68201179732239
1.68,-54.05545216197741,84.93797018051414,159.26377957682016,-36.55182115731575,61.23777541494456,188.1033356840675,-193.8351020980093,7.150071444659654,21.47380212300656,-140.57052036599788,30.884693505668366,83.61713255911728
1.69,-53.98060748917848,85.26165058454151,159.16992342846342,-36.90034291533495,62.935492532996086,187.6780701210265,-194.21989269578395,7.095480523588289,22.854083898549227,-140.2976496204387,31.18821468660103,85.72198987170613
1.7,-53.98645239282551,85.21539198985069,159.27680088385833,-37.11486405720758,64.19747041467858,187.0478910761816,-194.33292789412928,7.569068116836817,24.09819493537786,-140.59632033472764,31.21353228421031,87.392930321701
1.71,-53.99237510271829,85.35391335511697,159.086154177865,-37.89488279309113,66.80899346448726,185.8109757180979,-194.5534908216629,7.963838949963358,26.7368128409499,-139.52747342055468,32.080508924401386,91.33003683984064
1.72,-53.992904022348455,85.31412744050489,158.99870095539953,-37.940227939184105,68.07545115488028,185.2882623308484,-194.88792091683544,8.379187063145135,28.09005185606507,-139.25505030096392,32.50804316325534,93.2971616905465
1.73,-53.90815968939592,85.3672720465304,159.0480296725626,-38.20435768156634,69.29382690982851,184.71603790561375,-194.9291304630379,8.605409687951045,29.642481103562776,-138.75156122870868,32.6964395212282,95.37665473185224
1.74,-53.90740233168788,85.48630041329528,159.35140683880036,-38.4128945456115,70.45513478520279,184.21067973729464,-195.06745283619816,8.95755612702974,30.963800581416777,-138.33600003009718,32.94746564879545,97.02246600288063
1.75,-53.9114788848828,85.31450257787493,159.1036409647496,-38.68203765946648,71.58840676590795,183.7178809533736,-195.33875052779712,9.13317196836291,31.929997205401875,-138.07677384243968,33.01154603983279,99.04266990440188
1.76,-53.9152409838204,85.01963005888166,159.317879693045,-38.77098162473688,72.91594510108041,183.0283086131461,-195.42190831420527,9.474366096433368,33.33975428288207,-137.62949855715306,33.28026014881719,100.90611836015836
1.77,-53.87186096498458,84.6752087836965,159.54638171250932,-38.662800438853154,74.03307912249991,182.4373862872313,-195.3280993557049,9.851924214420434,34.74869274685682,-137.251144532476,33.41258726679914,102.86283328808064
1.78,-53.96955480953858,84.64175234976838,159.681957601066,-39.04153213746057,74.99382642507607,181.4283002624497,-195.1695217133237,10.145700074224727,35.98027895586031,-137.38923078513596,33.30621949366517,104.50460513459284
1.79,-53.81557800408107,84.50791989690029,159.72295622044444,-38.98888297107537,76.24956188678726,180.52521486643585,-195.28113675630817,10.089254099173246,37.32485194496083,-137.17389361900803,32.941629587195784,106.239219713696
1.8,-53.79033552296636,84.45011508426958,160.09572815660417,-38.9102907693516,76.75120843441339,180.09809745790574,-195.48719673123173,10.291185891520676,38.53382298241308,-137.07720182127738,32.833768561321264,108.11100408807854
1.81,-53.7128885614719,84.14172772596822,160.23911209137336,-39.046666306125154,78.52036070190375,178.61394985982184,-195.49372684960096,10.232047396957949,40.81714706356591,-136.56740122380987,32.58546470989171,110.80348978974098
1.82,-53.63158311720216,83.9530557193776,160.2902784692695,-39.09864132329871,78.88641242493095,178.09255926047322,-195.6923961943328,10.584592278275055,41.98527463826896,-136.41845563056458,32.59971776786017,112.5542546613802
1.83,-53.237383415032205,83.81287086750949,160.16677856513317,-39.09778710265063,79.5662162185247,177.26535411282302,-196.0345997162304,10.340007012329984,43.63913736901928,-136.09924223252008,32.159626564076795,114.35210287193186
1.84,-53.10651073811525,83.72416596407544,160.3920657008057,-38.87985239656773,80.48552670899838,176.1675472062624,-196.06824435005217,10.317500590235436,44.78037393614966,-136.18748170957932,32.01719353218689,115.8009560107757
1.85,-52.773377813572345,83.65980920082467,160.25279846099158,-39.079352659592445,80.94201170913546,175.09575623564348,-196.01523762241743,10.422857963281515,46.23257387528292,-135.94450863156675,31.79571251708176,117.06714757713256
1.86,-52.23729793603698,83.79458380732176,160.14116784527252,-39.0183046141241,81.45956770733711,174.1171313865661,-196.3430181474777,10.16370069767043,47.58195041520312,-135.51987265911745,31.815370045881465,118.33438281309152
1.87,-51.8071424169975,84.11797570308632,160.14160333693383,-39.19448440752775,81.83582230732343,172.5641132992747,-196.2829360849427,10.289415699685764,48.79965731801871,-134.96024705334395,31.880340682681343,119.3273790360034
1.88,-51.06582712738669,84.124362032283,160.0204597181221,-39.06493525162371,82.33209569753939,171.1474735496984,-196.31497775264543,10.487210476423016,49.858149128752565,-134.88201722456756,31.946431906302053,120.140275144631
1.89,-50.60328353345933,84.22480019249818,159.6467510744585,-38.76794050876634,82.6189005014718,170.39620403805813,-196.1640637316626,10.560524875150543,51.43077266903349,-134.8508024690343,31.8526351915681,120.91472171615646
1.9,-50.068522438485736,84.46673313054289,159.3247529452666,-38.71122900620229,83.0966091854306,170.4141014194339,-196.17746869856052,10.579373430260189,52.49890620166234,-134.48084657478566,31.94325237014865,121.64831377070996
1.91,-48.717156172873054,84.64217153536838,158.91758701202878,-38.152130762167744,83.89066186261563,170.28849360711453,-196.4412747622311,10.180365234304588,54.73995213240463,-133.97811824178265,31.936167985485397,123.03159889091296
1.92,-48.26905765473386,84.72693259043811,158.78716547336342,-37.58691098334612,84.15603778241884,170.25359106366935,-196.5217412524991,10.068818589132206,55.74846240812254,-133.71822556537597,31.97708228062427,123.61311335342636
1.93,-48.19515948203605,84.45937581914993,158.895519194943,-37.08453208257913,84.75280738338292,170.49235695351445,-196.17016136941064,10.088703422026544,56.66878059524461,-133.5727611348955,31.81718386291676,123.81408326343752
1.94,-48.14484072814285,84.2819802679487,159.11266254537233,-36.76592395229429,85.02012793301613,170.58000866119275,-195.9664838987673,10.108901519196536,57.69114849536915,-133.22721153294643,31.79780370734178,124.51056342543176
1.95,-47.989754238866766,84.31267097644648,159.10841499189834,-36.294321608770126,85.44670929240111,170.6144984415486,-195.6519896777221,10.098298092084953,58.58383110378141,-132.658717505028,32.05612410893065,125.00951605409723
1.96,-47.72903823314376,84.55588955150282,158.97710837750327,-36.12426759679884,85.61973166198935,170.70626247831876,-195.14682086741303,10.153742034916997,59.5635032225491,-132.33368538695444,32.31246366783152,125.20707519400796
1.97,-47.5464572628596,84.52042632780419,159.11483051346335,-35.58182547696597,86.1905076085478,170.8099806998342,-194.53461955028013,10.156498118906866,60.41267245902029,-131.9762463922429,32.260950991369846,125.49594773604512
1.98,-47.269099588548464,84.58485192803082,158.97147482307165,-34.9860979016932,86.40098549880688,170.68932139338963,-193.95380263596147,10.161912525482014,61.26445805018845,-131.90907760400563,32.01538186714032,125.91314250659975
1.99,-47.08615856476631,84.82478714065786,158.8321089405192,-34.618156319326644,86.9192232221625,170.78870516898252,-193.56236417801776,10.3911613554699,62.196540913067885,-131.18726694206373,32.554801953058046,126.11385601340751
2.0,-46.98761822378192,84.57068125945423,158.96240151979927,-34.375967924420166,87.18135904253236,171.10061271848133,-193.54212737830971,10.077402484941455,63.120287083354,-130.97080511374816,32.62683191901588,126.28185486623734
2.01,-46.836005861933565,84.84977781859553,158.96038923200254,-33.942665797413426,87.9559041740344,170.97627025149507,-192.4271401137881,9.884283218109706,64.50855088711889,-131.4148881546723,32.1626532691373,125.97918396377972
2.02,-46.6576922622049,84.94448302587841,158.77895017723216,-33.64260165952345,88.22120450528843,171.30211263596115,-191.86076533381248,10.049281253600748,65.27926947085092,-130.66666910719033,32.68845679792859,125.90021705561338
2.03,-46.21150293235741,85.15111808765032,158.80435411809708,-33.44747586623608,88.45058942488143,171.16578970979486,-191.2942054525525,10.14290357885322,65.8027091118573,-130.12192859592415,33.0720766163709,126.0462566131526
2.04,-46.12941653070003,85.21833189859368,158.85410170895298,-32.91138404112229,88.39478542028937,171.18151888752783,-190.6232642575465,10.247124180445413,66.2284218837095,-130.24806478763185,33.19095822902182,125.8673044023261
2.05,-46.11147655632599,85.31813037276794,158.9319101601659,-32.96592380843481,88.33226249545497,170.98171913677473,-190.2753712782965,10.2013563302066,66.79567643790335,-130.2433534561141,33.14257119731488,125.5083871165052
2.06,-46.0532483144132,85.11927581853728,158.7293293720582,-32.93786002322732,88.34283734195132,171.27255887410718,-189.79607366115928,10.36311804076641,67.46962319425639,-130.01867371738166,33.04472627826554,125.5310389299956
2.07,-45.79671015372946,85.36227340143553,158.79607943211232,-32.68098086395321,88.38475923047278,171.26158430104758,-189.85348766888475,10.19604710441862,67.86606559605207,-129.85183140292912,33.24959225717902,125.27083378026484
2.08,-45.95537429734121,85.36113506240781,158.7671115902034,-32.684119599539486,88.46271477082472,171.22059164235088,-189.77271921625075,9.913614481468729,68.32626430125319,-129.54306357301175,33.55291054848609,125.24804313407498
2.09,-45.84424806772831,85.3145217791542,158.70464323245648,-32.48753619320256,88.43465672647606,171.17700456666407,-189.80390909921329,9.97043321880791,68.88927778498557,-129.75750617591163,33.45662030175459,124.82745358139046
2.1,-45.988770142352784,85.54188106574617,159.0215749505508,-32.46419030171049,88.61105913729116,171.02006203804405,-188.94758353802345,10.091530996024646,69.22259910507464,-129.5382520908217,33.267846057717385,124.47830589440984
2.11,-46.09940884054907,85.4711878568935,158.82632414258086,-32.2158851414114,88.65437767679379,170.9128858300498,-188.0036380523428,10.3337395518078,69.75874772267265,-129.2522123484266,33.59566777589473,124.11399217338185
2.12,-46.066901914585245,85.43774126877184,158.67691075269653,-31.952064642632266,88.74798292044255,171.09188356806033,-187.89191646047493,10.221090996421845,70.27498101711474,-129.05799970456252,34.03383959394102,124.21703621792368
2.13,-46.16957706074313,85.63327392435254,158.95382995644704,-31.911171463622207,88.87570749441866,170.8231881289213,-187.7747917642778,10.019778703391042,70.66900849835353,-129.29060252473465,33.79318016700495,123.95729708575736
2.14,-46.22427899672532,85.59540686070584,158.90123450062785,-31.83626786935755,88.94560411684576,170.88847908727675,-187.9649128115984,9.752841593089045,71.27551297131897,-130.0521469868919,33.606817017558605,123.92742263510004
2.15,-46.363118531844144,85.43038908145579,158.93978936977695,-31.902748960605187,89.03496883902544,171.2284165199245,-188.12214277985677,9.404927488561398,71.77845187037438,-130.467816857636,33.30013742199347,123.7810499900154
2.16,-46.43622514035873,85.53736605801971,158.80921433758292,-31.77811227921256,89.09881737500017,171.04472117764385,-188.39171253486256,8.845647619728004,72.26440208179822,-130.6942638610328,33.27929691581456,123.8303267622094
2.17,-46.41116485282611,85.60967894943707,158.8768819095596,-31.852054601058445,88.93916170799994,171.39627303547968,-188.819606032231,8.558189769649106,72.81519999533549,-130.7777477266321,33.0971794452251,123.58441254298822
2.18,-46.61988360679823,85.49490520036171,158.94649438345394,-31.764158762624056,89.00583465519321,171.32809664423388,-188.7600379930268,8.617770561966868,73.33503337680949,-131.37287210972113,32.834257295863466,122.91583160982688
2.19,-46.58342502532001,85.58794745627826,158.8475377767177,-31.701389203483654,88.75759310398475,171.2237379855475,-188.5926210177202,8.76850229692035,73.75781032915175,-131.5152452691862,33.13400221972389,122.85574529290136
2.2,-46.70940517203804,85.61411594256835,158.7280449015067,-31.916278857730443,89.05202243079705,171.2598557675536,-187.95374064666223,8.795991196179486,74.09967894300947,-131.62906530714395,33.146277017853265,122.51928730187412
2.21,-46.549035075509416,85.60759683945442,158.90604153677305,-31.91077377326483,88.68218180982586,171.15234830030698,-187.33465009502672,9.080371420587309,75.22456362829017,-132.06979645064658,33.09245031229717,122.10913089497222
2.22,-46.61124851071342,85.49817118138401,158.84915825785072,-31.898716738124342,88.43328598957346,171.31275666710135,-187.26306701266725,8.807957723673075,75.4215412162576,-132.26938451651262,33.238434851204325,121.91210926385546
2.23,-46.5640209212067,85.60261453300889,158.61566070037665,-31.931205230073328,88.39880577061848,170.984439692811,-187.29304421387823,8.828536312672036,76.09780863144132,-132.3125262942036,33.048408369649415,121.7546701828786
2.24,-46.657933995762384,85.49762829179991,159.019974889082,-32.0880066845858,88.44232192447886,170.93794253935732,-186.9808946432716,8.90725201928533,76.26983276356029,-132.42403585708223,33.1973274971797,121.5658631480736
2.25,-46.686174544494186,85.56061416771425,159.0705915254464,-31.911316490876736,88.16373987427421,171.19665158517117,-187.06369657771117,8.545556839818913,76.64465181721529,-132.40876319801566,33.36129837587023,121.41013837305208
2.26,-46.92979542755151,85.38350718417006,159.08435024384295,-32.08933818482171,88.056016854118,171.171515605917,-187.00824176451528,8.539257174333423,77.07665715234921,-132.58821197798,33.31874560611195,121.7271903005647
2.27,-47.19974157282911,85.50547677519567,159.07098907245097,-32.0972589431505,87.96249542453897,171.41754791625783,-187.0859104698808,8.823801239582297,77.35328856743169,-132.6593433173694,33.183127532339824,121.1905523526892
2.28,-47.32977032419926,85.39368565748505,159.04838822179929,-32.083870969442884,87.94916879643017,171.0351750726011,-186.65731191745388,8.912200438570821,77.69796469320134,-133.14012220291903,33.061622604251035,121.04715597699636
2.29,-47.47440789838292,85.31094698843333,159.23108202773977,-32.31356412677301,87.9902821761051,171.3174341133826,-186.20740215407275,9.066150753074938,78.05383548739438,-133.0914267639608,33.349450218121845,120.9863691267148
2.3,-47.664921716117085,85.21490135429768,159.1980726462281,-32.107280837754814,87.63241070832153,171.26149966963808,-185.96539446945133,9.232766165781165,78.00908579180354,-133.3573303895492,33.323891160668246,120.67640884223384
2.31,-48.0859308047385,85.24887661216029,159.30807663898975,-32.590435434202355,87.38108207677331,171.30308068167025,-185.94502739852848,9.031563709442596,78.76334569575144,-133.64076457301724,33.44938864048207,119.97281219609206
2.32,-48.16028692594457,85.17804026057757,159.20546102642427,-32.70520232865961,87.29308525601866,171.3842317212942,-186.0356980748508,8.997792890473036,78.91089782100237,-133.58335947253553,33.737536845154416,119.82107467907872
2.33,-48.31924290954197,85.06887854759574,159.0665428508753,-32.57481676670361,86.94295104289819,171.53970428420993,-185.67580614255283,9.211685085186527,78.89639547464998,-133.5685204849555,33.82141684292064,119.80926572829526
2.34,-48.47027961558677,84.9537117541752,158.9619096239031,-32.88680431660629,86.81103641607403,171.32509023563836,-185.37054392782716,9.307154489258314,79.23115009503931,-132.96724201579892,34.4156405390048,119.49003359806142
2.35,-48.42593466130789,85.01508365820003,158.9241934070463,-33.22566376827346,86.68521783051274,171.44210924661078,-185.0830881225107,9.515692932497728,79.2040935975948,-132.61315008361012,34.90862945125521,119.39672899664454
2.36,-48.53119982762137,85.21806058406892,159.02379912367758,-33.13638248751741,86.32667513900412,171.40314670207033,-184.6476908768123,9.950934892631423,79.0446296229925,-132.32816576244906,35.20494964886934,119.18189558808552
2.37,-48.49429606453208,85.01591761754997,159.03689602965795,-33.27930440229204,86.21939984303856,171.2028113206427,-184.49517650415743,9.92779155269158,79.36414350200471,-132.5007920975311,35.13664579750554,119.0244313866832
2.38,-48.60563432660973,84.9920596590285,158.96812107310606,-33.217700510515435,86.08217445440539,171.20741396643663,-184.70888323496848,9.618693876830754,79.51217869741566,-132.22631424587112,35.44316003477094,118.94676200548936
2.39,-48.688439505768734,84.73470142846963,159.01151821755022,-33.45842628453523,85.80254034751185,171.3424602272637,-184.31166581301983,10.08558789441724,79.6437041835343,-131.82151824575163,35.45752843288826,118.7143889589533
2.4,-48.8945963035424,84.80076453482887,158.81276522397795,-33.61265980946256,85.58744707561515,171.13499698702444,-184.0339335058602,10.19456610348341,79.45310127973045,-131.63465438030104,35.85114948607393,118.634002672257
2.41,-48.77489484485118,84.72750725287992,158.75726202416882,-33.622169839886254,85.3173139982132,171.15304830411856,-183.429548605156,10.33999559342211,79.35916010036442,-131.29511601734836,35.95915052050563,118.5818374795942
2.42,-48.53590029653012,84.67724382238869,158.8072006985586,-33.85107876162437,84.99529347532678,171.08874963702775,-183.60440032890492,10.794932906244345,79.15123267795619,-130.84158749099308,36.47226359986548,118.42766959322522
2.43,-48.85223798735064,84.70056685099809,158.8048344405245,-33.793960219910815,84.92862078241686,171.25310504372135,-183.31463864348055,10.6409768513258,79.21758066651225,-130.57865594758934,36.6762418636241,118.48108187737871
2.44,-48.92519287264099,84.66859866086219,158.7463088790265,-33.876293986512486,85.004678838555,171.16269373191165,-182.8996962507814,10.95568423159697,79.21646634060968,-130.37866357223243,37.14719571086461,118.86737325649229
2.45,-48.95552534101108,84.59207798747151,158.75636554155238,-33.9794957183152,84.97304883591448,171.10445174512537,-182.4845093315488,11.040654427206125,78.71996280832761,-129.95698603734675,37.25524961113053,118.72392625180608
2.46,-48.63483129806728,84.55066134472825,158.75908118297409,-33.87890285074251,84.62932981929784,171.12645953160603,-182.4075386787817,11.263104003598032,78.6408890841083,-129.96620499669103,37.42732254467511,118.53767102250906
2.47,-48.85810287676752,84.7203969429282,158.69080376998363,-33.78742557148754,84.63705249952186,170.9372105879222,-182.703091145638,11.093095061394608,78.76168762688647,-130.19551052323658,37.11712165014056,118.24730943349036
2.48,-48.462220385378245,84.65895285159432,158.7636203000978,-33.87979087187157,84.66361175648231,171.25227181032852,-182.91363128453403,10.973037449089947,78.88310843743953,-129.77826334903557,37.49709737374673,118.36453969902612
2.49,-48.501736734129736,84.36730015564103,158.7776592270575,-33.767719942587426,84.59426237472343,171.1620060260203,-182.28534282901967,11.294052764042458,78.92974802609429,-129.55662235953235,37.7381994875723,118.02016288540672
2.5,-48.462489192544815,84.60465634015503,158.63645820419416,-33.83697102331913,84.50690929066242,171.229303210197,-182.14647325984143,11.556532224334926,78.7252812174617,-129.33481578917883,37.65261300854495,117.37133210446306
2.51,-48.35868748310478,84.43631604663379,158.83614877189558,-33.8957838781659,84.11549264467102,171.2862175798843,-181.89153688997112,11.616145410297475,78.94299304757745,-128.96654698797707,38.90275272759605,116.25638778009368
2.52,-48.46628326377549,84.5849318188333,158.80191554857328,-33.82691738009215,83.9990427295331,171.4897052879913,-181.60925325420067,11.655087170148748,79.23471912307446,-128.84508926552417,39.15402622993002,115.74584219757912
2.53,-48.39999466359569,84.68777270344924,158.82757211803627,-33.43289799937009,83.89931175829553,171.3838194935028,-181.4577733047966,11.555346044238112,79.46299284231644,-129.4038863977749,38.78004053761671,115.10941760810512
2.54,-48.56097050751245,84.46354597026527,158.75765453221956,-33.398310319256,83.97092008746439,171.50104049137678,-181.68274168705707,11.30709277538024,79.8240670396813,-130.05223782644896,38.76430034237016,114.63867866191798
2.55,-48.32454693965903,84.61595362133998,158.40624182378298,-33.29054381929373,83.9510216613705,171.643156481275,-181.9154863152179,11.086155915910895,80.30644700644916,-130.13900765181984,38.82534662123009,114.58751965145036
2.56,-48.360040903028434,84.32045248493577,158.76389642103192,-33.196979165595245,83.57159623340533,171.69553008796308,-181.73389060262105,10.826069622066123,80.60634084523633,-130.91310568080817,38.39515881496435,113.96471826327112
2.57,-48.45914047927005,84.19649103287387,158.55592011354872,-33.20300600586624,83.3938163439737,171.76836613546925,-181.2353454244532,11.302375044297207,80.93099666936554,-131.0106411727557,38.41379027024001,113.76071900112292
2.58,-48.33884556235117,84.33593655784266,158.45713493174543,-33.279006940561985,83.47251512381645,171.747035071294,-180.89673412108107,11.2982226054734,81.11228599573354,-130.87448413125875,38.56972183934408,113.4066325050436
2.59,-48.351303663306425,84.12643255677152,158.52638774766484,-33.27434209121615,83.15402474261536,171.7896079250186,-180.2194654575889,11.75997311049852,81.31935453459857,-130.7565618108476,39.07531232332298,113.11176679333012
2.6,-48.39078988276465,84.15097614618244,158.48396495367535,-33.132253364300205,83.20351539864899,170.60667456447206,-179.7797506039269,11.933413753580004,81.68970140969952,-130.75761295404448,39.02956220625944,112.6546804904353
2.61,-48.34621811113615,84.3768826847641,158.4607507859651,-33.184929121136385,82.6925550966026,171.0343256390704,-179.55723324455894,11.985109204868476,82.49372081180655,-131.74057582904538,39.31581873234035,111.76564545206617
