0.02,-42.669878738891015,84.42036144043033,174.55356774084655,0.0395928247147406,-0.0645641410297789,-0.0238510916142901,-44.967616929662256,87.99526108630059,178.84624100115886,0.2338173568350564,0.1373970126582503,0.233370442410424,-204.19906591998077,0.10492592861595,14.59233190505379,-0.1362933458995542,-0.0829703750073698,-0.0492286941692374,-139.3525166901686,15.36743052993797,21.33789320658052,-0.005611208603849,0.1358204736950206,-0.0275666971261909
0.03,-42.60146642508353,84.54752169253611,174.6812564503675,-0.0991900609613068,0.078380402694563,0.0755331420885169,-44.94675235568614,87.85224328097229,178.8220495483719,0.1126923798267361,0.0281238830713971,0.0420849298171747,-204.20758374473107,0.1285017887296684,14.412112212793485,-0.0164652043084083,-0.0320886058850767,-0.0355842122855755,-139.59640993578367,15.582757620268888,21.392155843278594,0.0805393409975071,-0.0714780136215233,0.0753075949333885
0.04,-42.68752251905486,84.7961076834338,174.52421370935585,-0.0816389057684035,0.1656731516677043,-0.0250005175541307,-45.04056239480214,87.68036811783253,178.62816337598775,-0.0853388884228403,-0.0628774157890101,0.0465568261501405,-204.2527922610016,0.2770529364233494,14.45447915602532,-0.0959891726585119,0.1578140236237496,0.0894290189045758,-139.5062499208157,15.472015298058922,21.278530562524367,0.0632043200556025,0.0710378527818637,0.113824875888348
0.05,-42.72355165226808,84.79888351177117,174.34033415354264,-0.0632846469073668,-0.01636522171792,-0.0165815547162407,-45.075257752177535,87.8128132709473,178.76322693673848,0.0791852674391149,-0.0777789715971274,0.0550064835456668,-204.1081609677176,0.2829258282061415,14.652463713650944,-0.0720580955265734,0.1233284938315398,0.2891181996732083,-139.52444581856352,15.555882270587222,21.561813639877013,-0.1016718689469768,-0.0430272540169453,-0.0305099348519469
0.06,-42.64137277980651,84.69196967794018,174.66571434264532,-0.2056274805019378,-0.0467248374411217,0.040762907729244,-45.1512591778037,87.86809424611562,178.91133098775208,0.0319123272384973,0.057631490825961,-0.123704606533421,-204.23186240606063,0.1895075531532304,14.604849483309328,0.1461919218893573,-0.0473381638355731,-0.0598613899981216,-139.59897497276452,15.492095562670633,21.326613435572742,-0.0369627672854603,-0.1619089066439739,0.053520129732426
0.07,-42.64075809349416,84.57115590868979,174.6749260947084,0.1435500481210969,-0.0615725104704305,-0.0509854454364941,-45.094772651461525,87.83064703789336,178.89083085620575,0.2347553197707888,-0.0218804540399415,0.0097141936786181,-204.2760636683275,0.2804803536753106,14.435406048117366,0.2084995606559957,0.0422020829301016,-0.0693443047466942,-139.39860872961702,15.519166003232282,21.507536478808344,0.0334905008999149,0.223863527599989,0.0031660488857286
0.08,-42.74726608491248,84.55942238459767,174.55529926714723,-0.1717483406850671,-0.0239483128899698,0.023043680136874,-45.13456027134804,87.64507898671172,178.89520237378545,0.1286180779685715,-0.0825853506643738,0.06648607207276,-204.0090689954564,0.2187147252961265,14.614694006429453,-0.0066844358934483,-0.081337485110829,-0.0636640179776767,-139.50844123373116,15.575714460501692,21.433109863250245,-0.0008106944979187,-0.1645803177997629,-0.0543177893023561
0.09,-42.59987361820277,84.74495042538663,174.63754340093544,0.0983343854148146,0.1067057668783824,0.1353419545713701,-45.10441878687141,87.86216422831737,178.8843164899138,0.1616628249006682,-0.0411458833712377,0.0079657394549215,-204.086298784884,0.2027827466511636,14.545211826815038,0.0731312088612556,-0.1231950159466459,0.0432062553992582,-139.68585401951086,15.342598113636408,21.525380610669263,0.0139779064065494,0.0186918974198674,0.0018330200635152
0.1,-42.79285543609525,84.74664385031596,174.4402939052726,0.1116129115090699,-0.1022619411543989,-0.1085545982909444,-45.03886613140482,87.76080575665472,178.79375508816142,0.0832688510016885,-0.0976049487536276,-0.0059215666754695,-204.13181988941795,0.101643813354579,14.411521476884532,0.1166066226752801,-0.069491263665572,0.0403226903979439,-139.5570674102916,15.591180642654106,21.48680178160986,-0.0910275555581179,-0.0641106234802949,-0.0218762955862855
0.11,-42.681905145957096,84.62818204717361,174.48748784406249,0.004972015645784,-0.0393134915680077,-0.2541822177755483,-44.97217229355201,87.74984080899326,178.8062109010976,0.2232633022502999,0.1594510921591666,0.0866735754324734,-204.17146607998143,0.3822236403805535,14.487399807680156,-0.0336226245121855,-0.0396220069901886,-0.0700190006280644,-139.4644005446977,15.494912008854076,21.55402969946353,-0.039100463826178,-0.0067801412437346,0.0067475956788968
0.12,-42.796956469067005,84.6753418937578,174.86190554950807,0.0477328567665307,-0.0041360235158063,-0.1733446817725886,-45.030321719432,87.84272736462285,178.8652455240817,0.0991191042941391,0.1132682290760364,0.1257045058111645,-204.18098303012184,0.2263298649785,14.414739739562869,-0.1443406491794527,0.1152463672849912,0.0757575276176089,-139.71201456770177,15.583931972785567,21.460805394596505,-0.0602838692297559,-0.0394286025252317,0.083944282410926
0.13,-42.74937258995828,84.62296330215419,174.63685526881395,0.1114492687854471,0.0397416746808045,0.0667783367832909,-44.917798223726905,87.91082826384171,178.9666029370387,0.0208408923148817,0.0312219734772451,-0.0391108504120513,-204.189399711454,0.1457107243177261,14.274585210294884,0.1259483174008777,0.0461422291186436,0.0237056445609589,-139.56495059788904,15.572472256927904,21.68255388345102,0.0908976336562365,-0.0577271109673324,0.0586966461963522
0.14,-42.62138398014325,84.40370115715977,174.55516198608845,-0.1869608154121512,0.0048051875898126,0.1025499287420837,-44.96445661177796,87.82504039863343,178.74479746092743,-0.1160937839115742,-0.0210010234581127,-0.0260613143068849,-204.2284949216416,0.0578952650824116,14.70137568492595,0.0218236199665236,-0.0866084251502529,0.0389458131913441,-139.610090843197,15.604563855844347,21.406332815140733,0.2779449026858818,-0.1015087724610899,0.0338222340242666
0.15,-42.685182283516376,84.51921903492651,174.63206395490303,0.1945496050891194,0.0570868482329522,0.1347713737079302,-45.17929259316334,87.88483551911733,178.89927725251047,0.0313615480628192,0.0654797668571857,-0.1197926079448353,-204.2201689389281,0.3291076012391385,14.530665637928694,-0.0414509345152777,-0.1874991775032736,-0.0114705336732765,-139.55051824611593,15.750748593338354,21.528489901695224,-0.1092887221807265,0.1060692116607714,0.1640850091038918
0.16,-42.71219365786667,84.62877692335522,174.70092473779803,0.0088366536930408,0.0561404448287083,0.0341724329588298,-45.09853590466614,87.77591425601192,178.9672318635457,-0.1117541778190752,0.1127001834253255,-0.1030258043714137,-204.2449587383567,0.1549887532566536,14.449349941632205,0.0260042782864883,0.1733853788407043,0.0134429428632975,-139.3613464083632,15.70422975435955,21.509164462411974,-0.1833432598784343,0.1422593833236594,0.0640729961606003
0.17,-42.70861297670706,84.5310446618818,174.71377382956,-0.0562186256481625,-0.0808406816025986,-0.0039109648825842,-45.21732156089956,87.83020923351691,178.7616010862095,-0.064317645206979,0.1115191678559623,-0.0062760054475776,-204.0135405341548,0.16134658081982,14.371939073970868,-0.2165169200430136,0.1867980888166851,-0.0540175073587413,-139.51866319802846,15.493905746559149,21.387239310590957,0.0810009792861774,-0.0418104216324586,-0.107604372784901
0.18,-42.64189381522102,84.70633798900111,174.69695313003788,0.1025012483686651,-0.020350956948361,0.006861286335435,-45.15297050737806,87.81759376675986,178.9935266985346,0.04898775586353,0.0895429889096985,0.0312359823336551,-204.14601229141184,0.0918003508126993,14.341698909087857,0.0091600337804504,0.0506201735434044,-0.0136479020894927,-139.53312208726916,15.570866374132908,21.27647311188512,0.1496736659699103,-0.0033685651614078,0.0575014422204697
0.19,-42.783502900722496,84.51689606362889,174.52581962002296,-0.1028837199290732,-0.0648400358044432,-0.011216534112474,-45.17889253432591,87.69353138673176,178.9408599740829,-0.0298253942970901,0.1781797750414265,0.0816320915377734,-204.2205258401737,0.2203868016718302,14.501079624843088,-0.0299864704999964,-0.0626453071392786,0.0027523199159245,-139.3480325495346,15.524897898033302,21.476573678849377,0.2162072450063674,0.1264919323467032,0.2028229983910399
0.2,-42.65879461464647,84.38845216278487,174.64948036129664,-0.1803361152700185,-0.0890631914870204,0.0945451907895172,-44.99801116645919,87.86044119423829,178.68349861973155,0.2322772936969122,-0.16274675180516,0.007377090010117,-204.1590918458565,0.0894118062319899,14.675342682356062,0.0572729628666671,0.0476354643459779,-0.042927914962136,-139.5346139061826,15.436054594523563,21.18260450149361,0.1649244914996478,-0.0243026851673971,-0.2098563390076256
0.21,-42.68141483765901,84.4778859377637,174.7420326946567,0.0958700547697483,0.0803891177359825,0.12117979098897,-45.28416414215774,87.58807548238536,178.9805252567102,-0.0689378889824739,0.0717392951986684,-0.1508745915119875,-204.31975689262785,0.1879766551375973,14.529514888560806,0.0208862641444228,0.0075738716156065,-0.1073933440776178,-139.4866781289016,15.389098623948795,21.486192192234416,0.1071001814383871,0.0489560739849415,0.1103729244200978
0.22,-42.6231576787705,84.71425677125774,174.73948122372136,0.1656433976820217,-0.2026831703981248,0.1186223923853093,-45.16306089101523,87.77511271937065,178.88693751781443,-0.0726095773000206,-0.0633524106608451,-0.1812465278936559,-204.16010095248183,0.1662363105355387,14.541771381286932,-0.1703766148149363,0.1296091642575399,-0.0886488800053328,-139.52126695597696,15.356793519690576,21.522642202893014,0.059496383027948,-0.1531734153364801,0.0352730109722058
0.23,-42.68672953103605,84.52862852656907,174.49226321756453,0.1411976137257647,-0.024731706449557,-0.1731986513582254,-45.23133139966038,87.7308559105023,179.0206420749131,-0.0025722307770214,-0.0401483391147811,0.0636351349991037,-204.1892023508229,0.2650540508194284,14.477297604720734,0.068559134162005,0.0772026653114871,-0.0266185477350598,-139.42593500934535,15.445545206315751,21.431945052697625,0.0245354350951013,-0.0774686070111051,0.0604283423683864
0.24,-42.57915924632381,84.76073250795991,174.47633919869614,-0.0225398292228157,-0.0147058719907846,-0.0119722694086673,-45.07801308489703,88.06178247002991,178.91754156498817,0.0086718144139879,0.0796296618164074,0.0832807645826727,-204.08050604078088,0.2233527698303659,14.627512052174058,-0.0189462907888955,-0.1136882252562042,-0.0663424158978161,-139.26035721182353,15.497707630594242,21.48024966369828,-0.0254746228310135,0.0033854947745827,-0.0052027954825288
0.25,-42.56189472983514,84.60636830386412,174.54206043506488,-0.0898010050820138,-0.095113611671942,-0.2147240343927424,-45.093627008942754,87.90349876733255,178.8827435543687,-0.0112041182592464,-0.1211896860373236,-0.0837963076706147,-204.07335951698312,0.1542721739825267,14.44996775976412,0.0658416235454369,-0.1899867268602539,-0.119565971698755,-139.43202181462289,15.52001103997526,21.36516184948945,0.0137990653317867,-0.2491736910094391,0.0338516988682066
0.26,-42.757466062243694,84.43882702016278,174.51613928800225,0.0680370125873669,-0.0505278357136298,-0.0634602025578144,-45.16277685769622,87.91524984215012,178.85096248533787,-0.0128870531992375,0.0586902878616993,-0.0365482557432118,-204.33177826742863,0.2667759846309505,14.54591051227606,0.0653127932562756,-0.2166831218287816,-0.0919339763807575,-139.3825302949132,15.530126347155075,21.357338154136905,-0.0226488110486637,-0.001126967632241,0.0011064143355169
0.27,-42.82392143001113,84.58802219015456,174.50450700700702,-0.0652942359796849,0.1248356568203636,0.0162804847335538,-45.10186724539141,87.97038543674985,178.81972566023754,0.1264118358341784,-0.0212314074812127,0.0392403619958077,-204.06432817658813,0.2196337249514926,14.42739841916673,0.148679098595838,0.0640590150074191,0.0822997117605743,-139.3616749541003,15.607557159757338,21.389821868650024,0.0193386512500465,0.0659689843978321,-0.3370410316064073
0.28,-42.48417992356495,84.6032448604723,175.01517938375954,-0.1703501942755582,0.0034560417197841,0.03463913257603,-45.16122327428862,87.84660565070969,179.09781654333136,0.0391046393174416,-0.0152918214871046,-0.1241050952027275,-204.1225041929449,0.3300513359901719,14.56507878163811,-0.0096640777410397,0.046998587748911,-0.2296742844344204,-139.44700941444995,15.521176626957612,21.246180579818983,-0.0111447293169359,-0.0750547394146228,0.0215358851814881
0.29,-42.56242540144221,84.56227263365722,174.5744683179415,0.173746770141676,-0.0996442926875468,0.0244859563182628,-45.22051267885648,87.84706027542913,178.743673123688,0.0022104564939263,-0.1712426671368163,-0.0277250997081571,-204.2330724677832,0.1777195094512106,14.616624959500577,0.1944100487282171,0.0828205020396724,0.007178550888459,-139.4631487438314,15.473180278126272,21.40559805040664,-0.0149707302804721,-0.0118969024603858,-0.0791497393502767
0.3,-42.73750139286962,84.89645372264175,174.71491430128478,0.0539121316032859,-0.0127510481303808,-0.0825138778148379,-45.03499534779086,87.80413860120217,178.91880845745467,0.0052349985565324,0.0231078643417427,-0.1391105395087777,-204.12035581889248,0.24979196639942,14.55790803672487,-0.1474668974284908,0.0321367986125933,-0.0449824008006109,-139.34829681839545,15.40659516799497,21.319970605749432,0.1884034760670442,-0.1318568151875445,0.0384231823227998
0.31,-42.75549495155155,84.43479886015068,174.63682093327353,-0.0078504243109995,0.0484697383189496,-0.1001652178559336,-45.05754030389427,87.84495516522624,178.8275085528442,-0.1329008237027548,0.0173122693198181,0.1012382547941178,-204.2971993528447,0.1502723766737103,14.590070322142846,0.0789258068729777,0.1122001317041142,0.0254904673391392,-139.3679733901512,15.572672838394134,21.52586535143994,0.2160599633330452,0.1038261097570572,-0.1058531735031624
0.32,-42.79583441026843,84.43431982031805,174.62150446208818,0.2273259581638922,-0.088706180370048,0.1691405510772012,-44.893941512573065,87.86203395579062,178.67731077798018,0.1978906370385396,0.1621877646566237,-0.0347710325084144,-204.16456439874517,0.2009342046834778,14.430868184847006,0.0865729446531917,-0.1303479736733514,-0.1122892814642545,-139.44159471775913,15.381389378123284,21.332600570729827,-0.0079473675697372,0.1341347740859925,0.1498904016937819
0.33,-42.59357821488425,84.61097355503594,174.56923725707233,0.043560084327916,0.1392630052659819,-0.0338939472838239,-44.99923511824374,87.93203542504482,178.92176371002537,0.2305980346372991,0.0447288378480392,0.1999679188251029,-204.15389446688957,0.0947465716339908,14.613344709668722,-0.0965203310611838,0.1774440577648169,0.0365842517604138,-139.358964485786,15.519138892130826,20.996224372748877,-0.173126681991165,0.1257986206762329,0.1565053528709941
0.34,-42.70968488517648,84.36430834739677,174.79246410241757,0.092897602033747,0.0233384161053554,-0.0531027000111239,-45.08097324178991,88.03055145049466,178.88016130305903,0.0558672097768624,0.2086126777026637,0.0155262747492746,-204.13001936112468,0.2719691470374092,14.51606613201776,0.1731507147073067,0.0606412933213675,0.086029634584327,-139.24445698230682,15.668983566556168,21.50228036622668,0.0309282958796105,-0.0372402806008551,0.1412648701599888
0.35,-42.692695747480485,84.58980509798454,174.75140941337352,0.0179565822870339,0.1050719249249739,-0.0076861040986576,-45.08072923502646,87.80191085859364,178.82302649609807,-0.0204882800795377,0.0547820614948779,0.0066827408277553,-204.1658995092389,0.2135919201394616,14.512525835965045,0.0725159426416772,-0.0316956323846449,-0.0585749542326576,-139.12946392968618,15.622572499847347,21.302116085107816,0.0263092023089609,0.0331227592081644,0.014721726200752
0.36,-42.7189987183904,84.59093118817617,174.6520148379849,-0.0521425296690719,0.0100680486493787,-0.0882680990591221,-45.1621301428347,88.02218475850414,178.81626407893432,0.0024504196101003,0.1785450119980913,0.0921408309399707,-204.00063234536037,0.0800961973894826,14.59881763141101,0.0128917092134175,-0.0889245820723057,-0.1151399750438511,-138.9208190889561,15.835903264533332,21.41919106590009,0.0599079831737299,0.0208165558810548,0.0027242889143571
0.37,-42.79626146524576,84.59894304945006,174.55073945545695,-0.0156610558892173,0.0674228817885989,0.1463865957710343,-44.99251605505164,87.84421158170252,178.8956538004173,0.0194285914500856,0.0709731544732387,0.1209447299903977,-204.2744146872164,0.128000651261024,14.55924778068592,-0.1105822088748856,0.0800389401376262,-0.0010917814542775,-138.7469272714843,15.757272188741265,21.434217615109183,-0.1955823914354652,0.0153667655945187,-0.0044597159612148
0.38,-42.91297838984901,84.50387745645519,174.5883551194593,0.1274254750579893,0.0681040642427966,-0.1750374932806569,-44.96549981643071,87.98692850337852,179.03938842945155,0.1529471632223978,0.0204639485482047,0.1008530801452206,-204.10664678573792,0.0542936197728137,14.454061979667818,-0.1423595494515055,0.032501925219585,0.0539537659234449,-138.52573535849547,16.034892986300907,21.26451338697926,0.1473691936113799,0.1314700499390637,0.2273641619328556
0.39,-42.76880557306479,84.6226383665177,174.63156447481114,0.1151849158172824,-0.0381522499646305,-0.0119736094806017,-44.96408028015068,88.06471360622866,179.01792805639224,-0.1592460496444177,-0.0157598326003042,0.132935956764111,-204.1912781940671,0.0899749258568596,14.456672642041855,0.0400767291412241,-0.0700796288511368,-0.0332112642193432,-138.27023056341517,15.762316809068976,21.129060830528147,0.0491504549816853,0.0534330826144696,0.2052160431292951
0.4,-42.906617605456525,84.80216218615284,174.6461466320974,-0.0595544169841041,-0.0458209642883401,0.0487584512121532,-45.15459567110416,88.07492282988757,178.8878302442162,-0.0816287322624048,0.1055759601616362,0.0249886305798823,-204.17061776099263,0.3492483124681773,14.631304837647097,0.0627598192787435,0.05057721477176,-0.118626496904935,-138.4117924840593,16.20834953682541,21.319374007296947,0.1702845106708385,0.3437061447707471,0.103246910876431
0.41,-42.80991391935376,84.4612748066941,174.51843773718704,-0.0059774915257041,-0.0255112001971995,-0.0688257216521276,-45.07284621794487,87.94715237077627,178.90580860698523,0.0518317880987942,0.1491608598329705,0.1196387920691785,-204.24250475875988,0.2630089163695438,14.5390641055978,0.1630082638403982,0.2239959850471585,0.003189530940971,-137.9032285540811,16.421628157783573,21.477436862727007,0.2671373913879026,0.1303393204280559,0.0511681412887315
0.42,-42.97815620993399,84.73840534832947,174.51118637835052,-0.1032787602699929,-0.022669373135497,0.1849839501035457,-45.12158838993584,88.07428604144755,179.0190328709006,0.0147587498753304,-0.104168919703172,0.0526699717442227,-204.26605262554537,0.1452302287509237,14.470087110464531,0.0190224504918818,0.0175998639726068,-0.0490004767719407,-137.80324704089514,16.346531126502168,21.430514724711884,0.2423172734623175,0.0296410864188447,0.0532911817085194
0.43,-42.84985039114429,84.69866860463854,174.48948532148094,-0.156062909995875,-0.0079185304096684,0.0637850232224044,-44.96973232295146,87.89258298164314,178.81806541052651,-0.0540384203485625,-0.0983696097713977,-0.1028104950560445,-204.2266876873776,-0.0214235208497917,14.55697552869025,0.0678738153439181,0.0673523593022388,-0.0383245520436345,-137.99721514627086,16.5701518586239,21.5161567904777,0.145710482168184,0.081652525878267,-0.067851748776138
0.44,-42.885802327358725,84.53435675404452,174.7224198054523,0.0308681271352076,0.1352952146923061,0.0149708200967998,-45.18796710218452,87.80282713346884,178.7670309084764,-0.0005641137112213,0.1204965012786841,0.0205972450151421,-203.9740962755073,0.352907184974239,14.720189823015428,0.1825935496802489,0.0066009780933171,0.049388180301527,-138.4142630925254,16.573169245050902,22.05180397270369,0.2385289355234641,0.3871624418348821,0.1846517184320131
0.45,-42.98259291205955,84.72754305979257,174.57457137759314,0.000606683543517,-0.0621974674175746,-0.1106840571392328,-45.168763637675575,87.81480757218053,178.79822073521927,0.1026188534858706,0.0658488623699461,0.0839209754239107,-203.87962500377984,0.5852058786633122,14.515011903129988,0.0683239812327762,-0.0633966581499619,0.2539605479604629,-138.43735241246495,16.79258683348369,22.34415510764019,0.1497112925455018,0.2054222811644336,0.178095808000143
0.46,-42.85791103866017,84.7582760558096,174.53495739527608,0.0735268429074975,0.2189665304696491,0.218789486681722,-45.20150722840512,88.02946646202099,179.02260522867138,-0.0372835104396725,0.1063032056103725,0.2280918801391762,-203.88702832687477,0.6139591051287231,14.600549325593636,0.0475008846623452,0.0302046585787639,0.1351690461214457,-138.51865996116564,17.15183169917377,22.66677875457207,0.1498957419951801,0.121025953269593,0.1978951432444159
0.47,-42.811795448919774,84.53328662891212,174.620154911112,-0.0980380474839748,-0.0123833972768677,-0.0469686888375404,-45.51905710140968,87.56334630520506,178.91963461606326,0.0829144900633894,0.1885435606357038,0.1398801547457034,-203.8456693499408,0.7116084666650541,14.627339341853553,-0.0622648073596062,0.1921952051588506,0.0701775391563188,-138.24630447495434,17.341019479488327,23.019780671169165,0.4220169160846791,0.3053023500434183,0.1602943752417627
0.48,-42.94013967792818,84.68462947623767,174.7186554591051,-0.0359734333803555,0.0665893271632579,0.2332907775645366,-45.280783869578826,87.485687744581,178.95403808838057,0.0464346513859745,0.1993976137657915,0.0285293769239128,-203.49454453537933,0.9801475540914212,14.957614723068826,0.1152994394386591,0.3316683983496612,0.1290704143342416,-137.72626405657203,17.900956436964208,23.45880346868609,0.1445750401537456,0.2684257389034357,0.1765480634780942
0.49,-43.03324960391313,84.68906238474656,174.71473332884773,-0.0373430161834364,0.0629223943906451,-0.0578719923456296,-45.69397983038376,87.58220515045883,178.90452559342137,0.0236174201377417,0.2207697512947566,0.0361417664678945,-203.6059709507089,1.129990709016268,14.837054996353054,0.091980932736208,0.1387216444535874,0.2199839639023335,-137.7747481372301,18.202200642135857,23.80095033546844,0.4744971875356684,0.2284696921837813,0.1590252146620424
0.5,-42.80358576522497,84.6021424667688,174.5561176067199,0.0041034610557884,0.1410862815433084,0.1255131966399747,-45.63538521943043,87.0707056308689,179.0799597162932,0.3308814784287832,0.436052504197462,0.3454377021475173,-203.3804788067074,1.4163753875367495,15.188082747157983,0.2004435751461951,0.1757125140717953,0.1341871171693164,-137.29572395545665,18.66292705483857,24.352814595258018,0.3680197274274251,0.3310060828043191,0.2766029830699784
0.51,-42.82006523851215,84.67165344508895,174.75099903135555,-0.0047014517409525,0.1030539291747208,-0.1401231763037965,-45.65810812888856,86.56935647638964,179.4484589253443,0.1572118912433904,0.4249988849191526,0.1716355942316884,-203.67418612741517,1.6493374100229694,15.424963576025078,0.0795319694443283,0.2928379790889346,-0.1024911959684515,-136.65943678581314,19.07419079147436,25.00602558460988,0.3092582557643927,0.1418379988466722,0.1869143828489551
0.52,-43.02296523193316,84.71861975009631,174.7392693019754,0.0484694788206762,0.0635489110376359,-0.0708898978009795,-45.52090880166377,86.64883017188231,179.408224990698,0.0234653892154074,0.4144426357287047,0.2269678186916189,-203.41074689974607,1.6685349849125497,15.465725234462676,0.2755502204273996,0.1357687144160368,0.0207602088515814,-136.68710357140034,19.458667067735234,25.549747594273427,0.1959326512604776,0.2226476848083221,0.3059095608441143
0.53,-42.95697714752588,84.72143416959042,174.7305596390956,-0.0331776141169976,0.1400230667355267,-0.022600784047758,-45.77679651804756,86.29858921776585,179.48299840824257,0.1956452986057226,0.4728862117582552,0.1910726698076672,-203.27406802106972,1.7384897573210871,15.452895770418516,-0.0902916524200906,0.2548744865012388,0.2487008545080752,-136.3601576451522,19.719173938109645,25.787611058214257,0.4814088750024289,0.2346004793408211,0.1471009132644545
0.54,-42.95126388483915,84.69524908666915,174.57635820752907,0.0336760978408251,0.0542561698238165,0.0479869325745745,-45.54394664438824,85.72633762227584,179.46190461824844,-0.0531329358709006,0.4665183338025704,0.2606654657677446,-203.23193929896635,1.8990551538947549,15.682228021212056,0.0073706080919497,0.2041555904696698,0.0002751955827772,-136.23133754610038,20.02241651597378,26.37436693797782,0.3981112157614729,0.1293554197299384,-0.0668625061569902
0.55,-42.81919752533934,84.75400200097123,174.85795849674105,0.1193171873918873,0.0307483423903077,0.1072022756386808,-45.55917418834856,85.19910136156662,179.6623847625095,0.1556762036575967,0.7835909915772931,0.1811944565786543,-202.93371608686408,2.443118139031434,15.871842601760823,0.0152292970685416,0.2293534091464424,0.3243221931113131,-136.11563788309044,20.16550981711484,26.368984267759565,0.1869031662884364,-0.0977603922711659,0.2298975889349819
0.56,-42.79676037275016,84.83712288387409,174.77299502427283,0.0163338116039153,0.1729991178981325,0.2339921139290904,-45.43669523067633,84.47063131484919,179.527033941344,0.038566432033498,0.5754884385489168,0.2414574023208273,-202.96237911757643,2.568041459860499,15.96570546064061,-0.0397687785603317,0.0939161787246322,0.2463630124689365,-135.9646702973865,20.12045304914528,26.61848607236167,0.3003298855402383,0.0880877201879242,0.3541412124618684
0.57,-42.89187318058136,84.50806791679862,174.81547949641592,-0.1920338368688189,0.0002140083835679,0.0360690295888273,-45.58910951484016,83.66865732695318,179.89449852644375,0.0350023737091344,0.7456837570360145,0.1633945511198938,-202.53485855270185,2.92358683574353,15.923019559411111,-0.0649096784372724,0.0129903350317543,0.2562156706987493,-135.6183213353092,20.29786688314869,26.80111469073085,0.1876074716499031,0.159508529902265,-0.007193568892786
0.58,-43.039985866249445,84.90385974713894,174.7117029802759,0.2051976896842362,0.0572815746282737,-0.0037737420760107,-45.32116431705578,82.78503620176804,179.25211738764247,0.1289863546968416,0.7992001780228363,0.1903469492866341,-202.5074916948809,3.126505529621499,15.941823158962082,0.1276491871183018,0.1225725643413121,0.1238302788110788,-135.21036261169647,20.365796219522306,26.67464256125557,0.1038916297585295,-0.0093631893303954,0.1009341209476326
0.59,-42.85872308386742,84.97686724090887,174.91658812831972,0.1834573311987171,-0.0675114957512984,0.0703287594997928,-45.16907475897529,81.88697708857453,177.86323809327237,0.2351169110918002,1.1855755313374838,0.1762040662502779,-202.04568212696307,3.333408153165992,15.7741697616529,-0.1197364865372446,0.0860159948985164,0.323644816970194,-135.24308069041194,20.55825939197696,26.98319876626285,0.0994976489590973,0.0205896881862729,0.2426690189472952
0.6,-43.01365407990096,84.76340113140475,174.93277185224883,-0.0621564486335182,0.1893273383994863,-0.0594226501609564,-45.23962618699563,80.74227580135548,177.1196664596513,0.2386868148143042,1.0386444843079086,0.1389165603476436,-202.00285107738603,3.547444002273355,16.03667698489676,0.0701614371468243,0.1519552451105117,0.2821222734508076,-135.17058863106757,20.288629676669625,26.902742306143843,-0.1578133893470348,0.0307504574216172,0.1213213796862937
0.61,-43.032005850356974,85.11739138976323,174.92400881958545,0.3214313429435127,0.2781407391256149,0.1201329082600393,-45.22477576356658,79.54931319695226,176.4877908789913,0.0750287471911083,1.0581267650905244,0.2880856400081599,-201.5033029627257,3.676658145501998,15.753183755081537,0.0380130891971527,0.1073802119603199,0.396814629948881,-135.36385934700576,20.01091444255313,26.673875465442656,0.1921992374160495,0.1772241775106723,0.0628521327144141
0.62,-43.06491579040731,85.20580978884053,174.94643922887502,0.1363565305239163,0.029434282545655,0.0141356376064174,-44.9637434914279,78.06736593877424,175.6489232594978,0.1089841628242047,1.3038731631029328,0.4227013487268254,-201.15457313482324,3.746584073343188,15.65798545772716,-0.0225053479892121,0.0042185535099953,0.3460436307851302,-135.6406838058098,20.0989033727772,26.922107471619004,0.0361523548623336,0.1145789348693896,0.3695674820802517
0.63,-42.89791086366772,85.06797628593367,174.85221045500137,0.2736929222909668,0.155677909862108,0.2589278624907175,-44.84029563585921,73.73333480530154,175.24897500846757,0.3230941362558374,1.6211318596127564,0.3103254927572753,-200.7899070988479,3.9721390018512497,15.782504290116728,0.1733649952866695,-0.122967030439237,0.3162847074782177,-135.87140905917315,19.78983334479774,27.117444085860186,-0.0106895369661845,0.0516332792000116,0.258156225640589
0.64,-42.97744880026119,85.16533745979991,174.64768247037887,0.0671050281991612,0.0404422359935995,0.0615767428662907,-44.76183023955976,71.97103327869912,175.2345566693847,0.2900741367740056,1.7871801132776042,0.3173508758083677,-200.67469167451176,4.025141645670701,15.71565335810635,-0.0122461545453132,0.1572955516335479,0.1871330704640224,-136.13600027586267,19.43935176598872,27.04866583671652,0.2862687697946117,0.0831315481509317,0.2325519126724787
0.65,-43.16585536915718,85.2401850125307,174.55585685203235,0.089720001012695,0.0831911426224818,0.0264543569052355,-44.60260344244878,70.65953330843921,175.2186442529433,-0.107059135035453,1.925886832378932,0.5235599593644362,-200.36885428685005,4.057475332056292,15.545825140199245,0.0813428398201419,0.0438865070766624,0.192657737933373,-136.23814998424254,19.296888395626198,27.238665066132096,0.0359403443067501,0.0630287593094755,0.3806024545526837
0.66,-42.93334121357899,85.47193981316674,174.77309462155964,0.128580719577164,0.0101581684987429,-0.0526956316309146,-44.66951654398919,69.62023780559562,174.96315571766542,0.0988317732129122,2.105977068456792,0.3433769136575472,-200.24045385564747,4.165488987030888,15.54912950535295,0.0572890912203298,0.0896607913547828,0.2060765893088287,-136.5253002110348,19.15547211240832,27.462358763867925,0.1164126494227466,0.2094529101246435,0.4359896362876967
0.67,-42.89970282897565,85.5011135415703,174.7026061987398,-0.0233927081905148,0.2698773895028304,0.1042161371800539,-44.39390534005928,67.3817129359955,175.2373016686528,0.0756767039579101,2.211113113672991,0.2669891015560036,-200.1476120840221,4.164562542390462,15.566507088656614,0.1003578959783697,0.1055187700435572,0.2707079477408426,-136.82599419420222,18.797567170218866,27.55556655351568,0.1777768670981524,0.3341100928404964,0.650906188102728
0.68,-42.76831755963001,85.6655871587857,174.39817458918338,0.0316854170382565,0.4493113582468122,0.4278932871733081,-44.12831280820229,64.90517329713192,175.06776319895957,-0.115881150548742,2.072895396003972,0.1103503036546219,-199.73320354816505,3.885428007143027,15.45984090639998,0.1755693481940407,0.1198181324229244,0.2451805553269953,-137.19646954244493,18.418341618780055,28.161181506022995,0.0585479258313405,0.093417549656018,0.4490895701583114
0.69,-42.56077263962424,85.55894227063641,174.61517754558272,0.1941715810211073,0.8411555280653668,0.118631051401763,-43.70755836465861,62.19813525408895,174.81867145598628,0.02629748162121,2.439724128227505,0.310281026866335,-199.4226271026743,3.819372637787703,15.13497106153372,0.0323692148330743,0.3342839131512337,0.0450521296927193,-137.6928506810374,18.000458527248412,28.29916766420445,0.281946848768623,0.2718862674282058,0.5720196317563554
0.7,-42.217553294602126,85.07642341896836,174.7009913988748,0.0347197866901135,0.7853514493014889,0.0987329235605492,-43.124406887097926,59.48873973839557,174.579331729911,-0.0482755012518361,2.280222799082133,0.2118642210459204,-199.2117521621459,3.767192215178385,14.978906752351673,0.2990681072889931,0.2448021898399423,0.0546101564258514,-138.40554219560244,17.68684984510227,28.577889421282983,0.0839827229723179,0.1189313874362179,0.6414364737765181
0.71,-42.10946113315485,84.41328528207981,174.9001661219288,0.186690210569884,1.2450285069622606,0.1100156984915585,-42.539590481432754,56.87014747525021,174.326867714018,0.310325063770547,2.2625038206363146,0.3404875485952746,-199.0952469718673,3.7131652031285927,14.807807972188591,0.3112981166217349,0.2696563261309562,0.0551704542348941,-139.0114821500909,17.39943186300065,29.154783676732485,0.3027254117854649,-0.0382947533313734,0.727511882469788
0.72,-41.65436602797868,83.71398363233877,175.0278982007679,0.0837678311045955,1.3767617777304104,0.2086861849442998,-41.4309546113556,54.54858813744136,173.94258275127535,0.180684588640355,2.13658650017333,0.2294373879569187,-198.93932767568367,3.2583309598683305,14.622706376177234,0.5072452294588982,0.2518481368057133,0.2010900189459896,-139.60151051494637,16.972984101481952,30.059060366510742,0.2003356740612903,-0.0510779912601528,0.8445873707341519
0.73,-41.51328907400557,81.9742050918116,175.05482859247752,0.2277579287797091,1.678222291045448,0.0160166009225534,-40.26147418272861,52.42664088306816,173.5999250158371,0.1966501809279094,1.9995438610365115,0.1959256846609051,-198.82431085749127,2.9696093675492747,14.151534799675249,0.1237420073838455,0.2886245940947166,0.0661665123957931,-140.16442006103716,16.86179162761914,30.366526943141427,0.099853234487586,0.1226242272936281,0.3089255128891463
0.74,-41.283565200459705,80.09623898079134,175.08500375506648,-0.0312900104082534,1.9245030518421284,0.0249014318157709,-39.34240829754977,49.94610975281172,173.3678425286797,-0.1102041216714481,2.1514390093681817,0.3888611300033849,-199.1886566436842,2.699139356063993,13.915632932677209,0.1682526001424453,0.3460848388019536,0.1690701225696353,-140.38488656982057,16.82967438899505,30.451866642016483,0.0659817565965686,0.1408989081423543,0.2713843149315363
0.75,-41.24844377666589,78.45532937291644,178.94404150849712,0.2478183557642724,1.39313532902224,0.0041395646290691,-38.42772493158797,47.795909376368336,173.08339483481365,0.0520207887601341,1.8872310984910876,0.3221538408215321,-199.1453439523278,2.2648184169757863,13.371891985993408,0.4087613385501982,0.2333742947039261,0.0994208160173615,-140.88541991214674,16.69382491171334,30.773241529367358,0.2276918569716188,0.0231410035267285,0.2060675845174925
0.76,-41.30209281436119,77.02602609902502,181.011496633,0.0405246107174908,1.2141573841659563,0.080624502137093,-37.727366832858905,46.01427796101439,173.1353360698555,-0.0273207740722281,1.673039737493875,0.2570307205499179,-198.9228938374066,1.8576973564961448,12.994859512517758,0.2904605467466174,0.4280101529236001,0.0434483268233797,-141.7309711123795,16.396498206315865,30.803514180931497,-0.0142566370578136,0.0618944634597588,0.4194559366350946
0.77,-41.32895808502094,75.79587611963935,182.59942000950343,0.0303916636437965,1.1566372367470816,0.0103560101993975,-37.748763683363954,43.93770799396612,173.3002071397029,0.0635357465474033,1.7156702843223173,0.1193397630518937,-199.23187969516096,1.3865746123907,12.701785411682742,0.3977986913646444,0.2565438589011323,0.2032703215512847,-142.34576771051954,15.979318952560993,31.19021188733629,0.0418013020154223,0.0614950641646711,0.8816068749863424
0.78,-41.18992423152775,75.22881341336777,183.4260168776364,0.2268587659824306,1.3359878030970316,0.2652342874208623,-37.76180817764726,42.86198364555559,173.0977383868529,0.0130181481959205,1.8894775212720247,0.2427895969442585,-199.09127753404968,1.3740573041640674,12.712159534634914,0.3335649804940647,0.2533736776504341,0.0667598465337607,-142.51911525790712,15.842386104698807,31.39035672941969,0.1002824652393399,0.0332439504076993,0.5681192080925167
0.79,-41.47085229930522,74.53724683069223,184.1739439910599,0.2482652000107399,1.1465989984889535,0.048718611126274,-37.65641453523955,41.76093459422139,173.26902791003525,0.1716288826584594,2.0503184941579584,0.3517119875338527,-199.2114962126963,1.4336453781659542,12.84231295293326,0.1337117760300819,0.1960772942442229,-0.1981345636673479,-142.9458082470067,15.65088202434663,31.68070363817552,0.1319774594853881,-0.0314560558557767,0.4956830299096192
0.8,-40.99437938524807,73.13800367373605,186.02807324714743,0.072545495111251,1.440980453885578,0.2374631811411735,-38.21540888282392,39.38892911641343,173.06684038333825,0.133999464505186,1.8753808630500148,0.2229388505899681,-199.25944603639115,1.1387279034220394,12.381411770452212,-0.1962813159220844,0.2083904629519271,0.0930200977866555,-143.1295125487354,15.684579373807138,31.843416323410857,0.2326515915892454,0.0683049151827786,0.1923102075295291
0.81,-40.70163960637153,71.76211474746836,187.9487270297273,0.3152981104690333,1.330675649437011,0.1914599575360554,-38.01253078233388,37.64718008821856,173.15645631945242,0.1639907321812173,1.616045291657329,0.2069456193845826,-199.11097239248383,0.7090293032149793,12.463499581911446,-0.0225146653667016,0.0053497959892046,0.2025564073107063,-143.10529282660218,15.57228472750758,32.20808276188845,0.2511093625522504,0.0240150475619839,0.1569341184543146
0.82,-40.991327241027655,70.33557260493437,188.28632568853672,-0.0300919029194524,1.3589263350181502,-0.0270182716846777,-38.29014196487616,36.20131011452944,173.0306810453428,0.0313161315107432,1.0618151074345226,0.2225245898126931,-198.92774329749545,0.6862431072399525,12.351932075067824,0.099678470134333,0.3162573008876379,0.1562545716389598,-143.21083988383756,15.288861780984242,32.26312515667429,0.0079543763820481,0.1362872352007962,0.0029032214956402
0.83,-41.24283410422002,69.05344760314696,189.02149941342947,0.2190352729977255,1.2321581491031075,5.0212566615116805e-05,-38.47217119186671,35.232991575505466,172.91473713378957,0.1501268685732199,1.038320152467661,0.1017824158740447,-199.04732452193707,0.5911578888782695,12.593373839157003,0.2206221883893193,0.1467186638436731,0.2290261983254983,-143.0313104587668,15.29717978219178,32.64747086787316,0.0954204854550939,0.0671766861326229,0.0570248779837929
0.84,-41.27589170121449,67.74961717348764,189.54265676938945,0.1070963427890705,1.314186782915302,0.2744186102365212,-38.6249819503841,34.55871905422319,172.66889048067446,0.0125140582400147,1.296389398572001,0.1547727890582633,-198.88460925221372,0.3528425123078313,12.62211346228194,0.2142671241224173,0.2955065370260966,0.3026639757924891,-143.24083925537693,14.94893142310281,32.6723050871481,0.164848930145167,0.0971559219859791,0.2764102982606426
0.85,-41.26976886295837,66.67427962246217,190.0918045266141,0.1904246421395995,1.0404631257946888,0.1701125772293394,-38.9310988204419,32.858541672995045,172.92377762104758,0.2944051346379309,1.5493063971365235,0.3237391562082227,-199.189824947624,0.3021794173500051,12.770961634927533,0.2464902845420203,0.2137330737666019,-0.1095068461464772,-143.34499196882038,14.847618570915635,33.34458077480355,0.3693757181936406,-0.0329724160859546,0.1950846445612371
0.86,-41.08545905563594,65.4106628842961,191.24250924538623,0.1726149567096394,1.013417157716165,0.1633577182169026,-39.15721770487276,31.448098355930348,173.0656088486966,0.1986303247024385,1.589138320248952,0.3065039216728881,-199.1235093633888,0.3616737697192973,13.196734532150188,0.0923336613249507,0.3241946811504952,-0.0151218689227123,-143.7726628394474,14.597052668365343,33.473107615873126,0.5348667702905631,0.0781229193495625,0.3641052351818065
0.87,-40.720740995978986,64.0994453261303,191.3461953043008,-0.0626702698235262,0.992156394150211,-0.0431205412110228,-39.1651946939829,29.951998277091626,172.92522090321452,0.0743728210944619,1.0680127470566647,0.17443387050706,-198.73113363242925,0.4841603605417627,13.35539598615518,0.0341256481703665,0.2987466777982444,0.3676364240918492,-144.23782053867157,14.37266955088072,34.05658301214507,0.3771932452184105,0.076050883103086,0.4511763970922524
0.88,-41.0106807580192,62.91948237228196,191.39783146677013,0.1536500119933334,1.2438216758044756,0.2086128434838643,-39.300758810970585,28.83720792013996,172.91066083048125,-0.0360571433541522,1.0669248437496983,-0.0010358140459126,-198.3046545400205,0.827479668788864,13.293906798365803,0.1086484290380457,0.3148720781184396,0.5179642183326029,-144.34100920222951,14.386150043548728,34.82902306178495,0.5400030738215299,0.1761110119329161,0.3339533007824473
0.89,-41.426779636234976,61.45245199817775,191.5471654652176,0.1394052169499295,1.2778492063627245,-0.0699485794207316,-39.31822500955979,27.736901834186,172.96175549155475,0.2940287970020359,0.9298599739200492,0.0626348171845203,-197.7629169061485,1.2113420541183535,13.68436770166335,-0.0315894478226217,0.1548106248351057,0.4510032100640126,-144.98527440435305,14.491839849847445,35.47555966091222,0.5458601956458826,0.4208989119566801,0.2659318599462166
0.9,-41.76152449456922,60.34801704055569,191.701408137232,0.1778105925488716,0.9936956740818604,0.0638091130877693,-39.64503802621382,26.565848346632503,172.7611599368528,0.1557324896996589,0.9115117318782512,0.2996248293423534,-197.46878130222808,1.2785365890556146,13.486234447106291,0.1039013291829931,0.3273363419680378,0.3209746087603468,-145.524255605746,14.661204394479764,35.89868950674205,0.4719385378646585,0.3512707254468364,0.4473502014478567
0.91,-41.80194001410832,59.90207954627574,191.6688503734477,0.1785966875483961,1.1755928029776357,0.0979230595570016,-39.72865773624949,26.051294737775663,173.1055112740068,0.0021648169976237,1.2507967814498804,0.2887363221253445,-197.39581542958237,1.3680759315676991,13.48579785248288,-0.0276153368540229,-0.0223181659361541,0.1678329497733341,-145.85908491003363,14.413232954161554,36.33571709133894,0.4528361383048125,0.3726953397994869,0.6032292748181449
0.92,-41.61601373085404,59.27963539516659,192.06195177186564,0.1952938554994768,0.8862757296422177,0.0476780798617348,-39.91361070645739,25.262847292182,173.0473901969451,0.0256220838181276,1.040653848426646,0.1783603881518878,-197.2754637488048,1.5379313253092954,13.613913409623422,-0.1405603370757411,0.0076870731285716,0.011147200849465,-146.33479481057373,14.317003900485735,36.50116135276352,0.0675596382638419,0.5839892547112522,0.6249525493073699
0.93,-41.87396406941846,58.3156267358194,192.02813542907344,0.0562259107155516,0.7183312207755653,0.0821551225652264,-39.97558104170333,23.65118250196311,172.88389646869945,0.1138670663287769,1.360406455343838,0.3245920049514074,-197.47468949368496,1.6719714105583,13.519569237621226,-0.045429046785008,-0.0638142545255632,0.2646437800926418,-147.20737196517655,14.161065865576957,37.07320167010109,0.2025927653296599,0.4217706483184152,0.9652859586773408
0.94,-41.8139253129956,58.01877864211466,192.055618317086,0.071600567982509,0.8607458783735114,0.1598836921178596,-40.129652215462485,22.640701296094704,173.00383946716522,0.148465742754307,0.8068894561826043,0.229463499160559,-197.96954854501192,1.8516516234360303,13.47948694798879,0.067041890521331,-0.1891865955345966,0.7365372927914424,-148.27719875885225,14.122388255538707,37.672901693557534,0.4161121178919675,0.405857921562947,0.7580912818692197
0.95,-42.078288643502844,57.38234469958668,192.22858734801437,0.0709468502579409,0.8468544109922258,-0.0660880603857543,-40.16817229820706,21.972103998010542,172.97529101862284,-0.0219521605524377,0.5702895379743782,0.041157474344958,-198.8820517182602,1.899940151661504,13.28780965804514,0.0508485896055247,0.0019018094707834,0.5782179757899001,-149.0022512018069,14.13106549222388,38.111376321192594,0.2091818306786283,0.4660635349178839,0.5107576765379666
0.96,-42.1992575079275,56.390395494366416,192.3942938216955,0.0537449969522325,0.6618913294321233,0.090523606294846,-40.371189117452616,21.026917931931735,173.00415493192045,-0.0205400535918878,0.862197577094926,0.0580881180231427,-199.1615429177298,2.0240024430303887,13.577813709235688,0.0984059367675245,-0.0015583959751562,0.1495687586101739,-149.7273795470357,14.098176166482622,38.61482955642624,0.4599887956343865,0.5539835671752613,0.7939087749482661
0.97,-42.55020521036835,55.63293016572831,192.22656357468588,-0.0998229554619501,0.8331874895919911,-0.0560474813029027,-40.45867817893947,20.070411570199,173.24592771296955,0.184050804636714,0.8346140362141821,0.1953851044414408,-199.09502501958087,2.135663341825689,13.4900474695527,0.0433647980156746,0.0794189501323283,-0.0106146097603047,-150.12403746559136,14.360012582709093,38.9144160895052,0.197023467097197,0.4702585750977055,0.1546913212683816
0.98,-42.75976758232251,54.75385358318033,192.0555022272375,0.1516584313880047,0.7180184194087325,-0.1832007747623837,-40.42145644606058,19.197456411418266,173.39813276041374,-0.121458978737121,0.909036993077215,-0.0081008638641484,-199.60515698364745,2.048781686421796,13.379882709456457,0.0128537531889553,-0.0433933973484419,0.1680989298505159,-150.0490042342487,14.733910359261774,39.45141291180577,0.2976298720893047,0.1933156982319738,0.2391145714849961
0.99,-42.87854301674099,54.32858415616187,192.03897319336545,0.0081036372554224,0.3394823842144995,0.1108121682380198,-40.58560354009439,18.399920608824743,173.32047727816723,0.079140876978467,0.6902061629565365,0.3107079228641373,-199.6251231955713,2.0913033274629207,13.290941301982112,0.1232024409425882,0.1422878725993142,0.3573978020057708,-149.99555594203431,15.079337304769949,39.83220103546584,0.3213037032655883,0.245398747940507,0.224442736501467
1.0,-43.01271655573041,53.71338595648272,192.0565969674847,-0.1701955789358235,0.5835400961721832,0.1095783971686572,-40.75412681456896,17.772889984646035,173.1219145423028,0.2481318187073282,0.7658620369495354,0.3807114413348504,-200.0169231122996,2.0874767890113297,13.403648730005868,0.0813161475328423,0.1556174936656273,0.4584239212907879,-149.71118229865826,15.155901402714887,40.27999262634212,0.3580015017941382,0.1023757854748399,0.1887829494794469
1.01,-42.87198932788314,53.08374188632622,192.29810278639175,0.1553959677526622,0.6693523240374197,0.0046773627178706,-40.77129909032396,16.966735562353488,173.37645842043676,-0.1336080612795465,0.5596324841452853,0.1131659198848291,-200.67853651632137,2.0474707196501885,13.078251357421214,-0.0643312892418509,0.3475777375627464,0.3228288334912214,-149.61301627247997,15.49668764538982,40.84831526271584,0.3894262521949835,0.2237329832158804,0.2185756410179202
1.02,-42.99297107057676,52.32457586342944,192.41983918050948,-0.0624785998469757,0.5838589130308716,0.1532146165634753,-40.73444699892456,16.4569566976644,173.2906066842828,0.0467472720248417,0.2134497822233569,0.1549081493015308,-200.9640634794764,1.8885044543204896,13.025019632550377,-0.0794370581915148,0.092062200943876,0.190785804853288,-149.62155380592765,15.38975401414486,41.215973191196326,0.3126239145478988,-0.1030671820251459,0.208922712201777
1.03,-42.76747798017258,51.67987691512655,192.7037516044428,-0.0255908294763811,0.6670771135111163,0.1764763043286517,-40.76335816747523,15.974160999529644,173.31010780718316,0.0081170049133995,0.5414186051383135,0.1966630585454352,-201.3416367596754,1.5772789107022938,13.137959430458938,0.083618796173068,0.3508202333776221,0.3096915681949751,-149.12952353532157,15.696796853083876,41.66250954952923,0.3129052624112722,-0.0047929632873131,0.3760773155744508
1.04,-42.85072060999869,51.310547411466985,192.62918340287737,0.1014995188803309,0.3150628959404104,0.0971817952292515,-41.15491780955607,15.527726729363318,173.25378385563704,-0.0451355283735128,0.4749787065422782,0.1721116065542393,-201.7720713772728,1.705421828988152,13.18545277670406,0.1186976683958182,0.2750463421548497,0.4069339075216884,-148.744417159903,15.595239346517808,41.7726297278308,0.30130217353888,0.1656396865723176,0.3858096220261452
1.05,-43.14915449218816,51.18547808126289,192.6225515967976,-0.1554189923431311,0.4696709656037011,0.0889131550341126,-40.920791268891136,15.356744772841283,173.0442719171911,0.1182506052670276,0.6642706256775881,0.0688777814077686,-201.9795033270545,1.484722344799116,13.168932569832204,0.1243450547464709,0.0564494547585302,0.3346521124011469,-148.62356091365024,15.60537445057237,41.84735532041304,0.3936264232747011,0.113350784976839,0.5025592429702519
1.06,-43.20676212249224,50.7604265726844,192.839543907194,0.0719192773166306,0.2886018098120583,0.0396846007874663,-41.089874710498734,14.86436117107625,173.31040023051102,0.3210576231640503,0.3909160967493949,0.1024402637608254,-202.03408512794903,1.6895982981180355,12.946527336595995,0.139582487472136,0.1949626819931642,0.1053400913500335,-147.81224074592453,16.084638349302814,41.93786275776496,0.274389691528271,-0.0035862861474372,0.7807591902272462
1.07,-43.46019991554617,50.45551322883812,192.7160007257372,0.0963974106111687,0.3361122501403406,-0.2295631612650942,-41.45227384862969,14.485827267230864,173.50594220416534,0.1410433261056821,0.4729158177353871,0.3991675581573711,-202.37524906432523,1.5655947239324868,13.23808113979367,0.101212842973335,0.0730442717820807,0.0353065389071461,-147.93416069962473,16.461610929482703,42.26311687608067,0.1212981866968586,0.3523198622707847,0.1845738204447381
1.08,-43.27157403124686,50.1881263285708,192.549481192232,0.0350619884979419,0.310569840998612,0.0876958714676805,-41.10767347680711,13.72071277129014,173.78773810776838,-0.0099143182192619,0.377112195590866,0.1884414908680954,-202.0172580027335,1.596500158864514,13.008583522888571,-0.0633765722836983,-0.1466916185065211,0.2299719866115929,-148.92091387448403,16.12524547958131,42.74391494134581,0.4548267046494584,0.4067173904202014,1.0540868594232875
1.09,-43.60881822644036,49.55955225879894,192.78856782545176,-0.1565781502861043,0.5162289382288772,0.1015256172032439,-41.52838905362569,13.598273453657589,173.81042671693805,0.1607202378958935,0.411111773563528,-0.0024148939812907,-201.6372248324203,1.340881005181755,13.101842496320987,0.0994540807579455,0.0848589056695084,0.3739506829481762,-150.1836627942896,15.353759317918076,43.73709671763974,0.551125339023653,0.3665502664798781,1.1769257705483769
1.1,-43.23756354109083,49.22639656033056,192.91950190470115,0.0610080882814197,0.4279904919683064,-0.0196528739469906,-41.51973701430392,13.119554202734305,173.57887027427662,0.0159000659873587,0.3341275400358906,-0.0254296083378553,-201.408626799412,1.450625665922947,13.193718951138017,0.1850719208319491,0.1291865917048257,0.3396219160845791,-151.59027958496156,14.509243221054412,44.31770660579589,0.3993654918153571,0.0981436900034153,0.8938150253997164
1.11,-43.25432874239005,48.91198819159666,192.8804672093919,0.0227995876105482,0.4563679374173702,-0.0226250538753745,-41.44607325859392,12.6931665544024,173.46910064769477,0.0811823266274916,0.4987482221646865,-0.1679830482488891,-200.7282459738739,1.6889847257546855,13.1993999760929,0.1768094107244405,0.2023806614971001,0.3846790145292413,-151.4016690397754,14.289730661288408,44.56606338561439,0.1940211288165129,0.0255304634427193,0.5148736745218092
1.12,-43.41439886744737,48.14857999471929,193.006839641893,0.1343562337986017,0.4109178362406777,0.0788008574437009,-41.45826686293278,12.290345366216483,173.58126292523028,-0.0944074451481182,0.4081298349278868,-0.1146323821178678,-200.7566194513445,1.4862689553984394,13.137429776102673,0.1909360687533038,0.1005410617509006,0.353763704384037,-150.57619129049772,15.001279833872069,44.69942063727661,0.318835500022524,0.1106324091517396,1.035988278358413
1.13,-43.6995277925208,47.68458509761911,192.95733561268645,0.1263948894821566,0.3232964071527127,0.0469716993208336,-41.46803741103124,11.853695150263484,173.56502033629562,0.0189886174782447,0.3012222993935917,0.2082883744078771,-200.1692527261388,1.6899854008534043,13.301133727745537,0.0416019109007123,0.316756148643143,0.2307893523895791,-150.19412362006295,15.480608259498048,44.929247881964,0.4013385784787836,0.4911996726528173,-0.0101789418763731
1.14,-43.6256698164478,47.31326193331125,193.0114948628523,-0.0314718704741424,0.1628386080331684,0.1329256610677084,-41.4361467449901,11.637314641981082,173.40154773932326,0.1139844246463467,0.5162558160528203,0.0328378839816871,-199.82069676942945,1.5844910126906264,13.470225344096995,0.098880795902603,-0.1555573725623202,0.4250062910220684,-150.31649576340493,15.569689179587678,45.48635862617869,0.6731222402742173,0.3886138703863172,0.6460432781702571
1.15,-43.684715621640464,47.1458537759608,192.87886886138665,0.0606163776473748,0.0839658890019335,0.0265320782711385,-41.669742935267614,11.18751684024766,173.66465798992422,0.2215389542630176,0.1269194672516521,-0.087658718189532,-200.57627042106452,1.6992745384965766,13.412939229782635,0.0789858841103072,0.095109287919671,0.9745568888229014,-151.28823536531257,15.417123072987422,46.923462797821166,1.1013197961240704,0.4992869132001635,0.6064704877929867
1.16,-43.22937457948758,46.9939080066011,193.06633368316,-0.0232330124541839,0.1838289757555183,-0.0408065238450908,-41.72694268369098,11.04888812965672,173.83442284907272,0.0681970726632699,0.2863276675876229,0.1017836211023252,-201.6026887892908,1.8947352069704515,13.067312241494658,0.1351941387297618,0.1688621552540623,0.7079698898727071,-152.15395876669274,15.47783134891703,48.06970471840083,0.7294595914070389,0.4923197385668406,0.7264079720131601
1.17,-43.59939824461829,46.70782353347768,193.1675965661541,-0.0381020882260332,0.2055548882407095,-0.0824302220356217,-41.88053764964184,10.904612145151122,173.67226563235565,0.0729044020569845,0.2177979803644317,0.2225612597773683,-201.7717961846296,1.8884319146838129,12.864469240979194,0.1608129528681097,0.0156192122762036,0.6833592091870975,-152.6815384065957,15.43957667844608,48.48228189980922,0.7334214670131342,0.7332383154338858,0.6905250795405012
1.18,-43.4567812388011,46.5452547906589,193.15628039230103,0.1369604877069971,0.2209346108617489,-0.0477265257973991,-41.84009131901048,10.691247478050302,173.6991039631142,-0.0078132723383506,0.2243140876071428,0.1373314135559654,-201.80453043488424,2.2405224246817594,12.60766944285819,0.3302153571946786,-0.0660128843890993,0.6663157572900457,-153.14268411662405,15.408380965442907,49.26862629160133,0.6683473857705446,0.8895714371594204,0.6954252181210072
1.19,-43.76700583763543,46.58992769974626,192.9837546842861,0.2184696064317432,0.3213216838412166,0.0539060502782707,-42.03577141176718,10.686383533694851,173.63806379257804,0.0904023906882851,0.3726895133859404,0.0023104278963245,-201.89083630334028,2.162090928098934,12.59930224856618,0.2525458011840062,-0.049574173496095,0.5617624320039826,-154.20504654039328,15.325720141303613,50.07199335123262,0.4846535875629591,0.7216080012553578,0.7212823119887397
1.2,-44.08316989031417,46.48581624721987,192.84921154950504,0.0018568696596252,0.3127017643818762,0.1172217471581587,-42.356580021894736,10.23909704363612,173.78741678538958,0.2677510453853727,0.2422852452227435,0.1418428036378088,-201.50833188541844,2.220312614467088,12.113819725521704,0.4115324403171821,0.2346746933866575,0.1111313937358735,-155.5065467027797,14.925072451834737,51.137571823661176,0.6917882242555161,0.7143597740741762,0.9637976765207644
1.21,-44.19030482242434,46.16249437952352,192.67961743942,0.1641356149556855,0.330836475107952,0.0142135970893131,-42.148081149688096,9.942801432324623,174.28680122060314,0.3048255230221542,0.4444459586958841,0.2045182530261734,-201.8635837113895,2.350631647114543,11.863099109061425,0.1783901678082117,-0.0872873045814973,0.742592159805323,-156.43124116925088,14.652668695768948,52.06640943220041,0.5129064867096644,0.5640373807353286,0.7720325862351816
1.22,-43.69276011935813,46.158759446696415,192.7394240426972,0.1606615679299657,0.2928493537417099,-0.1074634674632957,-42.29536449837136,9.731559780479872,174.15506580839912,0.1833702597735068,0.3858732292137822,0.1808618877692481,-202.16151509966107,2.409969912894782,11.615301834731236,0.0366978092949174,0.1451717799767461,0.9917550396007024,-157.14985229314817,14.612379223673992,53.002672727974456,0.4520531409052237,0.5795094634064369,0.5730026948376514
1.23,-43.60734630981183,45.983013505785934,192.99798009265064,0.0702897244257698,0.0972388274787757,-0.0026254963010082,-42.205040802252974,9.144613508916107,174.22025784872548,0.1122798022648683,0.3208470999120966,0.1881062516447669,-203.525755749074,3.0461092595132837,11.616349294081644,-0.1351045559614953,0.1364673667100427,1.1634156786485126,-156.86043265662275,15.428233692954391,53.51549106972336,0.359630381801885,0.5965138564509984,0.5448666874702092
1.24,-43.60416138380711,45.7823970180195,193.0373628338633,0.0655862704573467,0.0347650276814541,-0.1523334651314663,-42.40700650535128,8.839903510828103,174.14938400693805,0.0906634477110403,-0.0584343174362551,0.0216017675478948,-204.5519269124589,3.437998234783388,11.328792027047337,-0.0440627734356564,0.5180847793663933,0.6516237976644359,-156.5781336473151,15.920882066948112,53.980419952274566,0.421438962791118,0.4235615124842785,0.090235471908431
1.25,-43.299139179078026,45.81272718378392,193.12443789722383,0.1091088624562673,-0.0086915600222182,0.1572859929631671,-42.372117967877024,8.869865050538756,174.1422835739275,0.145401587358066,-0.0603959867585536,-0.0807741830382366,-205.5041789294388,3.875187553445068,11.141863171378327,0.4266919424164275,0.2660518626954598,0.5060746511715439,-156.6125577644168,16.019256387637082,54.42401863273097,0.172868648880736,0.1680279694983465,0.2819070961771404
1.26,-43.466778450156326,45.61608689548679,193.0751144839032,0.0229288345327387,-0.0693186248036297,-0.0163183664402363,-42.40778888980008,8.756215602287718,173.86289636059314,0.153411929423029,0.2328471780920441,0.123253447220483,-205.64229275686455,4.309203610067193,10.818716959368489,0.2882067767317242,0.4167161040494394,0.3114262575142543,-156.35992220383423,16.761597428853232,54.60364319244679,0.2218610187782068,0.4057551068251911,0.5150145800228962
1.27,-43.36940642402599,45.64216281464748,192.88665675078877,0.0874387955011407,0.090291160345725,-0.0410239986795562,-42.636905074340845,8.695044541787826,173.74767143425288,0.197927984842453,0.2855858629373505,-0.0528937069183011,-205.9896169491321,4.752122510478486,10.718505209999549,0.057531325710161,0.1598191573555236,0.5142443635077896,-155.96405273220677,17.546431850389176,54.99998888088199,0.1931988556526568,0.3383251124951018,0.677527507686156
1.28,-43.054906237067485,45.8559375950102,193.3552262640904,0.0408120123782723,0.0109996641137545,-0.0560204587590431,-42.51555251145189,8.549832041748868,173.3392413617157,0.1843877340794464,0.0838571931005501,0.0874977372193312,-206.44558878454183,4.989183029706476,10.83237759254089,-0.0857084732121353,0.1733922713555039,0.2930287349915019,-155.55122223953458,18.126640321838693,55.02007170207408,0.2348027423608676,0.2842598205234458,0.5158163455329753
1.29,-42.82940100812935,46.00299152535509,193.18766485471187,-0.0382388778214951,0.0473907881363399,0.0378103834625615,-42.45357216406296,8.473805524308636,173.34708852195263,0.3163522336207848,-0.0485730004238651,0.1449635826065422,-206.57452436791624,5.118036698011647,10.985016256348958,0.1103856142211312,0.2746175303945848,0.1192219562598375,-154.96269564414962,18.523000421027074,55.16782355707542,0.1056292460801605,-0.1213942449593469,0.3708212522390356
1.3,-42.95678138424661,46.148254496519925,193.2406043422113,0.2463751832183746,0.0783202841191646,-0.0758634769664502,-42.37771361849107,8.33655719359891,173.02634138977675,0.2410450808334947,0.1142782921330317,-0.184036950272993,-206.4680993558208,5.356891618566351,10.78297220529124,0.1867750275428772,0.1837054889017046,0.1367060568631333,-154.67439267687547,18.70832570713827,55.02973787435023,0.1392773379046398,0.1592079983055906,0.5966372086052804
1.31,-42.606541676984136,45.99667891118529,193.09212788289503,0.0555441223506401,0.1162466764818646,-0.0556056714103636,-42.28487475402137,8.169928967853377,173.04594272925675,0.325841601126813,0.0177147720303567,0.0816805316241114,-206.6308708036604,5.406876072881776,10.715545370052467,0.2096149755098474,0.1563072604151179,0.080022339622314,-154.4336372091754,18.9517789352412,55.00887225977429,-0.1102510332570552,0.0305318450201296,0.7055029633090493
1.32,-42.255468066587,46.281407048859165,193.29327677247736,0.1351385442996254,-0.0100509794662688,0.1167329376927569,-42.11539996718408,8.59923505582528,172.61394432552817,-0.0004970355443826,0.0964501560668872,-0.0105495844548619,-206.76988404528512,5.60601999771099,10.692214876738378,0.126944354584958,0.1009104768844412,0.1372408918727342,-153.38778102926412,19.561015291962363,55.024357745925,0.0159140913384885,0.1283513836358979,0.6584258365566144
1.33,-42.53707681003292,46.38567915305466,193.26219122029244,0.0905416208890165,0.059946947638047,-0.0417234607606924,-42.15143409909775,8.448434243829823,172.84683580107392,0.1208450967468845,-0.0121577607962566,0.1380663512802545,-206.87584508564825,5.610694185314842,10.877274299173727,0.1616735696856902,0.211171832452247,0.3413924499579865,-152.91804159280136,20.19929260962086,54.99821916162973,0.073676703914457,0.1217670086587423,0.6416783057034439
1.34,-42.29270794579109,46.458549850805326,193.25677924371325,-0.0164552924001201,0.1855111882460596,0.2247636714302998,-42.12679409005133,8.564532730226206,173.0806897106718,0.1274291877295743,-0.0265118556726222,0.1653743804899395,-207.03200190873815,5.867178911518695,11.20618599322755,0.0984743178657052,0.1115598917648436,0.0870468029668082,-152.05282006301954,20.84433527020578,55.20748434528679,0.1201680547518537,-0.0306307682152551,0.4343099331727194
1.35,-42.46053646487167,46.32181293151336,193.23495139211465,0.0850151543361484,0.0787158597067042,0.0055058064317473,-41.97529346997672,8.510379862989135,172.80741645579084,0.0533878497554431,0.2308596298435847,0.073452223337664,-207.02902536165308,6.080024408992744,11.364613012188194,0.246357388328626,-0.0008532579678608,-0.1029473879988694,-151.77871245378796,20.78922672060912,55.3642935987968,0.1188426907307013,-0.0473284773120395,0.0884406882582886
1.36,-42.579527037994886,46.81779206394949,193.19564573541152,-0.0509798741582697,0.1311778531739183,0.0332380422274182,-42.185065456394106,8.388938083144565,172.70291013711986,0.0877756020419238,0.2814333455967099,0.0690319726835538,-207.3645175043301,5.88085241205546,11.509124981797967,0.1479740851974113,-0.0233235649890917,-0.0714747103124691,-151.31630229952887,21.00588878225394,55.30581464869449,0.3847953306478247,0.1769552188016425,0.3550982722118763
1.37,-42.33272140467395,46.96623820637143,193.25084608252132,0.2153837932538764,0.0061452993662565,0.0181830174607408,-41.88931632630348,8.159419434243038,172.74424960172172,0.0778342241863131,0.2546103036035514,0.0477253512952295,-207.0822180953979,5.997917182166521,11.834043937989104,0.0224558563668452,-0.1049716750599406,0.0006733365906854,-151.01005881058543,20.96236590410203,55.26999679801914,0.1785066375979296,0.3879703428015933,0.8561579237232102
1.38,-42.31146835988475,47.21779007735529,193.17651320680025,-0.1592721774114514,-0.0580499412499605,0.0050607372433219,-41.986591541279545,7.969182166978872,172.9000236896276,-0.1348170740621362,0.0858647392889588,0.0435736336778927,-207.14519242508243,5.929223123204283,11.668239599075411,0.0477885847762356,-0.0505696697225139,0.0816955809433272,-149.7731360812804,22.16326925859805,55.20329056053545,0.2451882574894165,0.0439069927313151,0.9351693809726626
1.39,-42.51166601602549,47.31916759459365,193.197241639574,-0.0650294851935276,0.0366198209441914,0.0616618340560282,-41.846754739416994,7.550752233586115,173.11879621619428,0.0301475195959968,-0.0460056050874019,0.0375401474770155,-206.9839051848972,6.128267209214805,11.719217325971435,0.3240240988158984,-0.085450319129309,0.1293401128737931,-150.00939932716167,21.635688746153257,55.40610490024504,0.0726208099191424,0.1854675117358103,0.893301162397816
1.4,-42.61409534997753,47.2640697653554,193.1614793030118,0.0136742275290965,0.0023205890935845,-0.1798743699640801,-41.90888390357644,7.444935115233234,172.8836421427991,0.0328857819838165,0.1844800914878795,-0.0483714859498376,-206.78265795787053,6.034279644680182,11.786450457709057,0.2240755446121058,-0.0075137369017835,0.2025478708730789,-150.35378916263883,21.29265794106808,55.91373980415579,0.3376813100206342,0.2780280222135591,0.3927086822094802
1.41,-42.40899378912799,47.26824077735255,193.21070416156184,-0.0473771480949205,0.006681658649719,0.1533033510202276,-41.920616843912,7.400488335744719,173.09157358896175,0.0120673670895065,0.1579243712223621,-0.1123367970152188,-206.93629713745116,6.037405154413295,11.408108053673924,0.2947443722352267,0.1133379453671736,-0.0358879742071863,-150.14057101659623,21.32795914116531,55.94848210130187,-0.0320392167096845,0.4192944828451149,0.4407569433719144
1.42,-42.27760498188864,47.50221435845472,193.47665022955653,0.0038170018281307,0.281843497187153,0.1821801593666435,-41.69410208361386,7.130849897258665,173.03305737074123,0.0735287709757025,0.1933564450216121,-0.015832172827685,-206.6570228805676,5.993229907975152,11.298141453869029,0.2051208148652952,-0.2170460154045518,0.2882574247869187,-149.34994733351843,21.60779120439913,55.683583481660094,0.0314026173799256,0.4209285602208296,0.5695145771321402
1.43,-42.09985465203243,47.65625833385918,193.35681709218667,0.0185754194659681,0.1303417620506569,0.1353551779712934,-41.86345760757549,7.17259195923925,173.21444197336544,0.2960925117927651,0.1157445274175181,0.0035130143335689,-206.475403368038,6.145926894846416,11.089461287912629,0.1805529150308449,0.039067333284965,0.0493061797109882,-149.2618836060685,21.554932467874583,55.6154633948862,-0.0512399944345533,0.1801189214785124,0.4920179301165489
1.44,-42.017547409854885,47.37454344148118,193.27745785525843,0.0668490816037122,0.0572218197583382,-0.0396362642950724,-41.850686439664806,7.305962043870594,173.2616740864818,0.1256392132420292,-0.003434540226232,0.0901667235780603,-206.23606256849587,5.98843407010001,10.652413032647926,0.2616191481538225,0.0866723974171968,0.2093668049444449,-148.72025791336085,21.89305245217321,55.52018762161413,0.1501449259741927,0.1581041297557482,0.1918490708963285
1.45,-42.42365197147235,47.52801753615906,193.2889436314822,0.127680460937183,0.0042231313935701,-0.060331135138194,-41.89653133096545,7.373891223414625,173.5923636785512,0.2443745680015009,-0.2102017601540811,-0.0439642036447602,-206.1363091350741,6.080782382073852,10.217236548532576,0.5842274211385516,0.109752560417716,0.14561715636592,-148.52772834068827,21.5420721008095,55.797797198192406,0.2626956459387585,0.2554033989367537,0.5082183377199202
1.46,-42.333929706732576,47.42136506802832,193.07239861146724,-0.0238260365922312,0.0831758845688606,0.0401032803694749,-41.79689240416538,7.175759604852997,173.54674702308984,-0.1247400483060005,0.0687699654316813,0.0656639849885847,-206.0110342445352,5.885333556793716,9.997153501471551,0.4511918659274327,0.0988406281300127,-0.084299587321284,-149.07184093673786,21.233220815348204,56.15816313103404,0.1002031493358278,0.3351080838800718,0.257797717993798
1.47,-42.40814070771934,47.58582454329937,193.02715116368745,0.0301617799060528,0.0374839705886489,-0.1958703369278746,-41.84715392126253,6.960155786828008,173.53886656304252,0.0776726450787426,0.0331404225619153,0.1831099295660738,-205.8423273088748,5.9896367514059365,9.82894762126373,0.3490887240347403,-0.0743502468760071,0.3047834138857934,-148.7167471011058,21.466607094662532,56.16572635527347,0.2816032043876617,0.1002235845443159,0.2119166580855574
1.48,-42.31985502150852,47.76678563681035,193.0592715255203,0.0114838537153342,0.0882783545675143,-0.1584999334528332,-41.72149236112479,6.948802316570663,173.6519401073916,-0.0098350169266479,-0.0324488598933329,0.0239338467704186,-205.5085773289977,6.113101826055135,9.40066979189108,0.2959700342180005,-0.093234033000861,0.2103467407930205,-148.73561581319532,21.24397228278155,56.644896869563766,0.4519556017760838,0.3434997264426356,-0.2394720963484211
1.49,-42.56299245193372,47.857226775906064,193.02949366463048,0.2152006090184248,0.0171704995985891,0.0405756013220941,-41.90583889758017,7.089947804531957,173.76154103030953,0.286500911705128,0.0122088629462802,0.2104171419487009,-205.28377101831896,5.834714635011602,8.835267048578599,0.2855676351869194,0.2330228217735716,0.4663451642893216,-149.03421133344034,21.49137002718393,56.73471651372283,0.1966813634845644,-0.0844509014891926,0.2141786651898973
1.5,-42.33197017669891,48.11823929474887,193.0460072124424,0.0658431215071913,0.4463856632647413,-0.2051232518698904,-41.861722664310825,6.95447159657485,173.8363246805904,0.1567660412986034,0.0899582354976181,-0.1158777089613039,-204.4185783883066,5.758125883707165,8.357671284839137,0.4972863127680411,0.2289017444596903,0.7582114100223407,-149.37760274539315,21.39816081904257,57.22332027949658,-0.044281327149456,0.2666349319104005,0.3317778099767882
1.51,-42.82631191435773,48.4169015803602,192.9480502606989,-0.0208151395391879,0.2013498196394135,-0.153181014919834,-41.69153026099426,6.899172828482813,173.48919800779464,0.0345460945598902,0.2775718242698022,0.254848818092734,-204.0360159460732,5.389385635955969,8.159367207385053,0.455828495841257,0.1100441327780465,0.2914860497787243,-149.65354310166845,21.182478256259408,57.46323372309632,0.1111219008491384,0.068477612402761,0.397496879107796
1.52,-42.53419947309055,48.683744055132266,192.90358831334552,0.2404528244867071,0.1620979643549117,-0.0040647431427926,-41.57088264688811,7.116683297029742,173.8085816688025,-0.0250193089233258,0.256336100870851,0.0432444086916211,-203.75756639017837,5.445364456863191,7.788847260165548,0.2947830778894461,-0.202325664360018,0.2529470927378682,-149.8989264136206,20.456451394121576,57.64707646396654,0.1268675677291128,0.1945922650519991,-0.0678045800308664
1.53,-42.435266277509015,48.76458437748491,192.95141880673367,0.0781706874123353,0.2486161338113857,-0.0594040000369356,-41.67694525142594,7.14945063830229,173.87034459591675,0.1672292931390112,0.0378439918589971,0.133159044811044,-203.5224607679509,5.231195830565726,7.374923944627567,0.5102560825548361,0.0052509910246481,0.158762548988923,-149.68861432483993,20.752046613782863,57.89722733379519,0.2027627583439369,0.3795136551758195,0.3135767928957089
1.54,-42.19597922193995,49.23160914944409,193.0735953677085,0.0264715525490998,0.3083382684893163,-0.0870507392903718,-41.885384875012335,7.557955916259933,173.6333380386517,-0.0897462130201145,0.2312315100364856,-0.0040826773531305,-203.4816878817525,5.442237741588719,7.0024212069596565,0.4693906508145178,0.0532658159361809,-0.0110165442897033,-149.26253279183285,20.45543876720137,58.0597587080117,0.466331067931483,0.0974801738184483,0.1760569323776552
1.55,-42.29644876898914,49.480360451177496,192.8392176146692,0.0607508368145508,0.1316594788713985,-0.0829942018008644,-41.488815967404,7.89188561343378,173.77681832865224,0.1490510896211343,0.3449992732326468,0.1897670768987929,-203.4613114276401,5.599295410032093,6.315875434558284,0.2626240132544165,-0.0255440499967328,0.1511769020814214,-149.19406306937657,20.27893617352856,58.42850941713492,0.3350334752168401,0.1426803311875056,0.288284386104476
1.56,-42.370620449012286,49.505439213478525,192.8206163186088,0.0243897081122649,0.4169899202145506,-0.190177367593969,-41.413174180935535,7.972717477743608,173.6429096677618,0.0824587332948004,0.1284651005961077,0.0621435725951091,-203.54355181296717,5.67969130870435,6.233955792613581,0.2878324828816831,-0.1284190900788769,0.2877051239943386,-149.33064799597597,20.04729595746308,58.671892634049726,0.2688771675835861,0.0775950523321028,0.1745247599442629
1.57,-42.334554684294325,49.73422041583151,192.68859063291345,-0.0456260627141383,0.025694528759911,-0.1518463379994511,-41.272901323516926,8.030240844544204,173.67000125246838,-0.0688074889748649,0.1903444850827216,0.0975912690889047,-203.8936335813516,5.670804125684861,5.968023014333235,0.3022353039069718,-0.1560671004722851,0.4007718578252121,-149.24680342138927,19.98190095899765,58.71049728570904,0.1701405797735217,0.2886112721959668,-0.0967012350705026
1.58,-42.527438528481056,50.07318243817791,192.5458533603423,0.1889400037998421,0.2449780528022515,0.1226248154174608,-41.132796904105845,8.52460987072212,173.49232400417236,-0.2105343611458026,0.3240539597885778,0.0080799896501201,-204.2926847064502,5.400946689226714,5.750206145415703,0.281991104181494,0.11751709226599,0.3249659245214162,-148.5387057978297,20.55233183492369,59.187127400770606,0.6183869754285878,-0.0326617277399052,0.5001314516103731
1.59,-42.860162311512624,50.5533340611205,192.3358287147622,0.1171237436813261,0.1337788474582324,0.0187656351241598,-41.196708442739016,8.84793605202535,173.8385751567378,-0.0653769827549558,0.5144454133656928,0.2368089727276113,-204.73884518450168,5.0603017201582,4.972621736330574,0.3224056539504522,0.262673775476002,0.208696024810989,-148.2780883342257,20.728360020172268,59.74374140673542,0.4848936422192579,0.0655527778503161,0.4168020713935729
1.6,-43.07018106464828,50.66953164031442,192.29034517309523,-0.0124918210448872,0.6551966127754426,0.04619741923735,-41.01465082046127,9.208679344364755,173.56834861625268,0.0451147428670553,0.4455880809120507,0.1129263594401694,-204.32232181776843,4.98493530780747,4.776899346663886,0.6211338228237873,0.3779233017982659,0.6159961311261122,-147.83724803467516,20.94830405381701,60.35306929952456,0.7523532435633608,0.0656056721223719,0.530398445486469
1.61,-42.92204220598966,51.52419730643233,192.23473383571093,0.0052000295497243,0.3537901647750483,0.002356896186199,-40.9277397445877,9.770825680007158,173.4860736489389,0.0485804691558636,0.512390239140201,0.1029636844591241,-203.60039775016048,4.444026975072219,4.1307454394159,0.4616802228346739,0.0580222283687416,0.6838142500186118,-148.68074606728635,20.262389483955804,61.04020148936323,0.6723382034518821,-0.0021333518319611,0.6463614298604128
1.62,-42.660416575510666,52.01329191168434,192.09168201227843,-0.0534123296747451,0.6358760153850622,0.1248923037960055,-40.83486042670462,10.25247962718889,173.56744476696554,-0.0020093512769619,0.7501581541166502,-0.0727941372650742,-202.58369510762,4.681404349674949,3.4290260171452647,0.6893476759707187,-0.0341277816783859,0.7415109034601426,-148.47586256796183,20.30679958874178,61.6936572979282,0.4792628105596951,0.0305619074406866,0.0428544211297798
1.63,-42.758801516195646,52.579504005857984,192.04291620196065,0.1290589254681101,0.3627826117674503,0.1129880632398421,-40.85183039959761,11.278782406474113,173.60842946514893,0.0173496280848499,0.9200715736023796,0.0173166001061907,-202.0470663304863,4.460911027742378,2.617764711746859,0.6244685456840218,0.081019472064853,0.4330026628634215,-147.90162562034394,20.97889456988169,61.925371254835895,0.4443538484809479,-0.1061864803691859,0.5385581857322946
1.64,-42.753633012632775,53.35125840612135,191.7032461988674,0.1602418228595932,0.6469696204260837,-0.0044938710423504,-40.81994582328461,12.369492454178836,173.65856708314786,-0.0245759553420269,0.8208081007568356,0.1640308532540326,-201.5411366729691,4.055506331518096,2.3223576691326344,0.4860810486815015,0.2200532355320902,0.1382310325672903,-148.0637694536583,21.024572374083185,63.04218253971471,0.8181143973800729,0.4314993089826835,0.3754394906604065
1.65,-42.802727978627885,53.95128507804738,191.5660367574028,0.0803697412185548,0.7310378909870421,0.0197917611620334,-40.3694091979683,13.399184186097926,173.71425841918747,-0.088986353395719,0.8775378491040917,0.2302145516039531,-201.81661645475145,3.934089453957296,1.9081099615266,0.4668035270031551,0.2872121746128849,0.1220282634337915,-148.5365987715734,20.37942996803317,64.29809601792515,0.8698519795809804,-0.0193874907558658,0.8356338793091095
1.66,-42.93778467213627,54.76709863374977,191.42434603703475,-0.0761389816272523,0.8203612715627115,-0.0286117194802448,-40.22419974491734,14.25437219551882,173.92270955223216,-0.0390266203777878,0.8219300527490451,0.3556715844900918,-201.4778314227492,3.9313513574729457,1.8733306607070237,0.3564617776356649,0.0197106499435658,-0.0403025326010243,-148.5002685097242,20.604160381375777,64.95039177478476,0.681884713978703,0.1878248412395423,0.4170967208637984
1.67,-43.079697904461625,55.55051527117813,191.0971532409015,0.1497126146607326,0.6943421291637357,0.1944723522126638,-40.16403750039955,15.161408530796322,173.69750523632942,-0.1144223126986488,1.023788937121222,0.2648144394795231,-201.57660603632183,3.6343610278156127,1.4705093758006345,0.2178936774163328,-0.0041813522579321,0.0466235714893358,-147.258556413875,21.55256007890297,65.28582701954242,0.6958758217655169,0.3397851395878004,0.9230146864175496
1.68,-43.29679063110584,56.22752978476491,190.69455378898715,0.1011015053717812,0.8715376066586651,-0.0435251220432461,-39.87894664948679,16.55834519560771,173.88319408311932,-0.0067189051874248,0.9363981122982112,0.264617116540418,-201.713063042267,3.59951413856275,1.2560082431391668,0.2122511612273183,0.1497183110394457,-0.1298526331556196,-146.7541433513483,22.307998204272483,66.40828332880037,0.6998280242422471,0.4084444765908794,-0.0491556443194286
1.69,-43.40265212025533,56.964562864051686,190.6572615371985,0.0739908150218576,0.8909819180295411,0.1414122242466917,-39.83990386455282,17.002831044109637,173.74661416727403,-0.0223291916150324,1.101059257764503,0.2681360165593939,-201.50419853440272,3.476215476569949,1.202776829525157,0.2810483066118435,0.0450794377118245,0.1282230419745182,-146.77011692022157,22.10009153622511,66.79218930027815,0.4514577670516008,0.1698029503654817,0.1168568002055737
1.7,-43.460428444275,57.2117702102125,190.0471576733228,0.1135484498776098,0.9331250776831836,0.3166657434989971,-39.89253681381729,17.477980841899857,173.87151115282603,0.0597821365780417,0.9452775661815211,0.2543907428436047,-201.5331348281236,3.593388769792103,0.9029063150781056,0.179947436549105,-0.0869871066022657,0.2580042339451536,-147.30590065922038,21.80826605104944,67.29564744998733,0.7166538890348965,0.2016108941804471,0.4115511698359272
1.71,-43.75632678559138,58.47650289602986,189.89295815423085,0.0895398556379414,0.8823071023705154,-0.1395182557705657,-39.77734182247686,18.62219446176207,173.96423511732618,0.1677554017036221,1.1618374539142242,0.238791154170414,-201.5240439163192,3.3731102159069417,0.6366820327919602,0.2055149451798579,0.3656990040702977,0.2880030852065797,-147.64379828946443,21.37193245546444,68.37590119198317,0.5913589216918608,0.1212859375058751,0.7090385436551532
1.72,-43.80841536531741,59.15367852329031,189.30499778638128,0.1659188252895908,1.022309000700624,0.0656559172811199,-39.64931355600949,19.982863244197212,174.05382088557852,0.154179155205955,1.1966124772842377,0.274620923478739,-201.3873269537278,2.6612585507070268,0.5747288843975352,0.1184663437046365,0.5936156426239241,0.0298015608882282,-146.1064941345602,23.168240342409373,68.53184259211085,0.3143977040103555,0.3580886740692356,1.3562762251999538
1.73,-44.08118868717626,60.7373785849792,188.6660152788049,0.1263348761877515,1.1197211330577852,0.184825512424194,-39.485062146683504,21.488173103187307,174.17701971466815,0.0151641960000754,1.3037940331783828,0.1486478829825634,-201.3138604964853,2.4193795439059222,0.6804734830823,-0.1670221181287421,0.1401107896059203,0.1757545876101675,-145.67351156056716,23.57911143313932,68.8858763699139,0.3726829851503647,0.3200712378545808,0.0515319403561645
1.74,-44.41769666716954,61.86013106390048,188.0815814089556,0.0819867099902756,1.3662530720906063,0.233916803451588,-39.063921026318695,22.98392299649263,174.25973277637286,-0.0525449083676836,1.5235347274429132,0.2785538785215513,-201.20180860993705,2.319859130716682,0.5629796765450801,-0.0480186543263552,0.3455235375659557,0.0581493463814728,-146.49691152261897,23.272626489406843,69.83267502919604,0.5475662889625141,0.4132641161241707,0.8526757769215
1.75,-44.55714943935406,63.16030363234616,187.28432349867117,0.2154533376547064,1.4035828820850251,0.2859529713576854,-39.16106181269131,24.798214809652585,174.2854612683673,0.1862849521031769,1.4938274267130969,0.3556996456550725,-201.5210546158487,1.7813084832166357,0.7148864696830355,0.2903187086984096,0.6361647909006413,0.1731524631246432,-146.9244603132203,22.75960559828698,70.48483892184557,0.5977143221098101,0.2462970008691115,0.3579179396636794
1.76,-44.87561172087912,64.47516705249825,186.1779263629817,0.2686296572944519,1.2630788330642495,0.1210793701474996,-38.98653552635614,26.354620725254623,174.47233668681992,0.0284062641367874,1.4818016630974196,0.0588732603241985,-201.7129907779848,0.9333629673796244,1.273599042219733,0.4611007768830863,0.7052691945250106,0.2751101473278248,-146.8675077036565,22.99420293340264,71.08431526513533,0.5947939203940977,0.6008098509088466,0.779688076879224
1.77,-45.17610511793798,65.70181211133419,185.4416606327977,0.2198424643542976,1.3976620318174078,0.0328785315799701,-38.76236513183128,28.390868806913566,174.871739434081,0.2099735445244156,1.7038584755359962,0.2159581616141033,-201.7532531987081,0.6407074862135217,1.3764447100255994,0.2680207798629562,0.1857379536908228,0.3099752206918168,-145.91308157504463,24.15189050622988,71.77061710536954,0.5614779960896997,0.3788982881584639,0.9160419200334272
1.78,-45.28068267779073,67.04913142585174,184.10313745216448,0.1917966520841391,1.179559348171181,0.1964960259858519,-38.59668098569156,30.08369204405505,175.06611900453527,0.274368340716747,1.9112866114282163,0.0410093182042803,-201.66601454215692,0.7263495507345422,1.5177754559788363,0.179235433006322,0.1517502343232103,0.1345718553444644,-145.31450760457204,24.988059436402622,72.45511861793847,0.5283271124044907,0.088942635327961,0.0514869216102043
1.79,-45.606661491443056,68.4839106877862,182.87216056135637,0.3733155369718561,1.2715082648800555,0.2118948013665422,-38.54595073437782,32.25078600797816,175.23446795072616,0.1141406264456348,1.9363657788900692,0.3134344630097472,-201.128391654932,0.4352055533090848,1.4988976998972887,0.0266172708022633,0.1881087760740799,0.1708804491079655,-145.53151092286302,25.020137478328024,73.13321089270143,0.5867516388211621,0.1038461455156608,0.1230858131500604
1.8,-46.02369704417982,69.7659565859553,181.0645574732699,0.2309207141034857,1.2739983326317124,0.1198836936867207,-38.4757015989598,34.342884122796946,175.22854824353976,0.0112795439710199,1.487658086333518,0.2560952655566572,-201.5730538137745,0.4639045751798368,1.7501039718960218,0.2625737662264653,0.4448932403096955,0.0323238363386443,-145.082575696403,25.428385865308798,73.88807932956311,0.5772735873708038,0.4944215679947429,0.5487693716080733
1.81,-46.33843886759146,71.1083270126498,179.45223564123654,0.1528995954598978,1.226738877078869,0.0368919478912659,-38.28486188369522,36.20852649821135,175.59504053905042,0.1906319194540408,1.5723270412781123,0.2303948105459142,-201.81574446018016,0.2365743496133365,2.2289385782444096,0.5130376411483888,0.3759009901530571,0.4052628471422635,-144.4260658556342,26.84403158335865,75.02505959335367,0.6112774865206327,1.0540394030974525,0.394895186697037
1.82,-46.35871427543815,71.92805691829541,178.4518701841125,0.2698054050571239,1.361340936931598,0.0702252598742625,-38.09294852512816,37.32412612768232,175.6900454114155,0.0159804695015646,1.735964211741809,0.2425447336958313,-202.0207013806135,0.4622268424978995,2.4271301294186856,0.5522646915805023,0.3823650784272594,0.3760093877379865,-144.87750642024812,27.176121846911943,75.53994174287662,0.8393474267605088,1.001182027430579,0.2574714440605626
1.83,-46.5337964795284,72.54307230228595,177.60586933006908,0.3937306607910721,1.2439065656872297,0.176703574599428,-38.03023475359586,38.04108488222633,175.78290216426723,0.1387289988994232,1.6794623740965908,0.188310354723416,-202.06261057301464,0.6296143247756889,2.814358882444263,0.4889870592557006,0.4183728504371135,0.3731170713744509,-144.95734483441484,27.26475941937545,76.51908536320721,1.0297185941193137,0.9154156832388616,0.3955086569751161
1.84,-46.94213940332079,73.7260274671324,175.37541638913518,0.4305984818478033,1.3267633208083651,0.1831886693047692,-38.11490205261275,40.31052206260633,176.022796579037,0.3171312046617223,1.7058984029006912,0.2710109750837866,-202.41891626722008,0.6297055496644365,3.3398865378090346,0.4666823299637911,-0.0262258701125647,-0.1516736530235473,-144.52226489531915,27.68865430174503,77.90206238685867,0.9957787345496744,0.8583767540254761,0.9384379584426078
1.85,-47.294929436920754,74.87335966508854,173.27321944943162,0.3321747331640993,1.1346849301213948,0.1592647014370475,-37.89745188084318,41.96123268550102,176.0413657813518,0.1210049927117846,1.6833731665038785,0.1489727897776624,-202.3713928735953,0.8869327430645009,3.796143979629831,0.2607497198318491,0.2305893906127314,0.0709725333410905,-144.10490613714015,28.219854489482373,79.45519013566246,0.7801999442977452,0.7945028306399965,1.0776539803373084
1.86,-47.39200661726896,76.16298974317509,170.91214470217568,0.2170560744618412,0.9739268720624704,0.1028036509915868,-37.9480419325313,44.20363980290048,176.20843216739348,0.1845988078645093,1.6319590886639035,0.2500249980250575,-202.38880777623407,1.303416065622827,4.120728947619069,0.4599095872853407,0.2837071318719547,0.4029971499070672,-143.6001358965697,29.490340986761183,80.5436842029467,0.9414228639445542,0.8087246040544736,1.094699018258666
1.87,-47.82268521364003,77.14775784099166,171.0777424813299,0.2685252569521691,0.9220527168806746,0.144750477580755,-38.04153537862704,46.34327692412627,176.54286542981376,0.2274787929686586,1.962159502119821,0.361883305031926,-202.74202948045215,1.576616795241127,4.990622235363436,0.5788157214184362,0.3701175757700228,0.2362654814842382,-143.0592231666314,30.49926840214466,81.89301972834319,0.7248641590737624,0.6881372804986049,0.3885602157396771
1.88,-47.993168548264336,78.1469404360015,171.0517111123613,0.3537369487503552,1.060206428155929,-0.0151548162975495,-38.836839854080885,48.1473426623692,176.92767659255162,-0.0275420758064308,1.5801054747334728,0.1595833597600501,-202.9534850726509,1.8065868347840304,5.284060367825208,0.7188208992398091,0.2362648668100302,0.048806032918035,-143.25226024893524,30.045644668145336,82.91205311084933,1.033122496252345,0.1254774372746613,0.3040686088913363
1.89,-48.35760120975361,79.19089486144637,166.9318097872665,0.3737451418319242,0.911555136487784,0.1162449455673723,-39.11041639565496,48.91525646208203,176.95454120358943,0.0563006315258135,1.4551720890254969,0.1253058401464838,-203.8155941204682,2.2972186443039724,6.607742601792209,0.93561954883402,0.6156698793361112,0.7839689721334878,-143.0874055231753,30.034303926463416,84.39869966309978,1.0670006054133083,-0.0150261383847723,-0.0563039491594824
1.9,-48.787259330270366,79.78070964835445,163.26706929508117,0.3029411825409351,1.0143051886978915,0.1635785832420233,-40.05391496864051,50.39467754068854,177.45191954265732,0.1645091890189849,1.7073766553876777,0.0305977181061121,-204.4969363009681,3.037334752015518,7.561574722120954,0.7682410621334806,0.4659793399106235,0.4196482337021708,-142.0195939071416,30.875264265531037,85.2876684298498,1.0920365426821426,0.1263683715459512,0.968273321966772
1.91,-49.1972967448106,80.63150032851372,158.7240676405213,0.1800049585318091,0.858009763593461,0.1671986109842858,-40.96292055073528,52.55935305835139,177.5496972034984,0.1274012915164733,1.5961122659489793,0.1943104458461355,-204.94301242594872,3.659556927243954,8.781619697635833,0.9016633476751196,0.4498345040685805,0.1410834826782971,-141.03016472791603,31.844929008424007,86.74267895380171,1.1275308049030288,0.5827230364863278,0.8351534889003687
1.92,-49.281052632019815,81.41461162990564,153.8587414037653,0.1422920692035944,0.9344868209105162,0.1111702655524232,-41.5162665681952,54.0350680853629,177.97285585301765,0.0042189083445128,1.4991999013215696,0.2923887691995414,-205.57972522180444,3.940935186822001,9.352106470536173,0.638048988099365,0.4159671538698515,0.4063754602437937,-141.1399613679624,31.333190802383992,88.27075561503187,1.0022662613757751,0.5811928651522861,0.5487557918685354
1.93,-49.26579045123663,81.71241463886611,148.43547869726677,0.3200347088997239,0.865283535724079,-0.1190726194695568,-42.04233863159851,55.67552684761284,178.18771034426814,0.0353942428810631,1.510803405189764,0.2132368505897223,-206.00709299628076,4.543225129308128,10.3218764373737,0.7242709753004056,0.4841031062155215,0.2182238537656964,-141.40839498867695,31.089029982620325,89.43554815989869,1.101532229061711,0.533823301137456,0.6245343998356734
1.94,-49.58436950351657,82.3204586670484,143.50171856395704,0.3782896229977301,0.5036393810241182,0.0032345207154484,-42.34057817997508,57.515443559766936,178.31062434000214,0.0004877829213344,1.423218814412902,0.3904685440576612,-206.1737755470894,5.00803251810123,11.297641605614492,0.652949213872682,0.128904451056172,0.1138745934807224,-141.60891180689578,30.544125866457883,91.22573008720072,1.5034462591814175,0.14760671138454,0.5100976758324658
1.95,-49.446188963315336,82.29399335711865,143.6135371022284,0.0310050831966606,0.7566361002102207,0.1446146040806923,-42.2955406767843,58.25053680085871,178.5618516425623,0.1775611099521157,1.5303570859139703,0.1929882024840194,-206.08674781850527,5.017706050695118,11.54897755389549,0.5108786410206926,0.1021941514979915,0.3427351707849549,-141.2788077399034,30.669193948101505,92.12188484852147,1.180661956150389,0.1835753793623328,0.3351674354932034
1.96,-49.66733509348466,82.68852641345332,143.68110846143233,0.1204515782282583,0.820977243210921,0.1756975428710657,-42.5178437180202,59.23558314414377,178.77969098102452,0.0842184190061076,1.566779605222019,0.0918651504559321,-205.8591602263634,4.973118897862329,11.913870199011246,0.5552090469746197,0.0193002584942544,0.6665695928293999,-140.96210123321066,30.71524904315618,92.94413032051844,1.0384306691346183,0.3079920147099831,0.214982156365774
1.97,-49.73963183756036,82.88660672181523,143.810136576256,0.2615570315949889,0.6017695735163061,-0.0292949318695879,-42.87858742666355,60.855881654790124,178.86976454926378,0.2956323217442033,1.398282366418537,0.1621285942333807,-205.07915758482213,4.942975522527275,12.336381723928572,0.3186785992888203,0.0118317801951932,0.4069964443862566,-140.35608912981758,31.28833073302418,94.62300086804272,1.0422239119202548,0.764496566413352,0.4640882084481893
1.98,-49.9054118646984,83.11024278686848,143.55610586574858,-0.0350358666827323,0.4872101102503375,0.0864376018385193,-43.34675335231417,62.296733580580415,179.2802520844984,0.1004462749715148,1.2626464524715395,0.131662284922802,-204.64789392584572,4.939692582294337,13.1985258148396,0.7372457164933018,0.0956662910437195,0.0995847946569125,-140.53859237245797,31.06921864249221,96.19487869781902,1.0586150258634937,0.5549159730018624,0.1288905706787661
1.99,-50.1603143486002,83.0757717317082,138.06993672450204,0.2886391674848273,0.5963917797297341,-0.034606618979235,-43.968358707158245,63.73244967534475,179.4143171419854,0.2628167086273242,1.1434563851459714,-0.0763130502011003,-204.62732330832267,4.82617416834373,14.043014768549511,0.810959046879441,0.1725513726551185,0.021338538217987,-140.75654013482384,30.725765945203435,98.14384016485508,1.550131504885222,0.4228516719055097,0.286507001537844
2.0,-50.38325414581263,82.96850672168942,133.19658461189272,0.1173296932665475,0.3128302675315244,-0.0085997340277814,-44.28152639729116,64.71501565096399,179.89262190863658,-0.1738485705958831,1.129634091231285,0.2096632246315874,-204.9331698776033,4.949370718425047,14.849222349009912,0.9855315815676384,0.0993574725633854,0.239743964134902,-140.58793914244373,30.67294236959408,100.19994903515848,1.5111061546217786,0.8665544678172927,0.1339375029273462
2.01,-50.50375312717989,83.12743171510763,129.19107623531622,0.1925311994140293,0.4244623665303815,-0.0003616503305597,-44.65719540058208,66.35878035964502,179.6902911504701,0.1897578117897211,1.2260593616684978,-0.0993657365005822,-204.76753663184917,5.27345859517069,15.94153698718096,0.9102755324383422,0.0759627866035485,0.149246550731736,-140.34978410466096,30.72186061611485,102.14230856612372,1.1341419975127462,0.6457882323619518,0.662434097625957
2.02,-50.58017980815411,82.94068801662867,126.08520552807492,0.3157990963463629,0.2941411942151304,0.0581178979589808,-44.94066109383878,67.67528670221523,179.40247965815124,0.0491798392923996,1.1839831969069925,-0.0134839466879331,-204.6997203392892,4.935730157741755,17.175127969339687,0.7835178101204883,0.4311392637670596,0.4060085428227812,-139.34834531043262,31.484201632308203,104.2393004360761,1.3439355067292906,0.749510914190812,0.724082658123839
2.03,-51.02608602092548,82.64289257669435,123.77859225673248,0.0752158019511484,0.262445197699209,0.1181363863409197,-45.52339909173426,68.56623340142401,178.95348238328975,0.1145199098190573,0.9617566731119008,0.2046105779922718,-203.9475283379261,4.9907393692586535,18.19550813319641,1.0056968829993596,0.1684042389905475,0.2398908724778144,-138.93165787475942,31.29536086223301,106.27468836612202,1.4250732844936342,0.4872528293780204,0.7016453165514407
2.04,-50.94626321715846,82.7513507320269,121.60349852617946,-0.0388857495353634,0.0744901126194417,0.0648801918380837,-45.88222335965199,69.91743469756754,178.71175597232858,0.2789360454269238,1.083063087999459,0.0096993194110738,-203.49359516727856,5.005643558502398,19.18652931120492,0.9698164179254476,0.1724689511413336,0.1054211602688167,-138.79014619131195,31.02240570690532,108.4046597455932,1.396947169117856,0.8601153913988221,0.3775954462779186
2.05,-51.34107622054167,82.59243484211842,120.62245643524292,-0.0221796473158188,0.2691770262280001,0.1668026801865249,-46.32515959979382,70.9729034507197,178.07725020442456,0.233072569561418,1.062039451622867,-0.0728555257129822,-203.5167782657205,4.728267881240011,20.35931771901589,1.1835375290053405,0.0289833962364501,0.1538570215411594,-138.1972140319408,30.73828056089465,110.34409905063494,1.3201463011509966,0.4490795934606086,0.3217994473242532
2.06,-51.575950180505146,82.45866614709826,119.78082422514746,0.1464950526050714,0.0031091601034033,0.1823849979684502,-46.60981621331623,72.04300271421712,177.62260264548814,0.1086484833854076,0.927139433044898,-0.0877123980374328,-203.69266756589195,4.91839309010296,21.914510545900395,1.2766822946465448,0.2919099120841943,0.2094405411563021,-137.2894595640534,31.31214699483992,111.47990920693076,0.9667497370665232,0.459124274381275,0.2861134430253165
2.07,-51.78114231809764,82.4713035655318,118.67746456799394,0.0304275045291902,0.2410277535845207,0.1283714837048804,-46.72170055326536,72.8049003897678,177.64341494603053,0.0418077244718251,0.7542138037522298,0.1976003766912429,-203.6802648571436,5.167494737576814,23.53980861039817,1.5004500919976134,0.4815075423292417,0.2407052989349466,-136.35120440000122,31.739563161838607,112.87809808110322,1.2312446457543034,0.3850923382572048,0.3257216286856901
2.08,-51.8384497760511,82.09266669905932,118.03551372829268,0.0833635346463146,0.0838142279738352,-0.0142113890510841,-46.81360647022052,73.2960662526613,177.43584146077882,0.1372197623773631,0.761830133985875,-0.0661032984991219,-203.8555681605979,5.173102010418316,24.342639335764478,1.4594983690393697,0.4325140600105862,0.0260567319580442,-136.29418530477494,31.550801233144224,113.78488468833224,1.1937876728518773,0.5146737777775241,0.2667350346013732
2.09,-52.13918131704338,82.30304009211049,117.6644648832672,0.0793791437795812,0.0993922636972479,-0.01631097177522,-46.89276885133771,73.58688126522296,177.24770628043237,0.157311150853072,0.9608625872036888,0.1193012792178959,-203.8507667144438,5.109190811233524,25.27343857973129,1.3574727225437175,0.1183528331149929,-0.0327874157372671,-135.92410741481555,31.467676537003445,114.44634858005163,1.120633878470325,0.3359436339872362,0.5461779273737347
2.1,-52.12130647181249,82.02775727837181,117.60132654626882,0.0097092346721851,0.1981307304390658,0.1575822519908405,-46.99902887538958,74.62754182417012,176.71321860479773,-0.0376642512367711,1.109206541064773,0.1004795568172927,-204.00621424630583,5.51232830502447,26.77906273841304,1.5780846488709153,0.0338181467880319,0.0945006594022508,-135.65975252948405,31.144150067557582,115.82723624907372,1.3194932964831465,0.3552114485373509,0.0625791856199707
2.11,-52.15407571476448,81.98496832400426,116.19695948533747,0.0952006916100845,0.325660378065347,-0.0514154111249157,-46.85561015099774,75.56016624677977,176.36171368957037,0.2159070806314973,0.6820679531380313,-0.0361734591796822,-203.9391439725734,5.660527186128721,28.576286258639065,1.1273126326127632,0.3036679615412239,0.2783564668711637,-134.45900417264212,31.231182268147343,117.38979073284465,1.1081650429340917,0.1276409223210562,0.1003646479503312
2.12,-51.83322325094005,81.92944152813104,114.918247402657,0.0929840536832048,0.2411508104390466,0.0544958424617064,-46.94691789269256,75.92720381734367,176.1985690670224,0.324124967782068,0.6320542107498198,0.1729465664751439,-203.82087554951167,5.984253697812784,29.94721652539696,1.3977318981587232,0.3130667775646332,0.0203844394086466,-133.3410019255475,31.376105042338803,118.6396915317012,0.6205338793278503,0.0494556920561837,0.2531869219204799
2.13,-51.44635923528768,82.03795442324527,113.50393063478882,0.2473022829561801,0.3878747267825748,-0.0600595501907635,-46.55628625638918,76.61826708613819,176.09167696214445,0.2139776392168029,0.6401603776758475,0.002577225271492,-203.8133490232601,6.224713046310617,31.840590982095865,1.4994742061642428,0.3582108254556173,0.133529229292681,-132.3502980511188,31.66153159524472,119.6985477864931,0.8781882928305517,-0.1879057441193642,0.2028680480648356
2.14,-51.30283081702848,82.12480530380225,112.97813512484883,0.449647742273023,0.099243512882658,0.0112504260428953,-45.996806732365386,77.05033641066517,175.90047031373146,0.4679439290782242,0.5039755374206574,0.1201439677034101,-203.5811440693844,6.518258418558831,33.337898098082846,1.3472180732541246,0.053296584038643,0.1998122166522133,-131.44209275134656,31.83397864468599,120.70270456189644,0.9493831303004638,0.120826520236689,0.2220728215957759
2.15,-50.385157622139324,82.20255709377241,111.00821471953311,0.4331109433905606,0.1553719910588862,0.2684962682611613,-45.572494982959455,77.62296025467495,175.67678221880263,0.2803260753515863,0.5464600151301782,-0.1403813708649789,-203.29270938597864,6.72433270947319,34.80351471379978,1.1151257962587748,0.2046536031703075,0.267631944149251,-130.25814296834074,31.72636023657735,121.74253281605884,1.02828446308001,-0.1150451682416115,0.1049210774698538
2.16,-49.495618233364695,82.60912262638182,109.18614755611895,0.4853585185077133,0.1714555480509081,0.326939189892045,-45.31333127780951,78.52658383172151,175.48214302623006,0.4821711030557809,0.3445973171620162,0.0893508131341369,-202.8103245585745,7.061681598257659,36.17296689897507,1.1449664251837244,0.1378577650393743,0.4363840158109843,-129.20896624301807,32.07738748628665,122.93954426358718,0.8137084107151094,0.0006927971607412,0.162448943736863
2.17,-48.80984104063114,82.90140079223413,106.8383593271662,0.5671589145761079,0.1413897400752766,0.5827174927809804,-44.881699937167625,79.17725692537434,174.84849578226778,0.2302122201502913,0.477722316361207,0.1306102066987269,-202.37148866487112,7.512906389791361,37.29171911677104,1.119560823488568,-0.1961754684724893,0.6305149597021932,-128.23504852870735,32.12022759552059,123.67454535496564,0.8578460656006099,-0.0209844877837278,0.4170693793612362
2.18,-47.50506359052372,83.37861556822932,106.95625003978635,0.4907329930999652,0.1421598839456801,0.355165287974317,-44.16985567846287,79.4759277989143,174.84738298708623,0.5035704199021802,0.5600994996421388,-0.0091113678003912,-201.5806858483077,7.659758566398231,38.46384789706077,1.076295065647514,-0.0784076692650357,0.3422591641566053,-127.6123094334397,32.07188743086945,124.7099118322191,0.5267400928335895,0.1402994131690454,0.4358251265051492
2.19,-46.79975409073253,83.57340011377367,106.61385715962622,0.4384283365710213,0.2948287607348911,0.2664990963578697,-43.450795121000255,80.40149828083402,175.13091510031504,0.5215349546505865,0.7068614785541845,-0.1053521765139177,-201.18496170064464,8.094547504238077,39.62413802202936,1.1052425986915324,-0.0943739908583113,0.3166239090238071,-127.88667061651536,31.445973927771497,125.2962783420884,0.6511113006923368,0.1789557920365531,0.1921215059640338
2.2,-45.97710398221694,83.68730873268873,106.37620792491258,0.2503193318158026,0.1968827711428737,0.1471974399125789,-42.87383852939647,81.02588499889558,175.2714088623847,0.3748699628799593,0.5187143280360049,-0.1470813846386942,-200.5861387796261,8.488511762884398,41.08354324162554,1.2051010439357597,0.0575196019188982,0.7046402485016192,-127.30123245882126,31.129798276652952,125.94834917866837,0.8009269828799969,0.0852938975671599,0.1398397067229186
2.21,-45.83258101189484,83.60570925903143,106.5397293664308,0.3953289679734381,0.1123070916139289,0.3993320366561682,-42.6203714543468,81.38257120895443,175.47708509857668,0.4532638640019118,0.3466537974949726,0.1808365800272035,-200.005895867281,8.479796762127354,41.36836915129397,1.1941464536706294,0.095722162682162,0.7173528043124283,-126.9492416581738,31.41290701364529,126.14908886454973,0.5062991807538254,0.0165301631197162,0.0642793304523797
2.22,-45.82009085707836,83.59704566272133,106.47638080122192,0.1984866061480387,0.1445898673210357,0.0519329696969729,-42.326087999117966,81.60726955091582,175.36105080971822,0.1852098317368955,0.4049613811610202,0.116733618550666,-199.7091829329344,8.680259092400563,41.831392021815525,0.9372705228560468,0.0568996509973478,0.4493364331276551,-126.64614401107322,31.447777277224144,126.59357457765928,0.4044218002479409,-0.0650444794949104,0.1410061903541004
2.23,-45.59503743842765,83.41353777322192,106.59670457298452,0.6622720603310629,0.2230730062661837,0.2111857823755166,-41.96753914056887,82.44639746410293,175.7627232894304,0.2821923142275153,0.995103843526149,0.0109713832171462,-199.03754409778747,8.977109520975116,43.00697010568666,1.0285602889716254,0.3833792761443286,0.3426225819241831,-125.95592729740603,31.59890965343528,127.36147657540948,0.6300587339225705,0.2067166533277095,0.1932898681201755
2.24,-44.83866201338812,83.43096691454416,106.5547749912266,0.4655819535038266,0.1524883520002879,0.0438974548782651,-41.42094860618764,83.196930852222,177.02804278434002,0.4318448389330686,0.6089226548878697,0.1130284484245006,-198.50955467947776,8.982888718102359,43.993806888553536,0.9891044475795528,0.4470480289906721,-0.0001511346152267,-125.29475359321974,31.551894552080512,127.69388551988172,0.6811629024633445,0.1152332595162242,0.0911006515644415
2.25,-44.08926636663325,83.38433914915339,106.32773173273966,0.5749394132622925,0.1457567060249655,0.2420154660876323,-40.84494049014072,83.33711318059696,179.63284304909158,0.5259957707546776,0.2223652165320443,0.0860802817963201,-197.89863068162765,8.600180228805952,44.77116604945756,1.0751754894833343,0.115581015674293,0.1926205951696285,-124.14383582294086,31.45929203222596,128.67625893517982,0.5442865144075074,0.14340955682936,0.2229541944922809
2.26,-43.09982504172616,83.42063513757344,106.194691636777,0.4779895825683916,0.2659320297405265,0.0143554223157357,-40.01083563524486,83.4889915173847,179.7350116129341,0.6668053184209215,0.1113703126949982,0.0042440518366815,-197.84274517147352,8.748525899674428,45.785961240022594,0.9285658055534326,0.2199600498283869,0.382984213679074,-123.32127146737908,31.750639014581783,128.8428837286377,0.3740257012867959,-0.0679300478300065,0.0253504596876746
2.27,-42.13698111463052,83.5430038504006,106.04002945341134,0.5839464793404361,0.1191440585466679,0.0359800547393674,-39.27746751718247,83.74390086060578,179.9110229004385,0.7365485358777182,0.1500948081927971,0.0663430196401575,-197.23476499151985,8.737610626765157,46.81990725744273,0.8806895400015121,0.3830740876265231,0.1749345401127554,-122.98416669191585,31.947981670515485,129.1762873127337,0.4483379960206244,0.001662295785545,-0.0789409300444198
2.28,-41.7286601206303,83.52489431638264,106.08368101934832,0.4343209375190269,0.065183153452104,0.0343642850965497,-38.42241487059415,84.11408872651037,180.078947385937,0.6321701801596887,-0.0559751442342663,0.2063930687866297,-196.70956562645756,8.749222954637496,47.5461277424433,0.7734750267299695,0.2756419369994441,0.3245540977995144,-122.59124176680272,32.05925091365264,129.7819140547743,0.0713374390190401,0.0186456568472469,0.0273587476211338
2.29,-40.88380027842752,83.5846792080332,105.76213451813668,0.3983251797947823,0.2020430819569663,-0.0280756920715276,-37.86404946908901,84.21036335363887,179.8181143458775,0.5821248380592672,0.1588119320083178,-0.1471600078560991,-196.01024553726236,8.978267690607211,48.41918555034988,0.6998326482175293,0.2305329118491275,0.4113222915599647,-122.63244462033435,31.929109368561964,129.88985859743502,0.1155074405222052,0.0513302667014681,-0.034865189649325
2.3,-40.48018430788493,83.46313666772538,105.77297287583062,0.2608821509000473,0.2907720788885254,0.3311947172784826,-37.49540869017083,84.32769469944066,179.8373669172136,0.5040348452921631,0.1619989190302455,0.2824411816851407,-195.4602100223265,9.343863715301111,49.05235106887632,0.7495314837101945,0.1095868250241487,0.3842596978330742,-122.51674427297864,31.877828410221813,130.31817803571664,0.127592241295793,0.088763508801951,0.0689591136644607
2.31,-39.73743012031163,83.42075633020765,105.45510345547892,0.0880778283953707,-0.0516198758555791,0.2239747974473374,-36.93829754127243,84.49681452375908,179.4284970629026,0.2603649234722422,0.1056214719091898,0.2852641074850199,-194.82237997923656,9.508273685948469,50.03884269458423,0.6087521338991592,0.3010114824554806,0.2598736986691149,-122.15405603815782,32.0050610882088,130.453130946861,0.1198459215753717,0.1128714860883662,0.0417785587891437
2.32,-38.93252198911079,83.99909258798935,105.37883767953096,0.3133761907941633,-0.0142834486676967,0.4265806895233888,-36.69449899415781,84.23422056612823,179.47601741025284,0.2084992839482276,0.0780542903580022,-0.1870267814229319,-194.128793400518,9.6733448213686,50.74984604132542,0.632377075145,0.3114264166770962,0.2532396719979284,-121.73147619115554,31.95682440881497,130.4670108101594,0.1250771265500392,-0.0008599904226867,0.0167453926277296
2.33,-38.53111861549954,84.20823721069478,104.75381138625994,0.2066624048949014,0.1895393382517985,0.3248491914481273,-36.26372181978969,84.60315011186826,179.84797662367365,0.1037612769405591,0.0352243677088665,-0.0723750535272297,-193.36637723785657,9.769744735108585,51.49480062643907,0.7313726482418447,0.2190229563744368,0.2353043632507801,-121.65926746892345,31.935203998461784,130.56718133249475,0.1627032204654626,-0.0488332875008353,0.0670333522233127
2.34,-38.29628219533989,84.33063488641424,104.31194422951168,0.1024175293858483,0.2157306662218057,0.3804514682791084,-36.223772517129895,84.45266302725078,179.43562831485272,0.1110583534884507,0.0276547717579042,0.0944324434363163,-192.9529450443921,9.896147622484232,51.627437733359415,0.5231557145963238,0.2703079898623444,0.4234110459070311,-121.90844206176656,31.95503262782282,130.6833298431212,0.0343236562936575,0.0717210786873422,0.0863329352550877
2.35,-38.14878972863799,84.66671392021851,104.58329294109144,0.0475239744392062,0.084365187857768,0.1618939756034411,-36.13288561092415,84.66883203700881,179.57270700958958,0.2604837648479108,0.1891559801489979,-0.0652715037871922,-192.8702176127113,9.961543352357676,51.86549664701854,0.7017308894603204,0.2504482845720348,0.1321153978519752,-121.86800250896736,32.078922845552256,130.67906023429637,0.2102755949527903,0.1690939089971666,0.1681880266789097
2.36,-37.86264610610292,84.8997459216878,104.11830548955868,-0.1577706443571791,0.1114021015298791,0.0623622547256471,-36.03098510572229,84.98052636786399,179.32727042576346,-0.0201017171790522,0.1371497202332999,0.1037289780152934,-192.04808562166323,10.00355846603578,51.94025573174224,0.7699625937663003,0.1854564117392534,0.0411297788549498,-121.46434217106672,32.3130356415363,130.90787478721754,0.0497098811129714,-0.0186505193310381,0.4015754879009972
2.37,-37.66557313062566,85.24209622029929,104.11516742363447,-0.253870467283829,0.1765695621645167,-0.031010602981867,-36.0500782820967,84.93361984827575,179.39995897092743,0.1496081544164686,0.2413033236779725,0.0282388952453753,-191.1068331638428,10.194688174385677,51.88974004803647,0.5801484494611352,0.2372853318540635,-0.0393191781664461,-121.11785164844598,32.48481150461979,131.4299964031181,0.2025018822945069,-0.0739920365875321,0.3020538222027515
2.38,-37.75236632493354,85.09294228193966,104.06128862847368,0.267295935911604,0.0941052825231286,-0.0256851318169081,-36.011506293524874,85.22769817478294,179.3604718804901,0.2172313819268338,0.1192944852415906,0.0850345394004817,-191.18444378503665,10.287276667875522,52.73770814025156,0.7764107926341368,0.3304513055635324,-0.0765504890705503,-120.98766420419722,32.29154515738176,131.51314582437578,0.0481507235332947,0.3266825161399955,0.1363593173425387
2.39,-38.02576284215374,85.4054543671517,104.09651578759984,0.2019326292813689,-0.0523331925100344,0.2111568012100904,-35.892343784404446,85.36450399657589,179.35512976354354,-0.0159399557875545,-0.0392812761450304,0.0761012682469822,-191.0444466167893,10.72606626351997,53.563438369867285,0.5535746894697526,0.3002917089202377,0.2965890282292195,-120.66328099754963,32.839542873206696,131.53740145369886,0.1405455568361641,0.1473720248916267,0.4041572270514199
2.4,-38.52182898966696,85.5143293949035,104.36042700007998,0.0077466720116027,0.2486378523214065,0.1054760351840497,-36.06345519896253,85.41856606617037,179.30891408061788,0.0787039988058256,0.149140730162093,0.0170931240227547,-190.85990495157736,11.019370692965532,54.437544136930256,0.6401005156591907,0.0484003932882219,0.1421154868013652,-120.39331842513992,33.05035170262612,131.7932100402528,0.0020002324572981,-0.0716828297951282,0.4131172068158779
2.41,-38.5541369075053,85.42751996220889,104.34476483882504,0.1415403010161931,0.3343108718584128,-0.0415842371181342,-35.73884217347096,85.40215855961057,179.3639341716126,0.1390107098672925,0.2479026297855335,0.0892418035712908,-190.80700418888037,10.996293592617617,54.97834981525016,0.4511055981046305,0.1736021226540934,0.0470060258303459,-119.7492531278714,33.198015354610405,131.73016281541487,-0.0063046042536922,0.0813656138549396,0.4037129595631419
2.42,-39.16074149367763,85.1706804926381,104.66137471731096,0.1808074378263426,0.1987378843713154,0.3070473475411494,-36.15928178023767,85.86855978525887,179.43628347450786,0.1306701058587965,0.1764734354485914,-0.0954151902984332,-191.30293708126692,11.006511990833042,55.53442415588336,0.5573079961295486,0.2689787712003579,0.340158800944764,-120.03996224097098,33.50656787021636,131.82812951696826,0.0382877725161878,0.1354534670796436,0.1973539043858165
2.43,-39.71192831211757,85.11823741543373,105.0095850216626,0.1926561063025364,0.0295233788244422,0.1569094287384325,-36.33598966711149,85.74932555335876,179.22170361564454,0.2710274597871839,0.0369146809262093,-0.077566029366971,-191.65168310289707,10.95437956823203,56.38847870153212,0.3727887763673794,0.4207583397310249,0.1051858824033403,-119.99182352690406,33.7067761461061,131.59431664044772,0.1546858024547813,0.2653673953739763,0.2972954369883132
2.44,-40.119350233080375,84.85395003315242,105.0848557542946,0.2801842637948202,-0.0637312521074696,0.1078061456224982,-36.66754022298103,86.03661794663789,179.46654019871423,0.3934992951545308,0.3409737149431106,0.1874587295067306,-191.85687674174,11.238292474220945,56.61647253394587,0.4641992807675273,0.1562157614132841,0.0698442852468015,-120.27140642546571,33.79929275703754,131.51711432047472,0.4397558376332257,0.1890010219266242,0.307794754845206
2.45,-40.58180883511948,84.85175475958131,105.2161411054358,0.1543170627103059,-0.0346242912249846,0.1174750607909072,-37.31857474213075,86.19506327524681,179.46955286661344,0.1436660942198515,0.1937570971789895,0.0793908456648414,-191.78684191969248,11.37876805947451,57.270569358532434,0.4804989619772021,0.2192698089555009,0.1891558345295414,-120.75194519881764,33.86141643296262,131.0916004434001,0.4145510911153576,-0.087533966602991,0.0895757577222085
2.46,-40.867561499429726,84.79183696827323,105.23649126015545,0.3091678262072922,0.0189944877840626,0.3261176143083662,-37.55811905864865,86.47736822219156,179.47187279548407,0.3549938733415166,0.1373276995171527,0.0311207595534641,-191.64029185496608,11.536199868185012,57.36165561520491,0.1279782321501711,0.0239679566098516,0.2305134355976558,-120.73006299282822,34.22478932672478,130.7018527130194,0.1719671104922609,0.0142796395278274,0.1408839890084682
2.47,-41.28866635610669,84.57973992274931,105.26229852018255,0.3421144791071416,0.2758718448094024,0.0180277758279558,-37.631765794489645,86.67683069905146,179.6437666231473,0.1770163268139733,-0.0087391692649431,0.0839339810147097,-191.5331247769061,11.62869517940992,57.4367827612301,0.1150289947502121,0.2443670463058704,0.2446580033158524,-120.61465863006124,34.546374662440215,130.36611612148312,0.4447978479347409,0.1802715597132297,0.3920180541096237
2.48,-41.2807302748894,84.66277562682875,105.31209855456444,0.3535128476000181,0.1489091719098259,0.1092195728355815,-37.89197617752752,86.53580487841509,179.52281499639275,0.1273992624221461,0.2301007745327731,0.1841951068620458,-191.38205628944456,11.900827592020864,57.537815969297625,0.2663010533335428,0.1309826829459847,0.4471512916117987,-120.38641808572709,34.83148738821636,130.64640611621317,0.311430037810439,0.0952394750012938,0.467758494841374
2.49,-41.93533539376776,84.66902169841453,105.28670635982012,0.4498422061711035,0.0861048496354001,0.1841614899948534,-38.43069116457613,86.67599350201023,179.87023329174582,0.2847562653270239,0.0083699056110049,0.2639864769433259,-191.02059180845123,12.074431406959382,57.86799586216557,0.2632231073095688,0.1400945388655577,0.3683861776166762,-120.64923737101708,35.00476204726405,130.40384877950902,0.3724606416435201,-0.0151625239140911,0.2843441430936404
2.5,-42.6421671095488,84.49145686580611,105.63694797218646,0.2843780494889344,0.0919764268995287,0.0968777943343611,-38.57343977211234,86.68072879579618,179.91193276751102,0.1212130901671025,0.2187566800410574,0.1866690599365095,-190.9455965420212,12.36078426512741,57.94752932502304,0.2143414748776378,0.1952479255472135,0.0603101405011357,-120.79165875303288,34.944584372227894,129.8627506125967,0.2949940060024987,0.1647300073604811,0.014973034636065
2.51,-43.146377000507286,84.58189174682357,105.83696906086423,0.3134560591877602,0.1675285556570248,-0.0103324841951046,-38.98489417389345,86.70968938713104,179.86992140004884,0.1738827361146212,-0.1580163356443732,-0.0260071171532926,-190.97262674888344,12.595089431649612,58.37534078189079,-0.0183725534232319,0.1772476635969387,0.0360200686589796,-120.9110067832408,35.29604395426529,129.6735949390928,0.1183507255620365,0.1645125058980715,0.1860424511826321
2.52,-43.66472168144898,84.1815867814682,106.16362755959403,0.2797587137536003,0.1630404033062051,0.0437295490101799,-39.26086899508644,86.76623210641468,179.71493780914187,0.2663796478296355,-0.1599019395988751,0.1433447108905766,-191.40858706880985,12.530666076794294,58.306076265824665,0.162273209640492,0.3058384956548186,-0.0166171180678799,-120.46517803735163,35.77454246631015,129.78246344795545,0.0520539339617263,0.2582935198303431,0.463375075783015
2.53,-43.80248726766523,84.18176458981954,106.20376537411188,0.1560833675408844,0.1566554456932424,-0.0641164584095682,-39.663464883930935,86.82890928896923,179.52026728463346,0.1777593710371543,0.0092499714526744,0.2663737099798186,-191.1875463992272,12.56719555285563,58.26840183294342,0.0155250284957701,0.2192547813492948,0.2251597440607774,-120.53832966923991,35.87405540014696,129.54518449197667,0.1435336997268265,0.2091955931847034,0.0838102719819844
2.54,-44.05516442022582,84.40555484074167,106.12831284547684,0.1014423231652516,0.1641528183645326,-0.1984502212427066,-39.73259166713258,86.71033747053171,179.53699615124356,-0.0803414669725075,0.0618034414519636,0.2247917883709961,-191.5544193904444,12.826863816675228,58.22367154585146,0.3144572055104772,0.2441660999279905,0.1628731227760473,-120.6261793533567,36.10222530684738,129.29214978853415,0.1638876413532738,0.1055082279058633,0.1070620631512313
2.55,-44.13598110116635,84.10379994428843,106.28432961964934,-0.062862237387235,0.2337888815044483,0.0339338950070203,-39.81663477925753,86.70032424882076,179.27062538615846,0.1189596242942482,0.0481968426024372,0.0976614209760187,-191.6580131055492,12.883054194884648,58.03871958439976,0.0108336196702058,0.059694451190525,0.1096694912928569,-120.34336677279131,36.219844519665095,129.22613971106256,0.2113989367446968,0.1250078284094318,0.4058441362516821
2.56,-44.05594799169152,84.29101125709717,106.32014469414034,0.1421745082283526,0.2640926208435133,-0.1026151696113407,-40.01368883020456,86.66412246745345,179.44423987130196,0.3237696766011833,0.2833275711892915,0.0315925500156637,-191.7394585641267,12.578256964415525,57.85475128117531,0.3785158844278802,0.0348987305590115,0.2194358176700407,-120.33430473165818,36.567203211461205,129.42959375148044,0.0125766111500408,0.0147194625970563,0.0127625802495394
2.57,-44.3618089082277,84.175065382556,106.29592692235352,0.0628105310265456,0.5057183838591712,0.3265863394116686,-40.42447901352803,86.45426950213762,179.40548644626077,0.1449813805202022,0.16234276162438,-0.1694561490574783,-191.71557686846884,12.985057838256791,57.592541468133646,0.3407896874229729,0.1288746603825755,0.1610083719322435,-120.561017735277,36.43555549279913,128.98400220982916,0.1101644038927159,-0.1131440728667655,0.3270625189909473
2.58,-44.48678643310106,84.25275656923584,106.48683182157806,0.0796268189601587,0.0137354014487054,0.2345616808998191,-40.58608394962514,86.28656953159512,179.4539107658325,0.1282177995372601,0.046825350548167,0.0213300801443302,-191.87272908337775,13.2806288678748,57.35485734507301,0.2364199717445818,0.2676932391213286,0.2959248233789809,-120.50428635888528,36.145664437602086,128.9749485760864,0.1466154174844576,-0.020883079377452,0.0582444074960145
2.59,-44.9452804048688,84.2556262354328,106.3689064662085,0.037366380827123,0.1016159478862159,0.0201948264093416,-40.8052659260498,86.38719092327185,179.2524107860533,-0.000755691510884,-0.0399554373757465,0.0109049880886974,-191.69908377612197,12.989162680438854,57.3497440144308,0.4203701292654098,0.1482377713135928,0.0992430274128406,-120.2523344056724,36.457556043078405,128.88341411489665,0.2045271620262521,-0.0926672536341322,0.3380392111675071
2.6,-45.097935472411926,84.15052805795995,106.56444433969556,0.2419187647718516,0.0774636216354656,0.0423722569204562,-40.74890656514917,86.19960319081905,179.23562638599984,0.1011758280883508,0.189369319821105,0.114284975017281,-191.83010317900516,13.264093624684548,57.01104909438608,0.2202493687367928,0.1854703464356808,-0.1085938178552793,-120.47916092357802,36.43069011987902,128.91288094565604,-0.0087088602744283,0.1251352418722923,0.3804970549512552
2.61,-44.99892662864329,84.3039479993106,106.58424663043374,0.1619665647992837,-0.0025149602735355,0.0023557619666752,-40.99837390315281,86.11597545927557,179.25712038816872,-0.1172177272579367,0.1222772825522654,0.12202476215116,-191.94283763146808,13.222310854313356,57.08930208660435,-0.0875343586620848,0.3798640435524827,-0.0575719849121665,-120.2785664713426,36.67158874779236,128.9719158683829,0.0635922362531629,0.0070674090774238,0.2220333515110012
2.62,-45.12634405842185,84.25011620445069,106.66477312424578,0.1407040837466845,-0.0269872979595465,0.0223869329618402,-41.13064432266253,85.86798929094634,179.2002596124938,0.3251565200740735,0.0156761299057891,-0.1187753393772858,-192.0774372946497,13.215462670672457,56.95769117000097,-0.0982557986315917,0.2039770700276378,0.0781314958849811,-120.33933845895343,36.66535799989027,128.79941316627347,0.0038853123520093,-0.0028331006182965,0.0239481326381243
2.63,-45.20637179689206,84.08544622483635,106.58287686729878,0.0948490280087702,0.0409269970512068,0.121352235227188,-41.32864676058373,86.05317429521683,179.0874869039148,0.0927324012233412,0.0330560446043786,-0.1269352473244,-192.15663182496965,13.394712290457743,56.829494964616046,0.3545698937389375,0.0468473400794073,0.0423837816636825,-120.33403762495897,36.671219926252114,128.87380571227914,0.1082080610307571,0.2650927667100172,0.1050789220446828
