0.01,-112.59174736017545,74.41070324073857,176.7446275645957,0.11230190844266474,-0.024100418817040482,0.21969212262819815,0.20892418348535075,-0.05017313143329468,0.015074800571183353,0.48271291470270555,0.4129078587856244,-0.5933528861154159,0.428571472848872,-0.07512449387792874,-113.4123869590578,82.45128641336562,35.47527390743377,0.2383115084485512,-0.015406732913002125,-0.07332471570887306,0.1994162611448854,-0.052375178983286814,-0.22649448851097082,0.3111125750323453,0.4841247188638738,-0.5384686681298742,0.6973112232101062,0.11508060497224151,-188.68779193057685,3.2075561515615894,17.54171663012303,0.22425899726764256,-0.1611648862964151,0.08852335565749431,0.18465551979991027,0.19033650318974207,-0.16805717377531398,-0.6588691041600631,-0.5792319116257033,-0.5329421252447073,-0.5970623079230049,-0.06843015272756578,-162.7780784402891,11.941436088654411,23.725343964271886,0.01586866480182409,0.08867199262601012,-0.042289665241984645,0.173012311376276,0.1820853093169243,0.33847344160654647,0.4910858142688268,0.4720888762574159,0.7869416232771645,0.3327456708193619
0.02,-112.79194695926333,74.47409190927016,176.4387242461835,0.27335419911084946,-0.05729055499555907,-0.006868187191808962,0.17115649448124537,-0.04603457730429468,0.1886076732815646,0.3349978828424224,0.29822728505447077,-0.3684451310701518,0.4477070298016482,-0.06301234015174617,-113.54693667271971,82.55028897626384,35.4373433199996,-0.11591054537740647,0.17583074468552548,0.022335949805587667,0.18424398172053094,0.06445614779862151,0.10567505966272953,0.35955052682489175,0.4455860828718233,-0.5876036271415361,0.4985716745518645,-0.24309660253495496,-188.74027249362388,3.2395867200431026,17.341567161086708,-0.24341491694585113,0.04321037247771417,0.0925599953259465,0.2806205801474725,-0.10273655939440675,-0.14896400975176194,-0.693680105316058,-0.4269536021692878,-0.5108568884929269,-0.44229049921342756,0.2084444172401324,-162.52023239041657,11.855548880943038,23.81634383070154,0.15615786791906683,-0.0261806733919399,-0.004916313028834635,-0.004888566892116496,0.34276752468117416,0.11206158727874216,0.22252282882212335,0.32842477211429066,0.6501722078782769,0.7145526559333703
0.03,-112.84356406422768,74.34469433329623,176.79605996918716,-0.07463032382492604,-0.01457911488226006,0.04373318365178656,-0.02926058330776171,0.035906706029550615,0.1574546878602465,0.5791871663283363,0.3922457259769686,-0.6303178205535941,0.4472523802613125,0.11346250935352764,-113.46470638854346,82.40384580423408,35.13380220745447,0.09543450020993707,-0.09331319837708718,0.02538085261531294,0.12807407345568853,-0.02515155584112047,0.06480831818597374,0.374130005300913,0.3269591951627785,-0.2768223657799532,0.38167042696317777,0.08192247796021207,-188.87617221827745,3.337144341246887,17.682381225029015,-0.012951405861087048,-0.03177887687770334,-0.1876777988404687,-0.22366861259890514,0.1322957054909933,0.19111127901787572,-0.40764482683724884,-0.5222163040002311,-0.6386046675953327,-0.5385065281639729,0.04668336711386384,-162.46296067201527,12.057119195145868,23.75403179302814,0.26566060534740443,-0.0403825368141998,0.09534066623249107,-0.001321609933629453,-0.13204506157339063,0.20975488455872582,0.3862740912332888,0.0611668839471904,0.5210928570013926,0.486680324863849
0.04,-112.78943545889301,74.36878409783951,176.48575381018378,0.051758238617119826,0.10556336720035034,-0.07028863897705538,0.23468015422602972,0.008879633865627706,0.10587559842250609,0.531419243156212,0.6022315383193694,-0.6096605333549825,0.6152061688071591,-0.021788997699354495,-113.60670152009972,82.3706397145986,35.00365953196085,0.0582997923243181,0.039592659030405625,0.37645202281312257,0.14937290597321273,-0.09998888193286769,-0.08985594929712198,0.45998183745347954,0.5268848366576682,-1.033036798861533,0.47658353148016075,0.0049178357898451985,-188.6244615852503,3.127133487076908,17.53447621521174,-0.10855390314525491,0.061884539748491785,0.41630917612523405,0.03261135656719308,0.28537727107823463,0.2711279505210527,-0.6670490027465881,-0.5146168188466341,-0.40597825825486755,-0.6005227961831193,0.023718427845754016,-162.62015307228123,12.091796705439506,23.76194775433716,0.07927274340655718,0.08140608896418397,-0.15192399808926008,0.3231265864505617,-0.07428723054383207,0.23644298527450686,0.5510616699309919,0.2984873288148666,0.4039872079672652,0.3492941819538741
0.05,-112.6319804632763,74.31317966124557,176.52534936382494,0.03491028692081824,0.1789385862182584,0.04519948750598629,0.14256503968859133,0.07073484438623179,-0.10099162969475117,0.30605025856059465,0.45253943175952893,-0.836064786013097,0.6583722997944191,0.007179648072134984,-113.4855585957974,82.45492195672692,34.92740014171723,-0.0367665145778279,0.04665591338799564,-0.11443538461795622,0.07661610306701662,0.3004113670732689,0.24023684281380192,0.3635985058309932,0.6199326831125711,-0.7213857025028176,0.6615715735641031,0.07787972822560234,-188.6922784992773,3.306190634594679,17.529228913979384,-0.14793263353579278,-0.10686534981337904,0.13678244517947574,0.09703977762287992,-0.23196293704983087,-0.009508238899625064,-0.46204911174229246,-0.4938244849407735,-0.31138788838540177,-0.5542452440423252,0.3833795485078305,-162.84383620483956,11.818848985184486,23.85094322026447,0.04682046874508332,0.27348091804415053,0.009126929024758397,-0.030783452545260402,0.26924225337177426,0.014729810395043758,0.4333233686956689,0.31685709707092313,0.6762445489313831,0.3305450040151395
0.06,-112.73684502044472,74.17590439355442,176.5522582798133,-0.04326932916788433,0.24503073725282937,-0.007191704664211623,0.14898101695340854,-0.014442336893855393,0.14396331815340363,0.40051728641811274,0.29435567872186064,-0.6070447059590358,0.563502481639141,0.2710989302442548,-113.50265657255996,82.34524008747533,34.80462985336123,0.17889844835017396,0.06658168178507484,0.07265583049236368,-0.08158981849873945,0.3908141956556641,0.1548431923867881,0.5590918901147519,0.23214644890420982,-0.28647822014240354,0.5862876141617522,0.1274012519658271,-188.66977322428235,3.567995055194048,17.517563727567197,0.07388546931986179,0.06330968999941511,0.006427594969253297,0.1517400503654437,0.013557702335507217,-0.05694655816220179,-0.501431012285433,-0.6160203524591097,-0.5100007135994795,-0.2228061871905953,0.026571570404007035,-162.813458332026,11.956215077775918,23.923804656023734,-0.1199712715843428,-0.062326613727559335,0.04722887621337814,-0.08330422429356163,0.07451252044112779,-0.04911738296500163,0.7122429031841706,0.5411887459244294,0.6002647668839781,0.7514690169703914
0.07,-112.71201297156665,74.4073568385289,176.55742938346933,0.22200909743442312,-0.13912907138852298,0.08191575069978055,0.34626561597189953,0.21910813124288292,-0.14403905617583404,0.46981093844675736,0.5937282616810727,-0.46672426263109523,0.7319794866534738,0.17349069259226468,-113.37359217982642,82.34431370204834,35.13077298447834,0.15732344210872445,-0.038758629113875814,-0.013430844788451309,-0.09178199124089544,0.09656347868994555,-0.13916895366954551,0.5882980251873002,0.7069815832420013,-0.7626736684430511,0.4877507238420016,0.08378032840089111,-188.69811297019584,3.3494328827529247,17.514423107216686,-0.3583043845602566,-0.09175608384311092,-0.13341218819452488,0.11525160240474575,0.04265982083904794,0.21090435953111503,-0.2680558344517836,-0.33219667129875025,-0.399513888108768,-0.7915877673891076,-0.014950904471967674,-162.83317212807236,12.099968954009693,23.858732234090134,0.10794110857535354,0.18050444910598465,0.1336845322609166,-0.1517288512635268,0.09989259345190334,0.04646587675785403,0.6527387884887951,0.5234473905369539,0.6758145137621888,0.4564584010843891
0.08,-112.93240954776746,74.37329872929168,176.3852048627802,-0.05862469177503313,0.10547285027715807,-0.0908338216610019,0.10558848623103062,0.07442972549397543,-0.054482428431804876,0.4085303546407933,0.5208978040257908,-0.3966436312627197,0.3477965694865883,0.38857153164238856,-113.25162302329404,82.17005649467387,34.75769717790697,-0.032384696382295346,-0.1449611416005549,-0.08024668357984935,-0.1369597778995451,-0.2318784646094486,-0.019104830729830838,0.7822373770184541,0.5656105526693119,-0.4530110240503717,0.28973388882586715,-0.17314568140497694,-188.7576592702271,3.297369329111387,17.635512168338977,0.00047159149228130637,-0.07307982976651117,-0.08844029946454246,0.16777546194659826,0.07993454588696942,-0.04436133530191347,-0.45061598989389046,-0.43312235152655537,-0.5072433097089568,-0.34926704341829035,0.24560302568090428,-162.73401500304337,11.776215961810037,23.89490607604573,-0.11837930180180302,0.11016515764562307,0.1670720657448494,0.3497898238562336,0.25681334962399455,0.11534221569371676,0.49155149939920495,0.4266714299740176,0.5635511369537937,0.5886129631481178
0.09,-113.0093519152757,74.52556704050623,176.63069279561688,0.0009984547828233437,-0.02345859460780629,0.24636894724011366,0.27638402541667695,-0.019857942464844278,0.22574929464323154,0.5912345972834645,0.6427852868927297,-0.24436046074705908,0.4367669181181425,-0.2465203816093227,-113.38441652005926,82.42727314943083,34.72784667591485,-0.08652000056889822,-0.019109749806406805,0.049269730393388264,-0.024802063932294796,-0.03923667361529032,0.022952565464656897,0.5058155324388012,0.07099124378656346,-0.18604169182746372,0.24625924492929635,-0.07719828416465122,-188.61123245031064,3.4569923970427583,17.470143006163518,0.022877130889384006,0.12073015669448109,0.003062468833462173,0.06590206560970277,0.22426523649869992,0.13885199206849624,-0.5541129923544603,-0.6835118413909299,-0.39166819218714377,-0.3932079490250113,0.03917968319970053,-162.73312709671427,11.918351643209887,23.581259808106868,0.20640672903120771,0.2219530752661921,0.0587111710631265,0.1115094456687125,0.03453757485484661,0.10488507854598166,0.6321321154355991,0.5985725200053664,0.4392123868341669,0.3871033856893874
0.1,-113.01410929035593,74.39184165844055,176.58839358481305,0.23887527108581696,-0.1698198285821577,0.217875900380276,0.21020604518826141,-0.10589168328120596,0.33139475189338835,0.42070539403027285,0.5735285813591288,-0.6683927356851289,0.4414579131249815,0.2204856230495957,-113.52355546200886,82.38562713166726,34.86093386162459,0.12442630550296846,-0.13274212886943884,0.21204585657392355,-0.12317503118522855,-0.02451061559220613,-0.08749760188165367,0.4030496598438301,0.45139757172599965,-0.6084033755767124,0.4840427969480007,0.2535632758718038,-188.73437730697935,3.0451552315105372,17.321565203566482,0.06585879535069651,-0.05327091720406536,0.07866800977243474,-0.1347991943207684,0.2491378786277026,-0.10001228267913072,-0.6284397907482197,-0.619211688735662,-0.19917424054572472,-0.3616514694371898,0.16313989110030855,-162.8077741640525,12.01481954189013,23.895804155676007,0.0981921902363652,-0.04905723326188571,-0.026021238428040175,0.08418350012897681,-0.20344293129467977,0.11984235126534042,0.5655302766566248,0.5802991063709202,0.11564782545896118,0.5331155216310257
0.11,-112.84252530266306,74.35710612963007,176.56291980270225,0.00019382992157634601,0.2829955782162161,0.18469917924715118,-0.12228845444385777,-0.07449762333476448,0.1504135643415684,0.4554911922080088,0.5516141284684313,-0.477786937682973,0.6066106191388674,0.19841717367464257,-113.2569628028526,82.43024062533507,34.85160472994679,-0.06958139400488664,-0.04087514955188813,0.15725905943324833,-0.10717044033641687,0.31456510534816207,0.11358502702979807,0.3805055392643445,0.6799820006713251,-0.49915536459915477,0.4483148589502436,0.10869017983979556,-188.90112822894363,3.3735550156046945,17.404907799012967,-0.09852862004881544,-0.15552681354378206,0.09406035749694319,-0.011150193318230445,0.059676434563697145,0.08569577819156055,-0.4933043055871715,-0.490574203684,-0.4493348709683632,-0.543724915825419,0.04226095327539135,-162.84639185365987,11.970148616846085,23.669905362360044,0.04469273482742057,0.21042342889669577,0.16657233110582265,0.009647182807296553,-0.26450946628344596,-0.010535062090163364,0.4952472146288035,0.6151139630716006,0.23369145330532293,0.2484788870342947
0.12,-112.8302544278107,74.18447918963346,176.731890189562,-0.011276988354991989,0.17188886904451123,0.3015997605922749,-0.18173732412736243,0.09507686786763762,0.2965925009366714,0.5067356971119298,0.8583516776663911,-0.31835213510560967,0.41466441162380724,0.10596838068347234,-113.4354400504192,82.48158157709838,34.73632868758994,-0.06575899534872715,0.14499330260753143,0.10727237908897336,0.16314238652497848,-0.24801175303722175,0.0767689105568287,0.6136664865366566,0.4976478005967607,-0.4503582408930895,0.547809696276497,0.3383228841678942,-188.81091473641519,3.0476939916556534,17.28157941580678,-0.0587679633869806,0.0546319395505004,0.16208110995054734,-0.06835162961833266,-0.03565243701239641,-0.07235628917741463,-0.4220213172461741,-0.6049649144091553,-0.3858794100195322,-0.3935571298988747,0.1756025535507573,-162.8769534945113,11.807322539346462,23.83851900711596,-0.00839537395892518,0.14478360066571477,0.1653024337729581,0.48211860025795994,-0.003727154109907052,-0.13560504949148489,0.4989816143464228,0.57584386592929,0.7026267045324658,0.5026054069474026
0.13,-112.65495912432816,74.14970275329709,176.5390304970225,0.09880502781416624,-0.030603130934133457,0.12726654243320737,-0.019367624489073323,0.23029869022579352,0.1565921934852867,0.5962544693934657,0.7458913736705779,-0.3069585214160458,0.4276863800322396,0.2590636917809713,-113.40883738582643,82.50436792361928,34.91505268784607,0.10594840610130707,-0.004126491849314046,0.12783633304891515,0.16979682010557445,-0.07391689662920019,0.09109214299368051,0.8303726048220964,0.16474153222398125,-0.37701301110404706,0.485070848484515,0.1667839954570771,-188.8476001620873,3.4571116917026323,17.234671113346124,0.12551062237527622,0.09680112418835057,-0.0029082706934689534,0.05592941004854808,0.12662199076831315,-0.04307105344898199,-0.6322280543331031,-0.4260163051274084,-0.5145442813451337,-0.1497867910906666,0.34676784345834355,-162.57643320693975,11.835571871716388,23.792341280814426,0.21473261547092592,0.12774380983025485,0.16597801093426987,-0.005234101333321181,0.01399067527182241,0.40052292754572066,0.5251124569631123,0.42555770097860934,0.41462924000113244,0.7113476287146807
0.14,-112.66833250612787,74.11288960632844,176.77039154789563,-0.031309215487976494,0.06940813649579364,-0.0962993104505808,0.006380015298617953,0.14576000310500434,0.03825045889829443,0.5584056408692326,0.315111405861522,-0.4434478835364966,0.41745350395199404,0.24455892547946545,-113.28939719782332,82.05347714156245,34.73751713454652,0.2333145862219197,0.05195809996724473,0.029948735367358884,0.30321150523894025,-0.2839113171266976,-0.02137407955165578,0.4385519374819285,0.3889371231218498,-0.45050549773401793,0.7810046429799097,0.03705812327852427,-189.29849023495458,3.463947642235144,17.534213449081477,-0.0658390713694847,0.1993923239100615,-0.1264354735916196,0.045970289443174356,0.013493959616268179,-0.09677521036370315,-0.6204630768811239,-0.7238138824171485,-0.5550291607805271,-0.46028406631462154,0.014900607277139821,-162.7791475968378,11.918779995640879,24.050665176596052,-0.011158829228627418,-0.15357766466860268,0.19017670429259917,0.2230890880782105,0.13098562528698243,-0.10259950247165425,0.7233567946616137,0.5249355369750022,0.49599273416864054,0.590074567867518
0.15,-112.88049025689182,74.34788085771983,176.45321021152716,-0.1072355962400052,-0.05740742192934267,0.00041743104116173657,-0.11165764153035658,-0.01053145587338325,-0.10935628202572317,0.4039075737500437,0.6415432720203965,-0.3138475999275042,0.4356045126367948,0.4065055817108627,-113.50028318897667,82.54494936224907,34.88387491964238,0.019427825230895535,0.281268570465282,0.15746169305267493,0.12489372378243035,0.0012913546085925442,0.06609948312573583,0.4091132158283222,0.6678883041685767,-0.5394027838921321,0.5542943594116836,-0.05952343975089834,-189.2888046764076,3.3177702160423443,17.456309492544907,-0.03980872240745683,0.0845099711579895,0.10866597038969254,0.05908130511641417,-0.2513120568701746,-0.12429633833867745,-0.6355571668036694,-0.3838371257848324,-0.6279856624279144,-0.35438524304324737,0.0459777133728356,-162.87297283922112,11.916835018488944,23.674062316100578,0.017093096646460304,0.09810730867105084,0.14350308537457956,0.10091399601264668,0.011919382472487992,0.013502813658420439,0.40729925952739243,0.2989271466652522,0.4398805941757694,0.7864228232483395
0.16,-112.68393908593904,74.21319984666323,176.54469777956288,0.14907791161380193,0.060381177683468776,0.04999550757999749,-0.03006868936485771,0.05569395835658453,0.0606223984443065,0.41402497955250794,0.3201322898890213,-0.2587890290499051,0.8849476675026005,0.24694199809790823,-113.4236810535639,82.68110077493908,34.733536631079765,-0.23686925749889798,-0.14244020488908163,0.09591582504972432,-0.02620087027377907,-0.03962534378108238,0.0406137212316256,0.4718105502439657,0.46122938368148414,-0.2398598440368856,0.43997002186059186,0.26066788127424484,-188.74968840893405,3.1407640641465644,17.28288285843379,0.0910301191034221,-0.078339574892246,0.29294701267495393,0.1423840405855634,-0.12475795602147152,0.2605133952423653,-0.5828117659085913,-0.621123152894439,-0.2868020435414692,-0.7173934791787104,0.08825524798292145,-162.6146425958827,11.856792695407554,23.713613441904858,-0.0858935038546765,-0.1564341976019525,-0.15505641392033093,0.22662838140260122,0.10307697716034832,0.12764163214358595,0.24674801740021807,0.3779211208522877,0.5115904314255282,0.5878859916066324
0.17,-112.81919694102906,73.942226132707,176.55629607673572,0.252344526216876,-0.06474688261351587,0.1111172537744671,0.10759602872690321,0.046948545324781835,-0.18661065423561357,0.5503583619777447,0.8417376016252354,-0.7223888140273582,0.5404092121493499,-0.09118017192574521,-113.4259149346533,82.64126727744345,34.76388894405839,-0.06989042444186852,0.1149020087173942,-0.18876420445028746,0.10653073337283009,0.1110546237036171,-0.197621220374712,0.6501723420690922,0.45858295138706695,-0.46263449135158197,0.3590896004396996,0.03902338334875145,-189.07615595824905,3.4600000156371244,17.5044044838019,-0.26116022677409445,0.04753285450068129,-0.21685920702550246,-0.04013934606053633,-0.1158772904727964,0.044432652687899914,-0.4913047386463707,-0.5719509078084499,-0.4322621735377009,-0.4480738059343905,0.326526508466711,-162.54535793651175,11.999475283356562,23.82230231681918,-0.03783514526704009,0.11216073213802971,0.22781752765345092,0.10038826075183996,0.12546593580049406,0.10318163117543448,0.5431541916293612,0.6572273894329315,0.4296630252171034,0.35025484896556613
0.18,-112.98726321948686,74.38495276952676,176.88801451264072,-0.03354625142874938,-0.009993711970585621,-0.18644954512142595,0.24519222196263885,0.32244012550787315,0.0901128466341513,0.33320901116189805,0.5084085617464809,-0.4994445563688277,0.4361655270690651,-0.00698109500220867,-113.3251304281987,82.59789423183572,34.40542824428806,0.07916044513299073,-0.006823908972873766,-0.06592834387494888,0.11492635917453062,-0.00569993697052688,0.43913636071414974,0.7603033827409766,0.6837092188017362,-0.2573548472083418,0.6593554240776528,0.14938628838609494,-189.02572771948402,3.4297776138227043,17.728923969412694,0.2767529268018942,-0.03152690051397605,-0.03438140336216346,0.031882474058618965,0.15378854574223383,0.24872446231887466,-0.7533921680133401,-0.402835711009627,-0.550012195085693,-0.7083344941513485,0.1864295397109771,-162.56993703625514,12.025897604038937,23.602802859654428,-0.14924087573019282,-0.09548597813211497,0.09685712885843331,0.2140871480426134,0.16698364557376127,0.029591060519791296,0.17757771603212455,0.4672605692028527,0.4386277131545522,0.6876970303268994
0.19,-113.03665205179414,74.22340284438023,176.70626899795866,-0.3294029463409956,0.008652674532693624,0.0013926054854399988,0.24297684555669394,0.04277260521103885,0.2413070492965398,0.5831710721119903,0.4731972231095605,-0.5591580821176435,0.5752111649229956,0.22563130796011532,-113.39051599085842,82.28552371768527,34.480716108688696,0.1068285568016068,-0.05544322915204889,0.23357118380231578,0.04374867836794667,0.03889025541980694,0.13294127030803046,0.5383071071474493,0.47321371393263245,-0.21333644486208936,0.5886931881666042,0.3926342762986081,-188.99652969832067,3.4698846489823554,17.50527617104768,0.13549130959078845,0.02311057082723543,-0.2566140643040439,-0.12540460268107717,0.36794679506215644,0.48657707720867355,-0.6659246483416226,-0.33085458340083773,-0.5830043183660394,-0.3428709685293919,0.08708781640326643,-162.50506280121638,12.068206126605427,23.56122542468703,-0.010420812134438767,0.19926269702357652,-0.10921130414494887,0.144472931581347,0.11569292449014464,0.11041804511462083,0.2534332132544333,0.5002944832959083,0.3252985136147942,0.5129734697881793
0.2,-112.76327158039308,74.31402726029512,176.67450098509127,-0.40061749929393214,-0.2068316901540113,-0.0931650345169405,0.24162614645808345,-0.07243242055830384,0.13382958411725085,0.4356744770865578,0.37248062264157805,-0.5566461290147734,0.4262955556635522,0.399638144675164,-113.56564745966371,82.08060554475307,34.07887089313623,0.13316721220441607,0.027156199680471442,0.22232102162975087,0.17621969675363733,0.20274813105625022,0.1373663590456362,0.6322843015720627,0.6779014935596338,-0.7109641177912087,0.461465940519717,0.562343773034638,-188.61385415594143,3.122397514191968,17.553311876695197,0.1499209267995415,0.020544220356252467,-0.13641941791262496,0.14936815720445193,0.19968567224283013,0.1139247821214805,-0.5762261586017954,-0.44497426110855176,-0.48368760473665084,-0.2925979338188833,0.22644298319506162,-162.61126571022623,12.072340272114749,23.707410253923534,-0.02306104448775223,0.12584929825553942,0.0643238812484224,0.1430446943794997,0.13481272228799782,-0.15648455523474655,0.3379805146008399,0.35407521970046146,0.3249433525466504,0.5181756095201041
0.21,-112.55533745797142,74.17593704461268,176.59143620507652,0.026450582886571004,-0.049245194034737705,-0.14220762850673258,0.20391005853340172,-0.031154607976388304,-0.11950000083967133,0.7243983001596412,0.5428790901998868,-0.42508217934683074,0.4035160718904802,0.4833395688118909,-113.39972244324542,82.20610943793287,33.9092381792589,0.06391774959568788,-0.0370096658714754,-0.13723820115197738,0.289983843758073,0.14937492905615612,0.040175048344325615,0.5202615271589959,0.3470569176665269,-0.22702653047849453,0.5833860489152816,0.2929756575741059,-188.78329380688734,3.134734857084178,17.579046914910865,-0.028531054808829406,0.12738421381659792,-0.005271954477390872,-0.14959811869132583,-0.05029799814408038,-0.03788047410324906,-0.49983783353528194,-0.49007920013523226,-0.3418967937515726,-0.36032797651802273,0.15500436326270925,-162.73380509426792,12.129364078797613,23.96036916803275,-0.3099069970970751,0.04087088675278768,-0.05326461126879237,0.011071435667124235,-0.023849739545836787,0.05809180053383523,0.5050427901738032,0.4768712072357373,0.3469540272934587,0.6178720541903016
0.22,-113.1007366787482,74.41297460984893,176.31765235137658,0.16752695408315907,-0.011304765322219835,-0.2529873619715605,0.16724123142023162,0.084955600558002,0.1772113014098651,0.3519877128581659,0.2744936871147095,-0.5680589709103058,0.4096905411082369,0.05635058760597621,-113.60354436348364,82.63210337813194,34.2196970559884,0.08683319477209558,-0.005013585404248841,-0.1404938755176573,-0.10462071975900968,0.0051285590995488045,0.19108128452139966,0.40925392795370663,0.5005948832637502,-0.5540354461694007,0.5035908359304271,0.5255814547750558,-188.80326199177748,3.250788839521157,17.345840379849495,0.1168133984911613,0.10651549616545405,-0.03684333167618247,-0.0839706730566696,0.08999464591105578,-0.06094516288878242,-0.6080809295739197,-0.6687580152753481,-0.5198365696765882,-0.5098232817571366,0.1356804720739107,-162.66475750982642,12.098112179361774,23.639910313565963,-0.028586616694383137,0.11722901439686628,0.09578374162411443,0.6093575825461311,0.2601808257127278,0.0002695650161287991,0.2527687959521611,0.637985160790645,0.37680807417829143,0.5157992676728098
0.23,-112.80131718408815,74.4537033731569,176.5189762338823,-0.22135945161960707,0.054559721024026474,0.13084795245429093,-0.023517720289478627,-0.09658804752038813,-0.11197086438853256,0.4391210473174192,0.38587023577757723,-0.5362954553510685,0.7635033939894378,0.293444939249056,-113.5932456441989,82.10158019319253,33.72532844027921,-0.024331170943515765,0.19518188326331848,0.1353862161516807,0.1762046125960147,0.0171212328700888,0.23291993638960748,0.6639029026128377,0.5502001325722463,-0.5554193054513296,0.656963985332163,-0.0036008303640590877,-189.08787822931046,3.239993551844898,17.359857445837523,0.06799868605127851,0.01230806452653431,0.1412351158624857,0.06103399904199621,0.03171492531684398,0.04125289092924119,-0.5426117761039466,-0.6140773686214683,-0.36412511803863473,-0.8075025482393523,0.09514070644475078,-162.83327357878574,11.760845577249286,23.782784802331527,0.00672186983177174,-0.023574269023832917,0.02947674418084341,0.1060788033808134,0.11476636834615529,0.2813878376010236,0.40560477275145984,0.5095294917124813,0.6318304277756187,0.45311518958245256
0.24,-112.85548893788466,74.25896773078254,176.55950386715486,-0.08542321440364414,-0.09393822699579214,-0.01953901554280038,0.1576257631937249,0.19713461070808477,0.15475836082101205,0.6328412845130872,0.745708232371904,-0.5930093594053418,0.7526655241397132,0.2979024634618532,-113.40630527574103,82.08009038963783,32.97464438608341,0.4606815657473169,0.3316310402699778,-0.021285346350775235,0.21637277095137192,0.2735213690493982,0.6563383895585099,0.6521765852848658,0.6792320987984368,-0.3926267176604844,0.538179804775011,0.029501782673265753,-188.92167286828723,3.1261061571840396,17.408506757598094,-0.021214802256142404,-0.22648622259891021,0.09076255578816525,-0.012397859591324625,0.22373310383451367,-0.17024454198790445,-0.39907579168950874,-0.6526604477012823,-0.48876095681876275,-0.5028567634091506,0.13396015446929013,-162.68002528527134,12.00885326075043,23.824555275250745,-0.07265485695231785,0.15150898256473022,0.010829476794075997,0.08411718773038351,-0.09894073541136691,-0.26195321441362907,0.6292335958876027,0.6258134197226345,0.5183607250396552,0.6855481174156366
0.25,-112.78035499904563,74.38155387606413,176.45785511695925,-0.2841043330607421,0.23561695695490123,-0.17533017986430666,0.23946843787129624,0.10045663537163206,-0.269992247369056,0.5238476486750844,0.29377001583083334,-0.7199261529896145,0.521521941346106,0.45737168327027944,-113.42664679155628,82.22276156039281,33.03813569507114,-0.21808775706340883,0.0031296510233604635,0.1342140357899362,0.060064732461009455,-0.24509056360371528,0.025575335085252796,0.6279325763039543,0.6598308510018878,-0.6463144613853596,0.3263126634402514,0.3409288781030518,-188.87930940263902,2.987697518407942,17.408637708722228,0.21302964581475614,-0.3039837098896415,0.0039625529449705404,-0.06273386606040973,0.04341160789415582,0.01816253928842645,-0.5299467798849629,-0.6668953211981645,-0.5450667144446533,-0.4470301487043389,0.40772169481706605,-162.5773547573792,11.982115664621386,23.83390228768651,-0.019043022818263984,-0.10484009855275733,-0.004276183847513739,-0.040743804276183765,0.06062025205512729,0.1088824318266862,0.39004937197080664,0.5003200063662463,0.6523467008199155,0.6007414451837146
0.26,-112.48586836094026,74.39131506897778,176.2555605972449,-0.07186009994933895,0.02885263176179466,0.07447891453113265,-0.02847873036194727,-0.04992160642240005,0.18481302077692874,0.30878345364812054,0.4784744482332482,-0.46830632709527203,0.5023189134656297,0.20736107881890856,-113.49786907213004,82.139468828615,32.62122903712026,0.009485261962098257,-0.061620298140630574,-0.11524253267814752,0.14897455992970504,-0.054329734304315,0.06728607277938879,0.5232474267190552,0.49530837927589094,-0.46477948699219807,0.4507171802717798,0.16225476167389408,-188.82605283739846,3.323049731434321,17.21830750264508,0.09376162445740141,-0.10228825906935732,-0.1913946263122571,-0.10150253445118569,0.24700516417891177,-0.07942847606155726,-0.9935711707763321,-0.4207334496413618,-0.3334542680040439,-0.3496581921108053,0.3798660202979924,-162.76175606092724,11.948083822083346,23.78456050503851,0.06528390394096648,0.11631027478365834,-0.13533223574060482,0.15939942252388425,0.2520022206750334,-0.07389939978983917,0.37362619396556235,0.30211044038256774,0.4904450669658349,0.4166307318595132
0.27,-112.84318510287034,74.25153283744031,176.5262242647909,0.08019201588161531,-0.09382155693565843,-0.20540676554140172,0.20895233751497772,-0.06945568951909512,-0.28623772340867104,0.439936273327432,0.5580211820991672,-0.42999989356903046,0.7987743371741424,-0.12293017015315671,-113.27263420803706,82.0843046447653,32.90472326627166,-0.18960294147050344,-0.07190323138650077,-0.33755260678764604,0.00683080559726057,-0.0870538198209149,-0.47794404221827996,0.4463930395413577,0.7115869853809145,-0.5041759929210824,0.6739812465445543,0.3862845235409211,-189.22909209493022,3.349443151364645,17.530651091332654,0.2861969406701271,0.27556606110066834,0.0894956662893602,0.026995897619744906,-0.07085904009841164,-0.01993893338459242,-0.4434028605220596,-0.2550726187843195,-0.4806556773982489,-0.44780906962064093,0.3970924809711982,-162.7582180360849,11.77792969448135,24.024662497255875,-0.05505453790182081,0.35796099327017317,0.06955545418208413,-0.005580160478369817,0.07085501650823371,0.23753609551226512,0.6378457880761117,0.6031373078706695,0.333172149383432,0.6023572970056721
0.28,-112.94643222057175,74.23284324604286,176.3587271422918,0.04537668742235444,0.020449130073748524,0.24750550877791339,0.020367022343677058,0.08732893956937444,-0.08946595203135303,0.5658008278457872,0.4037354796222852,-0.3564868776121403,0.6758019196835656,0.07765975720214612,-113.73892268369791,82.08174355387506,32.248115718694464,0.18618977491447886,0.29586300530091103,-0.19662309996872301,0.22948290869444393,-0.0131983377379771,0.11404907376478088,0.6589031860428294,0.7071115245572918,-0.4280904694585566,0.45694386726248143,0.12596912462684706,-189.05167853815828,3.058529107664894,17.186937428763137,-0.10597058851305476,0.01259162305210957,0.04979764928906715,0.2420027333043118,-0.0418385759965734,0.41236540447637604,-0.1830286690881587,-0.6851164248266555,-0.3087017350463339,-0.26287803550106653,0.18898912351094294,-162.7521498435574,11.766974966537376,23.589778065596935,0.19838689573398036,0.019891591925765742,-0.18966068780722234,0.11506070013645839,0.1996922521662784,0.025091423533540352,0.740926161225845,0.6095731929494306,0.5278640168137793,0.554792593439581
0.29,-112.66714839573461,74.23444698885906,176.2990798708994,0.1863003421987336,0.006601443239914767,0.24356760567524133,0.14544769272071276,0.021621701020063777,0.5218739966136953,0.5213086703071527,0.5873045091930554,-0.5357752451655907,0.6883178333151319,-0.07701663643468512,-113.63145917898686,81.81006901051771,31.3080869963289,0.2617918838784166,0.00027217688331801493,-0.12188357942513935,-0.05346589707739102,0.19504454617907177,0.13772778139880656,0.5386197540850836,0.6177488248992826,-0.6115126312156919,0.3884294492222557,0.33218637027408604,-188.91510134147475,3.1377351052796043,17.785969500871293,0.04505798639112193,-0.27416046528609783,0.01524932353592437,-0.2102307762820087,0.2663358560061989,0.3557740024279332,-0.5601019541602693,-0.7953282742789941,-0.39244722515809805,-0.5336024044494987,0.33641474801901716,-162.6146676856779,11.833924513872335,23.706166029642848,-0.23954416846204313,-0.26986205136929375,0.04901936530288676,-0.019877730127608996,0.08692616870136571,0.07444511512873336,0.4276529829083459,0.6651526163510052,0.6081541413452751,0.34724974011654447
0.3,-112.67776892533165,74.29697887808041,176.54823782188572,0.26592302119912,-0.04487546366499344,-0.04005708946903923,0.0416245629337886,-0.24579893819998827,-0.12234388706709429,0.5296211198111849,0.40546587405121015,-0.17394712596043638,0.5021648380760958,0.23902439574123557,-113.49484549155964,81.7756244014246,30.838822120895795,-0.1953156119210625,0.10732326542712681,0.047087837782499,0.3211337521774933,0.160236658392549,0.6110920451629667,0.37330965787835596,0.6378878380156384,-0.38593999148804614,0.6104155301915983,0.3524717631989585,-188.95066925442745,3.1652418224418306,17.359247856670756,0.1094814631208471,-0.180673279038584,-0.05680577417915014,-0.04817763531262314,-0.25575000018522176,-0.004424503686635162,-0.5377859592791701,-0.5403339518749585,-0.27331069251811696,-0.36296908689737906,0.21134376972029148,-162.69677195882562,11.97570681324326,23.79642021393679,0.06623630308140513,-0.060686602372600464,-0.19101068888950634,0.01096282124799633,0.09862232960299619,0.027322339106013813,0.39334469428732255,0.7009652492585995,0.4884918850680015,0.6047157801428487
0.31,-112.81793552644302,74.30609753751885,176.34948971188584,-0.0510024058551689,-0.05942148012940228,-0.05758906104143989,0.10924183621225508,0.21827001583374095,-0.054658340838898686,0.6370533713093971,0.5790011446806865,-0.21591136981510187,0.1700457586933527,0.28811429851356524,-113.75902320293032,82.04405109691106,30.589319359038008,0.07001578435590575,-0.055790932585219305,-0.1574393940183616,0.0028540837445863373,0.10533726471478194,0.2047992695017948,0.5665666345403257,0.4986234779507871,-0.5156354417605944,0.3982123232806026,0.5954806691333048,-189.14562042957888,3.2085397369762183,17.395622962986707,0.0016265528898786463,0.01094285987980781,0.1840352373579795,0.1960669954030056,0.11852706029524832,-0.06444762761075487,-0.6411389990753177,-0.6218384100696089,-0.49700709183932956,-0.4168937916501913,0.244114527265301,-162.85865439643925,11.885135118708432,23.68471190945697,-0.17327707093124864,0.065823265633085,-0.2559002562066293,-0.1689101005074043,0.02802094556786744,0.14443037946700257,0.5164849285171201,0.5143963398559617,0.44112164487936273,0.7660491097628581
0.32,-112.89398519914229,74.07699623576858,176.5770398167534,0.029878535368403958,-0.08922668909767499,0.13190274435483226,0.1206958390012679,0.2163688342117917,-0.14374618470774206,0.577618082159413,0.5795147391448545,-0.6082454431454729,0.43517237798924446,0.3043520306750261,-113.6761310871955,82.14206243197303,31.332936957494013,-0.013860324330643596,0.2537477623244115,-0.06291807045666377,0.22402831860015346,0.025861892802416117,0.6185033640438651,0.6252323638349502,0.47683977016421464,-0.4311824839345907,0.46407753663325074,0.4815353184266471,-189.03504530295135,3.104205476066068,17.359640761770855,0.13197779282275388,-0.07993518078673144,0.06906189927511448,-0.23960508436459768,0.024778076749816302,0.054838448403721346,-0.46364142008755005,-0.42908187689254834,-0.4055872539526844,-0.2461985105269906,0.2641372340349588,-162.68599978943442,11.843212728005517,23.73813924367735,0.3652866292012048,0.14652998738452744,0.19733628381664176,0.1112577438126929,0.1267133391649694,0.13383334837265282,0.6065681404831316,0.32966104158847764,0.4436866889988519,0.48662205986168255
0.33,-113.00903082889631,73.86029289731523,176.39702787472982,-0.05996842482728784,-0.029740597802420207,-0.007682980715292581,0.3377675476789215,0.25695927724834466,0.10853423767983664,0.23956625066715187,0.3183792385356068,-0.4826046646840463,0.6833891030738537,0.5935245633726182,-113.81657194678944,82.17100699518946,31.699848329658604,0.02973169092949076,0.4015322438113244,-0.01870013924732141,0.16179008366380385,-0.044860438224509316,0.32085802937712254,0.5974542461187974,0.7914246146995668,-0.17293932168301737,0.5525756804202797,0.36569329582649107,-188.853241819198,3.2581584172342635,17.265008718847607,0.16058672870954777,-0.016039050683769873,-0.06324848569592238,-0.2560338967185801,-0.20478467498074532,0.15186082786181812,-0.46123043643449113,-0.14319097296987093,-0.8360814278777109,-0.5633134149874778,0.32416226914672963,-162.75564386492593,12.187507569067721,24.058261167358324,0.3293356615129551,0.3475549389345156,0.04756752482259513,0.35417458923229445,-0.024993615768341387,-0.18565483454973902,0.5309400805923907,0.4438897168501659,0.4225848598326602,0.743486072981827
0.34,-113.19313185147449,74.12680465824832,176.49878208042853,-0.16430201523509996,0.17334880993298327,0.14267853281431495,-0.04521894612623499,0.1132882883675593,0.05299720824152559,0.43145568232683407,0.353225459924862,-0.524686250466483,0.5187670318835572,0.6481287371336957,-113.90959849916436,82.51656074319511,32.4606615039782,0.031346516230978325,-0.0016905942178076644,0.16421131570269729,0.18979879344203815,0.1519636712024651,-0.08585341291558149,0.5397084228578395,0.44368013193737577,-0.34570120173964547,0.31332456138509845,0.38870773149072707,-188.78330599809857,3.252333864041561,17.58429630471527,0.16752105056794908,0.15039501712597245,0.113397588582559,0.16776997654326822,0.04079320768743977,0.162394450213581,-0.7193622264514822,-0.5306884306249953,-0.3881150685955419,-0.5667738825662635,0.41874385138150505,-162.54871614328974,12.023701657475648,23.7871681963897,0.16448421934585647,-0.013157458582585348,0.16710852803409296,0.27140166301975066,0.41556177364294977,-0.03339244209751131,0.33552941766705324,0.45976960089840235,0.4119852604554586,0.4783551493967964
0.35,-112.92002429963244,73.81577587207967,176.41223541543582,0.054488514726156484,0.10314414766433083,-0.0876586979929028,0.17622041524230891,0.1357189200806283,0.28340328792732566,0.5081534993809077,0.668409365411716,-0.6375210127962868,0.4846499762137784,0.5368956670620222,-114.00696007877518,82.49171886719205,33.63592327671328,-0.17791554683625854,0.3015985309647881,-0.07402139146549525,0.14377875174712973,-0.10945035756855892,0.47788322509924386,0.6583608152081104,0.5247920711438168,-0.7986627515506214,0.4972973084836594,0.3444748003158185,-188.93256224934825,3.3109839343309684,17.581796941699192,0.22904761174330404,0.09265313890179576,0.1446703101909326,0.17405967568357517,0.20422136235992766,0.13781924271244264,-0.8484061495951323,-0.7758421436733223,-0.5952307714370435,-0.6419756280284982,0.4981627827940611,-163.11602953350285,12.074965297130928,23.85941932395364,-0.17571911515638017,0.023331941595161346,-0.1362602865581906,-0.02550238664229118,0.7675458957904494,0.11449681271351679,0.4454124227243461,0.4606559296436351,0.5694364684534818,0.5992464970457616
0.36,-112.98714923068513,73.66023963576315,176.51606212424616,0.09171265537010674,0.35482637755903235,0.0508471983352017,0.19450907297483075,0.1350668478441686,0.6173932437767982,0.4504177438175929,0.562545598947987,-0.47214120120310377,0.6387744573998331,0.3801795570437471,-114.21327485358675,83.40091409282763,33.39526112828544,-0.03318902964827307,0.135024279376584,-0.018697251752030936,0.3725540276044022,0.13330970713267282,0.23577678801874435,0.33301588641140517,0.8170095227038886,-0.5329303941415136,0.4417668788119778,0.27496803147745286,-189.01889618126916,3.009676241176807,16.926090790998476,-0.016157905974304873,0.32816891139508364,-0.02329056771449045,-0.11041010508621538,0.8183505362476082,0.2836324987182473,-0.4857938098830633,-0.6387147172599226,-0.5525855957189183,-0.6895472209956891,0.1445123147252996,-162.82709588130888,11.789377075047865,24.27877145817963,0.09990202527441713,0.296610380388017,0.022020713282746324,0.3456129433824036,0.7235336697717258,0.12933326297175135,0.659486573275459,0.3661589641863804,0.45580338632989775,0.37858936870475246
0.37,-113.13443236460573,73.43494875882394,176.53044450578244,-0.15981347766779078,-0.23690336287796535,-0.1399936204819727,0.11462868063241846,0.2324782961812276,0.4162787317091511,0.6671083773777104,0.4302404878415783,-0.37234408288134985,0.34215379653593136,0.14917245992862416,-114.2216843681655,83.43415567784804,33.296540019984285,-0.0030327126073287497,0.6222348962031661,-0.023182855962365523,0.03452137980698626,-0.03368101495775909,0.4733967181738418,0.32411166563779004,0.23741059783880705,-0.6256882572535863,0.7714791133177554,0.3361843720191421,-189.13247289207104,2.931482485788101,17.118369200030244,0.12361626250591332,0.09631777947862843,0.05940662671452244,0.18880739944054778,0.6193191829959531,0.3605467219960291,-0.3973665629556229,-0.6455150113442458,-0.5104562268059738,-0.12896962323756228,0.23083984555927756,-162.89249120883557,11.718369733480792,23.977189274674817,0.16580688796425136,-0.07302005609465223,0.3582141399855818,0.5462800482223107,0.9106758809224812,0.021857901687934306,0.28775094202109747,0.26903243757822853,0.5693728802052301,0.39648389019783353
0.38,-113.13662302749628,73.59622656958946,176.189467185119,-0.1942989861453137,-0.12509680638549603,0.07844674499762591,0.024513556916424872,0.31873446729670585,0.6145423932667498,0.6338114317130171,0.34827553712708126,-0.6893227273591588,0.6819903536989662,0.1254893440732016,-114.05705616995309,83.82293054500931,33.35308269110965,-0.011754253427364778,0.47695614859669605,0.04302715036633897,0.09892414814439243,0.01565365267597124,0.3208246693727731,0.3747190717060056,0.6039910148530069,-0.5044267559616515,0.6917406698330553,0.4773970520907424,-189.03462590573048,2.7616202276392188,17.088408710189917,0.16244557399089327,0.2357235011662175,0.10703669616975467,0.07741357236102904,0.6792464335618493,0.3693013251775067,-0.30867845710505554,-0.5965670054804119,-0.5360521223785976,-0.5024970500020741,0.35513553205758086,-162.6298687257905,11.864183373010002,24.254641132204043,0.3264257372691082,-0.002706839106808079,0.11890840029232641,0.4691153579393094,0.5473524743697895,0.10537864167665509,0.29756008703739356,0.5579142178743655,0.4658095268431585,0.5203506351941972
0.39,-112.89638118076554,73.65495686060788,176.1734167331783,-0.25924609511162233,-0.2453310587993816,-0.03102144827995712,-0.052652966662075945,-0.03126604995634702,0.38058308479553704,0.5491973361236451,0.5850587852326303,-0.5958191027420641,0.5411388443179641,0.5354288984826011,-114.1451365105666,83.92118897007288,33.381937872896664,-0.03015421525768823,0.5959499023405462,-0.13022622997311195,0.45214367903118347,0.03957571858017983,0.615884607161072,0.2629866196123941,0.46801334659210897,-0.8313503554260686,0.5161450903319789,0.6547773576480144,-189.15159825044117,2.4831083514648253,17.101951126914074,-0.155900546242915,0.012635727790942547,0.22920547730464577,0.33261845464424755,0.5649264675536514,0.10366196010479034,-0.5424584008409469,-0.5075974093875614,-0.5546048509412329,-0.5465120341442291,0.24243997854280655,-162.40678467394733,11.854012959183846,24.287520994684364,0.03654232817005021,0.17350808675755808,0.4405038210426816,0.6018249314099162,0.8534750168274983,0.2369535022090199,0.4416918104360727,0.41046473310516196,0.7142061759785795,0.7225655768497691
0.4,-113.05854437516676,73.55199740535564,176.35161292893932,0.1997258942033659,-0.1925129457328288,0.12111888994290956,0.15009937292149444,-0.05270498431218748,0.45031691398374385,0.5173028442259253,0.6585329738193295,-0.3873534913956584,0.6828070249402913,0.29827619845997944,-114.23540460727118,84.47331268321868,33.23376711424963,-0.00953724108730814,0.67503292954004,-0.18854796381919675,0.5791408842734144,0.17395397837368534,0.5602212140950326,0.5721975689996461,0.44817383864928323,-0.38183439362848526,0.4250110906605127,0.24938368444938272,-188.99658682091396,2.71762056556635,17.137143987472204,0.3051321390448084,-0.05214511131949922,0.2356839958728693,0.0968052632251015,0.6255368238024037,-0.07677482760742843,-0.5099809359767463,-0.7514660101989337,-0.6234238208696152,-0.699662241689595,0.5195227452200114,-162.60542520194,11.785772582913184,24.49170281511463,0.08773797501044288,0.13050582120639775,0.1853471804315639,0.5674323608074794,0.7804811945495678,0.173264411121891,0.21052943414288766,0.49126295739779063,0.7837855687145157,0.6195876684506937
0.41,-113.03807158153775,73.14500122659591,176.0811391566858,0.2774326281992007,0.00822411474286222,-0.0008217208573931389,0.0724687958825523,-0.10126696319499909,0.7013499947386349,0.48957127904247133,0.5144460345967302,-0.5681232115212752,0.7279956457766021,0.4770475555742598,-114.24832240818323,85.05290038256393,32.949642946525984,-0.07887811277233753,0.7200900891986082,0.05791902277826917,0.2977856346001897,0.2939587701851978,0.36237200721577445,0.45374985060018613,0.4775223938132644,-0.5320163392698295,0.4395135140130546,0.29978499069594655,-188.7038061795252,2.6395179198650656,16.981843486201978,0.16145524197051714,0.09897972875482478,0.06126373572024996,-0.03301626182800382,0.6605473564308159,-0.10691225085432428,-0.3476442113932406,-0.5981325947873326,-0.5611247177041012,-0.5003527737886017,0.26189570368299564,-162.03506649991928,11.87021052233723,24.952468747239163,0.16353722670160317,0.15302361427011563,0.16446587296542697,0.3160151459948507,0.7670864849316931,0.5595243948535439,0.6805431068978796,0.4987953476758711,0.3713065400876088,0.7039475233396758
0.42,-112.83900165608081,72.95365972722864,176.31068090575022,0.12531221106732607,-0.027234073507647314,0.07394105658418751,0.40894069737183303,0.028535355674253485,0.7358118535756795,0.6690542350249196,0.43818847494722285,-0.2311259715190459,0.5413938577311218,0.5233854677591164,-114.25380098312985,85.66196317598796,33.036670241825746,0.10353375381905547,0.8904635484740141,-0.054713783087300856,0.3236991770927084,0.08127272198192015,0.593761553282874,0.3682449839796357,0.4868704873174542,-0.4523139819361476,0.4972060706939483,0.21129706475066867,-188.462112914972,2.4145982227514153,17.295524794809126,0.14623824392772344,0.09491935043598508,0.27427982939140816,0.1223248129314546,0.7287686088128816,0.1813836919897438,-0.43006766551590925,-0.6103011054662926,-0.6838989852053282,-0.566193239529705,0.4887962176555849,-161.66832133293167,12.373523481387807,25.16714707104183,0.25556032713229054,0.2522407862583339,0.18211139153412803,0.253438596403242,0.9989089738418303,0.011324349079600032,0.46737475586304056,0.5602389564245515,0.39234767250206054,0.4494832380072047
0.43,-113.1777530053475,72.93957053159751,176.44190405875565,-0.3603575966464782,-0.09152835253087341,0.04562322987416177,0.21046714724287297,0.019634013091325352,0.7724103916568404,0.7712758979207252,0.5588714556780129,-0.5166752762970444,0.5412496282043631,0.17358321839923643,-114.16675080024697,86.08027301892602,33.46347921424606,0.10675291698625583,0.7517556946241817,-0.004475154805052492,0.728754201353689,0.3651269430557145,1.00957727539979,0.6174007079110039,0.5695818335410864,-0.6744823920471825,0.4051209897655218,0.7447777121915877,-188.4576266606519,2.384218198013621,17.43386008186312,0.13039641601613325,0.11699612825118014,0.2262665073336091,0.19097122397698688,0.7608363284642368,0.12158428871478309,-0.5376033573587733,-0.4876295698417012,-0.3029973996371519,-0.39799560075958546,0.7463043611373312,-161.3855098709207,11.98809895075708,25.216791223813072,0.3209163639445076,-0.04981550573139601,0.4289257103794919,0.23511649141683028,0.9182487928502527,0.19042561491703502,0.5108475329690698,0.5786159174104126,0.39988988148112514,0.404465429075736
0.44,-112.9326602825092,72.22765706868373,176.4807451248047,0.2307491266153835,0.11052330917815412,-0.09516731044908347,0.5021686273829384,0.2080864616542068,0.7618345016526139,0.4111698542310265,0.581999066095785,-0.41078146129632076,0.4379353647235551,0.198021098822433,-114.28824143552937,86.20920886238173,33.02035670519166,0.11284226429013025,1.0689227509661354,0.09292517682621503,0.4805439569290396,0.10779424128658856,0.6687112627166234,0.5136222413454843,0.23790136929665742,-0.6514172707340288,0.6952406349128037,0.531681744126817,-188.03296471212857,1.8930310100045469,17.16119983735775,0.31526531668391206,-0.08485362409577799,0.11483488756369994,0.1086326030816664,0.6281972615651916,0.11209508976458392,-0.30598229421950524,-0.27606010389017305,-0.695291554093707,-0.6510230726317728,0.528975609153563,-161.15278197218592,12.24888956762162,25.86510915039644,0.37198966750547474,0.09668573295858732,0.49441330278254225,-0.04000537972721337,0.9895459615528677,0.5229732524489961,0.4849524846212874,0.6031394919801157,0.7417430450254837,0.5044156503942041
0.45,-112.85714250972579,72.50452958189966,176.4450927933853,0.10225951842498854,0.0257098600772126,-0.03520868035318247,-0.03456325043548379,-0.025144664865515504,0.6941648615217564,0.6839092137949929,0.34595379611646115,-0.3243726440210916,0.6147438402484675,0.3479261212547552,-114.3459196579978,86.23045830607167,33.052567869795354,-0.1219491780290313,0.9350838766493494,0.03960149772004469,0.6520225635885261,-0.03458403022224072,0.6797873619440838,0.6765532304015176,0.2234625342547381,-0.5060337061798834,0.3515387926855209,0.33490770562811034,-187.17208145654067,1.8642684246945125,17.154664695494425,0.1785304312813021,-0.21999504552640786,0.4548444012479289,0.005675598079777973,1.2423786669557422,0.3600837720353364,-0.568477490447428,-0.45727065503527276,-0.41379372312761664,-0.2829063703385293,0.28209274764795894,-160.2032066016261,12.310025301337383,26.462246934695873,0.4140227616760739,0.15864067614492422,0.35588642401455856,-0.03546921090548352,0.7936131656241777,0.5277387597680816,0.627476335175615,0.5302945341426714,0.42417632714799103,0.40357102649384596
0.46,-113.02621625154516,72.285337290728,176.35466988677453,0.13775159979813578,0.11074670682653348,0.08181588811535055,0.3243449567200134,0.1581482041423531,0.8088844404822753,0.6071763255928218,0.40282381896466485,-0.4848550893531399,0.521706456054449,0.1487633191800485,-114.29150774684992,85.70294673741931,32.980609411501696,0.1870682474425428,1.2679245423704197,-0.04866057514218576,0.898336241024113,0.20167705282371762,0.6126239228964593,0.6709664482627588,0.5550096931188413,-0.3449851418431764,0.5777805506028302,0.7845073721483773,-186.83368581414473,1.5774583015695844,16.767107413311578,0.17875642397747446,-0.1520717983494661,0.6553278241208957,-0.12629546191911342,1.1077037738725728,0.4126941657991714,-0.5548898209902292,-0.8194447011625324,-0.7829810217374178,-0.6652395264057323,0.39320348772081654,-159.99148447118827,12.200809357509877,26.35263882465667,0.5209170049138004,0.052918343571139045,0.5184466435635451,0.2413971756267223,0.49578795534104486,0.9649686915112535,0.32982778854333983,0.47504940820578223,0.6209905077461856,0.6353948241749617
0.47,-113.0109351245686,71.867994284999,176.36017686644635,-0.15857820403353423,0.05697353882303996,0.2565882491124278,0.14641820336956823,0.3610522901364107,0.8338704893878394,0.2830059288823349,0.49596829227255235,-0.581068943587095,0.6801721300578456,0.4097961443172311,-114.34772132999731,84.04003867003729,33.04529368294701,0.011238240861957821,1.5506386070370441,-0.0031652009722813196,0.9755051248406665,0.24697568097903477,0.2324426464493156,0.5282397531309858,0.23169811999731882,-0.45150635304313924,0.3960918286110403,0.5232478085971655,-186.61793673865293,1.8239970491917183,17.004255217549147,0.09119752867512036,0.14749826796053717,0.6332230425909683,-0.0057438467022326856,0.5297853991370701,0.6961601609674571,-0.37042228250732473,-0.517506379366327,-0.38603924985077975,-0.38981806421092263,0.28362806798401774,-159.66368162106698,12.590309669529251,26.739368317471065,0.3046556150495378,0.39327194935586207,0.3990339535481054,-0.1923882566564216,0.32189668436611807,0.6595192020772961,0.7368694885798068,0.4944046057367599,0.4972025945952643,0.5181789864229258
0.48,-112.85889817539358,72.06118658463565,175.99082114999712,-0.09617961987006798,0.13397059374415368,0.023334883899401172,0.30107090682902565,0.3601789032356648,0.919393791781865,0.2466629457207132,0.6274950970178466,-0.42093139917503,0.5254861765360181,0.46217308000602647,-114.47080486427254,82.92395898789239,33.16420194817361,0.035354486818120194,1.7240694962430105,-0.02403310431891824,1.5832484365405446,0.3317988939059894,0.042244359299683676,0.6101942895901559,0.5159964925021714,-0.45406230843933865,0.36025899094525393,0.6777825365347142,-186.0060151326715,1.6857760826940824,17.0210678540478,-0.0718563806264198,0.07074183043039561,0.7246377196056398,-0.08288895756212358,0.7423422085007001,0.7625949427384586,-0.5028539115912009,-0.5998599469133146,-0.34783582960720283,-0.6618132959432584,0.4657012290168075,-158.79852676392204,12.202565769959445,27.038667511262116,0.13015011662936188,0.04552726795719571,0.3355874358690628,0.1830188308186859,0.12432583249145239,0.8736689848640417,0.6679296377777797,0.46383929765211174,0.4870140647955886,0.3749995625288664
0.49,-113.00064013244898,71.53336012584792,175.98611345474842,0.08072561996482402,-0.026283161905648833,0.05329345583119509,0.4055421806342147,0.3450521976783011,0.8374819639931766,0.4707656489911193,0.42643038045880516,-0.505030154535839,0.6182910442260989,0.5440666241648019,-114.35503766512316,80.46776951919809,33.138515022841446,0.04143992640046528,1.9814757456039218,0.14717153818376114,1.2741281918642302,0.638468008913883,-0.02092242187787097,0.650365852410914,0.46397320042467843,-0.30093717904693124,0.4741834981943856,0.5613709362275976,-185.293205574582,1.5779538061050873,16.973923848199515,0.2572715507740242,0.10052867141843565,0.416059076491577,0.09793073510685063,0.6681459200883849,0.7270550619516405,-0.38290128266895507,-0.640285812902942,-0.5310691597904634,-0.5860033937641602,0.6914535756679276,-158.49705207016348,12.030732698422252,27.330034933208943,0.5072723984279989,0.1259685079456661,0.5133188396690826,0.3393656697035466,0.3277079391517077,1.4174459776465322,0.20747607262590123,0.4313691654496469,0.6701458261651734,0.2548952560983549
0.5,-113.08639278545076,71.21470115445214,175.88921602402309,0.0010578682888521505,0.036221502041831305,-0.08546414374009591,0.11777334368116239,0.26804250130970936,0.9122146325174606,0.7625220969040601,0.45401770210095727,-0.4870334013028162,0.48889786402131974,0.44996523702494823,-114.62606217700348,78.52942582717837,37.581326964197864,0.3133513115663876,2.2215791352783363,0.03702111872154397,1.3446697847959337,0.5305978847612679,0.5270991412858297,0.3717225412082822,0.3609383274323607,-0.30134211912376296,0.6680874178098739,0.4056110578468821,-183.9365664813072,1.5693675817797275,16.92602181932382,0.521378592008631,-0.06656857653140925,0.6366950229328959,0.07004767214774459,0.8444314259408047,0.856687397529484,-0.5606393046402148,-0.6981263573906149,-0.480174569524326,-0.545098618449861,0.5029550607774798,-158.05356772674034,12.263845399272538,27.33175671178806,0.20010154503370836,0.3595357043365061,0.3677731985472108,0.2658244362196238,0.2871906798815606,1.615530079376692,0.5361882088241695,0.512328959072702,0.5092001113267794,0.3956615951197575
0.51,-113.34785611354611,70.91115932607315,175.80967039538763,0.007227799984082246,-0.0978479271846514,-0.23185503414532616,0.49097844125107765,0.1558587584414626,0.8411859986305086,0.535491678172601,0.46074982044047885,-0.5577418740832505,0.29626288413704466,0.5386720128773226,-114.6259799477861,76.1356954411191,40.54939956536232,0.14526957363316018,2.0741703323174496,0.17185822782054766,1.7324517137787074,0.4957758045248887,0.8098461124890945,0.3565538647081335,0.3131520018085336,-0.57242359843929,0.6248342341466943,0.4458423550568754,-183.51449019070384,1.3050706661998521,16.521748168184715,0.21481669434805614,-0.09286547506056686,0.7089554581870209,-0.040706890275326355,0.7081378516189503,0.9246294521647485,-0.37731642488587563,-0.8441355228545544,-0.5532387622110564,-0.35622611115808134,0.9422541361473401,-157.44932244440054,12.357288689801972,27.438890015609402,0.1231324204669638,0.42276043888270687,0.6404167299425095,-0.036188965866695344,0.6292202647487345,1.931075058829966,0.33888139595967975,0.36185534869664865,0.24411749813356454,0.43322015296608424
0.52,-113.34187788943984,70.63667936761205,175.83877506107459,0.06784081196849745,0.08554066436530466,0.056750758375569754,0.8720497021504078,0.0834071174154497,0.7945730499730362,0.2421112333022299,0.5245218862804187,-0.8169308961164372,0.6237587192118489,0.431189558826513,-114.40924748651643,73.80837181554293,42.736208343438115,0.2554443911295037,2.1310818427021596,-0.029558291065777585,1.498187973500727,-0.06344226678315443,0.49141835670954426,0.4579400387992754,0.199012441263912,-0.32988227462302977,0.4903005356804448,0.5813538744051421,-182.6142900911709,1.3182909357630734,16.203981707331387,0.2397071741754262,0.4226001679061554,1.0095352545830214,0.16409562367412212,0.23773720726463748,1.5305737590869086,-0.6324780433883619,-0.5552039477319384,-0.49522103399049633,-0.4098940911844455,0.7145270958758917,-156.67293317878534,12.234584938085703,27.56497501126762,0.3857076857182586,0.2746111575066228,0.5113432425673465,0.022569171491015755,0.5177742150618837,2.108771167685126,0.7412310618710849,0.5025346251427337,0.08476740022695584,0.5385422490546478
0.53,-113.3877358191351,70.6918857169448,175.90189510171723,-0.0940096756410621,0.012199298115785226,0.01322358785730655,0.7756352505074059,-0.014128418243209496,0.8662737628823198,0.580160900312429,0.5070715795806211,-0.6045008239542565,0.4860961894028103,0.705202502928155,-114.47419151744363,71.04148219224322,44.01507688337806,-0.05093577786513767,2.2251932584416947,0.11817467522743602,1.8068619162380077,-0.02576101628537117,0.48581822644635064,0.45596650185747023,0.44237712211128855,-0.28383868837335396,0.828879559550179,0.4878373503101888,-181.51826695291294,1.3457040802007167,16.069435582304486,0.47984454691672984,0.30039393841120277,0.8457150556001598,0.1064088970961842,0.23299634414106202,1.8812553540344297,-0.5596976361823633,-0.3060675378275298,-0.8737414159434117,-0.6330651824106213,0.38318751387498634,-156.36177998421203,12.056239872734514,27.388790586940246,0.24186690082026646,0.40996869083760945,0.11607345387441403,0.5578335184451821,0.6609550488223974,2.58299008814821,0.40235908585841457,0.4943650494325249,0.6222801119618151,0.6211497914832442
0.54,-113.63151201037546,70.27938160308737,175.96191446741005,-0.038931484867066615,0.3029320362261069,-0.040036468525091545,2.2448961722948866,0.04889961037749625,0.869633264483753,0.5254261346133567,0.4511550804731785,-0.434818719356292,0.27531194773725925,0.7167436068729378,-113.95121814387902,67.31220899009642,45.35633902130095,-0.005711398370312551,2.6115649421626226,0.32411321262040554,1.4992560634911156,0.5946332678185937,0.7661861032936994,0.8670580358069755,0.3182312304252769,-0.40469157154045554,0.5711075037260291,0.3312762506665013,-179.73950862015346,1.9264064636907303,15.047545862764135,0.30784890625218225,0.44040485145155056,0.6769748487466896,0.15954769690579518,0.178194522318755,2.5504282112754204,-0.4131328904264882,-0.5875054589612135,-0.4667183960390528,-0.40321182013509693,0.802748444543275,-155.55698088015401,11.652791218925055,27.51854525214842,0.13880230139919764,0.148129935546893,-0.12751902683910105,0.3767555723934353,1.5402520499932455,2.649437336605109,0.5799524486809186,0.33236127412401556,0.5515134141053772,0.6330051740597389
0.55,-113.57503997077923,69.87736162909077,175.66922913301843,0.13204770931487003,0.7028494727996426,0.10490491121604248,3.678775512964342,0.3852214125456508,0.24578631123505273,0.6168762650592992,0.7798707419079896,-0.4233250058708782,0.3279113325015656,0.5822266632440579,-113.37947485439526,64.49881843905254,46.30245453465091,-0.013255426174791418,2.059364243196205,0.23682146030570134,1.3669057721783366,0.7655203085318875,0.9161821240253926,0.21331699198958423,0.7171615872783401,-0.7146375165411059,0.3801975097181648,0.5511483275634705,-179.12012828080236,2.0013875733366535,14.436194735114826,0.40051074061303094,0.6435006013999116,0.6768554079920658,0.007701943708483167,0.7697055891140583,3.064562250304658,-0.4459505153168714,-0.6369816459220284,-0.4662844399359242,-0.6313689314364557,0.8513363694291086,-155.5676736788008,11.317350991105563,28.08579156742854,0.009150422742011749,0.24573556192169052,0.07219393671054151,0.45424169033108747,1.694834292433481,2.870671218762176,0.15444249623109726,0.4945722079195954,0.8234808405042217,0.3675324750843647
0.56,-113.72262098948232,68.59858189718332,175.6274472843227,0.023142365850020167,1.352228850696262,0.09254772781983782,3.067317343282295,0.6151091981192391,0.08035995525828568,0.47723600249324627,0.5662437669875486,-0.26157425237854465,0.503437691993862,0.7319000975412591,-112.85798862149333,61.797348203591746,46.79383674728065,0.15894723811022915,2.1976344643908345,0.0688092229915257,0.781476157586513,0.09730680920933203,-0.16019485689020035,0.49230209929682595,0.27179541652163275,-0.35860389321142405,0.11716726737450592,0.6436288434404013,-178.47594065695588,2.1187373252167485,14.37152604188438,0.3670597583212928,0.5349188223910314,0.6083227043171884,0.0982541783400204,1.1935733416156842,3.4269907233008357,-0.6821931910749318,-0.27390153361458014,-0.5647020608206522,-0.5075441350633048,0.6955478067865438,-155.2802027889055,10.700155607160784,28.34018682610758,0.1652245135434494,0.01413902818940866,0.1429276415369267,0.43820766967875063,1.9415882389146488,3.199200769664503,0.558940953809249,0.36579470160467825,0.7706888539105191,0.4500989455136195
0.57,-113.94400048836788,67.8736336006896,175.92862343936036,-0.09694172606274926,1.6320807001053816,0.25322581941814215,2.781935787080567,0.6680274764422162,-0.031733639291526616,0.43982394530441676,0.7325242367837969,-0.5683969934679256,0.557308143318816,0.6609218208939612,-112.80906589335741,60.703553105741605,46.85359923722549,0.25884739378817545,2.222268188162496,0.05247251349411894,0.4010128896647631,0.30766753065886027,0.23732812035883177,0.5533434311677158,0.2644780751314963,-0.3723505244563663,0.34272383508382526,0.6442304428269725,-177.92946667742527,2.558841800869921,14.154694972324423,0.34643430105553064,0.22184379532686468,0.43107986079615934,0.30135444622836843,1.032073622110419,3.730814231879223,-0.5346696719229012,-0.35052946562909,-0.5896136262950937,-0.5269309868073159,0.6251989805892597,-155.78375364166527,10.835338338621511,28.261916854204763,0.1968626189950894,-0.10812962614804073,0.1326011165951438,0.17735795933884996,1.729949778459546,2.965053370012492,0.625723009140198,0.347499665213614,0.4528838479310597,0.3864136639589443
0.58,-114.26010325387756,66.93911039398218,176.18850761672635,0.01799301413869274,1.9717209398038256,0.1781065969076583,2.581120848850075,0.6281706155437303,-0.11827504747535664,0.34639550803261987,0.6440622887432602,-0.6061695859246234,0.4806527866813614,0.47321652696146943,-112.87176768959061,59.47211892507053,46.99558126745823,0.2779784927732431,2.259091204826126,0.07243490339727966,0.18716827581680295,0.6243551388343036,0.9688275993323282,0.46802223209530996,0.38782830762120923,-0.5887767869864169,0.3192884361545963,0.4666478070308443,-177.47751245458315,2.6940801945835475,13.901539688925606,0.10452469357049958,0.2664537285193365,0.2730732733533194,0.17493855006320466,0.9667402811809306,4.132759534729644,-0.4777185948968364,-0.22102117332797858,-0.49111032502144614,-0.2733881227693575,0.23059349311002075,-155.75206402692663,10.650062628966932,28.663584778632355,0.5212093450400781,0.2314202833390649,0.31999257616883403,0.5950174288296053,1.9345236600806253,2.933795105345686,0.5523315113117254,0.4630422235359777,0.40994957442367197,0.4174972745457993
0.59,-114.57992211084321,64.13866640010698,175.76323412823112,0.07733737612499053,2.404807969421569,0.18671923086700726,1.2708976164788532,1.0849502135060145,0.9757351242779131,0.3280293802756716,0.5607016965015146,-0.5776511766499692,0.4822033227050272,0.838858598180768,-113.02352682620173,57.554843720426966,47.637465546003966,0.3000798942209046,1.4157849799442852,0.2697501941568022,0.6005596820851398,0.4316227132145278,1.1473953694373562,0.6482372083742565,0.5777134308900117,-0.5377576875678178,0.4327500242651361,0.7403668663016674,-176.73679617344797,3.0691450395812914,13.574651993235113,0.22999258027127495,0.5872191039328002,0.5001402708761432,-0.06314960678661696,0.6218992761439928,3.54183093964783,-0.19575702397078387,-0.4841636897522911,-0.7102855013722836,-0.49442138048932227,0.7475149125658801,-156.18702899948366,10.331602337509551,29.16898862901524,0.24782531179174644,0.017431145070521847,0.4797533198913344,0.5978969254711146,1.305317647293518,1.8594103820841588,0.5711975041139568,0.47163655834753154,0.6076412912803082,0.25811340484055173
0.6,-114.80917849902619,61.49129805433758,176.0294355916538,-0.10554817569725924,2.544982258441399,0.2205433949181424,1.04538476869465,0.6961549544336953,1.5268933878551287,0.7009699907114824,0.6521515525734504,-0.556774277757146,0.3595529584411269,0.6626514635127505,-113.51036652510307,55.51007977832957,48.42809786056355,0.4665921113996218,1.7068611773482962,0.3790003887123593,0.14166526854441375,0.8722118202448652,0.2047801363774165,0.7768624691536568,0.5277826179602646,0.01763016596196132,0.3005022402780647,0.673699349435835,-175.75966905586588,3.404455855553551,13.001727730605893,0.0968201809646028,0.5501379280895851,0.3498530668145376,0.08666627197760571,1.3711498845204724,2.4987288324073575,-0.36331222549169473,-0.4797789027613345,-0.6783196842178347,-0.36668871856938684,0.549672942562901,-156.28970520874427,9.995113331960223,29.08398202305361,-0.15586976906849884,0.18184982443231412,0.07443320110155477,0.1420888237807187,1.482790332785163,1.6084170909770574,0.3394466350820039,0.525363122540713,0.8136419814456431,0.5385815614983781
0.61,-115.37998989964494,58.70546433462713,175.965280172794,0.03359431271809275,2.694142391693622,0.29672993222666744,1.0557949456414708,0.14688034337758055,1.1809365402437426,0.5337385841591404,0.2938914832688555,-0.5611658405232316,0.5888500373338535,0.8258155104220045,-113.33244920114151,53.73857183726976,48.685764922395805,0.3576241566128445,1.9383503730729712,0.17399588606820413,0.2274715300834937,0.24001587733395396,0.7704479148091773,0.43989880990024444,0.6432776908697886,-0.37752707601062774,0.1877798822970838,0.6972208566129586,-175.32368204967693,3.749926977592426,13.074332234967526,-0.13608667797956683,0.27655578632896693,0.664949745523517,0.4227062838520799,1.3748758313711371,2.0348943909993054,-0.4257755772978496,-0.5139384001517193,-0.8830291604353904,-0.6158162499959302,0.664142889527262,-156.215292652834,9.76414795263169,28.73000301389566,0.19292941330196056,0.03654549878864306,0.15926945309974622,0.35480448986074187,1.5086493990059993,1.1322082492090084,0.06031434541365577,0.3277081141908022,0.5971386593238048,0.7033320200790526
0.62,-115.58708516638343,56.01927960217787,175.88856777458318,-0.3390059847100625,2.5701889432729272,0.22262227979233398,0.9111376670979832,0.07052100879760285,1.4574981647014469,0.6697509230460176,0.5001032010885945,-0.8711632555748503,0.6767677340919803,0.6860000693450187,-113.71945025996622,50.910000715384534,49.43918059430516,0.07395796476142913,2.007027992401772,0.31142074768612993,0.45089194675406546,0.6096241536357622,0.5279322698358101,0.4299645861741903,0.7440969017172457,-0.21351243129075786,0.4513662213586375,0.6879435927073158,-175.03994386408397,3.713295148155181,13.041078710326936,-0.030325893946255886,0.29348262486382093,0.66611452146152,0.37237659400770595,1.8453296366195278,1.8818643613172181,-0.6436434902418504,-0.6321405665648075,-0.379759500073982,-0.2960092844908481,0.652655603498869,-156.12782592133314,9.874907877194385,28.82580395307016,-0.15697244162475132,-0.1766356246132766,0.26955564083979305,0.41955141694167,1.6392282565661345,0.6527360490475458,0.3822316130399182,0.5975509807233429,0.7308811609493091,0.723629925070308
0.63,-116.4580960980935,52.88433562401216,175.96273279179817,-0.03326238315915987,2.3463940987621705,0.07202643657453198,3.5286720987391624,0.20879590019190467,0.8832778754913061,0.6493104815119016,0.4869682236706212,-0.24966663951276075,0.5228457025443024,0.8230684526340124,-113.86649892419906,48.19246673992633,50.00658194431525,0.02527281228229611,2.360466560500413,0.383900110158795,0.8393120976322835,0.811310855473967,0.35088054779883926,0.23260118464044405,0.7112754887364326,-0.14616963602609417,0.24476602076304851,0.8618578978306028,-174.55023757918445,4.294878139309463,13.136503231654164,0.07992016634063849,-0.09873889136030681,0.04733594005272482,0.10142453057481728,1.8733753318996618,0.964981185898954,-0.3254140249101806,-0.4337870913880756,-0.6190168639768359,-0.45648721651674584,0.6347450510952157,-156.08446712119823,9.796752477751381,28.543587635966045,0.1522572569954354,0.23102475208285092,-0.23415638232424324,0.5106908155204459,1.536120342012512,1.148363561069614,0.36211011539607707,0.4000325500058524,0.7392627799675885,0.7103492001773732
0.64,-117.23793559987223,50.96173806870128,175.81898897178036,-0.07540559456971778,1.244519214852022,0.010269490123881675,2.1988117193563257,0.06851943540311695,0.6328408222517076,0.30390319726459414,0.14887017818603832,-0.6075666749018808,0.2840103220675671,0.7132235139330322,-114.12184025933605,46.3703081553828,50.23816759186702,-0.04219160506109861,1.6548360846746037,-0.056381586380413434,1.5816576526485298,0.5752032841231332,0.7602489007724136,0.46537154624595073,0.3708022950574673,-0.3077351579034653,0.4433430044524963,0.7439740277083149,-174.52142399569072,4.12050319624362,13.28268059044314,0.24883237910014988,-0.11641609853250795,0.3978966519544349,0.4610462310380138,2.007698747243716,0.4225762375713022,-0.7609219435951798,-0.7127496070845759,-0.43396240415344367,-0.5481642111829049,0.5917985227217458,-155.82934938281332,9.61787861735569,28.170855747841898,0.151215851937895,0.11699739684567419,0.19191873802417972,0.36640980667820205,1.8953733706487057,1.486794865544809,0.5708138713753136,0.5426230326560553,0.5862069185197024,0.4986015335534243
0.65,-117.75805094855441,49.444994576027725,175.92130909160431,0.07479311901751677,1.2926313529794786,0.07445955403386481,0.4608918246164617,-0.18995621858396472,1.330263152818399,0.26006148206425134,0.4773753599827433,-0.7420544525001695,0.7001933867446379,0.4893860657726533,-114.00855070591037,45.07869900609757,50.55286304559716,0.05782069504069325,1.4797888585733043,0.20394249790618638,0.7811326104995109,0.3928515562455996,0.4009399094520961,0.6842711099389076,0.6082563597731794,-0.17862779268198678,0.6788008764472554,0.5568408559577077,-174.81690964068568,4.279106225555854,13.2779387025827,0.5770003007889277,-0.011415018838919683,0.48198487962604797,0.4115575530933084,1.7499594201588242,1.2738051279492373,-0.28066834065275736,-0.4080799072364087,-0.44770513677146867,-0.35254929157093906,0.556359986647358,-156.36195347616197,9.464852182526514,28.339055407126086,0.13384749594712134,0.171042919715708,0.14359414880964988,0.5513553458585149,1.5131177619533995,-0.24953811719274965,0.39377241296460763,0.5080996424460166,0.28304696577357,0.4966149803878127
0.66,-118.07132667469337,48.187295310302105,175.76559606665933,0.1461344949276046,1.387912339545144,0.35524820627427117,0.6479782231127311,0.6984151264700262,1.5507810000962396,0.7154383938812772,0.2409807672235583,-0.6152079878195561,0.5462186235756771,0.6853673831774634,-113.81521250692911,44.451962672781654,50.5279784313382,0.2293979940753358,1.0254504926388641,0.16281446174097583,-0.17750910423866623,0.28564738261807465,0.19763318989555206,0.37780770142818954,0.328535180326493,-0.2501782306164824,0.32388449500319044,0.7709566189117664,-175.5706763087227,4.258551577523606,13.88781373058953,0.08879050441700734,-0.25220138561686745,0.7776199259254492,0.18096470614088,1.286520989775735,0.5401588591835631,-0.6567317994636452,-0.6118857948828664,-0.5712336450991222,-0.39698287784330843,0.6907541625020032,-156.7299811731309,9.317133459920413,28.57541429435537,0.18343754309390625,0.10742276367395885,0.5669365268643597,0.5878208102824404,0.8556547882445154,0.24248942563429296,0.489691688694632,0.5095875433366513,0.6681609497586923,0.3945928445344325
0.67,-118.0905641028195,46.54727015468638,176.04569553990737,0.13894008389310475,1.262414204133791,0.13926206447110095,-0.17002094211744945,0.9335722796602465,1.2589129552727616,0.7792436354162929,0.3710930996488525,-0.840606271866477,0.42621278432105375,0.6763276503223695,-113.94997118967925,42.45142256498071,51.07188030717562,0.4397515660797909,1.3684436611818418,0.1055565848320442,0.11499434426594232,0.09049560092400791,1.2953358349260862,0.49271962246412093,0.32416246503809354,-0.1137946513839475,0.28113005761264614,0.7068190485119581,-176.07314727994074,4.534023643235523,13.707837669226546,0.11868537495060429,0.17796169166232204,0.6610680635898282,0.15147459171235692,1.4046363589317883,0.3813582556210223,-0.5397590107306106,-0.5242616744043342,-0.3227594909772301,-0.8818285590790488,0.7033032250755832,-157.4360402535438,8.595190470848518,28.631440492266496,0.18745115760318212,0.25921385387823603,0.4628552796558068,0.7778466843728686,0.06965875834543359,0.7745465744158947,0.6563761076554925,0.5973108247348051,0.5815453256507638,0.3401220021440733
0.68,-118.08747884194999,45.32115527561402,176.33993793184064,0.06015189714743251,1.1906903617703923,0.20335332332288003,1.3144679699092081,0.9013523180169138,1.6397680181324599,0.7457615956302727,0.5243957124650627,-0.8341598807470806,0.3073897904599532,0.5840851496736792,-113.81707224179685,40.991494068437795,51.293849719778656,0.24625267809688178,1.7670070229531478,0.2060851036015291,1.298773379163413,0.6744395491230007,0.8462214790893752,0.46178282157246137,0.8494179093024978,-0.08545150718195818,0.16340411705894203,0.6188023321589178,-176.6105007498118,4.737274184940119,13.59279660319674,0.4078709890393224,-0.21375859383767618,0.29868796488832305,-0.1723290446163843,1.0478335154010443,0.2670918759629022,-0.5559896039812525,-0.7276762908963114,-0.6192346424446278,-0.319666821894656,0.6733588169966459,-157.380395829243,8.673139464439307,28.70180370620152,0.35999895783552527,0.06146636896633125,0.0463364157561959,0.5129260859738862,-0.04944275515978202,2.341358093366912,0.5516199273412615,0.6131477467044831,0.6356684390001028,0.2671936887149487
0.69,-118.21809157974319,43.57300384529559,176.5089800968205,-0.09230885137127551,1.3201924596056875,0.26850985165624053,2.8242302355784688,1.177908861862641,1.9760189232818433,0.651710678504354,0.2136735212041525,-0.4917475085267501,0.7542121064006523,0.6480421877927316,-113.7615442795911,39.43844239688985,52.12626547101231,0.02409985058094488,0.9113097404892161,-0.059371140439570314,0.8064351522661006,0.48946075909059306,0.04975526692947229,0.37342543456160143,0.32981817448076917,-0.40920165668783415,0.32848703743685703,0.6252955740193079,-176.80071419214042,4.883423697024786,13.36266817504605,0.2610658755969616,0.08684613072196014,0.05356445157178328,1.1595627114362301,0.6370079562898807,1.4179424384771395,-0.42350788087680674,-0.7516900616466585,-0.6965445670254141,-0.44741776751622153,0.816147350628283,-157.18844999645304,8.816094778983967,29.084394894789177,0.27704946123487745,-0.09623987018157303,0.5796056027367518,-0.036997933568594835,0.07358376048100243,2.667856837270103,0.46781991996951394,0.45276119485428595,0.4070912407393979,0.4730081246452746
0.7,-118.44414746768396,42.3523273731215,176.37615648357996,0.10406702143349889,1.0286476738939403,0.26981286616544015,2.3279314469131207,1.0600520717346626,1.2954348028944898,0.7543043443769625,0.3519801671634317,-0.5850445529871069,0.36130858091136,0.6885648252083133,-113.41748680130988,38.66458606387661,52.47662795883152,0.2582307291409598,0.829585302656306,0.3711297884890992,0.5067186719427639,0.4295946432691468,1.3421985069673872,0.4636289969167449,0.13533545730724464,0.017641003738646494,0.1983399820697659,0.6838711784487543,-176.2645318230212,4.714094587146163,13.30677105343425,0.0375660793602918,0.40745642392043485,0.4484005467656455,1.215935284309417,0.53084027119881,2.1140513707612865,-0.3596069332575702,-0.6755506957665688,-0.6931663046159438,-0.44733476903710445,0.6596073044784749,-157.12770793440993,9.223560217991544,28.89356264671602,0.1239751977767262,-0.17347685838412,0.23337613841254715,0.42169970952651514,1.1124383061130136,1.7974464359665443,0.651811237859958,0.7024918575161875,0.26364837556057874,0.3521112158994866
0.71,-118.33829912123868,41.54078594242932,176.66955366890173,0.11652549752536809,1.027858786481903,0.2416368826502295,1.2313526575944356,1.0283803737589763,1.3932115459408698,0.3710138982090483,0.47552733343569015,-0.5348688260591908,0.5167335674000505,0.572292501102313,-113.69065853887793,37.82899036306095,52.88995245183662,0.3213967186844217,0.6748541698318297,-0.1049540972742106,0.564175963775948,-0.1282561203937554,1.0484153111440302,0.10099199132262329,0.5241434518697987,0.08938913721408903,0.43445856054772414,0.7676648663765319,-176.00964655147908,4.749561179598257,13.465090096492789,-0.24734424379460423,-0.05320682634560106,0.43206915282501357,0.5588034827430748,1.2471785779306235,1.2279954510028213,-0.24386380476035283,-0.6084492972059009,-0.3716674864342787,-0.2747552794700251,0.763944457286466,-156.82067364004294,9.01307630740931,28.876240738555893,-0.12189334965724308,0.3652019481321531,0.30713941531280964,0.08066248921406147,1.6597694705013286,1.1879470734747497,0.5091048884368906,0.5673994619804588,0.5706795412806168,0.725733787798007
0.72,-118.20076831495511,39.18653312913675,176.98250196739292,0.1932946784158161,0.8519748819800931,0.37868031039409944,1.2530182575453335,1.2727073064502572,0.8754570668351283,0.5306863482866144,0.30132702029404657,-0.6350203218636955,0.5100052817684627,0.5604334140875894,-113.53716643393055,36.330312052609415,53.52937555933106,0.24890953243376981,0.7723793121326765,0.22753843537023183,0.8660701258731314,0.15388241944612321,0.5537770502301794,0.6130554384200035,0.5599119359688098,-0.49235235808709454,0.46622741425772607,0.9198424071485914,-175.36430549022893,4.735911140662364,13.508275013698801,0.16486174213904714,-0.05843024287077486,0.09310446915557496,0.2845199243549648,1.6312789661064035,0.31783048747196657,-0.42411452202787886,-0.4416334506212878,-0.39469624653529506,-0.34705826991324645,0.8938100893031549,-157.2859369886316,9.310324592345191,29.111124901309335,0.12846471585383504,0.04162189235921972,0.5632049069168428,-0.050760573092547306,0.22774286936225643,1.3914316698485254,0.5046975395739013,0.13865484083906185,0.6528665696097937,0.2894674798039287
0.73,-117.7059361507596,37.97846105614034,176.9800609489037,0.08560293209367068,1.5446819744270797,0.23348942078594132,1.3792534258516564,0.14250994055577962,0.6291362338351699,0.803670883714211,0.17762454637178893,-0.6867851372489481,0.5392965516284969,0.5802130996008037,-113.3678354842923,35.3923119017976,53.27306583275766,0.45755556317736984,0.869286221456346,0.13357085449089484,1.8044170126810173,-0.04491510611863895,0.6294275319113506,0.27731628115517976,0.3080782332307442,-0.479389656767508,0.16029383402606406,0.8928751461225228,-175.5193961428985,4.345090902124197,13.774870619502073,0.06339989680180001,-0.027123964541986387,0.3612592935999767,0.2021067668261867,1.0259816773848707,0.9282447582535742,-0.37445188049414824,-0.47803834057388467,-0.35768739588760545,-0.5445830135259773,0.8563229505775237,-158.16107776047087,9.234798597858603,29.620492218669796,0.176816387356709,0.08921585359832862,0.6907557412788291,0.20023904274849635,0.07166175366053018,1.478453280082456,0.289006510100886,0.21962931414726478,0.46682928316961714,0.6150217002473529
0.74,-117.86558451281746,36.49670781280201,177.0298015895305,0.11083801435373522,1.422820651445455,0.09535587279656763,4.056068642787299,0.7477394595733825,0.22959709961225172,0.24289623285716655,0.5219649511657637,-0.6906447249821018,0.6133672943381001,0.8218398392777495,-113.31172984179662,34.81113282121913,53.396828720920745,-0.22969517768237313,0.4913986039752518,0.12412267980501175,1.4763665115924671,-0.04902526391849909,1.0719675466531506,0.30144538278701466,0.4517407622842455,-0.1130579974131539,0.19345081793983104,0.5794792496638228,-175.73574408418148,4.470088461254463,13.568924737866865,-0.12705637599856456,0.31969636311408756,0.3050862576234048,-0.09561183635942953,0.7313787362403538,1.3085315220621276,-0.7087975753450642,-0.377845339656793,-0.5510053535571809,-0.41139551075040753,1.0284384821240602,-158.80770556935434,9.188421222867149,29.958050433223004,0.19907631987644064,0.22099883197019665,0.8295249707854483,-0.08052906797878606,0.207534098572737,1.9207887568200035,0.48374625027838825,0.5074724550736056,0.5294795778849855,0.4457285910387115
0.75,-118.01346845542305,34.80636404482332,177.5546000479975,0.2881331296716553,0.06885792599495286,0.19796684263865333,2.860802655678304,0.3295655833656871,0.7951702547428191,0.4187523361298595,0.12442660597451123,-0.9001491260457517,0.34278056472545526,0.9569812219057598,-112.9134466248732,34.76248098006901,53.73546884867347,0.36510118235036504,0.3608994941001088,0.372272023893625,0.9874176322315775,-0.18672258605627431,0.9079061767701753,0.5770836514501565,0.48790381677325395,-0.2723038103391368,0.3779783451187436,0.47572315341147897,-175.9808535616644,3.8889751422759398,13.468609774356453,0.18077098457065427,0.22660659798007515,0.2606257925193812,0.485694240250655,-0.02544955173026973,1.5863330390308268,-0.4188923884638159,-0.619000399336389,-0.6180648919060401,-0.43308867951613444,0.5063330076098197,-159.1726932009018,9.021754222107841,29.73308275560334,0.013264727261007875,0.22444774316110622,0.38586290801829726,-0.010610100503250801,0.48020252255354595,1.3012667991141855,0.5703738285733823,0.49418394220293665,0.2718983130199528,0.6014544550594487
0.76,-118.12443571959392,35.69046848761363,177.82718122981106,0.4376210543641906,1.1670978789278732,0.38512653231603367,2.6489997651917943,0.536160436357196,0.14581304902353773,0.5354035050570418,0.35941234237646263,-0.8260987346408981,0.7471304697713448,1.0392951258986651,-113.13522776219371,34.54464549878163,53.61011114029944,0.1794187393903503,0.263250678751779,0.49105942144222414,0.6645682571921465,-0.23606612551433287,0.7226629832640639,0.5102099317581228,0.34867675040637375,-0.26362917994611795,0.3849784591925162,0.9059868999692382,-175.96452520750591,4.168151472475959,13.535708012148781,0.0568291626953322,0.14060439686599152,0.043548413843721726,0.41441186286080905,0.15691396554656767,1.0849607462382518,-0.30213956052135693,-0.7615379272396392,-0.622283476857059,-0.4064012089928439,0.6896163514778023,-159.66683350999224,8.851046189181263,29.887850861484765,0.04741260898231323,0.028864546123857443,0.4779678018346486,0.1928614644431459,0.35475712068776594,1.3277259125948924,0.42176123915545005,0.47743840477613153,0.24905773445246138,0.48290272055975375
0.77,-118.10698508210177,36.31514198502957,178.05454340056644,0.5868114336239393,2.065158620597245,0.2631519161384085,2.6172711925167698,0.21818862704140032,-0.03549198528449027,0.6018846254255044,0.44105819874273766,-0.5436938405774633,0.46478790906732276,0.8547736170756846,-113.096478301873,34.63582854632124,53.608623837434635,0.3893077341863803,0.3704404827268603,0.10817448830080527,0.6460894450166403,0.07758422405463998,0.6687689929758456,0.42241323893607696,0.48160136335570886,-0.02222455067509349,0.35209195581718944,1.1299051783116016,-176.22556654586472,4.076321426232343,13.46034182399597,-0.04422730617449574,0.3009554240325427,0.0590106789950917,0.3087598676058257,0.17936810798610017,0.8648929638847139,-0.4819665869478711,-0.5424004582194121,-0.5280789991124696,-0.6623486566986041,0.7420116092691058,-160.016484612844,8.696140483118192,29.723165348470676,-0.11420754800007506,0.4309109278544938,0.5977997999897136,-0.00037629357132057395,0.5072770372807704,1.3377068303576616,0.19101405769061353,0.71269536102114,0.38824821814276167,0.47511014558363057
0.78,-118.05773468975407,38.62753796468884,179.04472118260733,0.5776559264859815,1.812564435687741,0.24221510448950223,0.6740122612040944,0.5446761357096526,0.8362088894871049,0.7884568634999469,0.4186926680155584,-0.5304244671489167,0.587630073876365,0.7345380358314707,-112.94259157093423,34.11946252159835,53.97538301086849,0.3956646908560804,0.23528030388519464,0.028876273068582294,0.46973111710415294,0.0848130605585749,0.37121780768682044,0.6402494751074647,0.1443274096171347,-0.19555155730504262,0.47837933395541743,0.6996359160437434,-175.64497867309436,4.338539244070917,13.626209759803425,0.023117606075819808,0.30931549757479815,0.47680355066462315,0.4071721270201546,0.3387368346642937,2.348252713255951,-0.49659739456820184,-0.3605661280085445,-0.6213266571602472,-0.5639660076596092,0.6776633973872342,-160.8053486631859,8.578159117717297,29.661423480087755,0.009167442115203372,0.11311171928707739,0.7971488997341585,0.19750652207140773,0.29439492999969685,1.9562448489002302,0.5029986369917181,0.3322875667840975,0.362271624602115,0.6222649250975381
0.79,-118.11685193463018,40.902926081784955,179.91995067296588,0.3622400004496645,2.3850254300466647,0.3839784304983856,2.1800946720225802,0.5521774508895861,0.7040066595823284,0.6463225412642388,0.2747821066381558,-0.5917101117706254,0.8125580310141838,0.6638138930311674,-112.8333289080439,33.92466489375507,53.78319094816603,0.06665925662522608,-0.02765442632575168,0.3816385913242529,1.0933921436312983,0.17844330584513055,0.7948367047900559,0.09378155578583468,0.09631285564434065,-0.29255960261266856,0.24150954471330502,0.6541440239004119,-175.5250223588778,4.170705242656341,13.487154297544327,0.14620256193028558,0.09066506753489925,0.31069634914944994,0.73676813465247,0.5451950746971463,0.9770272005777674,-0.28516115768905254,-0.5575900129544195,-0.5209374486875499,-0.7358472372973512,0.7455944399589073,-161.67212391443837,8.301638121350514,29.771452383825277,-0.15459550036410943,0.4679188031493815,0.6949675049602085,0.22750758416349162,0.5465510567942831,2.462202030099831,0.6507903205621104,0.5021130740265901,0.5287229202792902,0.533029569510994
0.8,-117.87059207797648,43.46665844814958,179.38500666907584,0.3881679778844975,2.9336165837538255,0.43991914732475407,2.8768532498785837,0.1241586347899492,0.08649387884825566,0.9039611540711089,0.2950995366326912,-0.5135728761382505,0.633499209155731,0.8075004821547918,-112.55308705187812,33.75481785980911,53.818134967510844,0.28557110590186535,0.11379430970260417,0.4118619077360942,1.1511244178902702,0.09246819470586351,0.37675732043146104,0.5375545385080678,0.40981494478731795,-0.2440155246854996,0.045166318508823106,0.8213497803350569,-174.77950547493424,4.130292797926911,13.351997693880975,-0.058081551566229794,-0.14782317482316634,0.45551470801012056,0.3771803446331102,0.9647495219569987,2.122895531752805,-0.3134167167507019,-0.703753349341034,-0.5840156067366968,-0.42679767796247486,0.748989148482582,-162.56453024526664,8.544512131798086,29.646145324526216,0.22122526152158936,0.3012676554647656,0.7782515917365522,0.14386563425072735,0.026882761816168395,1.7260965961457437,0.36694932024044313,0.4621263898447121,0.5014417087140872,0.18150032544569172
0.81,-115.0477169595258,46.67986482676785,177.76908159518416,0.4054563933388523,1.9733918718680434,0.5981144832561188,2.267650368139564,0.03231772072493096,0.4976565948922936,0.3779007108963997,0.4218462561613504,-0.7948093675273475,0.5462279284078476,0.9237263105591653,-112.94625013124025,33.61808066147111,53.95749264241512,0.15639148486104196,0.26107972177422034,-0.17018135849125057,0.6325347761383908,0.08042298463435907,0.2958613412866819,0.33864912581354334,0.3722744662949774,-0.2784675978952533,0.3137461271221782,0.6731842576950152,-174.8094886421576,3.9559412745193567,13.286225147084627,-0.3488325143757047,0.1066963432621049,0.04878764138044306,0.02973694080607887,2.3116042573927764,2.177977430196611,-0.4596892638655527,-0.5756006877902379,-0.5538398855918711,-0.5085257436607777,0.8599635574799817,-163.26131415565058,7.980019609324808,30.15179362164966,-0.03196701200419205,0.16508538538627782,0.7823129355068765,0.10569173674487936,0.015171328565610948,1.5671062978809727,0.4881771872532273,0.5272023880469153,0.6005676578508202,0.34500237484162805
0.82,-113.84580907270795,48.53269747312451,177.07282685629602,0.616556855381845,1.7308430315653462,0.3468504645748937,0.41968890563224215,-0.037407577754839945,1.1602075394619562,0.7449835191455969,0.40706406904114745,-0.4413629069284591,0.5556683908178732,0.570355009362153,-112.50656996282092,33.56987669586323,53.91236217142851,0.06533290960026583,-0.038656214178415554,0.06901183076500368,0.6248726574054857,0.4920025898303425,0.07972340127976474,0.40257585635700055,0.5281578586106754,-0.2683017329541848,0.3436745375194594,0.8514118755494597,-174.81285254895067,4.1288107539393355,13.23723419311034,0.21828843546064336,0.154249719343672,0.424323705125359,0.2480854248345136,1.4641658816217527,1.7591340310475614,-0.45885400116466735,-0.5797026910769426,-0.5339256844375654,-0.547609634389793,0.9663763897455079,-164.3217137249288,8.218668221379515,30.121383588867488,-0.02076728729986846,0.17835574207382504,0.6441081209576047,0.3248595745813464,0.7093380219517076,1.8854081898970858,0.5675342485179898,0.47794420204843546,0.4747409957487324,0.4554916287644597
0.83,-113.20867508812414,50.58673505762987,176.55248546905577,-0.012657630142841034,1.5973060235619654,0.1486651232310887,0.05451575155377911,0.17790526136796275,0.7888208476521791,0.7847516518065782,0.23523596225614263,-0.6377240045178869,0.5048029018769868,0.6851538006284535,-112.62016777111064,33.54507788089118,54.00678292850665,0.12497134630581078,0.005208881815158217,0.035010018196093076,0.412196077910144,0.021971811714928166,0.5233456476412924,0.28143576425653305,0.3739493529009936,-0.19579596951320827,-0.023220350901625733,1.0414676015962252,-175.27799169484743,3.8160375753902107,13.228582095512452,0.02362115361394722,0.14814659104923272,0.28633019331977083,0.10531242243604641,0.38000643653508037,1.2913355821353185,-0.615166861518436,-0.5166228870317284,-0.6446484916050094,-0.5265486730439886,0.7847762180197,-164.91383844510412,7.7348806603250235,30.42690812778511,0.24056261551181257,0.155110973470307,0.33902596833684473,0.13141735624522471,0.38699242903237574,2.07490419640883,0.3650936840449753,0.4293902322830085,0.5016278168981636,0.36066937884493633
0.84,-113.5704288797771,52.250314033446706,176.04797454981954,0.22024903947513824,1.8416342477090681,0.27780066829420597,0.38836342165396265,0.47748681044468333,0.24324875801904774,0.5521781756658078,0.4751648280603772,-0.5474192620689529,0.5657724733735141,0.7751360315475609,-112.31350235422025,33.389051464422444,54.1437382506868,0.13832640600953888,0.09453692707126711,-0.01773473316856851,0.8819956302471232,0.3050756509449437,0.849445393549759,0.3317626187112035,0.3934528119028752,-0.09167147222578848,0.1877877856629989,0.9081613712905157,-175.48735551554356,4.0153782940328195,13.048099978952225,0.04321111333007698,-0.008983593992111405,0.07743073154412425,0.5326856430664603,0.7578155531418604,1.2011644581216392,-0.4143630267745988,-0.4611958937582101,-0.45616693168596456,-0.4601731346772215,0.789771440002867,-165.12492189785263,7.647975131198925,30.363403729177588,0.30658924799117415,0.21757413099173056,0.4415520228104518,0.3886881268025834,0.431040942465006,1.5290625749706737,0.5812848816596738,0.22425232717445848,0.624211300410929,0.5225877793869295
0.85,-113.97098813884979,54.03866088080292,175.89056325219417,0.24167193236460954,1.358123941651831,-0.047354932812652885,1.0207594536866278,0.3012696991613468,0.26880007363112984,0.5795241693433362,0.3957950714951061,-0.7362399036274239,0.7787683809281241,0.7506597466203362,-112.54462445064301,33.43462450136477,54.29234658413309,-0.026103854457390316,0.16074384548563006,0.07286376837801256,0.3898668664055486,0.043037194166855114,1.331643920618638,0.395035886488465,0.2423542426351088,-0.15178255341645724,0.18976667729060584,0.8626906740657349,-175.44370901955176,3.537687403718643,12.637199592985231,0.2816726683297474,0.20650855512995392,0.2768385795569313,0.790278058080198,1.0579381137368844,1.1911285046656988,-0.41821052547854076,-0.5854636842666593,-0.5200996100188764,-0.766575278162405,0.9199957635711936,-165.58785560261094,7.869171587073039,30.683756723728724,-0.15404153065906223,0.2313259434467178,0.33871383257436655,1.1632409400657169,0.42929855598274086,0.6606775243110785,0.5760134785953351,0.18134240478750663,0.4351255957023197,0.07323823510968755
0.86,-113.94643056950673,55.43750536721392,175.87339473127074,0.19495410442770128,1.0960613328792466,-0.029524255487305265,0.2337685042485399,-0.0004367476204162543,1.3509512073426473,0.6549977257235253,0.22848243343911417,-0.4208271865758916,0.7439295158449586,0.9335056490710543,-112.34577767589853,33.29516908688267,53.974927806041386,0.032655373988371955,0.122857024516662,-0.03864046264467009,0.6104645430149639,0.22780840444298772,0.9296969252119077,0.14902200152532058,0.07478772888318436,-0.16029025964945523,0.0837252925765203,0.8836002242572591,-174.9387377711308,3.817034478669657,12.990535646165801,0.20023208817749139,0.11373757527577857,0.32995144805232507,0.22317956069068462,0.6427090676181324,0.8045728538442273,-0.3005107942423663,-0.4340649106978557,-0.8136165911119116,-0.46028136661723434,0.8700814890677536,-165.8905363187363,7.810290394517259,30.83248595973642,-0.06979010667921998,0.24714392366796192,0.5361603554555714,1.3239111648259256,0.09744586491979812,0.17569214493259916,0.30168051022532305,0.4753937348448604,0.6835351202348534,0.3213752936824231
0.87,-114.29335474509082,56.79395119041072,175.5935670702476,0.19810959347256454,1.0310899233427562,-0.24971170415614877,0.8418228521456488,-0.009857889973473411,0.9979467276407279,0.38280118685635833,0.2665057075306161,-0.6337401698069786,0.6566463054696988,0.7387829194351716,-112.38646849019325,33.160464641355055,54.659178635378524,0.04362226911327653,-0.043050402882427216,0.26417434997339384,1.0164501278127898,-0.1609205893475039,1.1257788067106456,0.3467545765727141,0.3757140297543426,-0.16229096119845743,0.3595297467877294,0.7212268145022933,-174.5412507007717,3.7335463868086793,12.560771733855315,0.2271287508429875,0.25320610053542714,0.10434124068470493,0.03395344290956119,1.331454892379028,0.8623826985277512,-0.29889908912019725,-0.46567335635897006,-0.6333326133688564,-0.4122295176196161,0.8826986589757048,-166.3306048124285,7.285731607132542,31.174119997026814,0.04641224475087813,0.09648393016560983,0.3618336130806594,0.14205392659562463,0.5708798201777368,1.6974308158078038,0.4753732166802899,0.44733326756998937,0.4399319382784475,0.38870086435566803
0.88,-114.36568476041275,57.97195147170032,175.20113118983713,0.10617830683676427,1.1789644173786935,0.0648320380421877,1.3128272858107282,-0.053148544255121916,0.2372407479030565,0.5615327244109113,0.2646901817537504,-0.5170682285343775,0.26321531846381874,0.8536789995193622,-112.3169365928115,33.08523226192743,54.174096932816234,0.19108023141723515,0.011403009603445289,-0.11539165172004096,0.9865106167667045,0.09018762589994227,0.15125896199005237,0.5759520876404448,0.2838085249990488,-0.1360173581078697,0.0260886706103675,0.877518583785711,-174.0557183126098,3.7668923916261288,12.468598124172706,0.238604475692685,0.03658302096304976,0.12188815530343686,0.5114541916726822,1.4113814542554681,1.3011547549872333,-0.3683256302476943,-0.6171444312185012,-0.3782877931780619,-0.7555648423980911,0.5336006825563929,-166.57724057550504,7.7266654382798565,31.147628316638496,0.19503557754604733,0.23755776406711726,0.17917482470712282,0.38730993708212896,0.8431641564482374,2.0006623904895435,0.5676815680453512,0.45558540897509126,0.7636337280297406,0.38610631450736255
0.89,-114.20889545560829,58.714717102010994,174.9801751232042,0.11531265846368177,0.819492579586128,0.32697893345359463,0.8523867567553262,0.16287835507508808,0.3272151278704274,0.671874969748692,0.33907336641813296,-0.6784912643747643,0.7112780542831103,0.8916953110267254,-112.55631500776879,33.0361433290332,53.89786325213134,0.14368428990258497,0.1880408426953163,0.15075893761251796,-0.18905213245721753,0.030479492992624535,0.5694798293847803,0.5890244497708144,0.2052527058173536,-0.16633144518640458,0.26408655787551283,0.7556858552256337,-173.94402973756584,4.11037613335313,12.115875640895428,0.43674640509313234,0.19303653711108562,0.09582688219756952,0.18979587205864631,1.6618518957656974,1.4737230473411984,-0.4922910934159087,-0.5075095721059082,-0.7834582642622696,-0.23275197583965815,0.8854137468254138,-166.47647230629056,7.8931589221472445,31.723995532115616,0.4472171884943652,0.3274486299852471,0.09524258163724059,0.8074736839219949,0.36953376943529054,2.398605921186605,0.32588278367957,0.31045347050387795,0.5260148729172706,0.5347863374807853
0.9,-113.77780036947863,60.755305278022185,173.89176766854825,0.18635813767013087,0.7651645957686967,-0.035456461279256335,1.1309274462580363,0.8618758835317,0.4094892762225022,0.6709882318333394,0.4916057243017657,-0.46459985450221947,0.6259954192387047,0.9165361844899951,-112.31869277007375,32.37462996866599,54.11024431286009,0.2615846088564324,0.5465114873581551,0.1589236931922881,0.601003541668817,0.7819992549290468,2.7062188866745953,0.4223500399912345,0.4975854567632704,-0.23662514923196704,0.445699142675837,0.7992025210044341,-174.18538288803893,4.1809256760980675,11.084620342281902,0.2216273545067858,0.06046987827125022,0.26384957971801043,1.2934214741101744,1.3939079378001769,3.6942069663847605,-0.22929487212221467,-0.5629939788523934,-0.521453031353956,-0.4778814375237493,0.9208759421217649,-164.87219124500885,8.078432645926622,32.53011431512025,0.31532039106954945,0.4744964374052907,0.4786267007477912,1.5909771736045673,0.41424558359711994,1.796210125763829,0.26776788324258294,0.3285677897667433,0.35643668875121154,0.4063361674196283
0.91,-113.51991788614109,61.274434651014886,173.4604951059652,0.22220548810718344,0.5409637719086404,0.37418189767541005,0.37253847821221464,0.013317663054628566,0.11866701976709049,0.5621771990588372,0.5239090743864806,-0.19256275609927337,0.3773847688006994,1.1849036740206198,-112.20998230018111,32.481369599716125,54.18692041232509,0.0013620055793425803,0.67773883281727,0.08252558826662135,0.4005793578489164,0.17409387750369895,0.5884682046375871,0.2954924530037031,0.35905484606831867,-0.29069291778716067,0.06564338131008773,1.109899546298209,-174.0191213979165,3.689120762398616,10.884480662283895,0.5872524953597821,0.11715956026139715,0.3215943721269028,0.4633985437549085,0.8804390224948031,1.946347277663391,-0.35241732079722055,-0.628580077330618,-0.5616501263080678,-0.45878512266083343,0.875612134069746,-163.9788092638091,8.129154136336872,33.11108987677385,0.8162739679443852,0.5583208317720433,0.6327962262969766,2.232292005525784,0.08149374759757719,0.8481832169932131,0.6002130840213568,0.24685248332150955,0.581384264406902,0.2800906831284873
0.92,-113.16363684070902,61.858250351356894,172.79103741572195,0.07628285642778124,0.4368642324073011,-0.06091161096447377,0.4122647705796266,0.15534191633622532,0.2642865031070081,0.5488075365187691,0.5105443128346683,-0.32143846500190165,0.5767542443587604,0.9607625596787867,-112.92158576485352,32.963992547743906,54.4450096408366,0.0962250439912974,0.017455466425497473,-0.027347921165677802,0.22762633427641848,1.3772591710721789,0.793078481764056,0.4002460480810525,0.3845966971138757,-0.36925325725361857,0.24004065974382377,1.087884498164345,-174.16271798348114,3.6969945167853964,10.278696424412493,0.9086311519673315,-0.11995136711840174,0.1516499541166031,0.2889779057714473,0.41735296495396285,0.9786449552804931,-0.46748050108050815,-0.6752625166689029,-0.33270446494011324,-0.45915342673268705,0.9980425641631231,-163.36789644910291,7.8074928667704535,33.9586298216966,1.098241609716829,0.4095598593177432,0.7303771392774182,0.12467503976218658,0.33735966623831526,0.6633692989690034,0.7295139144869282,0.40507924190705513,0.42327382664268154,0.13044138624651802
0.93,-112.85880411873303,62.108263961666424,172.49114598640725,0.17887351794828504,0.11350660860821998,0.08257143477430534,1.0376982764797464,0.4042160165225258,0.23472279187780729,0.8033343725458235,0.28138398835359024,-0.6631560392910121,0.6856899582740936,1.0695730899843872,-112.85681687261219,32.40296482409869,54.563509221596505,0.2165935382682301,0.33059316912619424,-0.04094185725616643,0.5604966606746249,0.6478433360859324,0.33065193048150554,0.381746908061938,0.3781818889005519,-0.16340431208921224,0.056242539471731745,0.7861942866410131,-173.5478015818349,3.5503433595754665,9.352067304305601,0.7843857357358467,0.2336339011650661,0.6911315291300562,1.633590225937782,1.234471397313747,0.335177606079919,-0.732299263398069,-0.7521199353693035,-0.609489569332826,-0.40791114823271823,0.9039338847013684,-162.38562507567482,7.579135245475917,34.582306813316016,1.0836212698098913,0.5305626763887906,0.788116314038096,0.15609428780079043,1.1121061800292125,0.9274874771183648,0.413233821769964,0.2999898570320672,0.3066487252955759,0.3830265068288112
0.94,-112.7035604183683,62.579761327882345,172.20977914200097,0.0564268284926152,-0.008897908062855953,0.14975538062391805,1.0105789122129876,-0.009561403437146856,0.37311710767055256,0.7960515884431212,0.2595612660573967,-0.36972209822846613,0.5258426603173841,1.1503230789157224,-113.0204829573049,32.01777756064974,54.78302563707708,0.08411550468138809,0.5596496814043234,0.14588432249169214,0.38399557092365294,0.5382531288703476,0.2742703279462651,0.6859159963002117,0.21935971610317662,-0.2960973531842905,0.5532802838264963,1.0372851700489958,-172.63278934423826,3.9813414502774775,8.23550081728307,0.9875299710603347,0.5429956277606832,1.035950889723665,2.4864635245053033,1.2878836589104874,1.5704459441270566,-0.7182409857693479,-0.5252287463642367,-0.6093371833910903,-0.5237580231946575,0.9729330948253531,-161.7314995424664,7.585929983998721,34.770712506737645,0.37489594489773237,-0.1619219593062844,0.3059859889884363,3.284268732997602,0.4713886870946086,1.0687035696249714,0.7274280161492972,0.6504640337811696,0.36902016955056943,0.2518233361407221
0.95,-112.60533279721776,62.63435921180385,171.83611194412418,-0.04669819703875816,0.09839363122871472,0.07406706462005024,0.8360486434760382,0.266888002487499,0.38820539692232814,0.5332793746118932,0.5299506960349668,-0.4907961485813438,0.2842831376775875,1.0292189178799882,-113.07046343815836,31.86045989382038,54.621585795402,0.05027446118854834,0.5330748796395477,0.11558477709875509,0.21653563538537338,0.3211000312509533,0.4738003788866631,0.6696403951554765,0.31545550371860526,-0.3832121680188304,0.2941985407563737,1.1507245528938252,-171.4892679229132,4.229700139852142,8.06426965183418,0.8368427431589558,0.6436517921130624,1.0232251262004333,2.0626356516781144,0.9085083437459395,1.1397204628762632,-0.31849775334383906,-0.33428449250349035,-0.5563641019597083,-0.42440975965508565,0.9293473940369149,-162.14970720555482,7.4185827241930165,35.199064867581264,0.4075381412619469,0.3630427874607324,0.6879770521767055,3.0385836635853916,0.38870903054620043,1.136851537917377,0.5816682061058522,0.41006389742421595,0.80572453422215,0.6499051247409829
0.96,-112.61322681839434,62.46528599836396,171.99223132289424,-0.034869236991632045,0.1561865224839108,0.10407708154220979,0.7028876832928415,-0.03216235260314379,0.8442765886364458,0.638605717477213,0.5561632849571685,-0.45802106287537836,0.7543729622445179,0.9458162202780215,-113.04370734859414,31.76619285605592,54.76378205280816,0.03502841325044279,0.3586803104264291,0.03549963427519054,0.03696307964244283,0.30257175509028383,0.22389741724541162,0.5337574243778899,0.20683447680561481,-0.22483008534209398,0.17771543336156595,1.236820148752581,-170.62870575093308,4.456547927836083,7.540735879640308,0.8346386542781048,0.6783577220010089,0.8015626643964937,1.669499998372413,0.3084252686435059,0.774226583677495,-0.47090738870975746,-0.4731699112680461,-0.7175555180705826,-0.5005792091027638,0.9476110013911784,-162.47288092896898,7.318453911125287,35.44587936880059,0.30745877507355546,0.03469693974933368,0.9000404156846994,2.999942901631259,0.3435081413056336,1.188019125127952,0.3814777939778281,0.36200209195177796,0.8046411824498005,0.6298561045057761
0.97,-112.59096773988533,62.871108699874675,171.8477566485235,0.2603050869098811,0.45972165882613786,0.11258046650487513,0.42928921876177917,0.4178327625517231,0.7341055808093266,0.575183870485807,0.4886049603035369,-0.49357350354740903,0.5704422039374062,1.023747748108223,-113.00229387124176,31.373689157997898,54.793636406840605,0.028514277046119575,0.37128596081310605,0.19014549953295157,0.17940884251958233,0.3188542086750847,0.6327421493631696,0.28411474790170166,0.17488692512472953,-0.2897853406175382,0.1428568185184551,0.9579003751337246,-169.67032603018845,4.496108309719969,7.0259927330975005,-0.13297566725364024,0.32166091652735224,0.0196230718791838,0.600054921595504,1.2345409052612002,0.5899088599273592,-0.3363186127403124,-0.5147212166481284,-0.8002523628745606,-0.4232461509920433,0.909795447839685,-163.3982072427608,6.767173392269827,35.77821306710906,0.34997205796392095,-0.20001265380723182,0.8114493545033409,1.7370954887803,1.3941609735246172,-0.16646433465945182,0.36273938414879237,0.3227560251718927,0.3584231848918624,0.25376696824803724
0.98,-112.44567992345534,63.49060798594017,171.70361271026707,-0.05823582864387018,0.2830188212998956,0.037396324078652496,0.46597076450749175,0.5038492611789049,0.46906172948584907,0.7010855929366734,0.4382072450103657,-0.3549436861139558,0.30180570553104097,0.9055827101193559,-113.12280438162735,30.77327567069747,54.59325124825963,0.08422642228805124,0.2433035962934575,0.363297727631595,0.2715704297863428,0.17687036818126964,1.0764503336346969,0.6608199277426005,0.7532699009526114,-0.476831596850492,0.16885323848668876,1.0472821318476975,-169.63526321622174,5.14476336686231,6.8115642833228485,0.12213158137223418,0.4844210151805115,0.23414525528769264,1.9055616184891198,2.1854081774696685,1.7675869122693901,-0.29659389643861966,-0.6838605049682673,-0.613687830533817,-0.5356931428016556,1.0068265320089609,-164.13440505773448,5.753669341789361,36.25077505956264,0.3473201401742455,0.387268517458074,0.6943661633936214,1.946225916523917,1.5022907330747528,0.8475009386763647,0.5674062765924777,0.4519065771688112,0.45529515954106514,0.6263388374314248
0.99,-112.16291694619721,63.92038678174015,171.51863496157367,-0.1169783605115734,0.2472071098425178,-0.025324962484023,0.32856322557684103,0.47144750892131915,0.08887853564089146,0.4314748828528593,0.4872655697164979,-0.6343041301942568,0.42171328214160453,0.9351547144130926,-113.130541357833,30.428426566029707,54.691422382323225,-0.1277283602239162,0.1260379490492416,0.2553822044933429,0.5351971025412788,0.37662696849412214,1.2629191319575732,0.5825551720407072,0.4395762364645585,0.02097730166456363,0.3176009137265646,0.9478285224616267,-171.04081193234717,5.30260812656207,7.377418154926621,0.34020240323856143,0.22140913293080475,1.0972353696642168,0.5237134063216797,1.7460338199955658,1.8034748561185565,-0.3317766626961313,-0.5710361982710955,-0.7444388117539956,-0.3544833860639838,1.0881136401396465,-164.49047228403506,5.478265221997177,36.34509028161468,0.0011960268965702375,-0.12562741953075562,0.4983631767439213,1.4563928320470758,1.4015188177039606,1.474774086683711,0.30487120437027126,0.45161137692633746,0.34621210453501705,0.3760796784065101
1.0,-112.51045964405063,64.08389557585771,171.23711410209552,-0.03571959286567926,0.22762935619525898,-0.10561378177950391,0.06661638395970487,0.3177259545907425,0.22727113343837002,0.5107319097633692,0.18884981984736182,-0.6198170525269543,0.789943066120096,1.2034518189329597,-113.2339054178282,30.18914587605992,54.446249593827794,0.17075813647610402,0.36215201016934057,-0.03869897256641137,0.621654988072003,0.8550727545729775,1.6639636621440816,0.37476998795439814,0.6030175142238239,-0.24032088828521272,0.10508204221734141,0.6487313289389487,-171.72964443425454,4.871207095928998,7.746172946327072,0.30676565008647655,0.33393379754767877,0.6220065255763345,0.5343301274582445,1.8992613510215308,1.56153437907062,-0.5923718567309944,-0.47858546344606234,-0.5836869448438842,-0.387466831672983,1.1465216123401838,-165.28699197367445,5.299671105490295,36.49225666890758,-0.05371440541006271,0.016104822907089006,0.2645869224021557,0.5783232880789111,1.5071612324670025,2.075729043138381,0.35273634538987486,0.5899480456855081,0.5650690544216875,0.39785874310665903
1.01,-112.45699041300907,64.48022648350981,171.2814614519621,0.04683994871945534,0.3039179418018091,0.16271996636263103,0.4939221065131494,0.5757428313406099,0.6220484323568469,0.5935450396118771,0.8101046492450914,-0.35603390536888685,0.7387783655931311,0.949186538361789,-113.5243455155654,29.60214876957155,54.779478677165656,-0.08456359344139844,0.2636305318575683,0.28815791272933905,0.8018836486216558,0.39945328879829445,0.2479842068788128,0.5313773404331883,0.050003151808374446,-0.13224271982576435,0.3302261095681739,1.1321351055791569,-172.94400058896414,4.81080811661738,7.822961444053053,0.4280775209047273,-0.1595932910975802,0.1603813911538894,0.9379082264116296,2.178833166298657,1.6626056910450127,-0.6148907033478566,-0.48407874018416874,-0.6703227216199993,-0.48784197485732794,0.9558062547710352,-165.04884671326045,5.2089584264898345,36.5792025155528,0.2679384878147795,0.0014121750410639455,-0.23367326468703176,0.02823998056670396,0.5980658157166663,1.535618373284754,0.40018810643344405,0.4354487948321937,0.4903571472011059,0.6592503168507937
1.02,-112.52762494503801,64.6909862186671,171.13786763587893,0.021134815553908143,-0.054311940951304545,0.01373075121925544,1.2044062963256372,0.7798394337642436,1.0195684173206465,0.44781753008598385,0.39943509944363953,-0.34303880218013744,0.4541415222004577,0.961791180945714,-113.28883177106316,28.855200487051995,54.34169582909265,0.13318602643819627,0.9000902371026939,0.03479506600440786,1.728377496448954,0.12168712204038361,-0.10320477877440937,0.18069130668821481,0.4454739983035711,-0.4360951612776923,0.1655575864985323,1.0407274933845443,-171.94570475861926,4.393083671859912,8.064635354985214,0.27660573638655533,0.04283559522268354,0.549555052645636,0.6947021045319559,0.5386748683282931,1.8071622071785152,-0.49027380869733744,-0.61957392532077,-0.7171051749324555,-0.4373167147442132,0.7861387343386211,-164.89588237445855,5.006737522362511,36.377092341652514,-0.127520693099942,-0.011533594663200447,0.5430574461292013,1.1136050201192917,2.212740578959334,2.891749875016113,0.5334181317838291,0.34139333227718427,0.42406949175076075,0.5204950500631652
1.03,-112.64187129495967,64.76795647872007,171.56954546609282,-0.1546772232657721,0.0622117148680785,0.1548340505501383,1.3063223455061905,0.8585519486252355,0.9745023063524685,0.5388939616685486,0.3777080988027432,-0.49690673666462776,0.6472891511236498,0.9703267852631702,-113.4453152179294,28.1309232450639,54.0647655148247,0.25840379769256255,0.3246691585130327,0.24993249313030946,1.4844733602917215,0.12544685955642706,0.12552920332446352,0.40500073941548503,0.10030483322630238,-0.10749316235903797,0.3568506833655931,0.8340002435946774,-170.92139071692026,4.545280519368268,8.363290552498695,0.016442971571351384,0.34838614110330607,0.9691698334296057,1.728486935416866,0.7163926146676572,0.5426577514866339,-0.5727517642346294,-0.44900452340805164,-0.3996930085272429,-0.4861229294639947,1.100120989798168,-164.85163413432522,5.258770435388714,36.66451634171342,0.06424929512914862,0.11824836706936734,-0.03623984205025947,0.3029426059690861,1.0208690128241673,2.769795681904062,0.6325711064583263,0.5729092070641918,0.49809523161905633,0.43319903291703193
1.04,-112.64183359476941,65.11358419937604,171.37174579009775,0.14945791800705394,0.20762381670296357,0.0775006053112443,1.1396126026467053,0.24420995283742056,0.7731163829567222,0.4774088258585437,0.5470941545125462,-0.7515441951030947,0.28013785817262804,1.1361205234617175,-113.69631625505613,28.112175579322432,53.813053840578824,0.000631680102379583,0.029707916928040645,-0.12604053244992475,0.18704340686897516,0.18928830844227598,0.8789079461771521,0.40071561731458694,0.4024518961427665,-0.17040987759555215,0.23330865548890592,0.8768305850450615,-169.6989779235874,4.568849978952694,8.65860369996174,0.03194547916218764,0.15317058664521446,0.36746876077240975,0.20039515170055874,4.984126699623793,2.3103725085619065,-0.36267048379632427,-0.48559140873697915,-0.36908141467773764,-0.4521269705170391,0.9864211357237815,-164.80980004451493,5.019990295077697,36.88535439380312,0.19520115034234245,0.14995163429939085,0.37364928579888457,1.0400347588256758,0.403457214549185,1.7650156464505462,0.5611094180838865,0.5586668234345266,0.5570321964127634,0.32668718651472595
1.05,-112.92452172960118,65.40710960337302,171.03486019239313,-0.07395615566303312,0.59760575411987,0.10652849999369371,0.6592681536517174,0.08506562100185877,0.8062745280363839,0.6291013632592156,0.4577352257591737,-0.638601736403634,0.2680706799740269,1.1704628686654155,-113.8731745612241,28.473970341884314,54.04309005733651,0.15050401808098796,0.4034532064360089,0.12495356154079196,0.47670255248795657,0.4276398088340584,0.6894625430225606,0.7845938648163593,0.5999739007847782,-0.5000630188152826,0.2499116769730777,1.0490400412198875,-169.572403656551,4.505732356398814,8.734121826622992,0.04226789693184932,0.042753869276564875,0.016124687392354828,0.13203704682667539,4.603757789137115,1.8207247324717464,-0.06291852948902929,-0.6016806735742951,-0.6517033526282336,-0.4418372011339431,1.0361926440878788,-164.22928430256349,5.180973977689334,37.693992805756274,0.40821378768600586,0.33046974565522974,0.23706335197309,0.45623444901952964,0.8386170377672942,0.0076901755976732065,0.5903830933088526,0.23689891116523437,0.4464978931573692,0.29253404473205785
1.06,-112.859809085225,66.14629857879524,170.93471200333872,0.12935486137677082,0.28060524968925166,0.08117342313507837,0.5226694780888155,-0.049585416749973805,0.3647287746629739,0.6593842986065993,0.4410640153562808,-0.32535127301055927,0.29363739726017113,1.0570823776809009,-113.70296098661686,28.09727838561367,54.0576752540975,-0.12279775424400022,0.3133703804492454,-0.012097429181147638,0.27459505671136936,0.29627622604861037,0.44537188270705885,0.4007139655053017,0.5018970740539392,-0.2112627233567904,-0.15474379895133555,0.8530061467496728,-169.9976599046213,4.536561904628582,8.372470609426667,0.05103568829864727,0.31960801915591136,0.6396316778311258,0.09779401975399023,1.6949118631507718,0.36048738341395314,-0.19882514821799013,-0.5788218776817529,-0.636359953807406,-0.22165017545088883,1.1049487521821038,-164.46897410905007,4.7897360990398425,38.067089262920206,0.41269845938766314,0.3442804541090625,0.007084972344413257,1.1848501044279904,0.41687257029229824,-0.43832772616345955,0.5701828948925468,0.4246846057530383,0.9130939997376843,0.6818804669808497
1.07,-113.18008056158129,66.1121792740786,171.16453950830666,0.6168611865947333,0.10285233513767247,0.12669787537085114,1.0862279625273363,0.2678785983631232,0.12939995266450316,0.5852883201329707,0.2966892203079866,-0.36847247854438236,0.48648091149046796,1.0807364200420284,-113.81290545283133,27.424314068138624,53.87542205714592,0.06835498115775165,0.5059148305734082,-0.21463907732023724,0.7159779977018225,0.3830442372843241,0.9059080099513565,0.3426080662487395,0.3289083182355992,-0.09945280046177415,0.15174914391004374,0.9939756916077567,-170.6479974524515,4.227401480590679,8.760087469779089,0.3867124271375211,-0.0910661594530715,0.09648271139889666,-0.12168598829060528,2.532943248171061,0.4808078412320111,-0.286792212429368,-0.6572963910045138,-0.5345146679089257,-0.5272484496883061,0.8819355382032977,-164.31163359883064,4.795617291967904,38.17609862223248,0.3269531865766298,0.4413711663847685,0.1311209555121799,0.6934035837338856,1.2427643952457896,0.0853160015546645,0.583734408863028,0.35381860543679466,0.33347581734989223,0.46137203737158083
1.08,-113.79077343081414,66.18987101296665,171.65031811445388,-0.12437145655582965,0.11233445942063022,-0.003852483837621129,0.4377783026763139,0.400308931418792,0.21834822946717175,0.5229028660119834,0.8016815196566721,-0.4771701614112989,0.49662006451763685,1.1296558010818563,-113.90040206361277,27.49873231504225,53.81265130043923,0.2304922629251466,-0.0941601805368329,0.09573077186396678,0.02182959695931487,0.3598183530536572,0.08354194112908517,0.39830867154958915,0.2607787351469479,-0.12821579554652296,-0.12522735909690136,1.2345241581764153,-169.988256968176,3.9341516769737668,8.793326721017515,-0.11616857530838613,-0.17509306846051056,0.7406545295883412,0.4548804013276127,-0.2023828941815578,1.6761550163839232,-0.27968568756508316,-0.6053522200199583,-0.42839941195434617,-0.4799313441225637,1.0872405170602606,-163.9972472109883,4.513830683063541,37.84327521162762,0.11176365498710365,0.08676953279529372,-0.11030374988446542,0.8276621917633037,0.28876441504226463,1.0232032243037552,0.6150778410431844,0.3931307481153317,0.3724461945851337,0.4925746460151898
1.09,-113.8999945034639,65.83902612468513,171.86330313893384,0.11535129617125589,0.4617667344642171,0.05103877853245336,0.07056384456801654,0.2549455385599114,0.5937683405627264,0.4756961807231221,0.1601000604749112,-0.44769759000424364,0.5892169021203572,1.1523483656235645,-113.87974360492058,27.407241706112327,53.41357717614057,0.16292671197730754,0.16866129416833475,0.15361612310688058,0.28696886702495017,0.81905688307458,0.3843894217706118,0.3320948560871145,0.7159851529319406,-0.08947531688784555,0.11446398277654006,0.8273940361623942,-169.7054810931269,3.676022138689385,8.766369461542103,-0.08769215611431444,0.16007154084064396,0.574135602917962,0.406237521903039,1.9734177695399182,2.192525851120417,-0.5038700363453972,-0.4529466836113379,-0.5455893960927132,-0.43897308090421694,0.9857849234027339,-163.77060555869517,4.349338997938464,38.0544853811246,-0.15636421265472636,0.050092153198526494,-0.10473282727965184,1.6386916840296857,0.45093522204546355,0.3314585820889043,0.32887485230792673,0.07191434072718186,0.3746292653554287,0.8461730522740677
1.1,-114.1883925443316,65.18471694443852,172.41930690003767,-0.3215338665068239,0.5035567631557187,0.08079119334725354,-0.025500891998137792,0.09244321958407595,0.5397997532323351,0.6190274462725517,0.2375458075747572,-0.6107329855708686,0.41881587474980636,1.0301092630833262,-113.9775780792327,27.427183022633763,53.3535864781266,0.014747623242733281,0.1516791871411925,0.11228239760327252,0.6171433361393568,-0.055057742082184676,1.0799940539006176,0.15553893335700544,0.24732212054361796,-0.4183868274840771,0.06752150667782209,0.9834384723593943,-169.2265519175547,4.012732363164101,9.080060885155527,0.3289082409929509,0.012215759424779704,-0.19340979974623956,0.5668285019814683,1.026688917866866,0.7467736436015442,-0.4292757314579598,-0.560226252438629,-0.47475931714601344,-0.4089817669149199,1.0517315229146058,-163.68830105519203,4.117966618484679,37.740628069775866,0.21776564246117208,0.1565517320230623,0.3082400286237165,2.1137544533013237,1.1513322388564773,1.2263527062251893,0.9716149607982747,0.3986716655530919,0.29789803717378993,0.43507788254403557
1.11,-114.43859196380652,64.62565327020832,172.92564044446405,-0.14035671368135677,0.5574880272700105,-0.02130991601966864,0.47819344808538095,-0.045934196035946215,0.807466418633887,0.5978170058681301,0.6867456792515468,-0.5891334910135809,0.3159365686553072,1.1464528483042378,-114.16769328546803,27.46116193129492,53.409557531226305,-0.13545136469716046,0.3234497069430178,0.11966339752083928,1.6448346679933887,1.2163148308801535,1.4257282031758107,0.45249289382767893,0.5408259321019944,-0.15814220133131318,0.16894979844411015,1.2061227609304737,-169.51394245532686,3.595248134456087,9.003624282485516,-0.0476689347823566,0.4103578123540808,-0.18148107399333158,0.8178716272769302,0.5513911828459718,1.8127414107306512,-0.5101218817496517,-0.7223056003002281,-0.4184791483222958,-0.5216459710947406,1.2766706078313628,-163.00260671851987,4.254714747890104,37.869301617454674,0.65381511162251,0.2668708260635727,0.19550404640260968,3.1473783934991717,0.08028644431872474,2.1540376773629317,0.6660260584699683,0.19580436176848434,0.6061064280198073,0.6512710769817017
