0.01,-112.33,75.91,179.1,0.02,0.07,0.02,-0.0,0.2,0.29,-102.62,82.47,121.77,0.19,0.03,-0.04,0.5,0.12,0.15,-149.23,1.07,4.48,0.02,0.05,0.0,-0.01,0.28,0.21,-119.55,11.35,7.14,0.09,-0.02,0.62,0.11,0.35,5.26
0.02,-112.35,75.63,179.14,-0.03,0.17,0.08,0.46,0.1,0.38,-102.69,82.53,123.6,-0.07,0.25,0.15,0.38,0.04,0.15,-149.12,0.85,4.27,0.35,-0.04,0.06,0.01,0.29,0.03,-118.76,11.04,6.88,0.15,0.27,0.64,0.12,0.47,4.66
0.03,-112.36,75.23,179.57,0.03,0.65,-0.17,0.68,0.26,0.59,-102.86,82.22,125.32,0.06,0.05,-0.01,0.65,0.16,0.25,-149.21,0.8,4.29,0.06,0.04,-0.01,0.1,0.43,0.06,-118.05,11.03,6.43,0.2,0.07,0.6,0.3,0.34,4.36
0.04,-112.44,74.6,179.5,0.04,0.61,0.01,1.09,0.02,0.3,-102.73,82.29,127.02,0.07,0.4,-0.13,0.66,0.14,0.03,-149.15,1.05,4.23,0.1,-0.02,0.1,0.34,0.37,-0.09,-117.49,10.94,5.84,0.23,0.11,0.6,0.24,0.34,4.23
0.05,-112.3,74.19,179.58,0.02,0.47,0.12,1.49,0.27,0.63,-102.79,82.11,129.04,0.08,0.38,-0.07,0.85,0.17,0.56,-149.24,0.89,4.31,-0.04,0.23,-0.11,0.28,0.25,-0.01,-116.8,10.66,5.7,0.21,0.13,0.36,0.38,0.18,3.86
0.06,-112.17,73.45,179.59,0.28,0.89,-0.0,1.72,0.19,0.61,-102.7,81.78,130.96,0.12,0.47,0.15,0.94,0.2,0.42,-149.29,1.0,4.23,-0.03,0.18,0.01,0.3,0.51,-0.04,-116.01,10.75,5.39,0.18,0.0,0.42,0.29,0.15,3.46
0.07,-112.1,72.52,179.57,-0.06,1.11,0.17,1.84,0.2,0.63,-102.55,81.5,133.24,0.02,0.7,0.01,1.27,0.3,0.18,-149.21,1.09,4.13,0.03,0.09,-0.04,0.31,0.55,-0.17,-115.62,10.52,5.03,0.15,0.06,0.49,0.49,0.27,3.2
0.08,-112.27,71.47,179.31,0.05,1.29,0.1,2.2,0.24,0.59,-102.6,81.05,135.53,-0.06,0.6,0.0,1.67,0.34,0.44,-149.24,0.9,4.26,0.29,0.14,0.05,0.34,0.74,0.25,-114.97,10.61,4.51,0.29,0.01,0.61,0.26,0.18,2.87
0.09,-112.14,70.04,179.31,0.17,1.33,0.14,2.24,0.39,0.71,-102.53,80.46,138.15,0.02,0.79,0.19,1.84,0.23,0.39,-149.29,1.02,4.11,-0.0,0.06,-0.13,0.55,0.82,0.27,-114.48,10.48,4.25,0.26,0.29,0.48,0.2,0.22,2.37
0.1,-112.03,68.78,179.1,0.16,1.43,0.14,2.43,0.4,0.66,-102.41,79.78,140.75,0.01,0.82,0.07,2.3,0.26,0.49,-149.34,1.13,4.06,0.11,0.01,-0.1,0.34,0.96,0.23,-114.0,10.51,3.69,0.14,0.11,0.38,0.36,0.29,2.3
0.11,-112.17,67.38,178.85,0.15,1.54,0.21,2.43,0.39,1.08,-102.38,78.83,143.36,0.1,1.03,0.08,2.73,0.48,0.47,-149.19,0.96,3.79,0.05,0.18,-0.03,0.54,0.93,0.39,-113.62,10.82,3.29,0.23,0.12,0.53,0.41,0.3,2.18
0.12,-112.08,65.49,178.75,0.36,1.61,0.19,2.42,0.39,0.95,-102.16,77.65,146.03,-0.04,1.28,0.1,2.95,0.45,0.64,-149.53,1.11,3.47,0.17,-0.04,0.15,0.76,0.94,0.72,-113.37,10.95,3.09,0.1,0.07,0.46,0.41,0.21,2.09
0.13,-111.87,63.51,178.59,0.2,1.88,0.44,2.1,0.46,0.99,-101.67,76.23,148.84,0.18,1.37,0.16,3.05,0.17,0.71,-149.05,1.31,3.6,0.12,0.09,0.1,0.89,1.2,1.08,-113.05,11.41,2.63,0.06,0.15,0.39,0.18,0.33,1.99
0.14,-111.65,61.48,178.53,0.28,1.87,0.16,2.15,0.38,1.3,-101.66,74.6,151.29,0.27,1.49,0.01,3.43,0.34,0.82,-148.81,1.32,3.22,0.21,0.17,0.12,0.88,1.21,1.27,-112.66,11.92,2.56,0.05,0.28,0.18,0.25,0.13,2.0
0.15,-111.4,59.3,178.39,0.25,1.86,0.24,2.11,0.47,1.22,-101.35,73.14,153.87,-0.02,1.82,0.19,3.74,0.51,0.77,-148.59,1.42,2.87,0.15,0.17,0.23,0.83,1.17,1.79,-112.42,12.2,2.41,0.15,0.23,0.04,0.1,0.17,2.17
0.16,-111.17,57.32,178.41,0.01,1.88,0.19,1.9,0.23,1.33,-100.89,71.46,156.11,-0.01,1.86,0.15,3.71,0.28,0.71,-148.32,1.58,2.58,0.18,-0.16,0.43,1.15,1.21,2.16,-112.12,12.77,2.37,0.51,0.39,0.06,-0.01,0.45,2.21
0.17,-111.05,56.27,178.07,0.12,2.01,0.38,1.66,0.15,1.47,-100.7,70.29,157.18,0.1,1.94,-0.13,3.68,0.09,0.75,-148.22,1.46,2.56,0.08,0.02,0.36,0.94,1.18,2.44,-112.18,12.88,2.32,0.15,0.46,0.13,0.21,0.28,2.16
0.18,-110.9,55.18,178.11,0.17,1.95,0.23,1.82,0.23,1.43,-100.5,69.46,157.99,0.21,1.89,0.12,3.8,0.5,0.61,-147.7,1.54,2.5,0.26,0.15,0.41,0.78,1.04,2.53,-112.2,13.22,2.33,0.16,0.44,0.28,0.27,0.41,2.39
0.19,-110.48,53.03,178.05,0.32,1.91,0.32,1.43,0.42,1.55,-100.07,67.42,159.85,0.04,2.22,0.03,3.58,0.41,0.79,-147.32,1.61,2.25,0.29,0.18,0.59,0.69,0.86,3.04,-112.25,13.9,2.38,0.05,0.5,-0.03,0.32,0.3,2.56
0.2,-110.23,51.02,178.03,0.05,1.82,0.24,1.17,0.33,1.74,-99.49,65.27,161.59,0.08,2.31,0.15,3.36,0.29,0.46,-146.65,1.77,2.0,0.43,0.04,0.49,0.63,0.97,3.37,-112.21,14.53,2.7,0.23,0.44,0.09,0.21,0.21,2.66
0.21,-109.6,49.02,177.84,0.2,1.67,0.04,0.96,0.4,1.67,-99.15,63.16,162.96,0.05,2.21,0.18,3.31,0.45,0.58,-146.0,1.82,1.66,0.35,0.1,0.64,0.6,0.8,3.74,-112.01,15.16,3.06,0.08,0.53,-0.13,0.16,0.46,3.08
0.22,-109.13,47.27,178.12,-0.0,1.72,0.29,0.93,0.26,1.82,-98.81,60.78,163.83,0.11,2.19,-0.03,2.94,0.4,0.44,-145.03,2.03,1.69,0.32,-0.07,0.52,0.71,0.68,3.98,-112.07,15.91,3.32,0.19,0.46,0.05,0.17,0.53,3.26
0.23,-108.57,45.49,178.22,0.11,1.64,0.11,1.04,0.44,1.55,-98.28,58.34,164.88,0.18,2.24,-0.06,2.54,0.24,0.63,-144.26,1.95,1.64,0.4,-0.14,0.73,0.63,0.51,4.12,-112.31,16.51,3.82,0.41,0.55,0.13,0.12,0.76,3.41
0.24,-108.39,43.9,178.34,0.14,1.45,0.08,1.06,0.17,1.71,-97.66,56.07,165.54,-0.06,2.34,-0.12,2.35,0.3,0.61,-143.56,1.69,1.39,0.27,0.05,0.6,0.38,0.62,3.89,-112.41,17.22,4.23,0.2,0.43,0.24,0.27,0.72,3.75
0.25,-107.45,42.09,178.25,0.1,1.3,0.12,0.89,0.24,1.71,-97.13,53.82,166.08,0.17,2.15,0.21,1.67,0.39,0.55,-142.93,1.98,1.39,0.3,0.21,0.57,0.57,0.52,3.99,-112.57,17.58,4.74,0.4,0.45,0.07,0.39,1.06,3.86
0.26,-107.2,40.96,178.32,0.3,1.12,-0.02,1.04,0.43,1.39,-96.51,51.28,166.73,0.23,2.13,0.12,1.72,0.45,0.55,-141.6,1.85,1.03,0.41,0.09,0.74,0.33,0.31,3.78,-112.83,18.4,5.5,0.3,0.58,0.14,0.47,1.08,3.96
0.27,-106.9,39.82,178.51,0.25,1.12,0.02,1.04,0.37,1.28,-96.17,49.21,167.15,0.11,1.95,0.07,1.26,0.46,0.68,-140.88,1.75,1.32,0.4,0.22,0.48,0.73,0.36,3.5,-113.0,18.95,5.86,0.34,0.34,0.15,0.68,1.41,3.87
0.28,-106.25,38.68,178.68,0.24,0.9,-0.0,1.26,0.46,1.12,-95.71,46.75,167.22,-0.11,1.9,0.33,1.19,0.49,0.62,-140.33,1.44,1.41,0.34,0.2,0.72,0.42,0.19,3.16,-113.03,19.31,6.35,0.39,0.48,0.26,0.66,1.31,3.83
0.29,-106.16,37.75,178.72,0.25,0.84,0.2,1.56,0.4,1.24,-95.4,44.81,167.61,0.02,1.93,0.11,1.03,0.51,0.72,-139.31,1.38,1.24,0.27,0.07,0.58,0.56,0.4,2.96,-113.25,19.59,7.23,0.57,0.43,0.23,0.89,1.69,3.89
0.3,-106.1,36.85,179.01,-0.07,0.72,0.03,1.7,0.55,1.18,-95.08,42.57,167.7,0.14,1.6,0.0,0.96,0.36,0.66,-138.58,1.18,1.18,0.23,0.22,0.6,0.42,0.4,2.64,-113.62,19.95,7.7,0.28,0.25,0.28,0.8,1.84,3.69
0.31,-105.78,36.16,178.94,0.28,0.58,0.28,1.7,0.74,0.92,-94.82,40.66,167.95,-0.09,1.71,0.17,1.0,0.57,1.03,-138.11,1.25,1.09,0.48,0.19,0.43,0.83,0.51,2.45,-113.86,20.16,8.28,0.19,0.23,0.39,1.05,2.03,3.81
0.32,-105.71,35.66,179.16,0.23,0.51,0.02,1.97,0.67,0.78,-94.64,38.81,168.2,0.21,1.62,-0.02,1.04,0.56,0.96,-137.33,1.09,1.04,0.43,0.39,0.53,0.68,0.22,2.18,-114.03,20.33,8.86,0.36,0.23,0.47,1.11,2.37,3.59
0.33,-105.69,34.94,179.09,0.18,0.43,0.06,1.98,1.02,1.1,-94.24,37.17,168.06,0.06,1.53,0.05,0.96,0.54,1.5,-136.77,1.07,0.95,0.31,0.32,0.46,0.66,0.21,2.04,-114.33,20.59,9.44,0.31,0.14,0.47,1.3,2.0,3.5
0.34,-105.46,34.83,179.2,0.11,0.41,0.12,2.25,0.87,0.97,-94.18,36.31,168.43,0.12,1.45,0.18,1.28,0.65,1.56,-136.55,1.26,0.96,0.38,0.34,0.41,0.81,0.29,1.98,-114.39,20.48,9.43,0.36,0.02,0.5,1.37,2.34,3.37
0.35,-105.79,34.5,179.28,0.13,0.41,0.11,2.15,0.86,1.1,-94.3,35.54,168.56,0.11,1.42,-0.0,1.2,0.73,1.62,-136.48,1.31,0.97,0.16,0.19,0.37,0.75,0.21,1.87,-114.28,20.55,9.82,0.14,0.28,0.38,1.1,2.24,3.29
0.36,-105.76,34.17,179.28,0.12,0.39,0.06,2.34,0.95,1.3,-94.34,34.1,168.52,0.1,1.4,0.02,1.35,0.57,1.93,-135.77,1.41,0.96,0.18,0.2,0.52,0.93,0.12,1.89,-114.58,20.55,10.17,0.25,0.31,0.41,1.2,2.39,3.14
0.37,-105.8,34.03,179.44,-0.05,0.26,0.1,2.25,1.41,1.23,-94.05,32.66,168.73,-0.04,1.16,0.1,1.38,0.64,2.13,-135.41,1.74,0.99,0.43,0.49,0.26,0.76,0.14,1.94,-114.41,20.65,10.41,0.28,0.03,0.46,1.23,2.09,3.13
0.38,-105.91,33.85,179.47,0.15,0.28,0.13,2.32,1.28,1.43,-94.09,31.7,168.66,0.15,1.12,0.07,1.7,0.46,2.19,-135.02,1.79,0.94,0.21,0.52,0.27,0.6,0.2,1.9,-114.72,20.75,10.57,0.36,0.2,0.68,1.22,2.05,3.07
0.39,-106.06,33.8,179.65,0.14,0.27,0.27,2.33,1.31,1.5,-94.07,30.24,169.0,0.09,1.16,-0.08,1.61,0.64,2.64,-134.59,2.24,0.89,0.22,0.48,0.25,0.91,0.41,2.41,-114.43,20.73,10.92,0.24,0.04,0.44,1.25,2.06,3.2
0.4,-106.32,33.36,179.56,0.18,0.27,-0.03,2.23,1.26,1.47,-94.14,29.33,169.22,0.14,0.9,0.08,1.86,0.71,2.88,-134.32,2.59,1.2,0.32,0.38,0.24,0.84,0.23,2.4,-114.34,20.91,11.23,0.36,0.0,0.48,0.99,1.66,2.95
0.41,-106.58,33.56,179.56,0.37,0.23,0.18,2.13,1.26,1.66,-93.89,28.51,169.22,0.08,0.64,-0.02,1.84,0.69,3.03,-133.89,3.09,1.25,0.35,0.41,0.15,0.95,0.39,2.81,-113.94,20.94,11.42,0.39,0.28,0.47,1.2,1.75,3.14
0.42,-106.65,33.79,179.7,0.24,-0.08,0.18,2.01,1.4,1.75,-94.02,27.74,169.28,0.19,0.64,0.16,1.84,0.63,3.01,-133.65,3.65,1.81,0.63,0.33,0.14,0.68,0.31,3.02,-113.81,21.19,11.43,0.42,0.32,0.57,0.89,1.23,3.08
0.43,-106.59,33.59,179.7,0.16,0.21,0.04,1.97,1.4,1.84,-94.01,27.16,169.45,-0.0,0.5,-0.05,1.84,0.58,3.18,-133.44,4.03,1.86,0.4,0.31,0.16,0.66,0.51,3.25,-113.23,21.28,11.85,0.41,-0.08,0.57,0.64,0.86,3.18
0.44,-106.59,33.7,179.78,0.14,0.16,0.03,1.79,0.97,1.84,-94.15,26.57,169.46,0.08,0.46,0.03,1.84,0.89,3.37,-133.24,4.48,2.25,0.38,0.1,0.05,0.7,0.43,3.53,-112.68,21.5,12.37,0.55,0.16,0.55,0.72,0.88,3.1
0.45,-106.56,33.78,179.8,0.22,0.17,0.08,1.83,0.91,1.79,-94.11,26.14,169.59,0.12,0.43,-0.02,1.78,0.8,3.06,-133.01,4.92,2.76,0.42,0.34,0.39,0.6,0.41,3.53,-112.13,21.91,12.57,0.51,0.0,0.46,0.91,0.85,2.88
0.46,-106.63,33.91,179.85,0.11,0.12,0.05,1.67,1.01,1.71,-94.0,25.61,169.68,0.16,0.36,0.08,1.8,0.56,3.16,-132.77,5.47,3.17,0.22,0.42,0.37,0.5,0.64,3.71,-111.53,22.19,13.04,0.49,0.24,0.57,0.71,0.53,2.98
0.47,-106.89,33.97,179.62,0.26,0.04,0.09,1.67,0.63,1.55,-94.11,25.36,169.66,-0.01,0.23,0.04,1.63,0.73,2.99,-133.04,5.95,3.6,0.33,0.09,0.2,0.82,0.71,3.65,-111.04,22.82,13.9,0.64,0.51,0.46,0.65,0.68,2.84
0.48,-106.69,34.21,179.73,0.32,-0.04,0.01,1.45,0.63,1.44,-94.22,25.45,169.63,-0.02,0.38,-0.1,1.65,0.48,2.91,-132.97,6.08,4.14,0.38,0.14,0.2,0.73,0.83,3.48,-110.28,23.35,14.37,0.74,0.55,0.46,0.78,0.46,3.0
0.49,-106.79,34.26,179.53,0.29,0.09,-0.06,1.51,0.43,1.54,-94.24,25.34,169.81,0.28,0.32,0.08,1.5,0.72,2.89,-133.18,6.66,4.66,0.37,0.2,0.2,0.55,1.16,3.79,-109.54,23.98,15.04,0.63,0.6,0.36,1.02,0.6,2.78
0.5,-106.77,34.43,179.58,0.15,0.2,0.05,1.32,0.31,1.15,-94.15,25.3,169.79,-0.08,0.26,0.23,1.29,0.72,2.65,-133.05,6.53,5.2,0.21,0.23,0.16,0.67,1.28,3.36,-108.99,24.57,15.74,0.73,0.5,0.43,0.97,0.75,2.6
0.51,-106.86,34.33,179.42,-0.1,0.17,0.06,1.4,0.29,1.4,-94.42,25.4,169.87,0.22,0.18,0.13,1.25,0.57,2.71,-133.35,6.62,5.44,0.01,0.32,0.04,0.72,1.12,3.59,-108.55,24.81,16.27,0.8,0.55,0.54,0.86,0.69,2.45
0.52,-106.93,34.6,179.41,0.31,0.11,-0.04,1.58,0.07,1.47,-94.1,25.01,169.72,-0.02,0.34,0.13,1.33,0.64,2.64,-133.44,6.6,5.69,0.16,0.2,0.31,0.75,1.1,3.45,-108.15,25.3,16.6,0.58,0.51,0.54,1.11,0.77,2.6
0.53,-106.86,34.45,179.12,0.15,0.03,0.04,1.43,0.32,1.45,-94.38,25.3,169.77,-0.1,0.01,0.27,1.2,0.5,2.57,-133.51,6.91,6.26,0.27,0.32,0.33,0.83,1.36,3.41,-107.55,25.75,17.51,0.81,0.74,0.35,1.04,0.77,2.18
0.54,-106.82,34.39,179.17,0.28,0.07,0.24,1.6,0.3,1.09,-94.62,25.36,169.78,0.06,0.14,0.2,1.36,0.57,2.28,-133.75,6.93,6.24,0.14,0.27,0.34,0.76,1.37,3.23,-106.74,26.75,18.28,0.78,0.77,0.37,0.97,0.82,2.16
0.55,-106.93,34.39,178.91,0.33,0.26,0.15,1.78,0.15,1.11,-94.51,25.56,169.94,0.02,0.16,-0.08,1.13,0.43,2.22,-133.84,7.08,6.51,0.33,0.08,0.44,0.77,1.44,3.11,-106.29,27.45,18.97,0.81,0.85,0.65,1.13,1.02,1.86
0.56,-106.98,34.23,178.74,0.23,0.09,-0.03,1.7,-0.02,0.91,-94.61,25.69,170.09,0.1,0.2,0.05,1.2,0.4,1.99,-134.12,6.91,6.65,0.33,0.28,0.45,0.89,1.57,2.97,-105.49,28.35,19.81,0.93,0.97,0.63,1.11,1.04,1.6
0.57,-106.91,34.71,178.64,-0.02,0.22,0.18,1.72,0.17,0.87,-94.83,26.04,170.14,0.08,0.26,-0.0,1.1,0.57,1.96,-134.25,6.89,6.54,0.22,-0.03,0.27,0.99,1.57,3.13,-104.71,29.36,20.56,0.79,0.98,0.67,1.28,1.19,1.56
0.58,-107.36,34.69,178.28,0.27,0.29,0.18,1.64,0.03,0.7,-95.04,26.35,170.2,0.11,0.11,0.05,1.14,0.54,2.03,-134.6,7.01,6.32,0.35,0.02,0.23,0.75,1.51,2.92,-104.09,30.62,21.15,0.99,1.1,0.65,1.3,1.43,1.35
0.59,-107.29,34.52,178.1,0.15,0.32,-0.12,1.85,0.07,0.88,-95.09,26.33,170.24,0.09,0.32,-0.11,1.1,0.54,1.94,-134.63,6.93,5.91,0.34,0.03,0.4,0.81,1.36,2.62,-103.17,31.79,21.64,0.86,1.07,0.78,1.15,1.43,0.95
0.6,-107.41,34.79,178.21,0.37,0.33,-0.13,1.65,0.25,0.66,-95.11,26.72,170.12,0.05,0.12,0.04,1.18,0.54,1.72,-134.88,6.74,5.36,0.25,0.13,0.55,0.79,1.38,2.81,-102.44,33.28,22.25,0.84,1.08,0.53,1.35,1.42,0.79
0.61,-107.72,35.14,178.08,0.1,0.29,0.11,1.69,0.01,0.83,-95.15,26.96,170.37,0.07,0.47,0.02,1.18,0.42,1.61,-135.05,6.86,5.07,0.61,0.15,0.32,0.86,1.36,2.64,-101.68,34.87,22.64,0.89,1.32,0.86,1.4,1.53,0.69
0.62,-107.71,35.31,177.75,0.19,0.62,0.17,1.71,0.46,0.86,-95.17,27.26,170.19,0.17,0.32,0.03,1.49,0.33,1.64,-135.17,6.64,4.47,0.57,0.09,0.43,0.7,1.16,2.84,-100.96,36.74,23.01,0.84,1.36,0.91,1.18,1.38,0.79
0.63,-107.99,35.92,177.91,0.25,0.41,0.19,1.53,0.35,1.02,-95.25,27.56,170.22,-0.23,0.19,-0.07,1.16,0.66,1.67,-135.2,6.56,3.84,0.76,0.02,0.21,0.69,1.23,2.67,-99.93,39.03,23.52,0.82,1.55,0.93,1.51,1.35,0.65
0.64,-108.18,36.21,177.89,0.09,0.65,0.4,1.82,0.37,0.93,-95.2,27.76,170.24,0.1,0.2,0.08,1.53,0.7,1.55,-135.04,6.29,3.67,0.76,0.27,0.39,0.41,0.96,2.58,-98.98,41.45,24.0,0.91,1.53,0.76,1.54,1.4,0.62
0.65,-108.38,36.98,177.89,0.26,0.59,0.04,1.66,0.46,1.02,-95.23,28.11,170.16,-0.09,0.56,0.1,1.44,0.8,1.67,-135.19,6.15,3.19,0.76,0.19,0.34,0.29,1.0,2.53,-98.35,44.03,24.77,1.04,1.91,0.96,1.56,1.22,0.57
0.66,-108.79,37.65,177.99,0.19,0.76,-0.07,1.5,0.51,1.1,-95.25,28.79,170.28,0.03,0.46,-0.07,1.33,0.7,1.51,-135.16,6.03,3.05,0.84,0.06,0.4,0.31,0.94,2.68,-97.24,46.88,25.8,1.22,2.14,1.11,1.58,1.1,0.84
0.67,-108.87,38.46,178.08,0.41,0.57,0.15,1.54,0.51,1.22,-95.03,29.12,170.07,0.09,0.47,-0.11,1.36,0.71,1.29,-135.55,5.92,2.85,0.84,0.06,0.26,0.32,0.61,2.31,-96.31,49.9,27.15,1.15,2.3,1.03,1.69,0.97,0.99
0.68,-108.98,39.07,178.2,0.29,0.85,0.12,1.19,0.51,1.18,-95.19,29.5,170.15,0.16,0.51,-0.09,1.42,0.85,1.18,-135.41,6.14,2.79,0.77,0.13,0.32,0.2,0.53,2.4,-95.65,51.59,28.08,1.06,2.72,1.07,1.78,0.72,1.07
0.69,-109.26,39.64,178.53,0.38,0.9,0.18,1.38,0.55,1.26,-95.25,29.63,169.94,0.25,0.62,-0.01,1.36,0.72,1.25,-135.65,5.83,2.91,0.91,-0.05,0.19,0.11,0.8,2.15,-95.06,53.26,28.87,1.08,2.62,1.3,1.77,0.81,0.93
0.7,-109.21,40.5,178.44,0.19,0.94,0.08,1.34,0.37,1.17,-95.07,30.37,169.9,0.22,0.72,0.14,1.31,0.84,1.14,-135.35,5.98,3.43,0.86,0.19,0.18,0.03,0.6,2.0,-94.2,56.41,31.45,1.27,2.78,1.07,1.8,0.58,0.81
0.71,-109.52,41.94,178.61,0.07,1.05,-0.02,1.03,0.43,1.26,-95.24,31.11,169.97,0.04,0.77,-0.05,1.11,0.53,1.28,-135.61,6.25,3.76,0.83,0.24,0.25,0.03,0.46,1.96,-92.62,59.66,34.29,1.41,3.15,1.26,1.95,0.62,0.67
0.72,-109.63,43.12,178.97,0.16,1.1,0.09,0.98,0.53,1.33,-95.17,31.8,169.77,0.03,0.68,0.26,1.2,0.76,1.0,-135.83,6.4,4.21,0.62,0.5,0.48,0.01,0.41,1.93,-90.95,62.81,37.86,1.25,3.21,1.21,1.96,0.46,1.16
0.73,-109.73,44.35,179.14,0.11,1.37,0.08,1.08,0.57,1.6,-95.25,33.03,169.98,0.0,0.81,0.04,1.22,0.75,0.81,-136.07,6.46,4.82,0.98,0.38,0.33,0.29,0.47,1.72,-89.26,65.6,41.87,1.38,3.32,1.23,2.21,0.59,1.2
0.74,-109.78,46.01,179.42,0.25,1.44,0.11,0.84,0.35,1.67,-95.17,34.26,169.98,0.12,1.03,-0.08,1.02,0.5,0.59,-136.11,7.28,5.53,0.72,0.44,0.02,0.29,0.29,1.53,-87.56,68.27,46.51,1.29,3.48,1.3,1.88,0.56,1.2
0.75,-109.7,47.58,179.48,0.07,1.55,0.23,0.77,0.61,1.72,-95.12,35.54,170.16,0.14,1.23,0.01,0.65,0.49,0.65,-136.57,7.91,6.21,0.55,0.63,0.14,0.3,0.2,1.35,-85.54,70.35,51.65,1.34,3.42,1.33,2.03,0.62,1.23
0.76,-110.01,49.41,179.54,0.25,1.63,0.09,0.7,0.38,1.58,-95.1,37.06,170.34,0.07,1.26,0.08,0.57,0.75,0.68,-136.83,8.19,6.71,0.58,0.55,0.3,0.36,0.47,1.59,-83.19,71.95,57.19,1.3,3.35,1.25,1.79,1.08,1.07
0.77,-109.89,51.45,179.64,0.12,1.53,0.02,0.92,0.52,1.58,-95.25,38.61,170.26,-0.04,1.41,0.06,0.82,0.53,0.6,-137.41,9.48,7.0,0.53,0.62,0.35,0.64,0.68,1.33,-80.88,73.1,62.97,1.09,3.58,1.24,1.92,1.11,1.12
0.78,-109.63,53.15,179.56,0.15,1.82,-0.08,0.85,0.42,1.57,-95.39,40.8,170.24,0.02,1.55,-0.14,0.79,0.2,0.29,-137.85,10.54,7.58,0.32,0.73,0.51,0.69,0.36,1.45,-78.28,73.6,68.75,1.27,3.49,1.27,1.64,1.54,1.03
0.79,-109.65,55.15,179.72,0.16,1.68,-0.02,0.91,0.42,1.73,-95.49,42.96,170.39,0.01,1.57,0.23,0.79,0.36,0.57,-138.59,11.52,7.23,0.28,0.77,0.51,0.84,0.61,1.62,-75.92,73.17,74.32,1.07,3.47,1.68,1.4,1.87,1.11
0.8,-109.51,57.05,179.6,0.1,1.86,0.15,0.76,0.39,1.5,-95.71,45.12,170.36,-0.02,1.78,0.18,0.72,0.53,0.45,-139.37,12.87,7.06,0.29,0.94,0.8,1.26,0.39,1.46,-72.92,72.47,79.71,1.19,3.42,1.27,1.37,2.25,0.87
0.81,-109.51,58.95,179.37,0.14,1.67,0.06,1.26,0.32,1.54,-95.82,47.6,170.0,-0.03,2.0,0.05,0.88,0.43,0.45,-140.11,14.3,6.53,0.42,0.81,0.79,1.22,0.72,1.76,-70.16,70.84,84.6,0.96,3.11,1.34,1.09,2.89,0.88
0.82,-109.3,61.3,178.89,-0.06,1.79,0.15,1.38,0.27,1.33,-96.29,50.22,169.55,-0.26,2.16,0.04,1.07,0.33,0.56,-141.2,15.88,5.97,0.36,0.92,0.93,1.48,0.85,1.8,-67.7,69.07,88.42,0.92,2.93,1.2,1.25,2.94,1.01
0.83,-109.29,63.2,178.46,0.07,1.87,0.16,1.44,0.51,1.36,-96.29,53.11,168.97,0.02,2.25,-0.06,1.43,0.57,0.5,-142.39,17.6,5.18,0.54,1.07,1.0,1.68,0.88,1.62,-65.48,66.76,92.04,0.76,2.9,1.07,1.06,3.34,0.85
0.84,-109.11,65.27,177.8,0.14,1.71,0.04,1.66,0.84,1.1,-96.45,55.76,167.82,0.07,2.34,0.25,1.72,0.46,0.63,-143.68,19.64,4.57,0.86,1.34,1.1,1.8,1.23,1.83,-63.22,64.25,94.94,0.69,2.65,1.17,0.87,3.61,0.93
0.85,-109.12,66.35,177.71,-0.05,1.66,0.23,1.75,0.63,1.1,-96.72,57.4,167.16,-0.03,2.43,0.03,1.83,0.59,0.61,-144.4,20.37,4.05,0.85,1.26,1.09,1.72,1.16,2.01,-62.36,62.83,96.1,0.56,2.51,1.08,1.04,3.76,1.06
0.86,-109.25,67.45,177.09,0.03,1.8,0.08,1.74,0.48,1.03,-96.84,58.66,166.45,0.24,2.31,0.08,2.05,0.57,0.56,-145.06,21.51,4.13,0.97,1.24,1.26,1.52,1.08,1.87,-61.21,61.57,97.03,0.55,2.49,1.11,1.02,3.66,1.07
0.87,-108.95,69.13,176.34,0.12,1.65,-0.0,2.07,0.61,0.95,-97.0,61.82,165.05,0.02,2.37,0.19,1.9,0.61,0.89,-146.69,23.32,3.75,1.19,1.52,1.45,1.35,1.12,2.14,-59.64,58.81,98.22,0.6,2.13,0.97,0.9,3.83,1.18
0.88,-108.74,70.98,175.59,0.15,1.59,0.2,1.95,0.53,0.93,-97.36,64.69,162.78,0.12,2.39,0.04,2.43,0.54,0.98,-148.02,25.47,4.14,1.55,1.58,1.11,1.61,1.52,2.18,-58.0,56.21,99.02,0.56,1.8,0.84,0.85,3.95,1.22
0.89,-108.64,72.9,174.74,-0.06,1.15,-0.01,2.03,0.6,0.93,-97.29,67.48,160.6,0.28,2.51,0.07,2.42,0.72,0.74,-149.45,27.35,4.58,1.82,1.77,1.27,1.28,1.77,1.92,-57.19,53.51,99.07,0.47,1.72,1.07,1.15,4.03,1.28
0.9,-108.65,74.16,173.96,-0.06,1.36,0.15,2.05,0.43,0.77,-97.41,70.14,158.07,0.22,2.25,0.2,2.79,0.75,0.84,-151.16,29.56,5.9,2.2,1.76,1.55,1.33,1.92,1.89,-56.46,50.98,98.76,0.46,1.51,0.65,1.25,3.79,1.61
0.91,-108.45,75.55,172.94,0.18,1.25,0.08,2.19,0.65,0.42,-97.62,72.81,155.04,0.12,2.34,0.05,2.56,0.54,0.97,-152.28,31.45,8.16,2.38,1.78,1.36,1.2,1.87,1.85,-56.27,49.0,98.3,0.34,1.25,0.66,1.73,3.37,1.61
0.92,-108.29,76.92,172.12,-0.07,0.98,0.05,1.93,0.65,0.44,-97.31,75.14,152.35,0.18,2.29,0.15,2.75,0.54,1.01,-153.46,33.53,10.97,2.57,2.05,1.26,0.79,2.28,1.75,-56.27,47.07,97.9,0.46,1.19,0.68,1.68,2.98,1.75
0.93,-108.48,78.17,171.12,0.23,0.83,0.09,1.73,0.59,0.36,-97.2,77.33,149.43,0.18,1.98,0.16,2.35,0.42,0.79,-154.28,35.76,14.97,2.88,2.03,1.15,0.79,2.01,1.56,-56.55,45.77,96.86,0.51,0.83,0.62,2.0,2.74,1.78
0.94,-107.99,79.09,170.61,0.12,0.83,-0.06,1.6,0.59,0.32,-96.98,78.88,146.62,0.29,1.85,0.11,2.23,0.56,0.89,-155.01,38.02,19.37,2.98,2.08,1.2,0.66,2.34,1.5,-57.24,44.49,96.37,0.78,0.7,0.68,2.32,2.25,1.98
0.95,-108.3,79.72,169.86,0.08,0.49,-0.08,1.21,0.47,0.24,-96.49,80.25,143.98,0.26,1.86,0.02,2.09,0.49,0.68,-155.17,39.84,24.71,3.34,2.25,1.05,0.62,2.4,1.69,-57.98,43.66,95.62,0.56,0.44,0.67,2.43,1.99,1.74
0.96,-107.98,80.38,169.49,0.07,0.47,0.11,1.17,0.44,0.29,-96.33,81.64,141.65,0.53,1.61,0.16,1.99,0.6,0.84,-155.43,42.05,30.55,3.13,2.19,0.81,0.57,2.41,1.27,-58.89,43.13,95.33,0.49,0.34,0.57,2.82,1.5,1.64
0.97,-107.81,80.93,169.05,0.17,0.29,0.03,1.03,0.47,0.28,-96.05,82.48,139.96,0.22,1.52,0.03,1.76,0.67,0.69,-154.94,43.83,36.79,3.38,2.31,0.85,0.8,2.55,1.49,-59.84,42.49,95.32,0.68,0.18,0.49,3.07,1.31,1.54
0.98,-107.43,81.16,169.25,0.31,0.46,0.11,0.91,0.57,0.35,-95.43,82.9,138.65,0.45,1.39,0.33,1.38,0.73,0.78,-154.21,45.65,43.89,3.1,2.39,0.41,0.91,2.38,1.26,-60.77,42.23,95.22,0.59,0.21,0.44,3.13,0.98,1.68
0.99,-107.34,81.82,169.29,0.03,0.38,-0.05,0.69,0.72,0.36,-95.15,83.24,137.67,0.41,1.2,0.11,1.33,0.61,0.8,-153.4,47.28,50.97,3.18,2.31,0.46,0.86,2.22,1.42,-61.8,42.28,95.66,0.74,0.01,0.33,3.35,0.89,1.5
1.0,-107.03,82.1,169.54,0.14,0.36,0.0,0.93,0.65,0.2,-94.54,83.56,137.33,0.25,1.08,-0.07,1.0,0.43,0.72,-152.33,48.7,58.07,2.81,2.31,0.75,0.94,2.38,1.33,-63.01,42.36,96.04,0.62,0.02,0.29,3.44,0.69,1.5
1.01,-106.84,82.17,169.99,0.21,-0.02,0.1,0.62,0.86,0.33,-94.15,83.27,137.25,0.42,0.78,0.19,0.91,0.61,0.7,-150.93,50.29,65.24,2.48,2.43,0.48,1.27,2.15,1.3,-63.99,42.42,96.77,0.69,-0.05,0.32,3.56,0.62,1.4
1.02,-106.8,82.01,170.39,0.36,0.31,0.25,0.58,0.76,0.32,-93.89,83.2,137.62,0.46,0.8,0.02,0.88,0.66,0.65,-150.26,50.68,68.8,2.65,2.22,0.45,1.41,1.89,1.45,-64.2,42.56,97.02,0.49,0.26,0.4,3.57,0.51,1.06
1.03,-106.56,82.12,170.52,0.26,0.18,0.11,0.79,0.87,0.43,-93.72,82.9,137.75,0.39,0.93,-0.12,0.84,0.69,0.64,-149.28,51.3,72.26,2.61,2.06,0.58,1.32,1.92,1.41,-64.62,42.86,97.35,0.78,0.02,0.29,3.59,0.56,1.13
1.04,-106.44,82.19,171.42,0.31,0.26,0.15,0.72,1.01,0.41,-93.36,82.71,138.49,0.51,0.61,0.06,0.51,0.94,0.58,-147.84,52.46,78.98,2.22,2.12,0.59,1.36,1.91,1.56,-65.53,43.03,98.15,0.58,0.11,0.37,3.35,0.82,1.14
1.05,-106.07,81.83,172.33,0.23,0.21,0.05,0.81,0.92,0.56,-93.13,82.24,139.6,0.36,0.48,0.04,0.47,0.64,0.65,-146.17,53.04,85.47,2.16,1.92,0.62,1.7,1.63,1.46,-65.94,43.42,99.11,0.47,0.29,0.23,3.28,0.45,0.74
1.06,-106.04,81.82,173.22,0.22,0.11,0.11,0.81,0.99,0.6,-92.87,81.93,140.59,0.43,0.39,0.02,0.58,0.74,0.71,-144.6,53.69,91.2,1.8,1.77,0.32,1.89,1.69,1.49,-66.43,43.73,99.65,0.62,0.29,0.2,3.21,0.65,0.67
1.07,-106.06,81.51,174.11,0.27,0.18,0.11,0.68,0.83,0.45,-92.88,81.59,141.84,0.19,0.14,0.02,0.43,0.87,0.63,-142.85,54.41,96.82,1.62,1.72,0.51,2.01,1.43,1.23,-66.89,44.08,100.52,0.45,0.2,0.03,2.95,0.61,0.48
1.08,-106.01,81.23,175.01,0.18,0.35,0.13,0.88,1.02,0.91,-92.73,81.17,142.7,0.04,0.18,-0.11,0.42,0.73,0.67,-141.4,54.56,101.59,1.62,1.29,0.61,1.99,1.35,1.38,-67.31,44.54,100.99,0.21,0.15,0.06,2.51,0.94,0.33
1.09,-106.04,81.3,175.93,0.25,0.14,0.16,0.62,0.94,0.93,-92.93,81.05,143.46,0.18,-0.03,0.08,0.5,0.83,0.77,-139.93,54.9,105.74,1.19,1.29,0.35,2.25,1.34,1.08,-67.46,44.68,101.49,0.43,0.22,0.22,2.45,0.84,0.3
1.1,-106.31,80.9,176.18,0.04,0.23,0.42,0.82,0.85,1.02,-93.01,80.89,144.18,0.09,0.04,0.01,0.5,0.75,0.75,-138.66,54.81,109.54,0.86,1.05,0.54,2.34,1.3,1.02,-67.61,45.39,102.0,0.25,0.21,0.39,2.13,0.83,0.11
1.11,-106.23,80.74,176.63,-0.12,0.21,0.19,0.89,1.09,1.08,-93.19,80.99,144.57,0.23,0.13,0.18,0.53,0.71,0.72,-137.32,54.76,112.39,0.79,1.1,0.69,2.5,1.18,1.1,-67.84,45.6,102.16,0.2,0.35,0.06,1.87,1.17,0.06
1.12,-106.43,80.44,176.87,0.27,0.17,0.2,0.57,1.08,1.14,-93.22,81.06,144.41,0.23,0.17,-0.01,0.67,0.56,0.83,-136.44,54.77,115.0,0.76,0.73,0.35,2.47,1.08,1.06,-67.76,45.98,102.53,0.16,0.5,-0.13,1.59,1.34,0.33
1.13,-106.75,80.37,176.92,0.16,0.1,0.13,0.66,0.83,1.46,-93.42,81.35,144.65,0.13,0.17,0.14,0.48,0.63,0.95,-135.62,54.45,117.04,0.55,0.8,0.61,2.4,1.1,0.8,-67.79,46.31,102.5,0.21,0.25,0.08,1.24,1.28,0.34
1.14,-106.9,79.9,176.53,0.25,0.17,0.13,0.68,0.83,1.32,-93.73,81.74,144.42,0.23,0.13,0.15,0.52,0.6,0.81,-135.19,54.48,118.86,0.42,0.39,0.37,2.14,0.97,0.64,-68.16,46.47,102.6,0.21,0.31,0.17,1.11,1.01,0.25
1.15,-106.94,79.84,175.67,0.12,0.12,0.21,0.68,0.86,1.62,-94.11,82.04,144.27,0.34,-0.03,0.07,0.7,0.71,0.97,-134.44,54.32,119.92,0.37,0.23,0.39,1.99,1.06,0.58,-68.13,46.71,102.59,-0.03,0.41,-0.03,0.79,1.25,0.27
1.16,-107.03,79.59,175.28,0.03,0.07,0.24,0.49,0.53,1.62,-94.57,82.38,143.84,0.0,0.22,0.17,0.85,0.84,1.02,-134.26,54.11,120.73,0.05,0.17,0.18,1.94,1.1,0.6,-68.17,46.92,102.54,0.06,0.19,0.11,0.56,1.27,0.33
1.17,-107.07,79.41,174.44,0.28,0.12,0.35,0.59,0.41,1.93,-94.56,82.77,143.39,0.11,0.14,0.16,0.62,0.46,1.09,-133.99,53.82,121.12,0.1,0.18,0.06,1.65,1.13,0.72,-68.33,47.22,102.58,0.17,0.25,0.26,0.41,1.37,0.55
1.18,-107.08,79.28,173.56,0.09,0.08,0.15,0.59,0.69,1.82,-94.91,83.19,142.92,0.1,0.16,0.22,0.69,0.83,1.06,-133.78,53.83,121.27,0.08,0.2,0.26,1.67,0.97,0.61,-68.1,47.59,102.45,-0.04,0.34,0.27,0.55,1.26,0.65
1.19,-106.99,79.1,173.11,0.18,-0.11,0.17,0.47,0.43,1.77,-95.14,83.44,142.88,0.21,0.11,0.24,0.72,0.92,1.14,-134.1,53.73,121.08,-0.01,0.09,0.26,1.64,0.85,0.49,-68.32,47.61,102.57,0.14,0.29,0.23,0.31,1.34,0.61
1.2,-106.95,79.08,172.65,0.17,0.09,0.36,0.47,0.58,1.95,-94.85,83.64,142.87,0.08,0.4,-0.05,0.78,0.59,1.14,-134.0,53.6,121.28,-0.02,0.24,0.28,1.6,1.08,0.61,-68.2,47.88,102.47,-0.0,0.39,0.27,0.35,1.23,0.55
1.21,-106.94,78.87,171.73,0.18,0.24,0.18,0.52,0.45,1.85,-94.96,83.95,142.36,0.19,0.32,0.13,0.7,0.73,1.06,-134.21,53.58,120.87,0.16,0.18,0.3,1.36,1.06,0.56,-68.31,47.86,102.4,0.23,0.05,0.2,0.21,1.13,0.64
1.22,-106.38,78.83,170.94,0.23,0.04,0.19,0.53,0.5,1.96,-95.11,84.34,142.27,0.03,0.41,0.01,0.64,0.68,1.47,-134.32,53.49,120.55,0.11,0.11,0.09,1.17,0.96,0.69,-68.22,48.04,102.51,0.08,0.19,0.28,0.16,0.94,0.88
1.23,-106.05,78.73,170.26,0.43,-0.0,0.24,0.59,0.42,1.87,-95.35,84.6,141.84,-0.12,0.31,-0.08,0.54,0.83,1.35,-134.5,53.67,120.3,-0.12,0.19,0.16,1.06,0.99,0.85,-68.48,48.51,102.47,0.07,0.01,0.09,0.29,1.02,1.07
1.24,-105.94,78.44,169.88,0.28,0.11,0.15,0.81,0.48,1.75,-95.3,85.27,141.89,0.12,0.32,-0.09,0.85,0.83,1.44,-134.78,53.61,119.75,0.24,0.14,0.21,1.05,0.72,0.81,-68.75,48.8,102.46,-0.08,0.29,0.25,0.08,1.14,1.01
1.25,-105.55,78.32,169.37,0.35,0.34,-0.01,0.81,0.44,1.67,-95.16,85.45,142.01,0.27,0.32,0.29,0.77,0.77,1.32,-134.98,53.65,119.11,0.12,0.21,0.12,0.95,0.91,0.8,-68.74,48.97,102.33,0.02,0.37,0.2,0.19,0.74,1.16
1.26,-104.93,78.27,169.14,0.46,0.09,0.15,0.9,0.5,1.76,-95.03,85.69,142.16,0.27,0.15,0.05,0.76,0.82,1.32,-135.25,53.65,118.49,0.21,0.11,0.36,0.86,0.78,0.81,-69.05,49.26,102.27,0.22,0.36,0.07,0.35,0.88,1.18
1.27,-104.56,78.17,168.77,0.44,0.26,0.18,0.83,0.36,1.37,-94.86,85.85,142.41,0.13,0.2,0.02,0.91,0.76,1.27,-135.35,53.86,117.77,0.01,0.17,0.37,0.68,0.91,0.87,-69.32,49.55,102.35,0.01,0.3,0.27,0.24,0.79,1.15
1.28,-104.06,77.91,168.91,0.64,0.06,0.17,1.25,0.37,1.24,-94.62,86.16,142.64,0.31,0.31,0.19,0.89,0.83,1.46,-135.56,53.99,117.09,0.13,0.31,0.25,0.7,0.76,0.92,-69.77,49.75,102.31,-0.03,0.38,0.09,0.42,0.65,1.21
1.29,-103.21,77.67,169.05,0.47,-0.02,0.24,1.07,0.59,1.08,-94.46,86.08,142.75,0.38,0.14,-0.03,0.89,0.66,1.08,-135.78,53.83,116.54,0.09,0.36,0.31,0.49,0.73,1.13,-70.09,50.33,102.06,0.09,0.25,0.12,0.4,0.86,1.33
1.3,-102.88,77.5,169.34,0.46,0.15,0.12,1.36,0.58,1.09,-94.19,86.17,143.04,0.31,0.21,0.15,0.97,0.51,1.04,-135.67,53.97,116.1,0.39,0.42,0.07,0.38,0.87,1.19,-70.58,50.61,101.78,0.15,0.23,0.11,0.53,0.92,1.1
1.31,-102.44,77.29,169.58,0.33,0.23,-0.01,1.21,0.66,0.72,-93.95,86.45,143.23,0.34,0.07,0.1,0.71,0.39,0.97,-135.86,54.14,115.62,0.0,0.26,0.35,0.3,0.72,1.18,-71.0,51.36,101.7,0.24,0.49,0.18,0.58,0.82,1.47
1.32,-101.83,77.29,169.84,0.33,0.11,-0.07,1.13,0.8,0.64,-93.69,86.67,143.3,0.47,0.4,-0.07,0.98,0.55,1.22,-135.86,54.21,114.96,0.06,0.53,0.36,0.49,0.6,1.27,-71.46,51.57,101.37,0.14,0.47,0.07,0.56,0.79,1.42
1.33,-101.37,76.87,170.34,0.22,0.22,0.11,1.07,0.67,0.41,-93.13,86.63,143.51,0.36,-0.0,0.28,0.83,0.54,1.02,-135.93,54.36,114.33,0.25,0.34,0.32,0.54,0.58,1.11,-71.95,52.1,101.06,0.09,0.36,0.2,0.68,0.81,1.26
1.34,-100.85,76.8,170.85,0.54,0.2,0.0,0.94,0.73,0.62,-93.03,86.71,143.54,0.27,0.24,0.27,0.87,0.29,0.71,-135.96,54.47,114.0,0.29,0.41,0.06,0.11,0.36,1.2,-72.51,52.24,100.71,0.04,0.4,0.06,0.64,0.74,1.11
1.35,-100.56,76.8,171.19,0.13,0.08,0.17,1.05,0.65,0.29,-92.61,86.75,143.66,0.29,0.14,0.15,0.65,0.56,1.03,-135.78,54.49,113.49,0.25,0.37,0.36,0.46,0.28,1.04,-72.77,52.98,100.16,0.07,0.49,0.27,0.8,0.89,1.2
1.36,-100.22,76.45,171.54,0.17,0.2,0.07,0.99,0.79,0.49,-92.56,86.87,143.92,0.39,0.1,0.12,0.6,0.33,0.72,-135.74,54.6,113.05,0.0,0.47,0.48,0.24,0.27,1.2,-73.16,53.11,100.23,0.27,0.49,0.22,0.9,0.87,1.16
1.37,-99.96,76.33,171.91,0.34,0.08,0.09,0.65,0.86,0.33,-92.57,86.8,143.71,0.25,0.23,0.19,0.53,0.37,0.97,-135.8,54.48,112.65,0.13,0.42,0.51,0.17,0.47,1.37,-73.33,53.26,100.05,0.12,0.18,0.43,0.7,1.07,1.24
1.38,-99.57,76.43,172.53,0.26,0.16,0.06,0.76,0.99,0.27,-92.2,87.03,143.81,0.28,0.31,-0.05,0.63,0.27,0.96,-135.59,54.78,112.14,0.18,0.29,0.31,0.38,0.35,1.36,-73.83,53.83,99.94,0.15,0.33,0.26,0.77,0.97,1.08
1.39,-99.4,76.33,173.34,0.11,0.11,-0.09,0.54,0.82,0.31,-91.82,87.08,143.85,0.31,-0.07,0.08,0.49,0.19,0.87,-135.66,54.84,111.8,0.04,0.37,0.21,0.3,0.54,1.05,-74.21,54.16,99.99,0.02,0.16,0.42,0.74,1.04,1.37
1.4,-98.89,76.26,174.11,0.1,-0.07,0.14,0.56,0.77,0.46,-91.75,87.2,143.7,0.27,0.14,0.0,0.52,0.32,0.83,-135.43,54.97,111.59,0.01,0.43,0.26,0.22,0.63,1.31,-74.48,54.4,99.86,0.13,0.25,0.4,0.82,1.18,1.14
1.41,-98.63,75.99,174.88,0.24,0.21,0.09,0.23,0.89,0.24,-91.57,87.23,143.77,0.11,0.29,-0.03,0.17,0.21,0.73,-135.39,55.29,111.12,0.16,0.37,0.21,0.32,0.65,1.18,-74.55,54.83,99.79,-0.04,0.22,0.52,0.75,1.24,1.1
1.42,-98.28,75.82,175.56,0.16,0.18,0.09,0.42,0.78,0.16,-91.26,87.17,143.67,0.16,0.28,0.04,0.33,0.38,0.9,-135.3,55.28,110.65,0.05,0.36,0.35,0.52,0.85,1.21,-75.07,55.12,99.95,0.14,0.14,0.31,0.89,1.35,1.02
1.43,-97.86,75.73,176.23,-0.0,0.1,0.07,0.45,0.71,0.3,-91.19,87.16,143.46,0.15,0.19,0.15,0.15,0.08,0.76,-135.07,55.54,110.59,0.03,0.24,0.19,0.39,0.98,0.99,-75.36,55.42,100.15,0.08,0.36,0.51,0.91,1.27,1.09
1.44,-97.89,75.62,176.86,0.04,0.02,0.0,0.28,0.66,0.22,-91.22,87.25,143.31,0.02,0.36,0.24,0.28,0.18,1.0,-134.8,56.03,110.22,0.15,0.38,0.49,0.24,0.9,1.01,-75.35,55.82,100.4,0.21,0.16,0.37,0.74,1.13,1.12
1.45,-97.55,75.46,177.45,0.15,0.18,-0.01,0.08,0.56,0.28,-90.86,87.19,143.29,-0.01,0.1,0.04,0.14,0.29,0.85,-134.43,56.14,110.2,0.01,0.25,0.3,0.53,1.03,0.95,-75.75,55.93,100.58,0.12,0.21,0.38,0.77,1.12,1.12
1.46,-97.26,75.56,177.96,0.11,0.01,0.06,0.1,0.57,0.35,-90.68,87.13,143.12,0.06,0.19,0.06,0.23,0.32,0.89,-134.12,56.74,110.09,-0.02,0.48,0.6,0.53,1.25,1.02,-75.9,56.21,101.09,0.23,0.26,0.46,0.65,1.05,1.06
1.47,-97.08,75.37,178.55,0.02,0.14,0.06,0.14,0.45,0.4,-90.74,87.09,143.09,-0.05,0.24,0.14,0.17,0.22,0.99,-133.8,57.07,110.29,0.0,0.22,0.36,0.65,1.27,1.08,-76.33,56.58,101.31,0.28,0.17,0.42,0.59,0.93,1.31
1.48,-96.78,75.35,178.77,0.1,0.2,0.13,0.0,0.29,0.46,-90.48,87.15,143.02,0.03,0.07,-0.01,0.25,0.48,0.89,-133.32,57.56,110.29,-0.13,0.11,0.24,0.55,1.33,0.85,-76.76,56.73,101.64,0.26,0.02,0.15,0.42,0.7,1.38
1.49,-96.7,75.22,179.0,-0.03,0.14,0.07,0.21,0.23,0.34,-90.47,87.1,142.86,0.02,0.07,0.11,0.15,0.52,0.97,-132.99,57.91,110.43,0.15,0.32,0.56,0.48,1.31,0.86,-77.06,57.01,101.78,0.06,0.22,0.37,0.62,0.67,1.51
1.5,-96.19,74.83,179.12,-0.09,0.19,0.11,0.22,0.21,0.6,-90.45,86.82,142.79,0.2,0.21,0.03,0.12,0.47,0.82,-132.47,58.52,110.66,-0.09,0.23,0.46,0.68,1.35,1.13,-77.22,57.36,101.88,0.47,0.16,0.3,0.63,0.75,1.6
1.51,-96.28,74.97,179.18,0.1,0.17,0.04,0.29,0.06,0.54,-90.03,86.66,142.55,0.22,0.11,0.05,0.42,0.55,1.01,-131.69,58.87,110.93,-0.04,0.06,0.6,0.48,1.25,0.94,-77.73,57.58,101.99,0.39,0.18,0.19,0.54,0.6,1.95
1.52,-95.97,74.81,178.87,0.15,0.14,0.11,0.28,0.28,0.5,-90.25,86.84,142.43,-0.01,0.16,-0.01,0.23,0.52,0.87,-131.21,59.33,111.3,0.29,0.2,0.44,0.51,1.41,0.9,-77.87,57.9,102.08,0.34,0.31,0.28,0.72,0.53,2.0
1.53,-96.05,74.57,178.97,-0.07,0.15,0.29,0.35,0.1,0.47,-90.11,86.48,142.37,0.3,0.26,0.31,0.6,0.41,1.11,-130.83,59.64,111.09,0.14,0.09,0.43,0.52,1.28,1.06,-77.98,57.89,102.09,0.39,0.29,0.3,0.59,0.41,2.16
1.54,-95.66,74.28,178.83,0.23,0.19,0.29,0.31,0.16,0.41,-90.18,86.58,142.59,0.19,0.1,0.29,0.14,0.46,1.05,-130.66,59.79,111.44,0.35,0.1,0.36,0.54,1.03,1.14,-78.23,58.19,102.02,0.32,0.02,0.22,0.3,0.48,2.22
1.55,-95.69,74.4,178.61,-0.01,-0.08,0.13,0.44,0.15,0.53,-89.79,86.51,142.16,-0.02,0.1,-0.07,0.33,0.47,1.03,-129.91,60.31,111.86,0.27,-0.01,0.45,0.42,0.94,1.27,-78.17,58.33,101.8,0.23,0.24,0.15,0.47,0.4,2.37
1.56,-95.21,74.1,178.25,0.06,0.11,0.0,0.48,0.24,0.56,-89.74,86.18,142.11,0.04,0.01,-0.06,0.57,0.48,1.07,-129.42,60.84,112.36,0.08,0.22,0.5,0.46,1.17,1.28,-78.66,58.46,101.68,0.51,0.17,0.37,0.71,0.36,2.6
1.57,-95.02,74.0,177.74,0.12,0.31,0.13,0.47,0.18,0.66,-89.76,86.33,142.16,0.17,0.07,0.04,0.61,0.34,1.14,-128.97,61.29,112.84,0.22,-0.1,0.37,0.29,0.96,1.24,-78.48,58.48,101.42,0.19,0.27,0.4,0.67,0.53,2.68
1.58,-94.7,73.7,177.42,0.17,0.22,0.02,0.49,0.3,0.45,-89.48,86.2,142.1,0.03,0.03,0.08,0.42,0.45,0.97,-128.18,61.64,112.86,0.22,0.25,0.61,0.47,0.98,1.3,-78.13,58.54,100.96,0.28,0.24,0.48,0.68,0.3,2.52
1.59,-94.55,73.55,177.28,0.19,0.07,0.1,0.28,0.15,0.48,-89.33,86.04,142.1,0.22,-0.15,0.14,0.37,0.21,1.09,-127.76,62.14,113.74,0.24,0.07,0.5,0.5,0.84,1.62,-77.91,58.41,100.54,0.28,0.39,0.31,0.71,0.45,2.5
1.6,-94.34,73.26,176.66,0.23,0.17,0.22,0.42,0.25,0.44,-89.54,86.04,141.76,0.14,0.23,0.16,0.45,0.25,1.06,-127.09,62.31,114.39,0.07,0.09,0.56,0.73,0.72,1.43,-77.94,58.2,99.74,0.5,0.18,0.45,0.93,0.57,2.6
1.61,-94.03,73.0,176.24,0.26,0.15,0.14,0.43,0.28,0.43,-89.11,85.87,141.88,0.0,0.12,0.1,0.48,0.2,1.13,-126.67,62.77,114.63,0.21,0.15,0.56,0.5,0.88,1.57,-77.11,58.19,99.32,0.32,0.16,0.33,0.86,0.62,2.59
1.62,-93.95,72.86,176.0,0.36,0.09,0.06,0.45,0.27,0.4,-89.08,85.55,141.56,0.14,0.07,0.13,0.36,0.03,1.0,-126.03,63.32,115.46,0.21,0.15,0.48,0.6,0.77,1.66,-76.52,58.21,98.83,0.27,0.31,0.46,1.26,0.72,2.42
1.63,-93.96,72.28,175.56,0.43,0.28,0.06,0.25,0.61,0.34,-89.17,85.53,141.51,0.09,0.1,0.16,0.18,0.03,1.07,-125.68,63.75,115.99,0.16,0.04,0.37,0.78,0.63,1.74,-76.09,57.94,98.27,0.31,0.22,0.49,1.23,0.87,2.38
1.64,-93.78,72.12,175.15,0.3,0.08,0.07,0.4,0.88,0.14,-88.95,85.2,141.77,0.04,-0.09,0.27,0.27,0.01,1.2,-125.08,64.34,116.75,0.16,0.12,0.56,0.8,0.68,1.8,-75.34,57.64,97.81,0.29,0.18,0.4,1.55,1.02,2.06
1.65,-93.51,71.89,175.06,0.29,0.26,0.14,0.29,0.5,0.2,-89.0,85.39,141.44,-0.0,0.2,0.11,0.46,0.1,1.1,-124.38,64.68,117.38,0.11,0.19,0.38,0.87,0.77,2.19,-74.59,57.28,97.32,0.13,0.28,0.55,1.82,1.06,1.98
