0.02,-360.51300412638216,71.92073084092318,159.7067308660773,0.5850220428728299,0.5123817142932418,0.9213491195237866,-176.1184273885734,85.06744165684783,4.661997844826283,0.7511725050809908,0.4640477703946309,0.3976863154651536,-187.9424609779452,0.5870405493964451,8.50337792852483,0.1743641683795249,-0.0042607512216283,0.0254128007702969,-150.07248588634388,18.458360873189392,17.860702322535342,0.5778091397253435,0.4258532451212396,0.0573760129436151
0.03,-360.6372309437021,71.79191117292059,159.44347674500546,0.9649992905174508,0.6360994456336734,1.1902514424346955,-176.0561466942682,84.32825040368071,4.389758842079732,0.4397545237159007,0.3525019024265002,0.6540289002818281,-187.936842849315,0.2761829723117912,8.380208573138244,0.217673905887845,0.129211032904386,0.3264290631371517,-149.631476013319,18.977064194994703,18.05180120295778,0.4173257531052048,0.3936650257578794,-0.0263838305660951
0.04,-360.9736486733304,71.80446393564921,159.62797039734596,1.0919276461998817,0.5120241934323235,1.2210267433631985,-176.37882854038492,83.65854745180144,4.685199562702538,1.291861919187077,0.7670366970953088,0.7833546214312743,-187.4707054823848,0.5694227206406797,8.43197687872857,0.1438312670827349,0.3127557393183673,0.1118202842903312,-148.94190336748727,19.40774339997933,17.883584470321388,0.1854513368597613,0.6274728667520411,0.2679095600454382
0.05,-361.1888298403708,71.23070584011802,159.6827308431777,1.303437291938939,0.4845946264696663,1.38880656920823,-176.32654350242055,82.51625113109702,4.135811502516318,1.561662269625103,0.5317720156236585,0.2068071803432209,-187.89684210849407,0.5070550099058035,8.415590754066402,0.0301830986516774,0.4049429175647111,-0.154896589874516,-148.52374371958922,19.385002042743523,17.67627039550447,0.0793976796346429,0.552441937599872,0.2426038217679197
0.06,-361.31141509217326,71.22872539294822,160.6430154483947,2.0613679459368406,0.0870273616284254,0.903134424980596,-176.23084148483375,81.1120994602124,4.418647409455771,1.6076635782583075,0.660697258724303,0.5936442109020752,-187.8543444577564,0.436722928730286,8.53464991629529,0.2938271421329115,-0.2046199320327671,-0.1536934832740977,-147.72989570388754,19.77918222215625,17.712253638453237,0.3453169359695099,0.1043068322768437,0.3924860731750032
0.07,-361.3033629548094,70.34778632123015,161.1947745592334,3.5919522141308047,-0.1482276341133742,0.9183061392336416,-176.45421506178988,80.10999853956955,6.912427356467469,1.5828702017156375,0.6299520790762841,0.935486534224256,-187.9170186413821,0.2806312077979844,8.671297549821599,0.0484874653245025,0.2897073387870711,0.2455665211456426,-147.49363902013087,20.22299469579602,17.334515109169136,0.3538971063443257,-0.0084228850778269,0.3675564736329419
0.08,-361.9451216054095,69.24329467108734,162.10286304953144,3.8274652487966088,0.1269156722314336,0.866238291675636,-176.2897273295657,78.1069206497767,11.524925623113978,2.279438900390972,0.3942489349292225,0.2343245962222419,-187.433524810429,0.2976759453680788,8.656418387885719,0.0938235578669256,-0.0521597410023108,0.0599563692269384,-146.77085081101626,20.64041230520621,17.496765608927774,0.5938197999525973,0.2030332400362114,0.9871651876603637
0.09,-362.92731112627234,67.19883836267717,162.72680644605265,3.045601558001722,0.3712528699405166,0.7660147897720724,-176.20269995796357,76.08390283261748,14.37229765380244,2.753335599870134,0.0810427565529021,0.4481309821861425,-187.7610880368941,0.1471102663191288,8.661584412792534,0.1121347629072843,0.1645884010374273,0.1389129033422142,-146.7388672840058,20.686050965337245,17.18665608723225,0.7592002789278411,0.2410028091360553,0.9734241303788262
0.1,-363.9879055844161,65.11101967160057,163.43503625993594,1.9509031528054908,0.3068781500765762,0.4319244263506082,-176.3140996593879,74.23766167237248,17.466478670775906,3.263227473356046,-0.0738492849669538,0.5416694721150478,-187.61083164934757,0.428594020679167,8.600260954694312,0.2387156241704161,0.0270539998274389,0.0338101028389786,-146.04527530939916,20.82629812177799,17.03789169544328,1.1688232902698732,0.5220285402217709,2.2374376321805403
0.11,-365.38320658607,63.15607446243375,163.89520045313054,2.2503858259214358,0.5981807487968476,0.3631811695002639,-176.3842876874001,71.7338061864918,19.30221423594692,3.5797605824019683,0.2725579044732882,1.1962749422316354,-187.72631888304693,0.1944692470549833,8.64999191746776,-0.1847647964424437,0.137047302927949,-0.1344129215066285,-146.0206749810746,20.936641104315783,17.040386445784332,1.1155709347370504,0.7413739915906742,3.079670372118965
0.12,-366.8302862471115,60.05924336448083,164.0672185238709,2.5071162195555585,0.4754253967456767,0.4293196857092087,-175.29779447851138,68.77635207665408,20.24060096646211,3.357136474161011,0.0807258898718576,1.5385148419767558,-187.80020973629877,0.2490587740254203,8.729919294578748,-0.0555937602918681,0.247531871968692,0.2181337116748258,-145.3803884065393,21.193851503864582,16.88726835278485,1.1054403535760824,0.8498813628250018,3.280390152763609
0.13,-368.4477144307487,58.11683306447508,164.01312418904283,3.166920879202153,0.6331119511181197,0.3755137652302832,-174.38979319956414,65.56543185421528,21.684129787147224,3.3165965661930508,0.34881122308734,1.5250120352816268,-187.9261856782429,0.2047072863021263,8.786308111775142,0.1069944224427829,0.0160598113389009,0.0053473630411247,-144.89642199718213,21.06262577146509,16.524636977785303,1.223799995498526,0.8101365935186575,3.5109404477685544
0.14,-369.6889360215891,56.58380460301925,164.01719080636013,2.0384388367042625,0.3435492791612826,0.9026173187960816,-174.55888428078742,64.01506666145944,22.04655306136613,2.886736985689313,0.5253789126312616,1.3625369718089655,-187.83574317871225,0.4272077754579808,8.682132793228115,0.1214076440068316,0.102662758869842,0.0592703296805015,-144.45376785083096,21.09471527207471,16.400700357364432,1.2252341609887765,0.6357769497216159,3.7615115017812606
0.15,-370.7834545339294,55.13204820465878,164.01508988648428,1.2230901086759718,0.5363269067351397,0.8157907402590878,-174.0701358794219,62.81367476993243,22.696746230283942,2.4880839870356173,0.6299994739199005,0.9116521212247608,-187.68668532709668,0.414275803768675,8.5712239131043,-0.0851857951830657,0.5120238148570414,-0.1167991004297862,-144.1934977322646,21.04776872128821,16.646556191397547,1.3582710252184853,0.8295015793849976,4.17893193770766
0.16,-373.4085453384033,52.19823137770663,163.78403515993605,0.5821675944515974,0.6446347352195597,2.2266735125816464,-173.80432552257955,60.68199716549292,23.16171933489548,2.2473615569198326,1.30287987847757,0.780752901032035,-187.93505187738555,0.317793729962478,8.654257483616052,-0.0420459528950459,0.0586032319821207,0.0396863907496672,-143.24885822295363,21.13622693507476,16.46101580863009,1.117505607952252,0.9958244362424544,4.161005999765974
0.17,-376.5357371307026,50.255595297328505,163.59106450076473,0.872394663326362,0.8043074110075377,1.76034918050006,-174.53192837495192,58.35056208803025,23.658431981698204,2.3696601510687403,0.9943220326088666,0.9947195824877616,-187.9594244189808,0.4097444897503688,8.487141608215248,0.0394850347630576,0.1590365443736592,-0.2964922941538629,-142.25647477315934,20.919312497718437,16.143871956617808,1.246721861876229,0.7988136395513211,4.451616001791377
0.18,-378.9959853115908,48.51341903281024,163.20100317909765,2.4419879442095085,0.6078963699759197,0.9277354040435162,-175.35375363731671,56.044889342965504,24.56745542644,3.076653810560614,1.212765440982714,1.806737522203917,-187.76561191919905,0.4663461486218453,8.36351928141483,0.1403487755309906,0.2192656188316351,0.0834964648167767,-140.85754193955427,20.73866092154578,15.82189470596346,1.188499083005119,0.9496892919189618,4.740914309687165
0.19,-382.4627369421307,45.28874459199582,163.2501149519023,1.2493281270128065,1.5473531335810835,1.9771128020332944,-175.36506890539383,53.13605195159335,25.36198567093064,2.751736036632814,0.2278496967456646,1.984188218601925,-187.78935646538807,0.3121192331354186,8.72012856581698,0.1593253423806123,0.0522291544054174,-0.0432632073172648,-139.9056874326296,21.04069574570872,15.511636377077243,1.29148922145777,0.5914429133027138,4.09932036546599
0.2,-382.4427886898369,42.94903706078816,163.478634462373,1.04525750925848,1.96903393947703,2.9187637989802333,-175.54766520545434,51.7576170311436,25.823614042709405,1.6677752004448263,0.6435637153817149,1.42713285591018,-187.6456181994685,0.1948353338093512,8.56538894036572,-0.0797279211850515,0.0941857038154085,0.0240545338344679,-138.53322930396357,21.15800274443693,14.861341481110722,1.0374766488593932,0.3476975580228852,3.6731182121999946
0.21,-382.3518105150543,41.34884628246118,164.04601101755495,1.1096087447731031,2.593091450581857,3.534652841777429,-175.18944147313184,50.47008215761864,26.096598905867324,2.019204529017361,0.7263364341775312,1.543529704256355,-187.6414780231709,0.1362724083398609,8.641427735012437,0.0042489527063768,0.048212121634693,0.0590203019074037,-137.93047202064386,21.16373459522824,14.728043352842272,1.430644334180017,0.514186490249086,3.4261152718950103
0.22,-382.09182005937424,39.94813838354834,164.18628388604503,1.1318763450783131,2.7918771788763146,4.340066712783378,-175.01311309545116,49.20568065088736,26.219315507636452,1.907602003854049,0.6096099548535266,1.537669135080599,-187.5424904460128,0.3454023835774036,8.717412309451797,-0.1141105762488096,0.2115072183482906,-0.0443584092450211,-137.43737579733735,20.872764611421932,14.801305957817275,1.6120200266915254,0.5597692177429956,3.288422339632772
0.23,-382.7019572383606,38.0927527867759,165.21210394811132,0.2864889641372509,1.7069576454534705,3.636860192416066,-174.9111290143611,46.887820313592925,26.796593393463446,2.080130470015492,0.9208097742542304,1.4529727606002265,-187.7880748536092,0.527360896356251,8.634783220302243,-0.2527012307539687,0.0755485736708126,-0.0363616689857978,-137.01048490617936,21.01728600628824,14.451920420735908,1.4296231510301818,0.7291564866722493,2.419418729407009
0.24,-394.1168966240656,44.51302363142497,165.21457681184722,0.4415113543175026,1.342180760518723,2.5436663286801657,-174.59829681756307,45.35196186323119,27.26579413835418,0.3662343156415049,0.0932555580486644,2.0605977190846274,-187.6863743185939,0.3535663437546519,8.595518245164286,0.2199182716963236,0.1666781392191863,0.2327622367646681,-136.4313823058225,21.242372770857397,13.995600666913772,1.2749462795334567,0.655113149710598,3.0066536874381438
0.25,-405.952896604732,50.60954775462516,165.7554056300123,0.7832545072441047,0.8598605995820652,1.817494019459116,-174.34787967332133,43.272595144742766,27.403128539265456,-0.0637621074273993,0.2581803933542835,1.1417734627846,-187.7226250908824,0.4074602740327322,8.763507744145027,0.0890309564017262,0.1873932143922045,0.1689355087616362,-135.92410929254996,21.394616286046624,14.009782253543126,0.9759788848779236,0.609954091855854,3.4697939598904024
0.26,-402.4497951151234,52.5299321308328,167.2542044615882,4.0973865611386815,0.6627768069680496,0.8863766756858366,-174.61058835964909,41.14821068208886,27.771298662540005,0.4111949697364702,-0.0266094056426914,0.4540033823398636,-187.88272891316632,0.481116045775562,8.776553052240637,0.1686544270363309,0.1397827672872169,0.1304799697407689,-135.71196453523183,21.60752972101001,14.070488311603205,0.635006299459245,0.6596419192920339,2.286487935748238
0.27,-398.1394468356228,55.11335355689699,169.09067236669637,2.445146175001064,0.9458018868557656,1.6093862702832111,-174.2732974139047,39.831055302924845,27.777754890770893,0.2615681565873193,0.3580803724003175,0.4501836380000812,-188.04448182783108,0.4703792407679792,8.682486947781861,-0.1213927353474221,0.2388706177519493,-0.0712645013759158,-135.192687696163,21.497986834881225,14.140372603869636,0.444400522594341,0.2026757622195668,1.4286732092857506
0.28,-396.2487584827604,57.74512513004404,169.55009805538432,1.7574063130550743,0.5271317777506992,0.5202895435216784,-174.04315974514276,38.389980327082455,27.712383415410248,1.3387357594413472,0.7255499896441873,0.5535768578971021,-187.74978386154444,0.3222084400048474,8.546118647312968,0.0746959599586217,0.1130350573014914,0.0289510428592468,-134.45378464130889,22.005215987477197,13.942439869915171,0.535582724774261,0.1979201512242204,1.3344096501459564
0.29,-395.1484861131977,59.31460986658331,170.22308708859552,1.4379000347048423,0.4262224270914915,2.0990259986154007,-174.2801526453413,37.79151033461124,27.824683656346853,1.3556165378564755,0.4516357044144126,0.1635582081006868,-187.94376485021635,0.5201354912241855,8.32269240928132,0.0622055065526728,0.031600007227713,-0.048075927719221,-134.13506944553814,22.204854033711147,13.735823517614364,0.5043292842700668,0.6994577268171521,1.1724809365525162
0.3,-393.8622774271564,61.122494720510055,170.55048096562655,1.4235642797517207,0.2003808173250705,3.574490398625908,-174.07567387170806,36.80732412517053,27.890921736263937,2.0823103911622103,0.6388568697397837,0.1334391752373021,-188.0526456245519,0.5044464683110058,8.587270082930946,0.28884540034253,0.1960347503156189,-0.0754808122143959,-133.72342069153,22.568613532270128,13.54778685526148,0.5384236164629848,0.4705703379728153,0.906760836584126
0.31,-392.37816411590114,62.289194588014055,171.09628040469138,2.4387246783216705,0.0136185995460535,1.1102586051257106,-173.83365774996614,35.0961431780407,27.756627585457597,1.1984313351752174,0.2790331734072264,0.6467395285178419,-187.72228206461887,0.3180070956576091,8.738592156772443,0.1737668292260236,0.1433833403573143,0.1193623043710573,-133.2086473687547,22.8530014798022,13.733946739482992,0.8465334189412059,0.5603803691424338,0.2763936240545849
0.32,-392.6876379721182,64.29184148488774,171.91567028867584,0.8380856668540364,0.3041800601063488,0.3344485675176191,-173.6964932367927,33.90930747337823,28.024770285764912,0.9915691920216988,0.7742010547997542,0.9388210552963004,-187.8783583963212,0.4280498851514805,8.265599632040956,-0.0119697919637992,0.1530992960446466,0.10039417386133,-132.8025091744968,23.05514016740317,13.686925607670142,0.4089699840227684,0.1070136825752489,0.6730496908564916
0.33,-392.6700591119554,65.764837407123,174.36660479298345,0.9446188267145168,0.5974758345261816,0.3392801133689331,-173.675158205403,32.96583546119081,28.03163752095959,1.583472135257116,1.1845631727735844,1.0812927565481012,-187.6591968798003,0.3858185357560604,8.462707396166856,-0.0243027910744382,0.1441718145726243,0.0032632311969858,-132.84010833652974,23.19324777258188,13.745666421485955,0.4107276287027779,0.1727676574620733,1.2543155392302243
0.34,-392.5608647964855,67.22113236355511,176.3309357366487,1.4170438693061107,0.7071077148905437,0.4345817413577728,-173.24763843281494,31.67659505187077,28.191276249088503,1.6352826544735326,0.7970509363835201,0.7997826055417605,-187.3929747596692,0.246492728546635,8.359049518772782,0.1366142844227474,-0.0914019404684313,-0.1374038319375921,-132.78609662203235,23.85360385001476,13.617638016739122,0.3201612824053216,0.2769487070566037,0.6258032446182833
0.35,-390.4643741790144,67.66501460126747,179.2400705606088,2.3902236951111697,0.1858812089481094,0.5154898035010197,-173.27017209617776,30.02818339369528,28.06646059204853,1.5220846735485396,0.5788067806471223,1.4520433645470403,-187.9875825563478,0.242430522513301,8.528490198779595,-0.1058149978485851,0.2725000640530923,0.0403462097553014,-132.50323707189432,24.025253756022934,14.043422571041027,0.6122894686930238,0.4219995233253018,1.452196510686124
0.36,-388.53255915793113,68.38283521555857,178.0291197942757,3.14774926011792,0.9864752082374074,0.8871094133605272,-173.16946021986277,29.02918200605609,28.17278304101054,0.953200526502322,0.6272408158820636,2.285387931973613,-187.74745406671855,0.24926094319611,8.32438533938171,0.0575754129834139,0.1307380693821188,-0.0499609112576259,-132.63832980721034,24.082464105585625,14.28928690908003,0.4071091319903692,0.2237366004452518,3.00994372557442
0.37,-386.88274782184,69.21214620848535,176.1356011301829,1.950600835694937,1.0009204073931803,1.4025867306416149,-172.93649927639885,27.74843806765547,28.01571972993994,0.9638740740715522,0.6756837190859362,1.5240696501322033,-188.04138894366668,0.3541452985494219,8.734663802605816,0.0844296541626031,-0.0654877324807304,0.1002637675801115,-132.17927581628447,24.666163957482,14.648379516248124,0.1754079510560522,0.5158985462609187,2.122211867115672
0.38,-385.11847834645374,69.7503711794993,172.83403874401165,0.7699138372430291,-0.1801750883275181,0.3620535252913957,-172.57302763632927,26.49272142946512,28.13855050343632,2.01698252205921,1.198783081732786,0.3494582324970887,-187.78389147811728,0.3265673575079927,8.292630596509563,0.0646396318530713,-0.0284009517056131,0.1020994532608105,-132.15023350246307,24.958000141346474,14.64850661035114,0.0106247145352166,0.6153161280147557,1.2367311036294917
0.39,-383.7008845143649,69.63718259102302,170.8976489398127,1.1791919223985634,2.488277288105684,0.177805531606918,-172.3784085445473,25.55965819634304,27.67039600859337,2.2708038529948635,0.6458890475708563,2.752296759364019,-187.7271166414106,0.5826068123344722,8.568607336106513,0.0949724228569033,0.0620547750980932,0.1886753419704592,-132.09426422624196,25.1866064776237,14.932821252986509,0.0732657979615713,0.4312525809951765,1.688755106185558
0.4,-383.843486153199,69.155360019889,170.61672106553294,1.7046290230420702,2.5920009295739934,0.2202284989877085,-172.37271986242897,24.51852022379872,28.128225854347527,1.2243083572486544,0.2493650446753538,1.6536500924168382,-187.8512558434027,0.1631628782548314,8.54795567491235,0.1922725618419253,0.0296501441732716,0.0708516865815026,-131.83004822002852,25.57917016050959,15.189859112146246,-0.2114817521113955,0.7836033598174742,1.5152252859303743
0.41,-383.29400307864427,69.44242437748302,170.24379896105174,1.6413517956667034,2.0533340752459464,0.2826067613171477,-172.0590981282957,24.02338464093894,27.82858820667396,0.2923099101430103,0.5973480563152331,1.6434502694574642,-187.73623261148177,0.2568066216154664,8.088507659756665,0.2408713710413793,0.203313227791584,0.3966087455783202,-132.02881870100197,25.69544233655379,15.320169828315118,0.4581810106988229,1.0833280898922033,3.278951640580261
0.42,-382.97510564393775,69.51073050620488,170.26179746672332,1.1571145858169964,2.3423529961932323,0.0720033078280369,-171.86860805529034,24.091462260857934,27.483138496487577,0.4343025250728283,0.9884855897613932,2.3567746254896456,-187.72661663291447,0.2940474712432618,8.552237178027907,0.1030310371947175,0.0053279179923291,0.0077475853133601,-131.78173031200149,25.87853928473007,15.468884793887309,0.6451861614852302,0.6201102644298999,3.5959784500007097
0.43,-383.104757934974,69.75844070954892,170.07650178919127,0.7038163337715231,2.8618028641807123,0.0316182836547783,-171.8047608734775,23.71956810447736,27.310821276066832,0.7799057611028026,1.7306869297525571,2.968974406467051,-187.83877530564789,0.327712390681341,8.451931546711862,0.1320280340170155,0.1531955332652941,-0.056066639531124,-131.35709066755865,25.836767017340605,15.234751379241942,0.3978567552131062,0.2057157322403767,4.08738167617264
0.44,-383.03141138227545,69.76834282293547,170.04819650779555,1.1057202682363028,2.64923082269052,0.1392196999977207,-171.7332548958126,23.5407594639021,27.72604363686378,0.9688069626183604,1.3751662646655642,2.3286306714405773,-187.6086926176115,0.089697012342643,8.426201521109551,-0.1156561777907961,-0.0670179376432367,-0.050084429845699,-130.9800815280278,25.931452746067603,14.983817012181474,0.062201396448006,0.4641187959021059,3.1601815023824744
0.45,-382.8024431324285,70.04228284025973,170.38729213503794,1.1702104383576184,2.489290732541382,0.323915764183792,-172.08890980028622,23.178041607304205,27.65202289685554,1.0456646205279183,1.0569867186503905,2.533159050974653,-187.65281164779407,0.1844449004067239,8.366904436499397,-0.0123012589169511,0.1799686373792299,0.0574598580078454,-130.68465848410787,26.258789610402097,14.954401795521004,0.5075425366971933,0.96071952614754,2.74612139646825
0.46,-382.69427607371387,70.2648253132656,170.62307653304117,2.226872486130967,2.2521331061733214,0.6504613920305695,-171.7703622615267,21.69287240370546,27.798737283793827,1.331724107203113,0.4841959208367311,2.1548777435938926,-187.4970770033042,0.1195634281905342,8.529735718820213,0.154288473835027,0.0709976532539817,0.1894261885317346,-129.82618502248053,26.812814161867923,14.853580852559828,0.0700464349453988,0.3560777186707894,2.611684141724236
0.47,-382.6252609490588,70.6584416196852,170.4222010459011,2.3393016563933764,1.8621244225929725,0.2692272487176192,-171.92866022012652,20.888262962224584,28.170934783173617,0.539027512602107,0.1132843510218997,1.3962909080236214,-187.81582848273675,0.3379290806653066,8.27785963608757,0.2365593326205167,-0.0113712241339027,0.1783638266793311,-129.2625523550243,27.14215236973361,14.53617922507489,0.4393086486832748,0.7463532613749974,2.957994400954831
0.48,-382.1523994596949,71.106303784443,169.56962018565375,2.4970191694262787,1.0450285212253347,1.2385861051613338,-171.75850012839408,20.65922900550652,27.94116935866114,1.6084608926082038,0.5871809439161915,1.4862592783180482,-187.394674725958,0.252775900525858,8.270531207752855,0.3379461613687814,0.4858458663950716,0.1799626530433013,-128.42805817295135,27.27105861140275,14.647652615966058,0.3024036722836207,0.5962546735513572,3.415392919220351
0.49,-382.0017516236059,71.68357402514866,169.05687545236543,2.605029238705576,0.3255759238688145,1.6856521392731965,-171.5983178852539,20.138498806991933,27.881167089807647,3.224720019198841,0.7297433699283309,1.9172259203034856,-187.42166883346692,0.3236924336796065,8.429359508560049,0.3678350856665377,0.1808815435000554,0.3251908919149585,-127.85687347333368,27.61980321317848,14.516660949814616,0.6445474899120047,0.7576969196182426,3.417305819892773
0.5,-381.138375168598,71.45844805911959,169.02296807585645,3.604697061466468,0.6268301999467223,1.0532554515035728,-171.89810112180078,19.33171323848216,27.829284630787384,0.7171182891704229,0.7102891373264808,2.7395816620966182,-187.2131951222584,0.3118499589681134,8.325053536474526,0.5606138088598482,0.2137225873197044,0.1660520247352523,-127.2421607832636,27.829150306168287,13.9163347614305,0.5860437539817152,0.6144673021603377,3.5428410835788595
0.51,-381.02609507605786,72.10650291666938,168.5063538412124,0.973543531299352,0.7575508954854221,0.4235681674486387,-171.9899882343534,18.78456146357829,27.795527066696053,1.695250731058744,0.0412879810433741,2.5259919547713543,-187.1659461608048,0.7742306875205273,8.14631764418985,0.407949582082708,0.0982483705323813,-0.1102736569148877,-126.63102978917784,27.974532190018294,14.073875320801134,0.5491823778609913,0.4636532299880451,3.05776819858333
0.52,-380.712065878373,72.66192235664437,167.84276779755191,0.2240430095933334,0.0232000832703142,0.9043555155192818,-172.22662106790636,18.318515449114404,27.64871587734856,0.1295557682994558,0.4011923419259128,1.2269215703867495,-186.66116834995256,0.9879081253387458,8.267055822561199,0.3781721458450923,0.4088800262259836,-0.117723864048794,-126.36571412330213,28.17667430777884,14.331167670049076,0.0490284440043829,0.6968424525932969,2.7636448901913
0.53,-380.5113598917976,73.28460106327263,167.22109644512255,0.8742124647867932,0.741165268706023,1.392401509336146,-172.0044708172962,17.434943965304935,27.698638218690878,2.760393483686306,0.2007483789869288,1.197663457115571,-186.1899439381469,1.3651473571731088,8.284449246000717,0.3310246524810937,0.448154090497331,0.2874476750983663,-126.2801924935103,28.369414989570867,14.592897175638509,0.0119548481540956,0.1378399138654263,3.4513614825750336
0.54,-380.7889362602183,73.09762320730302,167.65657434764586,2.885536334756301,0.7316286869782391,1.3620776656324804,-171.92260676050515,16.45917714661553,27.558157704533315,1.6065626321631885,-0.0700687924946651,2.2846427751825686,-186.2225000181683,1.9270856646093268,8.343889773975175,0.4935581351485014,0.7536086685711288,-0.0986087649554294,-126.19145279567891,28.69921307443652,15.172946933711083,0.1089786013572111,0.3169348278091125,2.697559040862457
0.55,-380.5117951129736,73.23047811407044,167.2021183687233,1.6235249537649206,0.3187317191401598,0.07369644328379,-172.15085022721502,16.58789133085045,27.65844029493251,2.0020999876070524,0.2401452494877246,3.1842754027966187,-185.80613768221443,2.394567836314069,8.282798516742856,0.3033354870077283,1.0880252552869722,0.0789989298117526,-126.20333303643956,28.45213250045091,16.11342557451052,0.0242760322595913,0.3216298004225363,2.239921161810509
0.56,-380.7580016438104,73.69781449703584,166.07086862676366,0.8564956259889557,0.2126279706096866,0.1558669275611332,-172.29320835601362,16.172582550536497,27.655303704144597,2.4458181318002943,0.2450842982503437,1.6877003577347027,-185.46283729611807,2.687442048680872,8.136982529959035,0.0870023673231343,0.9403411114890464,-0.1140264217505411,-126.56995366402592,28.269388831329145,17.606985395891122,0.2580512225690504,0.6016413104225768,3.134266080111762
0.57,-380.7516461676783,73.99625995952142,165.33934583227372,0.0293862733614511,-0.0225974949049382,0.6654051974483144,-172.1076216156429,15.5513853573011,27.653453005619586,2.9727401865287866,0.4776086093415101,0.4206957799174576,-185.24452310785708,2.881369737015532,8.400213644333386,-0.050656420817486,1.0804751750921813,-0.0221008924313118,-127.39560064064344,28.33942196962757,18.68790957137,0.4734869420586223,0.6801183456607027,3.360095598696468
0.58,-380.7625129608982,73.84236872431487,165.52328724397483,0.8682032773871763,-0.0495647754325442,0.8500708675693123,-171.90679128877085,15.409026231096572,27.50193236505777,2.728455258830293,0.6274211486651369,0.7449821849204402,-184.73276756768715,3.2246864721730484,8.426624085959254,0.1381903392211173,1.1414633232564688,-0.0381449032556615,-127.3065144873636,28.444133653541503,19.42248440948685,0.2811886090939621,0.7540950488993619,2.283608194933548
0.59,-381.0034402133407,74.00295136649204,165.2697245904462,1.5000217810276428,0.3328862546135475,0.9614252165546892,-171.9197902971968,14.775145880920224,27.973603077300893,2.060380089824784,0.1553559531632374,0.9822556952626352,-184.41710728848625,3.39386543415604,8.54805224091828,0.1861957140718775,0.8950351070210049,0.2616458029713454,-127.36238748753875,28.462930331349742,19.355568411797965,0.4090277406857981,0.9935323609740528,1.5030457689589174
0.6,-381.06364292157673,74.23371815365277,165.52665589928583,0.7057763276833302,0.6752492545358152,0.504396839273672,-172.20338261089958,15.1125825246573,27.862703772667317,1.9449912044912916,0.0672144874282237,3.194522041138578,-184.06150740787623,3.624126271286887,8.743446605508225,0.2564886594390055,0.8768449607875722,0.1960345459291481,-127.68370032230644,28.63052165296845,19.89928106681547,0.7166746472839522,0.8596766942299828,1.5486146359791555
0.61,-381.2576880861204,74.32821665884978,165.17008499301136,0.4182748533459273,0.6154120122707127,0.1348248810035149,-172.26559753970344,15.883051811301645,28.335173952045043,1.975804766312657,0.0711523081666204,1.6519431451788242,-182.94793168259352,4.375986205730443,8.6233938808931,0.0511654974442161,0.6689222460221173,0.1258307001515558,-127.50877631890847,28.43766940338264,20.36182343376792,0.8282420427406546,0.7358492626119818,1.3254990991941615
0.62,-381.62821723700654,74.60884718441665,164.8090670561983,0.0057287950307756,0.6452090869041204,0.6523675260751938,-172.26386711548275,15.751123853028057,28.267564348086918,2.1336150947176136,0.5833534148667074,0.9231738439722316,-183.66355683593528,10.62929225876027,8.812447881576633,0.1411433029824073,0.6075775205313969,0.3824494891771643,-127.5409125499559,28.32833573101388,21.261252616805084,0.2330227281900645,0.7988179947494828,1.916963332493365
0.63,-381.7734735855211,74.67550648639902,164.5106624727493,0.3991911736411817,0.6409655465224509,0.9813201413232766,-172.13486597913413,15.531458743890765,28.21451757271742,2.203854855584197,0.2942292654936056,0.9490878984324016,-183.34418466731992,13.692954454607154,8.89020128434722,-0.1248429997488568,0.4525240417484181,0.3358608687914692,-127.64735690574116,28.05198286211124,21.376117900854886,0.0974236275973993,0.4575693047899181,1.702923729964894
0.64,-381.7942747912521,74.53659261896601,164.38396639875728,0.6920801276474164,0.5512975629469956,1.2505363598802328,-172.37704018355814,15.5311153142283,28.079130324606627,2.2803425043149828,-0.0022643625046292,0.6062322302383338,-183.24907488591285,16.88354239429033,8.73481997324161,-0.1445546848404153,0.4471355656849505,0.2416516245246735,-127.8142334823197,27.946408750068933,21.23847392195965,0.1868863850478011,0.4003043207197313,1.5690983283616529
0.65,-381.9422773776815,74.05228541296137,164.65034399140697,0.9518254806232735,1.5488397642563672,0.615965856924629,-172.6875399361867,15.720051151386867,28.070073586984847,0.8024882100410845,-0.1324808334797882,1.736284081870601,-183.21719020927037,16.71327022824823,8.878518022587443,-0.1986394442863372,0.177736415698239,0.3662812975646777,-127.3705728563488,27.846601476637638,21.34218552738687,0.1678749834061128,0.0398102716156735,0.0918531790919779
0.66,-382.3422680114696,74.61363073027016,164.538425389907,0.5610839049703389,0.9053583162224356,0.1183376212944605,-172.6697859667674,16.41414447537394,28.446397507307196,1.89997037706338,0.5784895420221385,1.6623260502593034,-183.19107333003143,16.70045851704113,8.96668817166119,0.563280479895799,0.7771100054539177,0.8515595926896377,-127.61687142649876,27.58863325030874,21.37960591744049,0.1993131966104618,0.6054125347841497,-0.0486208973879331
0.67,-382.043910446209,74.59208543686414,164.20877737151935,0.7532821429445995,0.4639758326910181,0.3216901110938078,-172.57668696902152,16.687761686687203,28.80696976008553,0.2905596509336168,1.441576574408992,0.7505411284980664,-183.30009351873,16.835614127334694,8.923661988978015,0.5665656455559762,0.9488248561598872,0.7703498618442908,-127.17113419505228,27.763783722627245,21.61823543868066,0.5345250418268732,1.4246844630588804,0.5958250363264235
0.68,-382.0288304539033,74.2688845101687,163.4304458956898,0.7710641048563457,0.4390858839277941,-0.0707537698720417,-172.82872281712812,16.634310887476445,28.3477353631949,1.064711780542615,1.1297474257478104,-0.1154849105699151,-183.2755235656284,16.762215651762375,8.43284646501685,0.1554001560507403,0.6574495623354282,1.0152518916200075,-127.00981984185476,27.515431913358107,21.70638645209332,1.0025530058650696,0.6459445433359193,1.206983879670755
0.69,-381.6479548243971,74.44713383565694,162.8489643740485,1.3127800619858696,0.6575752006284572,0.1325399222803352,-172.78323971743245,16.434465339197107,28.52509774782421,1.44956832481284,0.2426133956713417,0.2661236148149805,-183.19121811469253,16.7439089989796,8.25205138032781,0.8462959333873543,0.013895835885265,0.4767180566002054,-126.37507234370402,27.825007798452745,21.25385386498952,0.6527614311236574,0.3337893005784802,0.3817073163903374
0.7,-381.7870437575536,74.28429228997695,162.3787765441954,0.8066393338494549,0.8881782254003503,0.1035341563655556,-173.070331027988,17.12459673788001,28.693369033541703,0.3923649235226231,0.0340026665956548,1.0446259027630618,-184.04275666631267,16.721312892915066,8.295826503800418,1.036331679411803,-0.0092403298010088,1.0922170370108746,-126.07201959883076,27.58252464568478,21.433702849203183,0.3324369692668244,-0.1055512442235895,0.6200954559229911
0.71,-381.8903997639933,74.83553184423147,162.14785423934228,0.4540704589596643,1.1838418413548533,0.7441226973628077,-172.98787204844035,17.25034529452526,28.753160778807125,1.520253632514239,0.5098177525792142,1.7506297433660771,-184.1220622864262,17.597670341392472,8.271109312950156,0.6601106670465419,1.1495025631138014,0.3827460063612816,-126.55990308029124,26.823478496738844,21.95265502648613,0.2336359091412385,1.327790460937071,0.953716831990751
0.72,-381.7618493853434,75.00848515365537,161.19338842436608,1.3090184766216677,0.1538325133075537,0.8595947554614894,-172.9859552088522,17.539649424316153,28.827586949046275,0.4241963671196498,1.7349733685410167,1.3275068132425596,-184.72894834899463,17.843937983427487,9.179476640602989,0.5083562999033263,2.3217426013745737,0.6989435935423856,-127.3386523871324,26.40124805459102,22.54647926739668,0.4638142380599674,2.56146306694899,0.769699954656919
0.73,-381.76404332732346,75.20290025861135,161.09743994653206,1.4949435863832237,-0.0404654891762397,0.6075452933888146,-173.31096803858674,17.575315607010225,28.834886137029905,1.4084878609802314,2.30142971782841,0.5785064594069761,-184.13653886577333,17.976676785847793,9.353052500921276,1.256781115465176,1.3063616848882738,0.9003787406846444,-126.710018909033,26.10515504628134,22.585308351624025,0.6718534873061585,2.0469727824375736,0.7257616624096872
0.74,-382.0387857016041,75.67433744814282,160.4645566466472,2.059467641879646,0.6090508785829046,0.1018668958202175,-173.1050106451874,17.389744150593796,28.573063485900175,2.467681159011657,2.387368625778066,0.1296821073034375,-183.64649834243423,17.998523019313534,9.576978836888612,1.6879814076135786,0.2647800364873336,0.7805376783918626,-126.80656772753466,26.182899227683954,22.366914794808917,0.5095119619450604,1.865309837580319,0.2634652436392692
0.75,-382.1814756908517,76.1610351847969,160.64048688374928,2.3343907604052863,0.4046937623190364,1.937111540766736,-172.83171533869822,16.832428895102225,28.77912070245002,1.4469133620524814,0.2020296596210108,1.3943781151626178,-183.00983558747856,17.861288431899357,9.795871862489967,0.4282515717193379,1.901197654390246,1.3781381336156515,-125.82711622757743,25.79783998120989,22.15467931415331,0.499138087119103,0.9998557471819683,1.0914979751447262
0.76,-382.5186334284065,76.1707346555771,160.7103452614235,2.643032218241477,0.1691621993610175,1.690973605217253,-172.93159310589658,17.264087712353952,28.813150400712548,-0.0969418551102056,1.4633153107757932,0.9268813482846202,-181.89531365601337,17.968310323961013,9.816498807311056,0.6414132166789168,1.931013208310544,2.281924638470576,-125.15824087463103,25.602239969126945,21.583081206224914,0.2615418996277633,0.5829102320131465,1.9986633097722848
0.77,-382.4845927819589,76.27707777080798,160.75739342535343,2.089340116177333,0.3222749773256848,1.2611571652256277,-172.94703679622947,17.54784052432985,28.621419461000247,0.3413929556691108,1.6232329644057168,1.3119766708742229,-181.83204288561487,17.840394065427503,10.125276985484373,1.3530057392444634,3.196300304761181,1.5778269881232672,-124.40425046910454,25.24980672940693,21.05644158296521,0.3780161855900508,0.8268323757779351,3.3777844818174905
0.78,-382.5329929767567,76.08985856322172,161.62604098918194,1.376215664991486,0.6103642877487735,0.6941632079669411,-172.91471467999727,17.51266232133224,28.77757853782829,0.7102434715710958,0.166061430721091,2.1396592075587906,-181.9021285338142,17.902342334351157,10.486686815278697,0.2324105870997327,0.8418089514128025,0.6283574432800954,-123.85943271460415,25.22410137202828,20.500112962685893,1.064637556819856,1.0818949079125315,1.2431981555584453
0.79,-382.88643239012,75.46747559983925,162.10646853545703,2.398991089084646,0.5529926146344708,0.5264597801338152,-172.79120719229869,17.604503703990943,28.534520019494053,0.9658840022466024,0.2955817607653933,2.2884766237621728,-182.08707911337217,18.187139564532163,10.331190304311477,0.995864843401698,0.277806461477432,1.921662906273804,-123.56660243631502,24.949085240714638,20.102054215906627,1.0381644322701855,1.657170325939652,2.1890118212205527
0.8,-383.02345432346806,74.94144721491992,162.73828519963908,2.9041606345210904,0.7477876708213023,0.1924177732024108,-173.26236733695467,17.194668611922967,28.979594721269443,0.9510564313056424,0.9719742529100052,3.2835463755541032,-181.91306881770365,18.10351930905616,10.344737712581749,0.8166194444292885,0.7313858237566007,2.6656009486345047,-123.53846685236992,24.39041235655697,20.34768101613744,0.2377858059100391,0.4841919073342864,2.528529163788217
0.81,-383.3709733859639,74.88471318749014,163.4091604700998,2.442739531468314,0.270554567359388,1.0876705302439702,-172.70580114997648,17.604057646841337,28.794951279698008,0.710193466920421,0.7885504276553568,2.5558550433979854,-181.62452816960524,18.19301228792781,9.58217486845728,0.2747199201065693,1.1016099295230708,2.957640023072287,-123.62153181446904,24.112923338413843,20.32094102019953,0.0664882445742521,0.8124266922706909,3.679461832656085
0.82,-383.84866400700696,74.19812300356462,164.296540909594,2.4274289930610817,0.0002288736031497,0.9777350781347282,-172.75750814078654,17.401517646624775,28.685541323389877,1.0948466133489076,0.4167360242329321,2.8862206583355072,-181.70990774918,18.08412667639691,9.4660469891805,1.3475257745300595,1.2196118962975766,3.712713938350523,-123.02561841227173,24.479676063839563,20.291208442950705,1.2415591812939777,0.1891349559571793,4.067345602792313
0.83,-384.3521932496768,74.22689440703381,165.3823674354814,2.1948264063630645,-0.0286746792954213,1.1938338886746322,-172.78986372664087,17.515745283431375,28.91283347599229,1.080387270063964,0.3504650290858403,3.009430731800118,-181.79146183602185,17.75689998725392,9.607655584714747,0.8301665462168156,0.299571761317877,3.441522178849933,-123.0902453301241,24.008022504056957,20.472948274681546,1.6347067907718116,0.4788432215658018,3.450807538097582
0.84,-384.69937011853193,73.61531971159084,165.66564104669405,2.1398393037189245,0.1155469109696132,0.8702064149019969,-172.70275571718008,17.22638089234222,28.90134257623734,1.120037882956409,0.3514172438658194,2.9224735578994103,-181.86082639523377,18.111988034959108,9.610082314353043,0.799750194452813,0.0337766264579473,3.517388770588352,-123.39466725008585,23.843557698826267,20.55790565689157,1.6201398335457415,0.5808090632449344,3.575414577878336
0.85,-384.6440759511797,73.1083269875172,165.97698337848212,2.1926403896544207,0.2598487303298045,0.1936702976459868,-172.52929601312138,17.358312709729493,29.058643319285288,0.9890170249036612,0.5778968075060209,2.793186435174832,-182.33615866328276,18.390515115146226,9.065492544025842,0.8012504032827376,-0.1826065702870979,3.5391141012188227,-123.10774992044873,23.844409897788537,20.760349386939524,1.6570278643918883,0.8301565242421918,3.5047157729573826
0.86,-384.8171195446258,72.47718739282904,167.33597157870085,2.1824958372219543,0.6322919692464561,0.3393288442442795,-172.81883206981828,17.61043663326648,28.978898555004964,0.9675633747242136,0.2297383126231575,2.2252213668368053,-182.3880058553047,18.3838012190944,8.982910810716865,0.4791157350265042,0.133862958646239,3.676247062512504,-123.50317707515036,23.754452822928283,21.49129168271151,1.1894434847689563,2.096803684407412,3.3537949877806605
0.87,-385.3758782920437,71.4954694810983,169.11386584583718,1.9488304969438464,0.0688848870485813,0.0690255500561262,-172.82796613811092,17.37638060959848,28.81075763352311,1.5323331815118717,0.8867820913155344,1.2869265257602542,-182.36781233660176,18.5011501029596,8.865302321129642,0.3410774043905171,0.4048621294054402,3.3674467979890053,-123.26513310667173,24.044815025882123,21.743683092534503,0.7602649741335492,1.3558238971534808,3.242739133190741
0.88,-385.6693024823532,70.7593205774706,169.8921093538353,1.5043893693627155,0.1780976393159166,0.7188537503536848,-172.76690492828843,17.718518501022483,28.816974588131057,1.2283653530043004,0.554335935351004,1.207228836633976,-182.39647623076283,18.71742721679776,8.510381460003114,0.3105762515734008,0.5966615980215793,3.170374134675477,-123.26341284126872,23.854999047686704,21.808648260135666,0.7842876726388347,1.0606008992121307,3.341669778313784
0.89,-385.6657840823166,70.46803054427792,170.63498639267934,1.1576765429806213,0.1783792804792447,0.1786054343431274,-172.607512626478,17.532341256248397,28.76177701163284,1.405180876317712,0.6711490097404249,0.9109877278652978,-182.50961228834,18.616875650393823,8.734493221915805,0.4435185324971972,0.3039571420485104,2.88231304797447,-123.12574667798653,24.21448119151644,22.181096317875824,0.3599208895959765,0.5806592921164135,3.433603232533065
0.9,-386.407382014773,69.43891585050424,172.39597254366055,0.3881695836084339,0.2270111665684932,-0.1285748964357159,-172.7704168045878,17.558102066504375,28.947698542903936,0.4575434789836043,0.0250263512719519,0.9808184895387948,-182.7135449808304,18.640842042753366,8.336158336118308,0.4340886364168953,1.2783384790666033,2.9191999341002868,-123.3441931177105,24.11035571105775,22.336859505996635,0.1838058920778489,0.5811258753408097,2.780005963426252
0.91,-387.4104526407247,68.6664390683284,173.73205402225514,0.0737523529716088,0.5808221498640392,0.0559700659671282,-172.88038891970456,18.03033039755009,29.242207767378485,0.7862916350041578,0.4175347134268015,1.3784568179155143,-182.82742263661416,18.78049981185993,7.871101421515453,0.3700831687466171,1.4715027406876746,2.5173413194529823,-123.16620989004744,24.42051159993423,22.991819713876904,0.4073761072968799,0.1829220770623293,2.619112886274189
0.92,-387.64921266236166,67.99141638920409,174.61020384515834,0.4408432629304533,0.9448110915398956,0.1310626941689885,-173.01334104190892,18.08019779362506,29.228015146441624,0.983177138167972,0.1857206546660513,0.9632598910033088,-182.97254392246168,18.510440690614,8.159962997624868,0.4212199681431731,1.273270112297579,2.53290903631557,-122.99727028286227,24.49849062700192,23.08925448890552,0.2643385417372166,0.6068105197728056,2.949519137329613
0.93,-388.30310754699616,67.26185867730015,176.26145357116354,0.271509655822266,0.5127910333036434,0.0314773895643845,-172.96836258365892,18.82088633762168,29.05241468889569,1.196678229489258,0.0416504929968625,0.3622424836714213,-182.90365469344349,18.91809550942828,7.359653626254691,0.5872307398694071,1.6957123610589595,2.29265174722095,-123.35902500461307,24.36725804365917,23.64882996721357,0.0027478117729781,0.5883083705578024,2.9266424337956978
0.94,-389.09465944250127,66.54393816930877,177.54403460928506,0.306946824639872,0.6002401490121225,0.6207112416484257,-172.99725457641526,18.863400585408467,29.17262583549277,0.7004426039692528,0.9392545945644144,0.3295129125968587,-183.4062737905224,19.15761034771512,7.922870074232428,0.4840355428519193,0.9952813436083984,2.2165992837845376,-123.029194331419,24.62605090632272,24.051394399170544,0.0739998802407936,0.2320247765222036,3.110797870226713
0.95,-389.9013051072349,66.13284439175854,179.66744557995187,0.1390384555049457,0.7348729322794676,0.4799656949257574,-173.2675999373747,20.14211326721264,28.75797997397317,0.7883172247064312,0.568002795212357,0.2123489716088227,-183.61679973442537,19.21370636409277,8.512349057163114,0.3649698424394986,0.5677373159289634,1.4610289931117282,-122.7489515291393,24.51839827875836,24.56516848047605,0.0309417808417383,0.1961430662895741,2.8150961327604014
0.96,-390.8245565128559,65.10672417858487,178.48793073267043,0.2411106786720832,0.4379416370010779,0.6658820795427004,-173.3089146215856,20.376042761618105,29.336235610924614,0.8216844123066995,1.1262254768819815,0.2931838117658735,-183.8814286419599,19.097282528023023,9.226943952772462,-0.0469169995887563,1.4577602184154228,1.5700514551454954,-122.71697003880064,24.60511953818349,24.76517044270508,0.3018551571697975,0.0515220693239666,2.2545689687363297
0.97,-391.650216719459,64.1595998528266,176.87360774526388,0.6787875524926185,0.4198891325875253,0.5789126906595039,-173.41195724726327,21.30005507912545,28.948248979039214,0.5257874026051642,0.7170903708016249,0.5242065515226237,-184.56558082039405,19.279272623226426,9.353757832553738,0.4244001192056293,1.0275758817969376,1.5340029592447415,-122.60749450757136,24.55316200397804,25.35661935306824,0.4999433784717292,-0.0827452935372079,1.7551242684053618
0.98,-392.0361672009652,63.0039106390576,176.15241265745803,0.9340639932877164,0.3968941487736943,1.3516643502399637,-173.44398015612157,22.02197146954767,28.91842068964042,0.2170695235598798,0.3041986800637007,0.3314646521300247,-184.59232859716488,19.405009679063426,10.109609899965983,0.4648816276055393,0.8784785458182779,1.0811943149211178,-122.29345544667828,25.022444925499737,25.620725858660336,0.779197938434027,-0.0678118917115812,1.7466405497290889
0.99,-392.3004629335886,62.16597393228519,174.90879719787023,1.0466517919825842,0.0989602900853968,0.2653314066588913,-173.53010907522977,22.93277676947921,28.952016622587028,0.1243973156057256,0.1519382910154134,0.4606495396730802,-184.91061473424892,19.371479104594247,10.1247365302128,0.5137800255016746,0.2338805609637878,0.5208200175987621,-122.19352934959974,24.79228558702452,26.191019093403515,0.2081038670239164,0.3949064852880919,1.4997054006022783
1.0,-392.8029561747175,60.39605141502108,174.45397390491885,0.5166554338219024,-0.1228381912514075,1.4211580890969435,-173.49592028397132,23.50715489144419,28.560854537416795,0.2667560245986941,-0.119015941107705,1.288522061920379,-185.1886250008763,19.600340534588856,10.984084166124982,0.394174566360746,0.0659597967323518,0.6620296823546149,-122.37129593192032,25.080245415256957,26.810248155389395,-0.0378405283352102,0.9695588218069322,0.9333142461039948
1.01,-393.8472390342427,59.19435117275592,173.41815400552528,0.332761973650532,0.4937172669978649,1.6871720225569422,-173.45399237261196,24.54988073781644,28.683207651651912,0.2909087616192503,0.0371237318068529,1.168632977389126,-185.92748373368704,19.589098225394014,11.503559114385975,0.2569536974698003,0.9842177408241598,1.0179953254293166,-122.34492135550336,25.154938350430825,27.316323448222985,0.379558737926954,0.955399875343381,1.016873596956866
1.02,-394.7693204404777,57.70583513533789,172.71266806858011,0.1811812870112111,0.6782259962722808,1.2931135659188926,-173.72363060673746,25.04330081211413,28.44930680292837,0.3806901208904657,0.4585011372240913,1.0823368214860942,-186.1636899731081,19.937184839037265,11.736225929337008,0.1784590103279727,0.5131809120163535,0.5860749893190662,-122.0037859915184,24.994884273652925,27.80729945218238,0.256627944945351,0.2933301569136525,0.8560749985989212
1.03,-395.6014585965541,56.4370479003739,172.36812792951346,0.112115761213573,0.7374874150889673,0.9634880968514732,-173.69154253559407,25.51508052481232,28.46740822218479,0.2680000003992466,0.2696413264045335,1.0815269105627938,-186.50265646845307,19.96356618476729,12.306927735764118,0.4809210346370031,0.3661230528968603,0.0939288144334051,-122.2407737541425,25.250190990755808,28.199872987679985,0.0121434242738834,-0.0270215806210279,1.3451535833270856
1.04,-397.6920638508991,54.5600446738743,171.1050833693083,0.4660022815754246,0.6818817197615255,0.1892830125932876,-173.74738939542087,26.771644812602663,28.450521447418705,0.4852194120950089,0.9063948971077962,1.074870662269177,-187.0856739508843,20.40463940518589,12.373480644753462,0.9078095909972524,0.5499230556942662,-0.0422405864612779,-121.83671039456308,25.073531726783383,28.525484961765443,0.3867628761614868,0.9187085867760042,0.8455354520173204
1.05,-398.75019048305273,53.080789268323,170.5828918973932,0.5824849075738723,0.442689925543515,1.0126960624945855,-173.7953982354179,27.33385303060275,28.300469664246695,0.2899428242342614,0.6374246981746674,0.712048720456972,-187.55637113000984,20.514286989250568,12.642148352986952,0.5118798158577602,0.480187859160704,-0.013301456900567,-121.87430739812952,25.14476419907733,28.99251022410654,0.4919304970980302,0.4864371673353741,1.0909997027592384
1.06,-399.9275288232879,51.66019263634105,170.1936896338562,0.6851873789964542,0.4584861338983238,1.9275820567041813,-173.82355392506125,27.84958696393979,28.309622777128677,0.1372849452495812,0.7928468172760044,1.016684603984426,-188.097750790004,20.612690392066675,13.122741905281828,0.1199827065342108,0.3361847504842699,0.0999879801359268,-122.14574193797996,25.61746047424382,29.38717093087765,0.1474476687591771,0.3466624209672241,1.0749949043093614
1.07,-401.1503953092215,51.66170384061628,168.74311542894475,1.1042573321069464,0.5638461226595277,1.7472622347647693,-174.10409079224698,29.032677583256817,27.90825292196166,0.3534667398475989,0.4811246842341383,1.1124407056914034,-188.88571997586655,21.02033655133681,13.3054308328787,0.6279548783447078,0.2870174230770805,0.3154997295736114,-121.81196559003604,25.956141661341828,30.204817363756334,0.3875343229538843,0.5755553356444723,0.0379794172353739
1.08,-400.3147504416663,52.83460047978362,168.5395912965727,0.6866894240420593,0.6613558027095698,1.5137390815695613,-174.29213843408252,30.013162285063768,27.67931330543977,0.2670474183933098,0.5133399228552944,1.227084311949458,-189.67582462026604,21.409248633050638,13.625590454486868,1.0692582501330854,0.2658177534397837,0.5641435383378882,-122.006836788984,26.50232997048382,31.379868185732526,0.2167563477460763,0.2281542017898917,0.1284516354340738
1.09,-399.8423870410741,53.62194472374083,167.8899226247498,0.5464486728691614,0.9313896938639858,0.8833261216216336,-174.33314551021095,31.37039611067288,27.69340266105511,0.2107171986300938,-0.0040617470791472,1.3626275488757718,-190.49234789146223,22.404977799882328,13.860951995131574,1.2787452713747725,0.0175214283945346,0.4054342686199664,-121.8442280448145,26.723421312772288,32.15562838632493,1.0148066143081058,0.0434649308560691,0.1236701343843091
1.1,-399.3171618423365,54.777451304900616,167.3381307214673,0.3115048230896274,1.3816612879256247,1.1925308442781053,-174.3842359685812,32.24793685913971,27.68663952685524,0.7525289148235409,0.6585828898847244,1.615578565677554,-191.27113701163387,22.82169272055875,14.352047027826826,0.9679909167211844,0.2788477678099795,0.3104571767400925,-121.77443753067476,27.380279445420683,33.02987103773822,0.2260206437202455,0.803386958373818,0.6816407211060477
1.11,-399.2010621727838,55.53860727407984,166.84660961328322,0.3698029003464238,0.5702916820080305,1.446215861276234,-174.44990517451834,33.51077379873124,27.838676999183136,0.5932719861343028,0.4967296111335949,1.6529935746795847,-192.47937986366372,23.075732264313768,14.463721591944442,1.0668120627359103,0.6548381447552026,0.8527464814486655,-121.84881735793329,28.54097765275389,35.34687386293291,-0.0020190580437753,0.3835199429879003,0.4934475389829212
1.12,-398.5802332267765,57.0498966661236,166.50357467465554,1.177212534690631,0.1223726857523818,1.753865052478933,-174.68994254243205,34.111213980346335,27.16743853170875,0.6140456456034323,0.3083893021003285,1.5433491251377824,-193.1221660039939,23.58016393418418,14.86216567699976,1.3227878291145865,0.1842818579429184,1.4625106340052405,-121.8477370540716,30.123431228819985,37.276020637585006,0.7612803708578673,0.2243588838219504,0.1191995906164113
1.13,-398.0244738248305,57.971063885056346,166.81563389886932,1.394759785742412,-0.2013844180783553,1.0315253209321196,-174.4696346547317,35.50243686239789,26.817969140630392,0.8182595479842946,0.4842610247568228,1.626480416969028,-194.35765930976655,24.03017947256444,15.029544848202832,0.6917016274684913,0.7301101051553699,0.9953565447535564,-121.73156435129476,30.953567496977765,38.38263128472397,0.4939027781715444,0.0952380652780884,0.268952657863318
1.14,-397.5451910601136,58.610133539427146,166.40988477061805,1.044335767177304,-0.0329282263429366,1.0224172791439283,-174.55492180040127,36.9523517355296,26.71694407592973,0.8506126481616906,0.2480088556687375,1.1897149609649198,-195.9601822861764,24.2861765137613,14.896462474428024,1.200618392721874,0.2247089571092222,0.4930354376607606,-121.61571032377196,31.46844387970363,39.26622224812345,0.9992274870462052,0.7176253886688314,0.5514792454336842
1.15,-397.8247450330433,60.03717025015248,166.05374532648122,1.412173000154243,0.2415973633816504,1.1162423891393054,-174.66949908571934,38.00502444985053,26.55955953913379,1.2179713954004487,0.5419804235208601,1.5390824239495384,-197.36222149950285,25.02275311753843,14.834118008266923,1.2512913909607708,0.171278158775231,1.2475551683252186,-121.37249115380897,32.488212411555274,40.52645784733248,1.308931579102789,0.5328020943801886,0.5523479770920712
1.16,-398.1495222846616,60.74669344758446,165.22227002818633,1.519928661297819,0.5118470640070742,0.6242457617569476,-175.07378680524874,39.427251002782285,26.562652731673406,0.8086265894192506,0.5937198189390982,1.3136061081578678,-198.4854799558799,26.14356266148845,15.11731866093609,1.1812887419149265,0.4051244348169751,1.6435641635041374,-121.73193557888904,33.48687658488994,42.1384231907961,0.586064125527524,0.3997911977054125,0.27062599946673
1.17,-398.3097376280425,61.11064106448735,164.98878361487814,1.192888989223876,0.1576420834162911,0.7206163693799186,-174.98681381955507,40.00158757613975,26.590134765526816,0.7941060751865242,0.5643655071941817,1.1073286484046354,-198.94638987019792,26.21961689759429,15.317200579326302,1.095110092094901,0.0004268916550279,1.343990637384554,-121.4652299644862,33.48910850526082,43.060775023996726,1.0178454377145152,0.3720807522101567,0.4155636866294717
1.18,-398.542641190768,61.59336178104955,164.65234474938416,1.0378454324508952,0.1482983808949396,0.8158945786013391,-175.45144815527857,40.697992768966806,26.305532967700305,1.2103729223309658,0.2456954061367514,1.5605591975795834,-199.88402581060836,26.850561347745277,15.207313912948187,1.149191808550473,0.0519994385363425,1.1697561005150396,-121.72592842187063,34.27710897020494,44.139128773345895,0.4854386837963825,0.277030933196274,0.0072245613780317
1.19,-398.6802383746552,62.22585703108614,163.91359903683582,0.4507206162692611,0.1555586988119355,1.206252639936646,-175.5357943178429,42.02793490938063,26.23129924288542,1.0115806803030325,0.0772423788141686,1.5096815054911858,-201.4028887377877,27.38538410628177,15.004251933136484,1.7912228547329008,0.1845514870165737,0.9410675552451824,-121.22298185169726,34.918207787998334,45.79869412204051,1.0228113811604485,0.2707831919163223,0.5037997803844299
1.2,-398.96121305380217,62.48627430496095,164.03274060300805,0.7174569211731017,0.0758698114930658,1.4340510970128857,-175.7245238365876,43.51821411010321,25.846043462543346,1.1228288291552757,0.1377445593920133,1.2282716686835544,-202.7801963960829,28.333238672751744,14.450688706584083,1.6596264440297963,0.3550515562692391,1.5762931134964004,-121.24965456961924,36.50113413890551,47.28257354085045,1.5533817327144022,0.8519956877283162,0.7006217769595496
1.21,-398.9445679739317,63.62432571224012,163.32646804796232,0.6664529010487664,0.4768656025154352,0.0111777685396434,-175.76127728119891,45.04726443678584,25.641539621615863,0.6439997296625442,0.5115322650603962,0.9499313750507832,-204.5120422835119,29.048075495372117,14.21590041714095,1.43431869224351,0.3658812726478633,1.5734569366180282,-120.73643764256616,37.51311023661727,49.20949172554746,2.1905104122105663,-0.0980881692494103,0.2730874049489575
1.22,-399.0775164872926,64.22107469781362,162.97873234060884,0.8405995403281988,0.3612359237133979,0.3398177431071632,-176.4549334529691,46.18765530026444,25.7094290697148,0.7898978286244696,0.2709419125242803,0.6398630012653976,-205.46808751829252,30.07729397909497,13.608062482716914,1.2091385892422295,0.553598740015353,1.6460854770982662,-120.86693209243838,38.62294928076203,51.54270501637123,1.976484338150544,0.1858963953029961,0.7691899838808964
1.23,-399.369828934259,64.53468326103258,162.35831722878535,1.4875033152479251,-0.057574754448976,0.1753378757517248,-177.0777563463434,47.70535640462981,25.959931747749,0.4201872688727043,0.2086453099824748,1.0077966415094364,-206.1314280185935,30.35121612520697,13.230298659081624,2.1441443190399063,0.4838505935161542,1.999077585068794,-120.4899141352767,39.27022726343794,54.10506273478502,1.2930319246839446,0.188471612507936,1.3190870709502245
1.24,-399.6275237864904,64.81021297653356,162.1945397729289,0.7042214971237418,0.4076843799321472,0.6742726158637458,-177.6638680826585,49.00660562597641,25.499806419758038,1.3102384218443492,0.4970434544634737,0.567002013191281,-207.42952762697868,31.063430064699677,13.051432187514935,2.0029007090177915,0.278280516738743,1.2332797865202652,-120.75764438600392,40.003133086509095,56.47035940207584,1.3763880491320573,0.3145387639688345,0.8230623531348383
1.25,-399.2372371998258,65.58192494316945,161.935690410377,1.021921374260115,0.483463009375184,0.0006678615752981,-178.4294038033904,50.27736150372219,24.95630095725945,1.471808784886777,0.7226199543684045,0.521346317330282,-209.0550192758942,31.78294317326483,12.310307614474931,2.232939882485395,0.2846919127756094,1.3857181152076012,-120.56909255975673,41.24044374591983,59.64833046116777,1.6433075197811449,0.490773891421897,-0.1905869352690489
1.26,-399.6934700578138,65.95826471333547,161.56924963519612,0.7357540782090852,0.2453168983426284,0.2071590683354687,-178.4642447346806,50.870769364268426,24.86482658462992,1.255200217459116,0.5862656087104456,0.4444935300262264,-209.69153470139477,32.36138924020406,11.681135612059345,1.7225041625214064,0.0742286362090875,1.780753264196706,-120.65659738548726,41.541468503983936,61.189055747301424,1.5745842861901076,1.2420553710843176,-0.0836944557522974
1.27,-399.2414880270319,66.49218241561317,161.08239098953308,0.5392921246522977,0.1975513832343396,0.3548026385655178,-178.61850452732327,51.55925878558189,24.62584185224231,0.8735933187045616,0.548204590209985,0.6637989017957693,-210.357826587527,32.418301353491216,11.405704049311993,1.6255077469386523,0.3154407184480874,1.7461129008996632,-120.62253047543712,42.05467345926797,62.43384540300662,1.301173504809024,1.4159975600662864,-0.2322831073567611
1.28,-399.2726976077537,67.29564110180425,161.01183565502092,0.0051866627390854,0.0815175587757331,-0.0739720723652307,-178.76784102577216,52.96064272104243,24.464581254745216,0.1206131157643611,0.4301106579237815,0.3132482006748244,-212.32002599167475,33.11109034691416,9.959423841589468,2.144982274535896,1.063227368192403,2.167370218336087,-119.83585674942144,43.24096847045231,62.391801116716266,0.7614851615510393,0.9659838737597484,0.2879372653386127
1.29,-398.93876528479416,67.75515468638282,160.83452533111745,0.2383180792327439,0.2338933229049657,0.088967531059404,-179.0784575665077,54.15041574466662,23.755350943018957,0.3124912629090898,0.2699440506427836,0.0479465915850588,-213.731065660315,33.71985230008397,9.008328244086297,1.5566927043419143,1.0681758648179436,1.5849927298817983,-119.56916525130283,44.254770692668295,62.28136313997759,0.6288693529427238,0.0857323159515396,0.0828503393071462
1.3,-398.73476173979753,68.71662224654054,160.3481483495077,0.2636535554944422,0.0363952741478208,0.1119456596691168,-179.15316279393642,55.11077746028356,23.44058673987341,0.2316769660138107,0.0710781686153803,0.1253943124960091,-215.50489762878772,34.07916084280837,8.62825917418748,1.3358258980589,0.6167780343854627,1.2414100677680608,-119.43745789639097,45.40383379398024,65.73884571821644,0.3803332796482143,0.0445855943216587,0.1806574760181046
1.31,-398.6112767566247,69.30434063250468,159.8168991375696,0.3815888186649194,0.1015486502189946,0.1340912793551834,-179.63074676213552,56.62933100265947,23.190127197199786,0.7770603144175039,-0.1231376877754448,-0.1251862609894952,-217.09676229133527,34.62706700949453,8.893871073036461,1.52498825279614,0.3483218025287027,0.9158635177940642,-119.1286535518591,45.87244757331328,69.8430044763746,-0.0299299008949492,0.2502971890612832,1.1385171829209644
1.32,-398.4609241931687,69.46405918043499,159.55805550281536,0.7132338383732886,0.0532069486892437,0.156582894048423,-179.8612657831444,56.7726581795762,22.9126958645074,0.8720604647136455,-0.0857327757716201,0.1726545370217782,-218.1531796103344,34.86913334545263,9.73186493556881,1.142297229847755,1.0958796774756627,0.7540285736545094,-119.20191666256254,46.07882227374576,71.53602300736574,0.2500050485789288,0.0792940090155657,1.5861499683207632
1.33,-398.3550579698606,69.90418562665566,159.08303039055735,0.7288599134426842,0.0176441349302202,0.072226179168965,-179.856662839753,57.08486343969217,22.94974284087031,1.0624554838892035,0.1830951735333593,0.6111698212723482,-219.07159874921663,34.880756666691404,10.68305423461678,0.625754002814156,2.079277033822646,0.7826285793363834,-119.03473434808566,46.49657122131044,73.36607372676312,-0.0169497281723509,0.1838641720921147,1.8179858599530931
1.34,-398.2533350682456,70.41381940422349,158.59189942876057,0.4704391401142181,0.0390439081030628,0.4343988950414967,-179.80500389066327,58.34452688324946,22.27573365313918,0.3033206362638729,0.044808530722988,1.007310142920596,-221.07517150541344,35.54826957870324,13.003088316426595,0.2356671453009723,2.1456997981518997,0.7048158785689971,-119.45267755795123,46.80913404398229,77.11221613132462,-0.0276680201635109,0.0905066687533135,1.5062311357773408
1.35,-398.35383333525874,71.10988598531877,158.3766339334936,0.6783893721626355,0.2623912989858588,0.1535559380591477,-179.9713035862763,59.32048218227893,21.77278379529207,0.2156978644999257,0.4590950136510798,0.1550005835334563,-222.75413413857183,35.69909048721104,15.311594204584797,-0.0429143570903758,2.2144007260597984,0.5352451882280629,-119.06405476272616,47.83608390071774,80.92084317735396,0.7937500689066433,0.1081841621788603,0.4889013111817539
1.36,-398.563328409892,71.39753381618534,158.02234084609535,0.4027675388274351,0.1138565363075047,-0.0013231875365649,-180.39763419046497,60.537161182789234,21.419438495551795,0.4108465280799254,0.0819110296588902,0.0548851853237623,-224.3319500701296,36.01061422057308,17.692747908568542,0.6108257033570116,1.0776009119015044,0.1074732782827803,-117.81741280321276,48.39140211869791,84.47728617526472,0.7000026769992886,0.3103977206489014,0.1819968020738399
1.37,-398.3462009573552,72.0546588991961,157.644855363874,0.3665014925760788,0.0217239991475754,0.2336963035193882,-180.2035874750662,61.57263445481038,20.886456461977648,0.7751314177045739,0.0754985546322812,0.3091127137982607,-225.1701916796457,35.892822290939485,19.88530820094592,0.9359348517333644,0.8010907650397086,0.9445706566561728,-117.36661655372546,48.63602342984949,88.3744034811689,0.8529178585088787,1.240699077343588,0.7055397604616247
1.38,-398.0425675001594,72.8751229897665,157.16371994056163,0.2272111538771346,0.1361747842032092,0.4080820360597831,-180.6708929280599,62.73656801593353,20.08230724454569,0.4273855555717843,0.2035591443490322,0.4146172865173835,-226.4432002880341,36.1783308982307,21.879493688738695,1.1869565472306352,1.687783403699986,0.5993503763336923,-117.23596523008696,48.9249215025578,90.09289782962094,-0.1364945805705247,0.175385996963038,1.146280023277714
1.39,-398.0677277465597,73.25259317102132,156.7013642675515,0.6290953577004069,0.1644370105308711,0.2569823510518666,-180.44605758174012,63.86490092584602,19.626971302332965,0.0151158057967062,0.2525664067573562,0.722197490163232,-227.3552924837868,36.10034197615844,24.43362177472896,0.7449515050468303,0.9339513705734382,0.4725106267133432,-116.6588603013736,49.4169951763619,94.31344712203652,0.5828972732578491,0.0001410314508288,0.850062193835832
1.4,-398.13671407693056,73.57868020843334,156.069248179392,0.3331451364374165,0.2826336039555946,0.1064393422670567,-180.6345121717285,64.81291850987411,18.94415534713962,0.116838004481819,-0.0255168049898613,0.4029806595649605,-228.50464157508344,35.76280867796919,26.98043183832525,0.447318973651698,0.7417780350013287,0.4119759088114749,-115.67319385887204,49.719286911793866,98.39170582531489,0.4045762356521379,0.2073817556394823,0.7785332603470405
1.41,-397.7147375251277,73.80333324098198,155.73167368936873,0.1775273520899914,0.1252027124235026,0.2212869369556888,-180.33756172925231,65.38133195361371,17.82413163681861,0.3466011429497403,-0.3348034937898563,0.0180389232021483,-229.65976276304437,35.89933799231183,27.31567275583501,0.1841871006772217,1.017325022958945,0.3162892115313684,-114.71876692607394,50.25240675649604,102.75205498817738,0.0019371112418999,0.0424505017317148,0.369732831266945
1.42,-397.9612217026515,73.97223759862494,155.464471819976,0.4633103205144968,0.3373859951509335,-0.2089219867315692,-180.30488718566468,66.47424321330803,17.176612284851572,0.3526104295523364,0.2062829443219948,0.141013911405593,-230.87417421530637,35.550193896920945,26.811398072442845,0.293480760827627,1.227352596179108,0.4504328423427242,-114.04109031826906,50.22601783395847,107.05593966642748,0.4185059465330906,0.5212251592065196,0.4425831239589697
1.43,-397.2254023983368,74.85028528887773,155.91533699372215,0.2880099858797186,0.4050190348091677,-0.2037808948559623,-180.35580097348952,67.36709428021528,16.305214015442466,0.7173723658305051,0.270483281286524,1.036202790806671,-231.74084377930905,35.321014517477906,29.268468856146853,0.1776561043416463,2.0285029805758668,-0.0966160912376369,-112.57985391329208,50.41309930897064,112.44961706954496,0.2339301607144213,0.6751442188754225,0.4063521598189404
1.44,-397.0147295228376,75.26469882156988,155.82082021616986,0.4751729275346371,0.6229627813248441,0.3050606753694251,-180.16696595181836,67.94819380180728,15.792875137782085,0.3167413542416826,0.4731310347090637,0.0166353180482084,-232.2252726477313,34.55730634156437,31.91415287291104,0.3113268562467849,1.2315024187886792,0.2250096100152542,-111.15383246579069,50.23486102972042,117.74714303428084,-0.0196325724804897,0.9392663428334552,0.5729462334658479
1.45,-396.97432620559874,75.96930232756917,155.42405977383956,0.5047898008350042,0.1727672861396603,0.0870871593295845,-180.08151301225783,69.17695669498453,14.633938795293991,0.4605699681274024,0.0739036205107765,0.2725074625305816,-232.26183560186823,34.29329772548647,34.45374614135627,0.5488614628893744,0.5536287681616675,0.5120504640600472,-110.12143029139692,50.04536186839236,119.88178665362202,0.1840372500863872,0.3726605470146252,1.336452506704923
1.46,-396.98668606552695,75.6816690220751,155.51959717706964,0.445130716418053,0.3440608438825815,0.2969595010579263,-179.71241296483242,69.35400856323385,13.913134058504554,0.5072683131523652,0.2151414132955695,-0.0456660665870641,-232.62301045890376,34.21389879313895,35.778083914725684,0.1301405825399686,0.6852915262672387,0.5997211488278111,-109.18124291027496,49.85775840095072,121.97141808487856,0.267059982230591,1.594661597909183,2.256005169266133
1.47,-396.9206731396419,75.73696977168629,155.22810905042323,0.277870942341696,0.3672929652329774,0.1067613994297464,-179.74320832561648,69.7127652273032,13.888329249440536,0.5271166223195777,0.4114596671302706,0.0331778036483287,-232.34460603917063,34.3754674194424,36.51922208777295,0.3239913299681723,0.7982916502383192,0.7643827051407031,-108.78697331745649,50.077657953391935,122.91666039285944,0.3752232699003814,2.0277625016700647,3.010523329243658
1.48,-396.4203898994699,75.6193672772058,154.9626431251436,0.2020477837769484,0.3526601288363171,-0.1335515983466484,-179.79798465923167,69.69293568884744,13.33436469523671,0.3111592446881411,0.2684251159960851,0.2776729133962308,-232.39826631760516,34.28117279079371,37.20689723518486,0.0710027945518985,0.9655963210926382,0.737026756749157,-108.36603481000606,49.829437162315344,124.06780593581502,0.3784541260850136,2.787344055955056,3.6273551815669416
1.49,-396.3333950995194,76.19929045006421,154.74185941866202,0.4365449304124567,0.0628633560546224,0.0313057193914861,-179.67247429433354,70.69071780688458,12.622348737520683,0.0115504190111667,0.0262211915269137,0.4595388050618527,-232.31049611569745,33.5833544353219,38.95872284406834,0.2383000414002515,0.3138423216875071,0.2574902725239152,-107.91572697303634,49.555402498989686,127.55603932234636,2.155721671958106,0.8467924175340722,0.7430903771496832
1.5,-396.1659566418812,76.3886288402127,154.64707338189154,0.4590880086630001,-0.0269856246412716,0.1660996642621218,-179.0351220374827,71.26607514040708,11.638086689100774,0.0763494067256217,0.013570025075005,0.1906230355792383,-232.76330490685876,33.29932992353846,41.31164604845828,0.9635839427526632,1.3133010935963705,0.6390874555934432,-106.97080370415266,48.23205834394381,130.68107479657277,2.562409634918661,2.583254953814948,3.643674998638948
1.51,-395.6706993334322,76.72752244404971,155.25939561164796,0.2526332339227727,0.0543442492054842,0.3473576939250523,-179.06699704675043,72.25429680797274,10.387815482526571,0.3340090299869777,0.2407693655165543,0.4515114827317178,-233.380438168397,32.61703581895453,44.30175407078805,0.8557994904078474,3.317406944283066,0.5516704232607332,-106.11288020149225,47.01267616792307,133.65841314172812,0.5763675478669474,1.819002574287404,2.322823597214154
1.52,-395.3597913813042,76.80856394233199,154.91586554553163,0.4282824284229469,0.1346688623877993,-0.0025010576627221,-178.58512717319343,72.96708756501923,9.396993287729032,0.2342961104224125,0.3091187020517368,0.5528790327478097,-233.4608362183843,32.616285459480856,46.91219680114498,1.9649578406737644,2.9937049635362305,0.7643466426749843,-103.53431771259974,46.53654679120061,137.2477395589077,0.6784100387283618,2.300273786777146,2.189199276350186
1.53,-395.2926122716994,77.36522154896691,154.36574712556245,0.23540516427044,0.3613653104781707,0.1314094690198117,-178.52739754149349,73.43620866463132,8.332329674055893,0.1920822723558587,0.0758623266307297,0.4244800927656496,-232.7721589404631,31.72489822098356,49.34846752164078,1.3394372370569994,2.1555067290575134,1.1385352027726603,-101.19304059091736,45.68824779159017,140.00454987456604,0.8044094690551153,3.2627346100211456,1.6196450357187022
1.54,-394.8328904058075,77.50077451650394,154.00318211514096,-0.0454062384901176,0.2982209056283745,-0.0174928694685355,-178.44968292823856,73.79419954230407,7.393743706377317,0.1008676710647467,0.2101984582684869,0.2626418804983406,-232.57950726038703,31.332966631116648,51.38716017445485,0.4770906617991365,1.552534657002652,1.5696896138910217,-99.92208663969843,44.68046700254949,142.390606870321,0.1741097184216683,1.0137099885429566,1.6117403153017071
1.55,-394.4218280467989,77.52021994263353,153.59285289057112,0.3137346481552389,0.1644933358485697,-0.0406501238063504,-177.94300222526596,74.47324403645655,6.418152004053136,0.0510438351542916,0.3408931457820627,0.0803638378657018,-232.6059274997992,30.56335966670581,54.16912017397557,1.0432535634960174,0.0748565962739298,0.7518328570461272,-99.24465822609524,43.60613661337414,143.93458852225984,0.0385111524988998,0.603398987232968,0.9896065730986756
1.56,-394.3649023103891,77.4528151048173,153.39242113662806,0.3050666348111154,0.6255901131014547,-0.0193926488080437,-177.68363021632618,75.02711270046336,5.166030772305244,0.1169658853662581,0.3834884013708394,0.2974359907424114,-232.8234936456465,29.741253736330947,56.78802637252996,1.202566475385085,0.1863324408718099,0.8676604824984125,-98.25652707608616,42.53243323026077,145.5970930369716,0.0781871746073822,0.3359334142525879,0.8561550230504721
1.57,-393.8879703789967,77.6537142971839,153.47610509052683,0.5993962254034062,0.5791422188223508,0.1818114340146491,-177.4685912690377,75.83601906016801,4.213124902652756,0.2377064352902105,0.4199099878483358,0.3542850948791824,-233.0227980039107,29.46758439163604,59.06777784549436,0.9335640725171188,1.7548489998868102,0.1640394023424278,-97.10765953854224,42.3571533651328,147.88574854658674,2.10403618502155,3.670332877546678,4.12485972924495
1.58,-393.9175347589533,77.96059159505764,153.7757261872592,0.243811843474885,0.1905509382587728,0.0837569987453733,-177.41051099632048,76.17676342032328,3.68747551579711,0.1038376883473389,0.5901920977397955,0.0710992196264603,-232.16940396795349,29.41504535680257,61.04206551009331,0.5975027761018897,0.2369773134113901,0.4808679161508442,-95.81629418472224,41.20640378646106,149.60469089825528,0.2567657685811587,0.6156991433301908,0.7431843399032785
1.59,-393.5030634056999,77.78900436836118,153.98018830436496,0.1342571067698183,0.4042265733991321,0.3191110721578993,-177.36121707444016,76.19351014276708,2.9130331594423344,-0.1704029330655046,0.3483345629916687,0.0449059778638333,-231.23254698191707,29.43783090372377,62.970672852237634,0.7616689678174065,0.416491692272141,1.4419179005255789,-95.18505191026776,39.71557660447938,150.1437334706278,0.4201284412515947,0.7489387279058903,-0.0175710438918799
1.6,-393.3040341013181,77.90597589161212,154.79018823723712,-0.0656238182793491,0.1758415741322554,0.2630255082578301,-176.98090427048166,76.61102506976108,2.5248353695282044,0.0082948717161301,0.4541663018449055,0.0521408539648621,-230.21707532748445,29.368377035753127,65.17099610787805,0.4046054048550375,0.5448454393968883,1.2149566463468917,-95.14704526924083,38.917478880160495,151.45687312425494,0.0762137870015237,2.3281275358807894,1.5308273035621924
1.61,-393.10499095823695,77.70578007009841,154.70724861821316,-0.0319832209952454,0.2184189586005906,-0.2131020580748359,-176.66904058125996,76.7521893945146,1.9161875796148145,0.1448392924396601,0.2768219784937496,0.5651451390685558,-230.500551433814,29.68294528439768,66.39617300552567,0.2201105640053219,0.643107671008616,0.5810132143404927,-95.31991498199729,38.77338413169202,152.06900873802405,0.3419246855203028,1.2443932419869042,1.1713953816756495
1.62,-393.2258931935432,77.62425641838603,154.57844203498115,-0.0307033964383364,0.2575376594961565,0.057534162995263,-176.78707724894582,77.33141352387221,1.5922250227458536,0.2613567906033411,0.003810094388841,0.3283419071887437,-230.03840934558409,29.69137180182439,67.91593896480656,0.5819955096596982,0.7566812202448256,0.2604815997965336,-95.51229365031654,38.78772819018022,152.47413910989786,-0.0285777347175338,-0.1054803595185784,0.8698602373689134
1.63,-393.0328842212283,77.71019532037448,154.7324189722371,0.0497438448387902,0.409881528408813,-0.0540453496847079,-176.65595312795782,77.49603436750392,1.1240707959529024,-0.1655241145745227,0.1181924694734735,0.7178081466261946,-229.9533590052268,29.04904070349597,69.96380911616467,0.6709535622995563,0.8062481435455225,0.3200753722563615,-96.0318228554676,38.45252467775576,153.8767493489115,0.1152926139152759,0.7609893532473133,0.1306555047789203
1.64,-392.9463907146872,77.56356239997771,155.5495471479723,0.2916421812542586,0.2868238937390748,-0.0470607989029004,-176.708995482192,77.6384291993743,1.2468954034391138,0.338494597904284,1.2762696930682986,0.3203197710904971,-229.6135534117112,28.84239301513076,71.7827105187555,0.0203966893672284,0.7909082728134148,1.1108093367101908,-94.97956700930216,37.43776250501608,154.2723219183811,-0.2511720476242147,1.7655223956822714,0.8059692822897825
1.65,-392.6546854603925,77.94508415150258,155.26741744878603,0.0394417492266403,0.238552817997969,0.1033988316279221,-176.51934898670052,78.1720422316639,0.7092532166562975,-0.0205801150077944,1.1050505506476302,0.4415395988118726,-228.6853581913912,28.877028663768986,74.18964590748715,0.3723180860777801,0.4491253654830525,0.5520301061629385,-94.22334762209356,36.74116418694597,154.95473603139442,-0.0163939209700787,2.501313735666129,2.14795147507344
1.66,-392.357144897738,77.67384145234307,155.49253626761958,0.0585787090526223,-0.070421294729143,0.303083592731563,-176.81468437536165,78.2912059036615,0.1423031425663371,0.2439538206151722,0.1294432615584012,1.5257507235654737,-227.74710580682503,29.10004571112601,76.20334939548678,0.6878895117179038,0.3523304716582391,0.3793012516092278,-94.62392693035582,36.39287016584521,155.4189728123189,0.7344699328617512,0.8127479435339195,1.0887043560874354
1.67,-392.5611621685645,77.51707112814229,155.96801160025888,0.1007132491467578,0.1161327457932308,-0.0966371482631869,-176.9375022693991,78.59852993559566,0.1491543811266878,0.303047627975064,0.6923024262099082,0.8333552221191121,-226.6326921495305,29.38537648559316,77.54589723843506,-0.1591339112859212,0.469500581302723,0.8347242095241834,-95.5268247201016,36.04231010103997,156.32116180400396,0.7644056466553053,-0.0305060291373394,0.4245086880506195
1.68,-392.5069903176805,77.44171677560807,156.1099047162226,0.0012276222666336,0.3021502983161102,0.1756326850555892,-176.8816801792575,78.8742737979142,-0.5535265458460543,0.2691391778019807,0.561765221947759,0.988076547453412,-226.4026512302897,29.389519089017345,78.65876733704218,-0.0678312766562044,0.6604046121788663,1.0937110805987356,-95.37784552052928,35.72106940024347,156.70656112174962,0.5616211044407836,0.6551431900202062,0.3476992757457189
1.69,-392.6530892724247,77.54884473669203,156.30771207123874,0.1859116778372414,0.4473413401918243,0.4739314670192435,-176.86928925980803,79.16212456732242,-0.9864247720917412,0.3735660269311152,0.270548840704343,0.6238973858871704,-226.0798491359968,29.549219393669773,79.61044588613105,-0.0586825469775187,1.0561944187500976,1.3212306669562728,-94.99291395357557,35.49451567976704,156.79010250463102,0.5967490724953262,0.957753842964848,0.5539293641135368
1.7,-392.4353615500752,77.48595850881765,156.11864631497426,0.1312544914601273,-0.0360273405872059,-0.1007993643959016,-176.86607806961308,79.10477322089862,-0.6496428352229295,0.6715781236261597,1.0441866143131762,0.0022386212650013,-225.20176347514243,29.348495875461733,81.25616652518691,2.1558462319164717,-0.0408549817739073,1.98985502224362,-94.10811817083116,34.716761549359425,156.65961482448907,0.2429504908895964,2.212416648729437,1.0916391888685668
1.71,-392.5617880540088,77.52938870267668,156.38021619146176,0.1355654702012539,0.2203366050982576,0.4021909689497782,-177.13813970639478,79.46006170978421,-0.7630122569264044,0.4989336394291426,0.8024688655821548,0.0393797948410321,-224.53060039572597,29.73062525578817,83.19341331708632,1.89179587486012,0.4493161997780363,2.234834258241357,-94.898421071984,34.460334669584455,156.3777026196468,0.1906031931406763,0.3133768578309758,0.7695754131287507
1.72,-392.4667048881629,77.60108988374147,156.60641600175768,0.1355551560362864,0.4979136809573229,0.619124925637338,-177.10720523748887,79.53587703272945,-0.4671433227365371,0.1408251726719563,0.947937040340948,0.0956518953915787,-224.04135354063115,30.37578153057699,85.04333660662338,0.210693212898815,1.69316047955002,0.3989734673566996,-96.2758862508128,34.619123109974204,156.8311758322489,1.3201902308680364,0.0926124207551521,1.1050131084735042
1.73,-392.5027392003528,77.63046035517321,156.1676592623591,0.0753016623224051,1.0533912112361474,0.2459971582546851,-177.165377130436,79.87539633334613,-1.1332468079518552,0.2283728955493158,0.1145602259610572,0.7156827727121788,-222.8172342804688,30.88990124398597,86.3843321585524,0.2058830266972299,2.165841696781162,1.058090143050877,-96.81137669686318,34.997781728473086,156.64650880492718,0.9560789655634996,0.4503719221125944,1.277121693708337
1.74,-392.2707492842006,77.51581373311826,157.0376216413863,0.2989179028684737,0.361826531440983,0.3859045549667565,-176.72563636455695,80.05724440037855,-0.8321638341722919,0.016315120136004,0.3519430205382877,0.492193656628677,-221.78635728914816,31.802065811802397,88.07570295225808,0.0419833390399927,0.1637221205402527,1.0195822922441988,-97.65606322183946,35.04123599125454,156.52015300229596,0.1686020026562111,0.107045732566716,0.2758862227891311
1.75,-391.9759973389406,77.50000881279453,156.93677268679795,0.1010299312350939,0.0485891384814954,0.5128822842275359,-177.05321529197505,80.1124467834483,-0.7021043746692089,0.2833745118769749,0.4871087151794622,0.2129777083791899,-220.62028155870067,32.230284213242406,89.41490453539544,0.014116630771187,0.5488013927516249,1.0126838515856067,-97.73612642397988,35.27577730814186,155.83195402638816,0.7100314408077343,0.7571743946149272,0.5253384819692648
1.76,-392.24812218808427,77.40642159999437,156.80276848303944,0.2181066191159351,0.1965633768061714,0.4820418293766865,-176.91859786493796,80.09438426199124,-0.783579974293139,0.1248420187497146,0.200587196850696,0.518804906300683,-219.9540413538098,32.828805297710176,90.35265073436568,0.6208228024310722,0.1897928853717655,0.8960797309606946,-98.50652548403237,35.75027226935416,155.57576143830184,1.4561399956899157,0.5528452221652168,1.3532335224191854
1.77,-391.96821056561583,77.6014747860369,157.1981428875333,0.11918806538974,0.0972917084318173,0.5534475996604289,-177.1950695812486,80.52197274006961,-0.920116224022158,0.5985798746871285,0.2797515936891169,0.6131471169905186,-219.33730361774943,33.448458852103364,91.18496418725596,1.2557574154267142,0.131291603313706,1.182072044299962,-99.0834247106861,35.34248303312187,155.34691897267976,2.658810988194422,0.2512943375827541,1.7921831921898854
1.78,-391.8861807192674,77.4103588750436,157.72599787413745,-0.1129372761881259,0.2129276539326415,0.3391237923738623,-176.87834444465972,80.444481108059,-1.3961813232500555,0.2998164608008847,0.5862330350251536,0.6678714536497666,-217.76534103513197,34.47850986067796,92.75332414089368,1.8758314066287167,2.405217252181476,0.5250826356614405,-99.84541639045058,35.74608057436264,154.81764737087343,2.571648699716675,1.227518095107842,2.071056096043382
1.79,-391.5141718344754,77.36796686308703,158.5064369584005,0.0914665737995248,0.3141081084346967,0.323292753849782,-176.60287174825956,80.50523621979684,-0.976520728775318,-0.0880338622665334,0.6228239726362292,0.4885242418147111,-216.0776642452247,35.31547609042147,93.83739950926702,1.2021653430079664,3.4781203112236527,0.7096760270910943,-100.05057766973437,35.47952825453815,154.08665258249695,1.0989120864969453,0.4445079525974549,1.9451325386179557
1.8,-391.2011458227817,77.35717698096619,158.53000164439382,0.3242923022900356,0.2031652715004669,0.4994102871189105,-176.68974356842074,80.6470732758166,-0.4645219086680363,0.1677237253549318,0.0081425890685999,0.6862735576270153,-215.7316823473172,35.53206605903517,94.54767600256186,0.9970253268193704,0.9158001473312928,0.0433666231067694,-101.02774968151488,36.14794595968214,153.16724017629,0.9112037923417894,2.028085227911689,0.9495078154102916
1.81,-391.32658939383447,77.34670981540515,158.39540878129864,0.0775034552792849,0.1062208534881232,0.863675374412835,-176.53572392803702,80.28886281929103,-0.4740114656892839,-0.0718114785841831,0.9828703400841724,0.1660027519962465,-215.2886082675502,35.83043691924884,95.97927828259908,0.8511900817821259,1.9533993258983884,0.3534847841327202,-101.20394576296144,36.24098374865431,152.43991163831618,1.7352757689098377,0.5750252716996624,0.5119429983612671
1.82,-391.2253648243993,77.42286385959689,158.68619375872763,0.0576063798270067,0.5441958753052458,0.815228836161503,-176.5787223423276,80.65473081321183,-0.4961381399980245,0.4801689446328391,0.1978810974016219,0.2470928096869934,-213.69942029932375,36.563706335387856,96.7964439190854,0.0909179215632658,2.677966399996861,1.3644108273054782,-102.5535434917759,36.267329390103335,151.27369254937292,2.19788909170264,1.629997064781697,1.437722446278337
1.83,-391.6085927502861,77.56036171017674,158.33047895420697,0.1528046686800337,0.0712792593699333,0.5204758083271868,-176.55767797243632,80.24893300485326,-0.171843944807947,0.2996725260720225,0.0995812472952176,0.4100796588389094,-212.29680575687829,37.46449755987557,97.58013801791444,0.0652333105777871,3.69545809453545,1.715802771897476,-103.04796872287314,36.58183519167121,150.53473923303878,0.5652385675028827,0.5743057521128063,2.000566842971658
1.84,-391.4427344239612,77.21093907636775,158.46591259053844,0.0473528108305075,-0.0390662156709138,-0.0799288172691008,-176.52472595063722,79.90578724448555,0.0845510426151432,-0.048158024449129,0.2356681163119671,0.3736557302699667,-211.53339557962252,37.97817475826197,98.96050709088408,0.4894975339506082,1.0614322271159924,0.77744215202216,-103.03307739944556,36.68011325863576,149.5459647812908,0.2615477642644319,1.5584465483225052,1.2101039625528838
1.85,-391.4288139740988,77.05858976114017,158.81790258683088,0.4265803360118464,0.0270860574053121,0.1167336776460158,-176.53163993132702,79.97499034302687,0.3128985293783766,0.1520383016655102,0.305129183983411,0.2895894042393047,-211.31365861307384,37.93859355636767,99.56023978159035,1.0658775898328092,1.6634230366529192,0.2261023809505127,-104.4034797384749,37.6643797448156,148.66676839899773,1.2393678186205428,0.7548204806194946,0.728001584474784
1.86,-391.16486410645547,76.92856716166992,159.3034203776034,0.0995076272350885,0.0951162940374091,0.0843084389858868,-176.02588095225585,79.59685174263895,0.6440540633962857,0.3976909257870637,0.1420504670062762,0.4010076689378249,-209.9984315958941,38.40420581442231,100.32920231929762,0.6937960147986728,0.0536791721027829,0.2778697913983708,-104.40159659498808,37.69133111415093,147.66454757321898,0.8230758444025565,2.8729271227017774,0.0882798747863376
1.87,-391.2631511935232,76.88230031264064,160.02894713681832,0.0930399825839288,-0.161670025113843,0.3034327023980286,-176.58856890888887,79.36743496344522,0.7919559635121882,0.3026978082256991,0.0978088703098399,0.6227294669092404,-208.51930020327552,39.403377374130486,101.06867988860004,0.2658074966219928,0.8390011191865251,1.2238683105185573,-104.57401336336228,37.63070183247483,146.5451025281123,0.3968003484248536,2.3316986060608262,0.2552427666106794
1.88,-390.96298470733615,76.9934315342841,159.87689915325612,0.0924603334871268,0.0065098056092668,0.24731956958636,-176.14324770611697,78.85954207918135,1.3286343117866786,-0.1592246833636671,0.4642382097070977,0.1957166344686414,-207.6561218366069,39.6080270493319,101.10751800967668,0.0208063280496517,0.8022107667673987,0.8120105446180118,-105.01836955286646,38.64394376472496,145.65142105661724,0.8869804688919668,1.6341483757992132,1.712878659159159
1.89,-391.0238456351683,76.79040080494026,159.7718174069471,0.1548426668780941,-0.0469845775020729,0.2481131824334498,-176.18668413925968,78.64667385010878,1.5945930989547494,-0.0010958538086422,0.4235207042862038,0.0051647314649927,-207.0349801888524,40.16437407805535,101.60248712727152,0.3253124979580717,0.6529080383047241,0.7642069747937369,-104.91011131991556,39.2284202283871,145.72977609396048,0.7609330078812809,1.729005347911266,1.6991123087972255
1.9,-391.0782830586748,77.0335845053223,159.7213908425039,0.2140179907413759,0.1166915232199524,0.0276578239176721,-176.1622064296477,78.56677961760505,1.7315416259396412,0.1366873701019572,0.4085879212153019,0.0035006976968445,-206.7292425006277,40.54593965185547,101.86005239650228,0.1589378631914841,0.607270847929156,0.7155186178064483,-104.94682361042209,39.54983999171602,145.38116832589708,0.4738739362149577,2.041656025625609,1.7962390942431927
1.91,-391.26349760032514,76.57533039703442,159.94679656988336,0.1568044918191714,0.2191317367147895,-0.0202583447348913,-176.2654658474303,78.59006914580073,1.8279045030945384,0.2739998013204949,0.3985024054301992,0.3873898421316187,-206.71653640723304,40.16189646326154,101.999622300112,0.3798705199113407,0.4299656004992759,0.0228551198211325,-105.8322943786588,39.4677455667791,144.92634989424832,0.5211097575609189,2.533998354538318,1.0187136969545074
1.92,-391.25670535157496,76.10380899618731,159.35887362104853,0.0935247601343977,0.4817880179803361,-0.0328472092065744,-176.4221001873683,78.76237133797984,1.8957439872906812,-0.0499837948579007,0.4476834612908052,0.0734433266883828,-206.4485296092612,40.13516494578498,102.508219140798,0.6383096703595753,0.689221367956834,-0.1092144726591986,-106.79343232047287,39.55783449742211,144.15072012624623,0.4896035838873255,2.6487466442294862,0.5138067575491554
1.93,-391.4597829795405,76.49641346125978,159.63357727191917,0.3208024498364635,0.6505760147025605,0.1911044431111704,-176.77200295533288,78.40820987636705,2.5221639919787022,0.1135178471239101,0.5697361579297839,-0.0323271489549824,-205.48160243461132,40.797793179909625,102.74061812002128,0.046598478424203,0.1306913184516728,1.2029997593398154,-108.0163656899592,39.87800462844473,143.1504036365745,1.0623306065663027,1.638969648417464,0.489284943556597
1.94,-391.886060702652,76.62767323078467,159.85621717544603,0.1834756468724753,0.6321909671448278,0.0745917414431411,-176.4998874803776,77.78608050761176,3.444562283074198,0.3443831061615655,0.1748390844516622,0.2344846581979439,-204.43202834057405,41.80036437599077,103.54481819954452,1.008685721008386,0.0495340189593735,1.838871178805571,-108.28556759031784,40.46135777173753,142.6162545912094,0.9545045949671478,0.0531941253935008,1.3052355002238722
1.95,-391.7080283909296,76.26185093759234,159.4090327913302,0.2545947023973965,0.4375816422731603,0.2424496885152553,-176.7654833117543,77.47157904821464,3.8999316772087473,0.0820172184392062,0.7038482111655282,0.3620245159269691,-202.9027491831168,42.21154547527898,103.61806371657585,0.2441000243646199,0.1084254970001147,1.2712607115985728,-108.212834638208,41.423559723527056,142.46748149932003,0.2578689942541128,0.7008383758779343,1.3759197132906122
1.96,-392.0161638563234,76.22643670090582,159.30743647800543,0.2043651371550916,0.0542181571239675,0.7010513159849675,-176.91627425446015,77.22680195700417,4.736713296328354,-0.3454085896809462,0.7817062895462296,0.3452096289799247,-202.196642641138,42.79201624687946,104.30057824003376,0.2793127578681246,-0.0508637369520114,0.5041063113544644,-109.23877654206964,41.22059879327212,141.88150230263014,0.2267599051441784,0.8451388891675385,0.5432993019060922
1.97,-392.232232386907,75.96815963054199,159.31151233110165,-0.0284210921758908,0.3049646730100878,0.3091988280728603,-177.42539792101903,76.91745667100203,6.003466951416316,0.6119804808093424,0.3606339860243633,0.4696014401801052,-201.04705878571212,43.14803776693583,104.40582187750836,0.2111348524857797,0.5862076692509175,1.0961054434978947,-110.40400982983344,41.51394875718911,141.14604146072364,0.3222882286375217,2.839494611287368,0.4010431443347669
1.98,-392.9472516094224,75.8327497667924,159.1629173395907,0.0906825515126717,0.1691676819098899,-0.0638631869462501,-177.3575954520745,77.03319809973026,6.776787252230511,0.6913837083313248,0.3260728247030047,0.479297692585499,-200.0816952971158,43.86987839447114,104.98653254609192,0.6806408566900486,1.1659746359288403,0.8584811856259384,-110.55961631606694,42.37935466480854,140.56031736261167,-0.0476775063087351,0.1688475227193594,1.3595827377592349
1.99,-393.1264742278903,75.92700073538568,159.21956509340245,0.232842400428681,0.2770075309918807,-0.0169014302810192,-177.78563954636778,76.91846863380368,7.529401469024828,0.2623094011365908,0.2519557943066167,0.365649308806357,-199.5958317049532,44.357667594534,105.51238618111157,-0.0524116630495451,1.072824197801262,0.693314263609007,-110.94470944536812,42.58122992016802,140.30159016937534,0.6151392549085013,0.4250694709572871,0.9228349776338436
2.0,-393.7996958348565,75.70154715253372,159.01441202695676,0.2651157634375386,0.3488625219492276,0.2061524376910404,-177.90460778612675,76.83796987281676,8.008539159271505,0.1384687093808213,0.1482722669531802,0.1790488353042125,-199.28571345136092,44.28674819445315,105.49950135946632,1.27165439741755,0.8295803302833356,0.5257524915535355,-111.25558329922411,42.74158207092709,139.99129312417963,0.6236049179579846,0.8096692762363898,0.7699506854685145
2.01,-393.932140642512,75.18095000124204,158.9486101391861,0.3326012344288787,0.5714721847612798,0.8250637337635189,-178.25520858239776,76.59424923270795,8.8281220819318,0.4568849482901771,0.9858059199115524,-0.3256164812330631,-197.95430440199385,44.71885294093468,106.01168123128927,1.1373908501685914,1.1700294269264224,0.5521374070817783,-112.32660814296196,42.45888848826882,139.37675018866628,0.0832941113889123,0.3746008570633448,0.7770843665201655
2.02,-394.3137718528319,75.31400951047718,158.67306177021584,0.0477784669280672,0.680207425760539,0.9085372965170666,-178.7029398786404,76.05820968243518,10.31832210964263,0.270869069425466,0.4157060266413717,0.3002292712394636,-197.34248259811005,44.86752783690368,106.0070169267295,0.3133440037030682,0.4409534404465245,0.7967503771696129,-112.60390133290048,42.90740335218748,138.67462921831438,0.1207871261628489,0.8983174336137268,0.5985329382917647
2.03,-394.4435201518214,74.7524036360134,158.75118031792928,0.0064705890163571,0.2136272313846598,0.6210834624125112,-179.00085215896885,76.26088658797161,11.453813909072258,0.8166775594512609,0.3935721874637939,0.2537974386835936,-196.749057970459,45.24182274328852,106.1601438271256,0.2624682879615031,0.1898377266351351,1.016720593851017,-113.59183361912037,42.80744077478936,138.2032995279555,0.1953024187224151,1.0163617253657051,0.5169554619905723
2.04,-394.7962993229386,74.870584179532,158.4410686959444,0.1457947128598412,0.1708634371779782,-0.0475278915919115,-179.24595720316802,76.03701864593341,12.337675227067995,0.3173822181104478,0.1434973597831244,0.3249605957350236,-196.12082933943356,45.68537568145054,106.69779140519192,0.3735480242709236,-0.1301169287809526,1.2847722338321736,-114.2711084805474,43.29134714066315,137.7010637445421,0.0959014436856389,2.6272431148456854,1.5982173673793711
2.05,-394.6981563733785,74.86697867832251,158.5933017741108,0.3423721922213272,0.0316458665596377,0.0906349841831799,-179.24119273984255,76.05226741426907,12.718118026392425,0.2391441129791586,0.2158369123405597,0.0726860045634504,-195.8190681939101,45.56321703892752,106.88339880797564,0.2113741939092157,0.5176974021327894,1.4398918899389206,-114.74714691672531,43.16968190752188,137.50101044437872,0.5495592984466502,1.299813998948926,2.043212546085093
2.06,-394.9238998541984,74.72864280651085,158.95492300717584,0.3088935485614767,0.0888853982212015,-0.0148276352628033,-179.58219017318578,75.96883312684325,13.16124940499674,0.6788349529213595,0.1740652687638306,0.1728182877624474,-195.4134342091528,45.61104451137165,106.61944562346405,0.4753381215823671,0.4053220098963291,1.59269489910045,-115.25703173447012,43.21662832041028,137.19321523585825,0.5646603529769201,0.1731682031484469,2.609118500583458
2.07,-395.2915443673386,74.59601716682673,157.93371327495586,0.030693478679038,0.3327134693378419,0.1144605962537989,-179.53464427848294,76.04544513627951,14.044555528875094,0.4380339935341301,0.7904384616756255,-0.1395957244690825,-194.99148550694463,46.0817399274973,107.2160472949344,0.1628555701651882,0.7079151599805767,0.7564585795233417,-115.9655780244851,43.83588080738149,136.69467946386698,0.392324584889472,0.3784968325654263,-0.0217085998064195
2.08,-395.5973866804685,74.7907744589169,157.5136590630551,0.1750998005972953,0.4302158055832248,0.0125195891953023,-179.6950634053084,75.83207841963973,14.62124913277037,0.0814731543676666,0.4691727260367038,0.7672021607886813,-194.248769991335,46.69769390485974,107.38344805666168,0.5310157194475139,0.3979028486832828,-0.1090184082018257,-117.34831855603667,43.61819588048813,135.78319380144947,0.8417453043852351,0.7315963752390173,0.2463779611004091
2.09,-395.5086867284682,74.71418696188648,157.63247648377566,0.1287020787939229,0.4086056189190508,0.1834701004561375,-179.7288059321677,75.40176929959684,14.878328609137125,0.1591703671932654,0.7578412062164106,0.4169128862452726,-193.98347531568044,47.27807267428897,106.80090266322772,1.6415189903071858,0.5414826689014669,0.1309750645311781,-118.1315373905664,43.9124547305006,135.4791056178277,1.104765295400992,1.6340914764298664,0.1663608381134695
2.1,-395.50302590221946,74.50659104490724,157.8236014394645,0.3231632543948722,0.2513247964278884,0.4186093813881608,-180.10540260125296,75.39457868443526,15.160025567779895,0.2489472987810953,0.7865970991773624,0.1825041106269254,-193.55514598750057,47.26842778836315,107.22386415868375,1.2394715453666434,0.670257329569415,0.241227791597464,-118.48293551627488,43.75253995673146,135.28235838236577,0.6922479436252628,0.7584419686582482,0.4268422694859621
2.11,-395.4328604413912,74.53752834125322,158.2786892751561,0.1729762659336131,-0.174039828620293,0.5096525995265682,-180.09987771468465,75.55704603548388,15.305177416883671,0.1000963540353966,0.6283772465132822,0.0703051081157311,-193.31527487010496,47.22077721325285,107.32722133669552,0.5906250268360966,0.8054805908915037,0.3289120511672553,-119.30566731170588,43.14561921942594,134.81387522434022,0.1480324615422282,0.2077864511759257,0.8706434427223864
2.12,-395.3206876184668,74.52608233003463,158.31191438334392,0.3616797891597464,0.4944725295522868,-0.0531742834142463,-179.98939743264438,75.26483764489267,15.787738725159198,0.2078273739519466,0.7756868769389903,0.950421378572163,-193.3391041956305,47.44868549051192,107.95581204838967,0.5259416560979703,0.6755763322513324,0.9612460059852916,-120.07158558248308,43.04523164422049,134.54911603714177,1.351725143367817,0.3345661636165252,0.5058199103469383
2.13,-395.4744025335992,74.23090564766568,159.03933601861505,0.6867954657994506,0.7637519454329412,0.0089876439892231,-179.8625473869605,74.96119906302923,17.112202055277542,0.1641695840321206,-0.0174703742533977,0.1926098563337404,-192.9260750314105,47.23580863685916,107.99085166202389,1.0089521786974025,0.579322065281438,0.3568413545512706,-120.91694025927563,42.70719436294898,133.7396344494496,1.8310051661001512,0.4786524887087197,0.0712857010788284
2.14,-395.75600018486585,73.77201756979235,159.30953646890484,0.7069279980749639,0.786407751262677,0.1886673762996219,-180.0487557635664,74.90949241629497,17.693279841701,0.2715765637233985,0.1291703096224601,0.2993447719595459,-192.6750545971374,46.83400907604843,108.2007316503836,1.1839065716545358,0.7388591083078635,0.4106570534096854,-121.5428639805737,42.64952720329236,133.84081721300566,0.6372614131247993,0.5294764647403487,1.402045055125617
2.15,-395.7268078911621,73.36194481917795,159.50134444767028,0.53640659030059,0.4533790521315557,0.2400970722500758,-180.04434396135565,74.47265496658143,17.946885088016103,-0.0255212423489026,0.4595281369409999,0.528431620361081,-192.1079154187449,47.25823144176259,108.5575719412263,0.8136087424653697,0.5750820246241841,2.1941292460985213,-122.03573173716929,43.17388631087467,133.82658736781949,0.3275283580745741,0.6073579351409053,1.225085862606282
2.16,-395.4961314350734,73.43989727979748,159.6969315420861,0.5722149781927633,0.3417933643801755,-0.0309654075903142,-179.81855414194715,74.38143837714733,18.42064732382636,0.4803948456466546,0.7275951427714189,0.4092375463717857,-191.57044033887692,47.477720383869325,108.87919922079696,0.5039571205589641,-0.0279769832683828,0.9771737266403764,-122.63366913652348,42.83532374945454,133.35352026327945,1.3407256753424566,0.5888599677566276,0.820569735179695
2.17,-395.2716302415703,73.43160317700176,160.02016354684864,0.0864756030017354,0.0069137674562325,0.1977438175846673,-179.9441931574995,74.00016678893617,18.755607821256447,0.0744809683622119,0.1857183393359869,0.4348738580828676,-191.21227240723937,47.75977916909166,109.5602343537553,1.214469100518994,1.5914787025374424,0.1020955856943158,-123.9315624723068,42.76033015566296,132.8849773711995,1.191504178728192,1.1449490542328429,0.8717737031630729
2.18,-395.2160731411569,73.19723782366603,160.4117025067326,0.2244168678532613,0.5720832443097165,-0.1501338568153369,-180.1842291910723,74.11745835730292,19.193952276405813,0.4237316749805941,0.5666885712846836,0.9250824665406208,-191.1163086721934,47.91803803552659,110.1278052526652,0.8735368767157842,0.8220037158740683,0.6120421375587946,-124.63661004897004,42.5291111062191,132.7142231440533,0.1433128823704691,0.3090788149859515,0.6980336316917967
2.19,-395.2907217211672,72.88552160275474,160.37093878503364,1.0292637561712674,0.2120851352381873,0.2098009768730711,-179.83212108762373,73.82708090041547,19.497468716413515,0.5300668091808508,0.108829622865589,0.1340953400137862,-190.42332235143425,48.1890204726456,110.28614314939324,0.8836206439464972,0.2568500227904855,0.3553585549030042,-126.02080983765016,42.20213669157627,132.24468035642704,0.3216955825925485,0.8647015718025505,0.5587349691106873
2.2,-395.33945623779255,72.66415966215435,160.45498406846536,0.998469774969111,0.1443374294615916,0.1570736013326857,-180.04605876071264,73.90461382491746,19.77637642146627,0.2702337092145609,-0.2367552664982875,0.2753976471642125,-190.46926789043067,48.12973086490622,110.41162650148758,0.3824128034118483,0.6027373008310728,0.4396107723971686,-126.12660385010494,42.07361959847834,132.0037903358706,0.268917874963523,0.3202069333818829,0.9454657830382418
2.21,-395.5712579600304,72.71251683336506,160.2862352700524,0.7480642347645226,-0.1207089979696928,0.0630518546038399,-179.64622735118377,73.49731661738,19.765493965818774,0.0072881087911166,0.3213336926562725,0.3110618356759074,-190.1012794748333,48.1725265643431,110.3497747360884,0.0330015883108501,0.8481780102501583,0.9297114462303432,-126.62077591501402,41.970372161675634,131.95896786677343,-0.1853977642130196,0.0378826487896525,0.8622484232332003
2.22,-395.6727415724245,72.686938933625,160.1729357003204,0.3302491391709876,0.2988180860697232,0.0663096701980453,-179.7123321133002,73.5656910205703,20.14262470276519,0.1650030910914714,-0.0144329029077157,1.0284124331702975,-189.98687426346427,47.89634752977609,110.41163921232894,1.058274368713272,0.1606230849380889,0.330139383881091,-127.69698288812128,41.90591009667471,131.66497481059122,-0.001555928399915,0.0815524260447463,0.6449580057689637
2.23,-395.5605877041801,72.41399090625707,160.2734487379967,0.3206731253304472,0.0832967239405487,-0.0013956048079047,-179.536442476758,73.349207981775,20.32708999684204,0.3270435135566644,0.2463257099803369,0.5174260366718506,-190.23687395340497,47.6532054313767,110.49351223433791,0.3980913254525163,0.7451902096341787,-0.145518290091571,-127.84799308660811,41.72537548442765,131.54896763752478,0.3115616556783688,0.9254401919393476,1.1251511076928706
2.24,-395.2865237632817,72.30411795661861,160.66628642195704,0.46816958942128,0.2896861448511639,0.1448671384479609,-179.6111506671006,73.01392961623101,20.63359506611974,0.1136219005985176,0.4035007047736264,0.6710266687417377,-190.12986897117668,48.358299429202646,110.6170530675025,0.2832891052076066,0.7766271639412956,1.3425831302022937,-128.7620133691236,41.350069529832936,131.20527594379158,0.9988351352635412,1.6156534006745291,1.2097645853636034
2.25,-395.4176326324459,71.8476705461256,160.9164560453874,0.257477679106759,0.4675624051576437,0.4311865912767521,-179.45036774623287,72.99263769841053,20.856884643207007,0.2480855709627558,-0.1066534111359868,0.4089170605930088,-190.0661599145387,48.13700814353562,110.5855119153074,0.1258425431467008,0.5791655367350647,2.206373547143689,-128.71290754509928,41.51023861875974,131.16599532022778,0.8977754093958807,0.1157145855826319,0.4917822808822351
2.26,-395.3001532705164,71.74479667525195,161.4370171228102,0.7561060173905584,0.2482241305137884,0.7726924211370333,-178.9398381624543,72.71156404166561,21.429937381880524,0.1144732084086422,0.5367435706223364,0.1582919451002264,-190.08596519263244,48.12346024085477,110.47473809827852,0.5185881763571787,1.342358991902515,0.6897029699900772,-129.10717244365873,41.32413037262069,130.82509674592723,0.6782101219199955,0.9765052195561724,0.8236855117074079
2.27,-395.07337142899473,71.72333145450348,161.23025887304564,0.1305937258449162,0.0275902536859236,0.358450389011815,-179.32158585046318,72.71265038897303,21.304302974277128,-0.0761819696339451,0.2806171008455725,-0.0040239999513337,-189.6252160837265,48.247839941321416,111.0278876965435,0.5330749016112156,0.812853491649891,0.8333629106723668,-129.80376843308807,41.17777469598128,130.66592809132194,0.2702836234696371,1.6554845989580222,0.8572662028679456
2.28,-394.92092886804585,71.51932364957372,161.4559090163864,-0.0260343293722633,0.0220762452263298,0.050577461509197,-179.06631369406333,72.70163039164795,21.09006942815584,0.1019589570956509,0.2928409313450953,0.0937606661695639,-189.86319978176192,48.45440054641572,110.4280927896642,0.5047513839940602,0.4246280445286753,1.321873910493792,-130.7896981548352,40.91005964537962,130.91223999818604,0.0286205478583191,1.2539705239722103,1.2244257275638584
2.29,-394.728081691104,71.17765989140891,161.7824030515928,-0.1540007365561497,-0.0893942284093525,0.2219095187968536,-178.92340153122348,72.44236205527359,21.29421901686972,-0.019826410949878,0.5978863669091259,0.1674996499233073,-189.95469952689223,48.05978117412291,110.79826090942076,0.1017878306274994,0.2546112768605559,1.0530803770153163,-130.87514826945127,41.15572386791941,130.50987779775144,0.1309544362302883,0.3802988420988824,0.7925357331377865
2.3,-394.5830170284564,70.96444923891157,161.9847372506267,0.2253455097097652,0.227331427452989,0.4312504899999532,-178.6651724842566,72.6311309325896,21.39147149768332,0.1012299727275796,0.213757524171703,0.2649485226988981,-189.22681447283367,48.247729472412,111.18803708781512,0.113246763168981,0.196062912805506,0.2150128152340865,-131.48113389593462,40.6515422027067,130.2251693104181,-0.0008005024893302,0.2097453109377324,-0.0143046065103161
2.31,-394.6328952754498,70.925307463785,162.21053233082344,0.2071170084434838,0.1329213804928743,0.4249074113226559,-178.84325601092132,72.41534261498991,21.45913161065446,0.3080543106702628,0.2409575404442833,0.1477192774683419,-189.1988438335556,48.330266322437815,111.31722268076196,0.4495532204153602,-0.0301204170910623,0.6707384823715932,-132.01378890425804,40.59943589006041,130.17365372217185,0.0661914342848857,0.4516838632164737,0.3924500532084908
2.32,-394.5945316580438,70.83747281279467,161.97897826198647,0.0452924177758142,0.1890218769863367,0.616931346047917,-178.78434674532932,72.47412096488287,21.76359764357464,0.3243100999449307,0.3429082325681498,0.2091307443974713,-189.13495167537272,48.37442136852648,110.98777111852056,0.7235598259989897,0.0101564779179266,1.096470464989975,-132.5395203396593,40.20192779057495,130.14645397633137,0.3985786612337932,0.3850411291436924,0.5879627685939661
2.33,-394.5856421124181,71.13227451842704,161.77702108312096,0.492146396546969,0.3342965461837605,0.4643778867986573,-179.03821856591506,72.30129670738536,21.57032468340893,0.6173986847474838,0.7510063004212658,0.8009757705321092,-188.9704900372268,48.61774916311049,111.15198335777052,0.5093888884180914,0.5675918044859137,0.8303512920138085,-132.78726776142568,40.59695662747048,129.88619230710614,0.7022875214871552,0.329073289553794,0.9415404811504584
2.34,-394.59756151371255,70.880199875868,162.12967958183663,0.1821537851982613,0.0536912896970398,-0.0930917468572054,-178.8476737463415,71.86616656544781,21.999292330326806,0.6615576102915466,0.4174777213987158,0.9945143782501183,-188.5388235285956,48.5836844941165,111.05098246171131,1.2503908572641862,0.3096411039461661,0.965471163416889,-133.25478771287115,40.68958009293935,129.7761854946053,0.7806189347063464,-0.066564101581914,1.125787581960042
2.35,-394.6491027176983,70.6445819695324,162.24166558514665,0.3218767475876173,0.0488213726075827,0.2995371367617163,-178.7862329190253,72.07714402932581,21.68770172164207,0.4362923874163127,0.6799274350809701,0.4382385851271259,-188.4317061902458,48.98173499710935,111.22043101657768,0.7079632185127148,0.6679673887353917,0.9170428661626658,-133.61471559591791,40.4634877459393,129.75049927851646,0.3855701008937301,0.0134955420708245,1.2134629762806082
2.36,-394.5941992022248,70.25327847789306,162.3501613655543,0.2742532457638659,0.3464715830867168,0.2168415112134216,-178.44538356449658,71.97952711338604,21.23538798063769,0.6558041135256836,0.6432137332039005,0.2200766368428962,-188.42898552926192,48.52300623534897,111.38547650493815,0.90551565920698,0.7312213808045606,1.0302792779390182,-134.27814327066653,40.153135987808845,129.6208278786129,0.2807510999421866,-0.0458409641394217,1.1399064566774564
2.37,-394.3595622696587,70.21153044199902,162.43515242450994,0.3047822893128895,0.4671354762573154,0.5338165199382844,-178.93716270587245,71.78586267356663,21.55709687355824,0.4597373767301006,0.420243993752677,0.5310661468418194,-188.29506425120624,48.31125708332447,111.33792117731994,1.164496590036811,0.5443555538455837,0.3159382953935151,-134.8393702782925,39.74906777571177,129.15520028572251,0.3141215870689446,0.1074267403658959,1.638194966100193
2.38,-394.34984711910886,70.08421770168853,162.31471274520584,-0.0561712919578979,0.2215954723905937,-0.1323479714840042,-178.599175321889,72.11850758312056,21.38969336764725,0.1179559831201775,0.5160347781599244,0.0768995822209113,-188.2793869099407,48.48154251200317,111.67126130238094,0.1331316950569181,1.1039986990240382,1.0664976644583466,-136.3202548021815,39.14859028233544,129.23402790630306,0.6781719457644968,1.464880796586394,0.149178261029639
2.39,-394.4406876419452,69.85831789175238,162.67208539908512,0.1422635847302845,0.4641654885131765,0.11715670354897,-178.52201661419443,71.61637226953151,21.7458867071753,0.7033050993834128,-0.0835868468032456,1.0306424757295225,-187.77826065567075,48.28436430882313,111.26916722655818,0.8980745164676218,0.1777563977928294,1.0593930462590777,-137.15131875160918,38.754204666139216,129.06753652142942,0.5128723282311105,0.9207261823560248,0.386359486671833
2.4,-394.3730274778838,70.00719303233554,162.4738202144205,0.3146121282067145,0.735967979044495,0.1043391749689117,-178.0979473856482,71.8155193543808,21.75834885196668,0.541283215105515,0.2669572053725986,0.4236846969485154,-188.10892739836532,48.09007961326467,111.49476047165348,0.8914278806555902,0.608219049776725,1.0539238456857958,-138.0290672351234,38.25663332499669,128.70985524666153,0.6626552505053077,0.6544210155230732,1.0133646664682787
2.41,-394.3836231724594,69.70602492682963,162.61576075992565,0.4496334746779773,0.2571373149487163,0.2537274990116825,-178.27752678456432,71.61222570702893,21.36174630246188,0.8119607641795814,0.2915351943370919,1.4751781912031174,-188.567604541215,47.65827718931999,111.85964389187583,0.1467570581587448,1.2335179220505936,1.349547360546116,-138.83499252555387,38.116852276757896,128.42155794263385,0.0918539422757471,0.1466600091079404,1.9887548572704443
2.42,-394.25884323547297,69.79435848317948,162.7167167212153,0.3413085455731122,0.0729093013191754,0.2311113730874078,-178.37493794433573,72.08446777802662,20.67464074450259,0.2445573483323409,0.3022477889226732,0.2466112778371705,-188.19029047917184,47.87018788204973,112.2596374935396,0.657318967957763,0.491062612134509,1.095392120261392,-139.9899508774661,37.60187834537032,128.27610977057046,-0.0084665931659117,0.0142607495814821,0.9208277599292656
2.43,-394.4075198886837,69.92184243570703,162.63508782296643,0.173673003927454,0.3059304890887674,0.1363943053940363,-178.06529037068907,71.94346986683978,20.708098857775187,0.4099277251071417,0.2826380715574048,0.7829452117637363,-187.6300597598957,47.47455640752848,111.74090254447516,-0.001264293682812,1.7581889373682331,1.282565663736707,-140.86712365940724,37.09966116133181,128.33232809797073,0.4678659223184708,0.9362050086380418,0.8439666889082369
2.44,-393.83947716891,69.79882378150057,162.63710760336153,-0.0024873944738933,0.2115759737176299,0.1128562287756305,-177.9160993905022,71.86983455505396,20.292317020122056,0.4210480535817577,0.4849307474568463,0.1693944041311809,-187.7143736688755,47.43978177201455,112.09119261756686,0.1178969049676318,1.565025427938476,1.1933974916682226,-141.563623078475,36.365691027533416,128.1835254306954,0.5440396004285382,0.6179854082885519,1.072325319923244
2.45,-394.3034675016491,69.8283625264612,162.64803368211983,0.2063543854817093,0.1044622688814253,0.2961432430495028,-177.92494242604806,72.43925572288337,19.902300051088886,0.6922379214634277,0.0956419500041959,0.4673831520002938,-187.8487835027109,47.05408766707576,112.11924535407402,0.2310197396307768,0.2536186099792805,1.4877298966891128,-142.97453321585587,35.60897144753582,128.00479225930184,0.7019740080061817,0.03098033924613,1.0123775246080085
2.46,-394.2635499682653,69.83719026671623,162.3251982801994,-0.0586296587538982,0.0150883233066001,0.1447245776756401,-177.72496335177388,72.70069442214856,19.23370762927532,0.011125611756624,-0.1957281804477039,-0.0717043272916069,-188.0858449893331,46.7045768437391,112.39739475328965,0.2746364822454538,0.0625163613880815,1.1695971001084835,-143.97656776679145,35.25073842181466,127.58550293726864,0.2997586470720166,0.2110578293508362,0.8734090644453981
2.47,-394.5040060778704,69.74973757522584,162.0707335090834,0.1351028355442842,0.0421578880879375,0.2940303890760398,-177.43059507540352,72.65435059481479,19.260358459660026,0.0934322788101692,0.3561485667989968,0.6880027612720694,-188.2754762242969,46.40806741397703,112.52301288153116,0.2467708719058856,0.5575861258379227,0.903009310392107,-144.92544323630824,34.683301899284864,127.32250586957178,0.6311036309557181,0.2699428265032546,0.6254900176455203
2.48,-394.1363459566558,69.56444750007832,162.16633860251642,0.054635643331361,0.5513670710417095,0.20952224447794,-177.30317240638982,72.64339980185505,18.846132274070623,0.1818876324967501,0.3558467305301409,0.709222236351734,-188.5550629945722,45.36180352584081,112.6832785201099,0.2216022589810096,0.5465919491561058,0.887335327004829,-146.0393844051569,33.81153904732425,127.3144063149147,0.2746845682631091,1.0621736738974683,1.4661490996810789
2.49,-394.1025213839658,69.8974233996447,162.19551201967855,0.0344668977747737,0.5729123612940387,0.2725623268643076,-177.04979611827267,72.74006134859148,18.77067217610683,0.021047024585011,0.1726428715667452,0.1997522599474109,-188.77966920354856,45.58453759991942,112.78713031542918,0.0044640976569208,0.8280266994620958,0.8935634527777235,-146.89682198800026,33.64099032529709,127.40903856217076,0.3245767544915962,1.0089114203927307,1.0780854088590115
2.5,-394.30802794932686,69.66084770550816,162.0336152785866,0.1137026283106151,0.3030197815112729,0.6688839819415578,-177.15934533363816,73.00925429703733,18.43244452456056,-0.1294956832010243,0.1148263263382175,0.0972972498255669,-188.9021198416937,45.38246483043093,113.12264094453076,0.3049610973926282,0.7000832007842545,0.964173674703838,-147.8398072388146,33.22850655561276,127.14515995853677,0.2097393638018216,1.2601171173507988,1.0623408333127875
2.51,-394.5765173614356,70.1351314510385,161.8055247466251,0.0795738361208686,0.1579326107274873,0.5255552416505769,-176.63873854470344,73.10406246507165,18.40767807424064,0.2437119605374034,0.0366518574238401,0.0576346477295307,-189.5798918144948,44.7201230175962,113.18392448825853,0.4081081744798254,0.3579622817283777,1.037968978174994,-149.17328611856308,32.28482587460875,126.97638319277556,-0.2564822691794192,1.7620835263847834,0.5101396670847849
2.52,-394.3403626909059,69.97710002280367,161.6350233125555,0.1176967336960376,0.3216297062391443,0.522121074474495,-176.7540416690572,73.43572636883736,18.44201538389491,-0.055434448563184,0.2217591360122348,0.2488451611714854,-189.41843782781123,44.51750893567799,113.35397785664642,0.4331901643707927,0.3193134080416115,1.0113781930857306,-149.8919631736144,31.876352147983656,126.77927397224629,0.1997599480677344,1.7091612800721,0.2522430587435755
2.53,-394.68978247261407,69.83339242982208,161.53795074277085,0.2825154497361489,0.2159408321364108,-0.0089124794057385,-177.0414711837643,73.48550099298454,18.186207259741185,0.0432824268847162,0.3591743063204383,0.0730039097521239,-189.74179073876647,44.190434490479305,113.17657444809322,0.8015103002948032,0.1208343632793642,1.1936123253887287,-150.38996350193406,31.359939471540372,126.67351443858772,0.2438626341364852,1.7721309963400655,0.3626970640764995
2.54,-394.28918020076793,69.67469526598285,161.93140094455117,0.0216437037828596,0.3193182916093345,-0.0826889834322462,-177.06793316673242,73.16100739722229,18.207891530418923,0.3577504116885065,0.0507845944690446,-0.0839152644450749,-189.6725357314377,43.59444646650257,113.47536824774562,0.3521617848394616,0.6339123297010738,1.052420154993183,-151.12687432163762,30.87593084973089,127.03661738229374,0.4229413679311818,0.3464889668791119,0.3908514173309589
2.55,-394.1047809083093,70.04596980590212,162.24481895244438,0.0262482820915415,0.0802248351523332,0.0247438962184441,-176.56350615746317,73.43401445292001,17.711203844556618,0.479252064129459,0.3353662924586837,0.5070899930319591,-190.58496297695012,42.899419127117085,113.49426373550256,0.3750788407192602,1.6887868664696493,0.3561675996470184,-151.58898751600907,30.578436883263105,127.00314363814822,0.1139996121149354,0.8070273387172794,0.3710299350163057
2.56,-394.16562224731535,70.1963112660086,162.061741423108,0.278480210832013,0.1372382307772123,0.2479644893416291,-176.81266781181282,73.41459795864104,18.024160088744285,0.5945758089333584,0.4010242903201167,0.4320723277703399,-190.5255899931392,42.94996005530354,113.3883470991034,0.5145172700519424,0.5750504007220524,0.3574788130084304,-152.05939910144286,30.281823219259337,127.10165637290264,0.203586408798361,0.3210034627028323,0.6166681967453168
2.57,-394.34994528696507,70.2082467903345,162.1928880346596,0.2226122474681089,0.1646091940988426,0.3096555451461794,-176.96811490703124,73.34486014550829,17.93157162283126,0.3105340943227194,0.0613106173088847,0.0230625342089961,-190.44308795525956,42.90746386986184,113.75297616485337,0.7803492988167502,0.5155151758274854,0.9570396862934522,-152.8273794102493,29.709538925112987,126.88529693646552,0.261540126991035,0.3067562504517417,0.6422796949805576
2.58,-393.8687131228066,69.87744329956331,162.43584370718204,0.3067174365199761,0.1040133581500816,0.382361297568059,-176.7297207325593,73.37273797013728,17.872263396548714,0.3259225335512226,0.3102219316391209,0.1050109524010601,-190.4817777517377,42.9412950578612,113.67780844993696,0.3564655613187141,0.3519665178638096,0.0847884510655946,-153.34199186664395,29.293241046197902,127.24004790230669,-0.0110744745845817,0.3172303377518902,0.6441358496748784
2.59,-394.076199904904,69.9461449901746,162.55353678288537,0.3494356576648116,0.1620960789248628,0.1539009898599085,-177.00268986004508,73.47812137142544,17.586684859760062,0.4437660361299977,0.0147865441490572,0.0768975347704132,-190.85386150104756,42.45590565885498,113.61937742522753,0.3381303235479712,0.648961245341465,1.110445373670717,-153.6313599625503,28.934240175668076,126.93647556292598,0.1742335749640273,0.6912653830681754,0.7156082062116231
2.6,-394.0221408193265,69.81696356587126,162.32880877482472,0.0807527787335288,0.1535900349821759,0.3074925290915889,-176.84945207947376,73.68297235841041,17.4862005000177,0.4811618423205742,-0.1481575754042053,0.2802253213793724,-191.19365126069576,42.311654917357856,113.54040408309244,0.4875827122399644,0.5111898763302296,0.7705848749172288,-154.4948467010655,28.59901840341278,127.18468616011316,0.0030433360161665,1.3694061755098663,0.5840784013660579
2.61,-393.9786467751304,69.96038115882239,162.3268517626659,0.2871323740360836,0.3928926036310642,0.1708899768411114,-176.52687519477536,73.60895250545445,17.50519005667134,0.3656102581815802,0.0521906264912221,-0.0542740617543566,-191.35753990044324,41.92484479674127,113.52442468323824,0.4371106431711797,0.4325202822506893,0.5955537857051796,-154.76884740030135,28.25327340049968,126.8404717972706,-0.2357817617059877,0.1964887387241694,0.4997662638398641
2.62,-394.0442728956143,69.69056177607993,162.4031465468291,0.1668554769803746,0.312280809611915,0.1606488415317998,-176.79901327694057,73.5063832672213,17.47686564809513,-0.0260831800967595,0.1599822843356526,0.2324174689410983,-191.55621118241615,42.35721690536782,113.55724166149824,-0.0846613737434516,0.2060019824247844,0.8688196975481629,-155.24755619323946,28.167474921058567,127.18094333240506,0.0156215317386709,0.3571566988846726,0.3752399913248304
2.63,-394.0162140932418,70.03766677985388,162.0240904184147,-0.0218612619592102,0.506411676417143,0.11728329401708,-176.80573504558615,73.35254245951073,17.524417764806635,0.2004856676354659,0.3484829645065244,0.2913857778437648,-191.28508286239008,42.20328838911821,113.8495879249563,0.4560458176306383,0.4490690450611742,0.4002179994305751,-155.69462876422912,27.737078797109387,127.06508897793776,0.0917180980223786,-0.187940505700972,-0.0244061275760764
2.64,-393.9360513112191,69.9673172151538,162.48059477655517,0.2637109413128868,0.1445480793004218,0.1166996990722215,-176.59312521847332,73.683045737868,17.385041546928697,0.1084973536064669,0.0183773365338543,0.267721283909603,-191.4547599998473,42.065268589261926,113.5800256602777,0.2045278234294422,0.8638901976836715,0.3434886001221562,-155.77407347266973,27.51504968810539,127.061767316711,0.252590890889643,0.1833661905559526,0.0361071228299456
