0.02,-116.12701478437724,73.46389459909757,159.53741174224533,-0.0771475532743283,0.4667432941319429,-0.2195228214678375,-125.52274290172684,32.23865675805309,69.59585103843187,0.1239408895087425,0.1667910414669313,0.0662198204202225,-171.01631930726597,6.011765163761632,2.1414008423782533,0.0037461527922815,0.1284599679524211,0.1832712390554887,-167.82571680766077,11.331873422171077,20.390102551559966,0.1284138733901524,0.075054523699081,-0.2142543946142769
0.03,-116.12242980104358,73.64762135049018,159.18080640286502,0.1572635076593483,0.3930705047196454,0.082054273141658,-125.66024531048738,32.18280452243611,69.83180897412174,0.3153181810990285,0.0967440193660791,-0.0826534547206623,-171.13367924134,5.671318868840786,2.0528667521883337,0.1602776332288786,0.1065991674944244,0.2836529237843726,-167.7479538263904,11.468842429112348,20.49426109115514,-0.1248481926936434,-0.1025948873282219,0.0147066894665375
0.04,-116.28549169387526,73.76461920798222,158.9776987553672,-0.0504461117914351,0.1256930040224688,0.0552828993724757,-125.59360527495548,32.048022417848365,70.1094174847456,0.3028487178461453,-0.0389896993040007,0.102896798149688,-171.08122384621566,5.639039488345185,2.197155120644651,0.005971823278179,0.2255978661064361,0.1886801739073428,-168.13424679314306,11.453161402378836,20.52713174813296,0.0006510905771363,0.1093240918553759,0.0851834070246087
0.05,-115.9708578404925,74.22527363930173,158.51404869494473,0.0245105746532442,0.2995185625495111,0.1055117906785236,-125.83193692787673,31.88139423690971,70.41951912114402,0.099317368951762,0.2281705374349785,-0.0060924484490333,-171.2013735766372,6.13465310042358,2.0117494419471478,0.0180167442938096,0.0310483830715104,0.2945456185811163,-167.74749311411458,11.43798652128851,20.531056333243367,-0.0358989139649115,-0.2058622428576944,0.0474089622329813
0.06,-116.14534112455102,74.4457293028367,158.0711121932858,-0.0338084601100861,0.2528786688347298,-0.0077592228659969,-125.9643234854472,31.610370526510653,70.46886845729236,0.1056604752060866,0.3022695058530141,0.083625839477322,-171.72790377058743,5.856052254136631,1.987450135036219,0.1464477307426401,-0.0036833222455058,0.2515333518179585,-167.91776387143267,11.432650364494249,20.414160482257728,0.1869306541133024,0.1545583701569377,0.2061398909146161
0.07,-116.0954646916452,74.70710676088176,157.50510525535188,-0.102465223735653,0.1714959391405882,-0.122937884457473,-125.9943018416228,31.20304555211609,70.30697364215712,-0.0141787237845247,0.4889669731783657,0.3025790423203576,-172.0804478577618,5.889926435531875,2.340996817482938,0.330344425695534,0.2402605814561132,0.1988459723903917,-167.88024158124298,11.531923377197913,20.46271069093665,0.0596038284051313,-0.0996383456518586,0.0626025379551318
0.08,-116.21195324179928,75.3044700776403,156.86991368902284,-0.0379370745089907,0.2079135163115158,-0.0558389818402494,-126.09223447672704,30.842975554193927,70.28342344592042,-2.783940884673597e-05,0.2113684555158514,0.0142070842565025,-171.83753725369118,5.801117556150613,2.695509891595796,0.1639120922607446,-0.1714041799254642,0.3912669169254104,-167.8805232306397,11.56303955020996,20.269727741980063,0.1718857241121262,0.0318147262427435,-0.0704632997787077
0.09,-116.24767000690689,75.34077697476432,156.36824849565988,0.1491761177613217,0.2613858032372022,-0.0872910137224738,-125.96129988342496,30.65314381896188,70.29558230070836,0.0749345128560469,0.224186776648387,0.0791684638870729,-171.22152879981132,5.987433533934281,2.5287092991005946,0.1371417036379732,0.0817880518968908,0.3773332444875216,-167.8312802587228,11.631899966700187,20.459239046576624,-0.0689549964044857,-0.078237788362422,-0.0252775612526289
0.1,-116.598302419302,75.6026846672297,156.08030161047722,0.0392698178796711,0.1406426977858478,0.1473277696612658,-126.40822120168792,30.299605188621445,70.37396319589577,0.1442911416078239,0.1624843413780917,0.232229570714195,-171.347805452264,6.187735380074967,2.643777866256537,-0.0308942526842904,0.1920570227027265,0.2433313930575557,-167.74438140851169,11.59004510683653,20.13459302029215,0.0194821551782149,0.0924400207810057,-0.062926612938449
0.11,-116.7820199709651,75.90284980866603,155.70636162675,0.2181394062207935,0.2315075149228029,-0.0094737227053568,-126.358040868131,30.370080612760383,70.26105795912626,0.1955469918010608,0.3857035127720125,0.0527009012731312,-171.71380053005046,6.063468123212589,2.685844321743533,0.0879650063160823,0.118661431012617,0.5749903627315656,-167.82921079526486,11.593716502480415,20.301025912383256,0.1251223316516687,-0.0044933867182028,-0.0339620028688298
0.12,-116.99089417974432,76.39635264790566,155.05401730106297,0.0717516845932988,0.3460004493005562,0.093964970229963,-126.45480669486103,29.79946293644438,70.26486998157827,0.1713147567989721,0.2587185471263699,0.0486705655144474,-172.1766636112095,6.047458994697963,2.8709900702705795,0.0749318914849423,-0.0198615829063993,0.3659175926695486,-167.99680173510606,11.48820280293346,20.490673728568765,-0.081573066580232,0.0037924840030415,0.1364712596391435
0.13,-117.2160173551133,76.56897912993652,154.41238954333147,-0.0049720944330183,0.2257315103572089,-0.040729565631472,-126.59861411131494,29.56392287486259,70.59084210834571,0.1517151764175558,0.2044398469244903,0.115101131375723,-172.12300750028572,5.930581474551481,3.062817848673437,0.1262392953492474,-0.0175558446132508,0.0239975028084701,-167.85719860655138,11.31561783198778,20.35820216796503,0.1149702685905258,-0.0351167314451741,0.0159538832980446
0.14,-117.24000648700805,76.87475863808109,153.57708761398624,0.167222820827075,0.4305378362127029,0.0127517032711398,-126.87029124529236,29.42382809400809,70.6645934143165,0.0109282014920746,0.1753126835664486,0.1903755180817852,-171.76788136239767,6.171043615939387,3.2896878888446186,0.3486937368380595,0.0463517594824171,0.1169130638931313,-167.7906613798215,11.673791124272492,20.52676308799008,-0.035041924330234,0.0011128341667906,0.0716211937989814
0.15,-117.5404847477211,77.2278229783471,153.3207829580856,0.0026370593746978,0.0640427707604827,0.0097704756534035,-127.02048116846022,29.267662129713727,70.54124099496215,0.2240878404418431,-0.0098340876075417,0.1601011956061716,-171.74709310880877,6.247385483910528,3.631214798820772,0.1281533470120061,-0.110754958943224,0.0193446884376277,-167.6538127151277,11.478718172359148,20.495000404162862,0.097335242175459,-0.00367697785785,0.07637531643442
0.16,-117.54873576178228,77.3510829201571,153.09411930018203,0.0678472811239439,0.1357738861980646,0.0158363263182927,-127.0435001656944,29.065603703500976,70.93975023574372,0.1836402077620997,0.018077006086964,0.0137285915134592,-172.04748415377864,6.474672797789864,3.733919637363174,-0.0233138746151103,0.1114495636735129,0.6248102567847684,-167.93949607653929,11.669326861719265,20.46229256619555,-0.020412562630519,-0.0317785862276963,0.0939688278058527
0.17,-117.957727411506,77.60693983977357,152.46138592524014,0.2040588464626705,0.018368833078562,-0.0776730496594651,-127.137724031014,29.41188152608217,70.48444591420123,0.2598281947515258,-0.0258550653374151,0.20822112024844,-172.9150494986724,6.1623971971423135,4.029181936140011,0.1426907202983905,-0.1160686412048683,0.3220817524396812,-167.7157755497059,11.594443201248977,20.388741677309543,-0.0508970605216249,-0.1556391275854501,-0.1254388464216095
0.18,-117.99344338080964,77.72080238225021,152.9095227436322,0.1158861807235289,0.166556557058354,-0.040302480373216,-127.3855455023614,29.55313289509337,70.38782129172257,0.1605063194243054,0.391643456649651,-0.0244132865148517,-173.03321473056835,6.130380902007434,4.410367832144119,0.1144137525902861,0.0864810491815744,0.0615851998613347,-167.99839109927578,11.664364439686167,20.46284713309859,-0.0320956226675348,0.0575508898140182,0.1602407515649285
0.19,-118.225386686398,77.476056876252,153.67766340293193,-0.0103406111740148,0.3374637750984949,0.2408204364349942,-127.70303746904804,29.91130318312348,70.6242067181866,0.1198287251717739,0.4807426652458989,0.1283397631268775,-172.97014743679165,6.1050885379532005,4.62734665137354,0.1803801856161218,0.1451864344002714,0.1061279944580173,-167.6907102894327,11.488744772826404,20.611717293704487,0.0833000985173537,-0.0263648092583784,0.0715983533173689
0.2,-118.48697698491104,77.32209334377717,154.5321176241264,0.1932050207097299,0.4171521468067999,0.2007335191068073,-127.72942318201854,30.63905269967628,70.67072786579472,0.0464889263557684,0.7563679474998207,-0.1036500314650416,-173.20918427230876,6.811275093924979,4.66235832930613,0.0224296822820313,0.0229859988159409,0.2183054900717331,-167.98250797370474,11.64451778008539,20.50662389136076,0.2709687072875701,-0.037329423595258,0.1967242965649226
0.21,-118.76322774940442,77.11526022198348,156.31361225241636,0.2073727837351946,0.500939626408073,0.2082540268321348,-127.7174225477496,31.143346931773507,70.78084913968777,0.1411175191864044,0.4023818682049049,0.0205736384538252,-173.30764502962182,6.367624414490619,4.970260171307554,0.2176086547380012,0.125412517827363,0.1744857865968257,-168.02990802618237,11.561407625479216,20.30493802650506,0.0489570585564045,0.0201264146295728,0.2451647523603554
0.22,-119.08603499727867,76.32731992385844,158.15848859775735,0.0066666982146044,1.1247789234883756,0.2305099948689164,-127.834332618368,31.61039674838293,70.58990709117488,-0.1139435729896155,0.6628144427127968,0.1115590942284551,-173.70938156545532,6.581653854511417,5.448205121126634,0.1326339760452402,0.2483587661981591,0.1122584157337826,-167.97116248492486,11.648812461793918,20.44836260002977,-0.0514385946585153,0.0911607151618023,0.0796158873648539
0.23,-119.18218757346077,75.2501149243717,160.01892022331006,0.2371920111474577,1.5727725754652548,-0.012571001689933,-128.101595602129,32.03592581322582,70.2233500986856,0.2015808681979719,0.9349950934430884,0.0396241635779092,-174.30597332739993,6.693581953145068,5.628979482544942,0.1639841276267136,0.1362551619178171,0.587562372086009,-167.9912159486609,11.545092034076031,20.531820601096733,0.1526407716542948,-0.0557519973382948,0.1460811274786241
0.24,-119.50332395709742,73.66617848311213,162.8636442851234,0.2240639190052598,1.797621943510909,0.4302077798851236,-128.24076205489635,32.71583889641178,70.34322181145406,0.2212825027912981,0.972251881926756,0.1450913129167867,-174.90182048349558,6.689002515540458,5.57357483641449,0.1003039362698954,0.0009861365570519,0.5918895546667605,-168.10167851205568,11.395961486633045,20.36059130893468,-0.018671351563504,-0.045927992047889,0.0996370264107279
0.25,-119.91959714931036,71.91697231544707,165.66779130992424,0.1039324384725527,1.7876005302945086,0.2090984477008186,-128.40166306491497,33.71800453155129,70.25740175567013,-0.0588150834116721,0.566007598583623,0.1919688548681688,-175.2929207962917,6.765923789070936,5.436543023396026,0.065001724484746,-0.0812704612606331,0.1889790286986726,-167.6637325431391,11.54774823423419,20.40923450994085,0.0718720228302641,-0.1115218534735851,0.0141557559443975
0.26,-120.13844722694036,70.08819172702636,168.15322026448828,0.1906369138967613,1.6128008479196954,0.4594751685087767,-128.57879724259246,34.30694780844561,70.10699227715786,0.2273732259049719,0.2557735139701589,0.0322714324134829,-175.32263042680398,6.808898030188072,5.619311436457068,0.0096354737229935,0.0824494702789367,0.1406735746919412,-167.80297722844426,11.642661302153607,20.46268837643357,0.0904771344065502,-0.1798526965473095,0.0170392931660355
0.27,-120.58837877409164,68.19462534090472,170.37021857910065,0.1651953756550462,1.9080702207844875,0.4182549753020627,-128.4123054464949,34.62440267337838,69.43025742431396,0.3818248522851232,0.6467926815029119,0.0336060904145194,-175.29210377826496,6.937034552702548,5.595902790277444,0.4344214406456966,0.1296737417268013,0.1048815269253944,-167.98261697952353,11.42590736164294,20.38804171991355,-0.0437612753405101,-0.0399594695542819,0.0278956166652969
0.28,-121.6016465600198,66.22032026640876,172.57196386835457,0.1867571802887554,2.006803834714933,0.4205786728875427,-128.61299811006225,35.74091127217162,69.18387827876407,0.2449730252134476,0.9860788238563336,0.0487314475258549,-175.4507715793442,6.89532027955378,5.881669209949549,0.2724005563848215,0.0808452470062708,0.0264204169380117,-167.91348491512858,11.540221951562335,20.37469254377423,-0.1012210497473094,-0.0143027170474104,-0.0551872275996953
0.29,-121.9113385781324,63.99663915257777,174.03517994721344,0.0290105341184738,2.001521385098618,0.0135403570389518,-128.71066887812069,36.56759252363524,69.22825532907885,0.0325765911827644,0.6763446351366877,0.0689337568138327,-175.62883883317346,6.866904529432471,5.969283207254393,0.0262272226541558,-0.0812159236423948,0.2440327843463605,-167.63240735060907,11.396427885107462,20.131311149199508,0.0094844395570423,0.0175709417498638,-0.0448741963583513
0.3,-121.97851210038316,61.75991216962875,175.13121977359538,0.0776981236364553,1.731263601535564,0.374200775767314,-128.85419586152815,37.41843804965622,68.7615801805782,0.3440669085962993,0.8734642919884749,0.0750906049713692,-175.85920121056665,7.002448427360657,6.049247945702439,0.2049846757961607,0.17389018207005,0.2984502329614169,-167.8980447016032,11.54070876955485,20.3823645799972,0.187513897250367,0.1373772500762393,0.0706151224118343
0.31,-121.9328152466181,59.70215967334824,176.0242655246231,-0.1397837365205648,1.4653460060262002,0.3875999482211342,-128.91396251193305,38.16944875888212,68.12711829776845,0.3937319486206386,0.9059329542565626,0.3018178546438984,-175.90365190528732,6.849648189553609,5.881243620306142,-0.0002139263930319,0.1114112733399486,0.0280477276045884,-167.9211552120954,11.27389122620101,20.47473817208733,0.0004559653632447,-0.044952028070216,0.0410142782174166
0.32,-122.73774507187404,58.10316248185754,176.93896353842882,0.0594073713756304,1.1467177086302411,0.2441143584747871,-128.95182089389317,38.98836840639838,67.85425918514744,0.3863239323698449,0.9784241718653977,0.208284684312793,-176.3825497434811,6.975525577582089,5.487637813142547,0.027922624766551,0.1641283810491825,0.1107778854780233,-167.9435873197777,11.57869115710816,20.31059181406241,-0.01654627412457,0.0988048836213457,-0.115725412215118
0.33,-123.44951623603994,57.11628957392164,178.16707522985723,-0.0520819425015309,0.528178771033451,0.1071249616129066,-129.15336705821252,41.11203720477656,66.83651578900871,0.1688316815853418,0.8337340387245359,-0.2036809156291721,-176.35507397674843,7.062651294101923,4.987994308726439,0.4265085359608927,0.1896073058832236,0.050658945132418,-167.77107623165645,11.449346094083298,20.569596905265684,-0.043167928900254,-0.1056715545510989,-0.068399471265365
0.34,-123.80245342117117,56.35971736610394,178.60058450451317,-0.0929582756059181,0.7642366183673779,0.165059166909877,-129.2679931162156,41.90612344381462,66.19386411159194,0.3863809215509176,0.9283601961087676,0.0707478003334344,-176.34607737774144,6.993899186497638,4.740698382287038,0.3101034734602357,-0.1785429817634143,0.1485655605791102,-167.67067492618418,11.594037278593598,20.55440385700442,0.0727522744394304,0.0631177533180979,0.006545127936099
0.35,-123.7805184802733,55.63635991807601,178.94425748365592,-0.0297367818430808,0.7468301602512202,-0.032306171350217,-129.19959329713205,42.71714753643917,65.91987623610812,0.1820604889708826,0.7242153578480732,-0.1178533972910766,-176.53525850619604,7.221707135907894,4.371058191849218,0.2523952852414356,0.1726606451668643,0.1749893064553048,-167.99850994878224,11.55633009910174,20.41898268128241,-0.0233507301592181,-0.1304223691400311,0.0401555957206573
0.36,-124.2178582404735,55.56956435326927,179.03049839625,-0.1657878351408473,0.3995772352364146,0.1031146813919574,-129.4596144356455,43.48726393388547,65.37821844401067,0.169785649822256,0.92727437717422,0.0632956417777427,-176.60476040005796,7.334479864499663,4.069856992247283,0.0746230167491736,0.2269291463007798,0.0814735202207524,-167.7435541922336,11.423147608064223,20.43821322560839,-0.0313702708846706,0.0817318226710204,-0.0111627210184184
0.37,-124.30565872536732,55.3623412688349,179.45058929727074,0.0176565655629271,0.1953960722153765,0.2573079943283861,-129.12474311157033,44.79354779025346,64.97030477759373,0.321018516372639,0.9926766947953428,0.0147511149289371,-176.9215225556819,7.219517805097072,4.018789641324854,0.3802160438063487,0.2291566981695322,0.3932393304844201,-167.94977091572568,11.389155265223197,20.43479244196897,-0.0616615996284927,-0.0318075570243345,0.1057550918026737
0.38,-124.56823230977449,55.77288048325375,179.59422799451292,-0.0114778207731295,0.2995010068878942,0.1192601544208808,-129.16885554562464,45.75166700027166,64.50215060489253,0.1344367007774086,0.745185582274337,0.284051984679385,-177.2536926230081,7.330635895090062,3.8285554772475954,0.3469179977174952,-0.0932152672365525,0.0876091739281075,-167.9398915886786,11.507214287089198,20.43102324830717,0.0267208938608542,-0.0781043015012059,0.084462791857295
0.39,-124.58651684364646,56.04920596929498,179.97560595692593,-0.0619020289445137,0.710153133262887,-0.0863305499085255,-129.126894525009,46.38047980372033,64.35984913507487,0.1693303612661306,0.9529633152720666,0.2234933423608852,-177.6254255339301,7.375446013704469,3.2010932618275865,0.5055767032036651,0.0866565107580015,0.3938593656481201,-167.9181652704678,11.454255131953817,20.67604097148874,-0.0924958902714632,-0.1717791903389048,-0.1365158446553049
0.4,-124.8238984205457,57.129476945029296,179.98489571005456,0.0109526142751273,0.8022650930996923,-0.2250101910997387,-129.0539191790911,47.09790137045531,63.82757180221212,0.0413476973120705,0.793895561257998,-0.1253667135748881,-177.77382689093437,7.053911367081655,2.6968431194493108,0.3511164704897027,-0.1962990261104543,0.2183576320289981,-167.78355353517478,11.562416084923642,20.54871630341645,0.2040401181583426,0.1100676078239754,0.0727391893380295
0.41,-124.44776134103893,57.97545421149354,179.85029109231562,0.1195062441457022,0.6018327249873306,0.0670287690692324,-128.76157474159066,47.66270082754493,63.71476415217517,0.1330322649141606,1.232122373254679,0.0463336056030473,-178.23536809233957,7.166623604245687,2.355304056621936,0.3613237714508249,-0.0512141384513888,0.3060338261559649,-167.6877270263173,11.402527313296812,20.53110744138796,0.028747238920424,0.1118879038090239,0.1694147445654535
0.42,-124.3192403062734,58.59508561165494,179.60925056384988,-0.1068806224466493,0.6604742228905123,0.1280309059540516,-128.80803819582584,48.952337076120784,63.14116524559992,0.1024889109178919,1.056459371181047,0.047878924409293,-178.71736924708304,7.117753204099746,2.109401993876444,0.1495644461091451,0.1017328724941002,0.1941652037923634,-167.32128479104253,11.335913112513802,20.89625398159159,0.242565291909353,0.0620655512237783,0.1182455706489515
0.43,-124.56917668777533,59.24223419037843,179.78192419789863,0.061807031262536,0.7310637571727245,0.0938327351631065,-128.9857409564035,49.9620791063244,62.75173614923448,0.1091147239870835,0.7302549159178836,0.2486615461856586,-178.9648342663311,6.898103366152276,1.7623748019678749,0.4037034911893276,0.0868744053324108,0.2264322673245303,-167.19895437760255,11.283759782036675,20.980564020017606,0.2662425412794954,0.1114774908348762,0.2716039458582579
0.44,-124.5427167332559,60.04776396713234,179.86253131153757,0.2511542425773221,0.6843514557117962,-0.0823812202747769,-129.05683806479846,50.51409716426127,62.38026731906133,0.2403704827909498,0.6936674812244468,0.1502201576186641,-179.24875625070683,6.916777260041124,1.197269425519782,0.3861923878233576,0.10283496793036,0.4718448325937215,-166.88026544645794,11.211420493555115,20.956693483975823,0.2385486185467371,0.3374396594549222,0.3588496501023009
0.45,-124.54402018186832,60.79700923340747,179.9867767235138,0.0025562885130036,0.5799883107934782,0.0115548625008179,-128.85155408477135,51.77219350414606,61.91163339305407,0.0601033765964917,0.9766927056028376,-0.1036690869461277,-179.94558931409173,6.873610090086249,0.8593470181586329,0.5798598293221591,0.1855935137790406,0.4484805582922784,-166.69544755607276,11.33806212737001,21.197343695928808,0.1683581196963595,0.3907345323603582,0.3839425988381398
0.46,-124.38901228292866,61.67833655082343,179.58478930274077,0.0944759636541415,0.7812184608504117,-0.0235947279654372,-129.44740970946043,52.765707166215,61.65435243285465,-0.0455996246583109,1.219748036631915,-0.082050959944768,-180.28818140568887,6.500518560887132,0.265499048516074,0.5539015860849984,0.2991860431797153,0.0405002129357548,-165.85721478309182,11.17124676106557,21.255733935006816,0.3378642410079235,0.2602336470484949,0.5432786323234782
0.47,-124.51095545290792,62.48247029921221,179.73881848092296,0.0119364709742684,0.6195557728867702,0.1090837863487524,-129.6762508447597,53.77980290245321,61.24803834483209,0.1604479896859308,0.8207598918225668,-0.1886889944927226,-180.4455218083245,6.5817767198039006,0.3757120009964999,0.4084904971843116,-0.0991368818428522,0.1948142152204514,-165.19446923667445,10.984781483116564,21.424323567093943,0.2714827449014048,0.0649953825067919,0.4361405296307219
0.48,-124.4711878060442,63.529453350820695,179.65041614333816,-0.0881413600552917,0.7458815071133451,0.0654068138026074,-129.7146560639531,54.60243724882163,60.70619927604654,0.1555701206283115,0.745695486975809,0.0203472968921197,-180.82788404947237,6.5260914341548295,0.6581930512759733,0.6840930446506618,0.1468963269662762,0.5477478909152113,-164.43538967781905,11.052268728554871,21.29418866053114,0.1813514160093615,0.2463060104664867,0.7217010723078514
0.49,-124.4857966497096,64.98564935177136,179.49940857037495,0.1292269524741059,0.6466318225761258,0.0736293504508876,-130.05178914420011,56.88083805412905,59.86661628900152,0.1242223309966207,0.9522926267006157,0.0259726523530275,-181.739418780797,5.640747150611781,2.092919259944598,0.6754249144524853,0.3983556997024203,0.386160729755328,-165.79895203850947,8.041185190576059,21.479815170204574,0.9564891458404589,0.3955947840968148,0.4691129285391808
0.5,-124.72052040276718,66.01739101817176,179.30515404285765,0.026339246975243,0.4692009510473505,0.1391653911726426,-130.47024448953806,57.76134230098531,59.381576942325786,-0.0530946205975154,0.9489397195968274,0.0847034379291695,-181.86974954049444,5.276207862020037,2.92883842358786,0.7269252224287872,0.3483307315946166,0.2373806433178795,-168.34149791950102,5.070698930059797,21.481726029633336,1.5627258578554886,0.2909077611661718,0.2641728909813841
0.51,-124.76204907591774,66.16198779922958,179.40034127503895,0.1213745634359634,0.745000701579266,0.0095370721822706,-130.29478563264863,58.63212130505968,58.98326819118782,-0.0870000431739261,0.7491131465127567,-0.1026048758543464,-182.33267020076156,5.079653439035954,3.2058710156601364,0.5125482534369706,0.1363330831864073,-0.2293640318483159,-168.21488615534318,5.294645388110054,23.07084074050709,1.3997215672668353,0.4679140329504085,0.3468011293960928
0.52,-124.65179691726496,67.31259732291477,179.28477407732694,0.1030800096617875,0.7428137722104649,0.245316369544585,-130.68982245789726,59.7304604624313,58.412470306919765,-0.056435474512885,1.0464017245422206,0.1283219513766125,-182.35062262322,4.782934436913269,3.959836725941058,0.5469390450450242,0.3598906772912994,0.1906689052247754,-168.03504028811076,5.8910242260466426,24.57047377766193,1.123046224381862,0.1121654238561919,0.4532115202306495
0.53,-124.49772360199512,67.8244448444133,179.38612552267458,0.1354710644965222,0.6577817961029373,0.1281478447559004,-130.75852837295645,60.726694941526304,58.0268688073245,-0.0386302790212633,0.9237808988424931,0.0052119502448961,-182.84687247512537,4.433778984216684,4.3906993002266805,0.6732938485509317,0.4081148909096289,0.1849575335956945,-167.68167111938294,6.382213627586901,26.005043757886856,1.4469985573782542,0.3450914701913972,0.2291811707968077
0.54,-124.50815079921472,68.3542528965987,179.16019358754647,-0.1244661535945679,0.5413682235678395,0.1169536978394023,-131.1287225431518,61.68675473636924,57.69409081660924,0.1066843824989407,0.9075899966993028,0.0427282757402488,-183.0830057537317,3.96339069530676,5.125751301763308,0.7174111625460027,0.3811080775861067,0.179472698629017,-167.55515600787766,6.956283086825939,27.584104675490416,1.2569129156678072,0.4961023195780233,0.1448012602287325
0.55,-124.57444878011648,69.16307942010184,178.8300791057194,0.0675228421864194,0.7108072293980576,0.0745047275824433,-131.1730336846055,62.77555223103573,56.96654262059989,-0.2407372647534723,0.959493273638083,-0.0063270556848224,-183.0356732747236,3.85216606628926,5.90297111572463,0.5074063727348386,0.4807084188041959,0.2265197829218961,-167.675805671334,6.954210856324611,29.238591967586583,1.4742142349164369,0.4055877485792706,0.4429294238508474
0.56,-124.64253589794086,69.72971286363165,178.80394075554773,0.0854883430136591,0.5383973337975502,-0.0381393627405945,-131.42344385349102,63.62378648501167,56.41252416252795,-0.0611254615436885,0.9790763842220802,-0.0642921603752322,-183.33115854907408,3.230285124947367,6.70484980618633,0.5023079405051957,0.5303826109861729,0.1293463623494156,-167.2037897082733,7.953562721111702,30.917088682118585,1.469700133785521,0.3128125652729017,0.5434489069480574
0.57,-124.72809740168748,70.19645229406059,178.7564368735568,0.0486088389237309,0.5736380890044651,-0.1190413204536604,-131.68343908653569,64.63873049279924,55.85352770517305,-0.142187057786034,0.873387765646409,-0.0317749344946446,-183.6600506461879,2.7078437530106507,7.302201970013314,0.5196928479626699,0.5896092780501461,0.0209868241338418,-167.17446756234057,8.44412943075228,32.35133685638748,1.4016072093765446,0.5517469388882749,0.4649363806266626
0.58,-124.87742172545812,70.75535659748456,178.690004642462,-0.0419370319387028,0.51205540002395,-0.0385478567900409,-131.94435329136957,65.420580928666,55.26424429156758,-0.1181249248417682,0.9693900085949816,-0.0847613416526017,-183.79767989757065,2.35054582774912,8.018355814794553,0.7247409394257511,0.4997115977285725,0.2799656271072437,-166.86703237589546,9.034839235177172,33.43073085809527,1.214701411992509,0.5575197936575657,0.4207461629136929
0.59,-124.58395670324118,71.69316948558641,178.6519808111492,-0.0545285317632918,0.4384063233990567,0.1565380436194049,-132.09483524629974,66.32662466511958,54.48951040152746,0.0683461679618708,0.9339944478519028,-0.0266809477767663,-183.862174468286,1.8176007398118812,8.728228526959512,0.4294573968036561,0.4280221055803789,0.0141466632626282,-166.65314862844295,9.449291297476025,35.23017325683052,1.2845274043899286,0.5352228341324602,0.4363854373752929
0.6,-124.8152845129314,71.70844005158025,178.8377371382173,-0.0280232799373223,0.3662852515998264,0.0171074251285647,-132.34144953378032,67.30678965812494,53.60997617209706,0.1157170357007561,0.9833678313290624,0.0031279201724888,-184.14428475683027,1.647882115014783,9.326161326934828,0.7009247967633275,0.1773631598942368,0.1692149789927328,-166.53897903671455,9.997700222318006,36.81951200402193,1.2215094934110808,0.480446428360923,0.4744624761984797
0.61,-125.09233328537351,72.64833730315401,178.34564934577006,0.1143956359914962,0.412898074313595,0.0414778870380242,-132.67508211646322,68.21693300841554,53.08357533843402,0.0169185290236325,0.6797169005899878,0.0513672362170286,-184.48170634178675,0.9385303284414644,10.103427971816988,0.7475896558400815,0.4142786193720047,0.1632573218703749,-166.17945928014777,10.67908873471478,38.34013075327335,1.1770345743082773,0.4228243893528162,0.3450573921620718
0.62,-125.25381730238868,73.09286314091534,178.49967474614377,0.2322521144399751,0.4456224837574306,0.0672327628629127,-133.18323920052825,69.05512226928583,52.24949374529218,0.3206120323349991,0.8392720773424273,-0.0844976447516347,-184.83135870163116,0.7009869226681216,10.995833454719348,0.8258219516643737,0.3089720288754558,0.5592471950123128,-165.72034794908438,11.205568478487132,39.85489611449851,1.1407074095801328,0.5360011608389941,0.2255676633415401
0.63,-125.2124116274604,73.54354105442606,178.25977946469874,0.103237088908025,0.4016014355026086,0.1052590877862731,-133.3812878957245,70.02485047288444,51.483583597434624,0.1389915893880272,0.8026198404465621,0.0166201390260471,-185.4919609620609,0.1845205799809017,11.84540303988447,0.9503319763793712,0.5706175145270094,0.3743871115144298,-165.83627917371587,11.509305130137946,41.23262677053118,1.116352504021651,0.6970787002265804,0.3305423705107462
0.64,-125.59036462530511,74.02734353250807,177.86743861240757,0.2303345995587168,0.5198198503634924,0.0299698204924338,-133.52909074766742,70.9927999208267,50.65003374476981,0.2520203387751229,0.7249188159925362,-0.0489694252420439,-185.9592613955317,0.4368012967588246,12.458657705578824,0.5249721685625806,0.4450105476765066,0.1091285143994347,-165.72027315936128,12.015813329323333,42.77008120788774,1.0125742352649745,0.4671101903298912,0.4569792822330623
0.65,-126.11024795078878,74.67382874786728,177.1168264734716,0.06982574329994,0.2636297273963575,0.0184000356729439,-134.11838213563115,72.3916804567237,49.01604697693955,0.1012616692227476,0.6547317300527714,0.0829784165177144,-186.9719069522175,0.9555567358618328,13.90543277664334,0.7035254485143991,0.674596474652098,0.7488056252452943,-165.3779203731698,13.085975459167932,45.60108918030001,1.3700643347863295,0.5774997934580813,0.4509352505847555
0.66,-126.16622872622804,75.24688907174948,176.8046506967911,0.1135596661385745,0.2423607688646822,0.0408956518112642,-134.4387158433224,73.140478884373,48.09130593302251,0.0848883252743246,0.87779650642819,0.0480675698566056,-187.8250604736948,1.3338286542033222,15.13075429260474,0.8990979282438224,0.6898222120671149,0.5804517329261948,-165.8748503794177,13.277490244655716,47.36983771612435,1.413975399914298,0.7281283447278916,0.3214121115543329
0.67,-126.39153529153872,75.31515117204043,176.2512149756526,0.2471441876997248,0.3950618990768414,0.0451565010545992,-134.78586817437105,73.92430355194674,46.83718213727265,0.229265847707779,0.7732944337180905,-0.1077262586882305,-188.71259475606732,1.951841004480938,15.84474795369142,0.8322276182793573,0.5448621789360634,0.6454887261499749,-165.83297945881108,13.87515308120878,48.85147679302836,1.306397858497767,0.7151500712896207,0.5049929558502311
0.68,-126.70181352853764,75.69591760850456,175.62047247742657,0.2172531447032933,0.2436404599658622,0.0817748580384716,-135.03138939799837,74.56959458310811,45.936853655502965,-0.016835699548219,0.7986237859417176,0.1505994188218432,-189.24725446575792,2.439384650828859,16.843660479629953,0.5958236260517256,0.5926698255623846,0.34222806062285,-165.4969236675734,14.450448639950183,50.50031969841391,1.2377841313965638,0.6270195962325983,0.5532148718716006
0.69,-126.99111478308843,75.9922713635112,175.00839230057136,0.1241606239448517,0.4375987611837971,0.065274991241719,-135.3908932712513,75.28160022146619,44.55514578771604,0.1532170786879565,0.8559980769023622,-0.0602851424394593,-189.37418464338836,2.544938745401687,17.19655804431695,0.7081243104087322,0.6535736170350847,0.3573459983384586,-165.74213889856085,14.844362715563046,52.09064525029101,1.3814126001378804,0.4466010652802754,0.2040908508091652
0.7,-127.32482838697908,76.27076613595602,174.59475705356948,0.1320238082072052,0.2446041055413192,0.1450371689152667,-135.9253174531869,76.06629307887125,43.62585734735743,-0.0504209241182207,0.6274103150990881,0.0208279190773229,-190.05699704089784,2.7735171924473345,17.906135917667758,0.7101808211188368,0.6108268524852533,0.2542552227391244,-165.44507689440394,15.30306006429413,53.62137056777235,1.2128494759352897,0.371249797414702,0.5646629412870139
0.71,-127.63708679232634,76.64242482272127,173.99736944678557,0.0763978620095526,0.1726284173877063,0.2821118886619419,-136.07501054075593,76.79824923508863,42.15885255563723,-0.0998872203920452,0.5330667289298319,-0.0252427967329109,-190.60867488129117,3.26576234018516,18.576081245533377,0.8857282806680004,0.5655890582066383,0.325530047906001,-165.1263085692474,15.98988144813055,54.97001156416787,1.0715566691541103,0.7780944856560258,0.6239364223255189
0.72,-128.04386752099924,76.92237228280196,173.41074036180146,0.2212859204701142,0.199858304879417,0.0039473571054512,-136.3645032347766,77.15292241940293,40.59634905134606,0.2817772214577803,0.7225891238096304,0.1376348334387399,-191.0930134237009,3.841163738900793,19.63106450809333,0.7283690560194934,0.5451026798949066,0.2590223754335413,-164.9344897782621,16.47598888321305,56.1273435640236,1.1588339094849305,0.6652234314988057,0.415262549463761
0.73,-128.16222884982994,77.0694977012463,172.86286022033934,0.1016528204755256,0.3299312938941385,0.0043033631750029,-136.56788552596993,77.96120988436918,38.577166208957244,0.1885728810804583,0.7268046019294699,0.1552757401321872,-191.59566957782664,4.261940294059661,20.584556754508757,0.9556035956904088,0.3117131359827814,0.3241342368238078,-164.93451631135207,16.89779302935238,57.605720292904486,0.9986002615927376,0.62438693140773,0.5287989020979527
0.74,-128.4414096646065,77.45469249589972,172.27980511319103,0.089062714287103,0.4455477480241299,0.0192482518685511,-136.49871642637322,78.06966107003123,37.341522106214136,0.1096096228279837,0.2824706217260321,0.0249115601199033,-191.86531499793048,4.460879158295956,21.368161136682644,0.7543247991997766,0.6031725750024011,0.4621979105498394,-165.1024784139733,17.271433292838378,58.99136198308782,1.0816164957781862,0.345701215800954,0.395239729910642
0.75,-128.91316109199988,77.53966406050954,171.36763846126533,0.083680087104763,0.1181998791392933,0.1003122357174033,-136.85237553217388,78.51022403111376,36.308424716354224,0.1404331234395982,0.650179943455417,0.0559328684906255,-192.58595735993936,4.702845348919126,22.47808706919092,0.9062016119388088,0.482299382401577,0.5853585507323444,-164.98434998107385,17.567745943490703,60.42363123613953,0.8975243938605885,0.5798676548797526,0.6047017867394064
0.76,-129.27736695691104,77.96613220502117,171.2199873761377,0.0910502414448565,0.113910545767606,0.248831842043611,-137.10905378008883,78.93874343994628,35.07909502054951,0.0663188511697236,0.85131596176843,0.0197330601349973,-193.63365429210305,4.997788901645527,23.294217975925005,0.9698292052963018,0.5931036955064082,0.6036727137666056,-165.0798787538982,18.31500281424893,61.51933490033294,0.9052985686024247,0.7299110549138803,0.6185101068217959
0.77,-129.40024121748266,77.8908664398242,170.73260725666006,0.0929678007424543,0.0314298294929395,-0.1981508381317287,-137.5638631611151,79.50785580108865,32.826877738766285,0.1903009568790347,0.6498052353986953,0.0387883000861462,-194.04242943373723,5.387760197167702,24.37216100908783,0.8333319975557385,0.34850643689565,0.3765140888250286,-165.01855426207126,18.76781673459117,62.94212868705044,1.0708996215730444,0.6274752992896895,0.5665542063576421
0.78,-129.76583862707278,77.87125110796151,170.23797457607293,0.1852548336574281,-0.0004958139052923,0.2020020882877067,-137.47461094122974,79.89502677577303,30.453947007884544,0.0960837672414859,0.477772173774906,0.2013007627819928,-194.61517609352683,5.675995060268989,25.278323238892835,0.7800316381480001,0.4500769068152148,0.3738054858309326,-164.60031547304482,19.043297629409235,64.04747613600217,0.7614652426050934,0.3498835723323273,0.660414314531643
0.79,-129.96447666566002,78.17229240255038,169.9080365572531,0.132909604967008,0.2625067375758808,-0.03529112908413,-137.55285506277565,80.22814273021062,28.04727353260337,0.0205175573584508,0.3958212842453139,0.2541988243782763,-195.11324189695995,6.257062255787881,26.20516615417272,0.6542978937908852,0.6928433062370836,0.5342532836157379,-164.49515407470278,19.37663091024343,65.75173858916887,1.4105297294040404,0.3439715465811564,0.4374224719843271
0.8,-130.2921519362528,78.28238746468139,169.2260874869514,0.0389975047019242,0.1984472558887615,-0.1123632113507825,-137.4672932247105,80.42799092429694,25.69345843578364,-0.1688324489391512,0.5507155400975373,0.0767598275779981,-195.53419359489288,6.688785864141122,27.29511286681393,0.8575830256964976,0.8755383595820221,0.2609329189700248,-163.68133458230542,20.175845972572198,67.26153104031947,1.166957386733223,0.404348209607563,0.9260049570548248
0.81,-130.5319109962576,78.70409226433169,168.35381467221873,0.3443458944554646,0.2053859004367602,-0.0344840844966821,-137.8975235616263,81.26091325053301,25.63737438493226,0.0091712687077695,0.519788632972651,0.2206226753877021,-196.99749782840743,7.960125086051947,29.62775759018614,0.9014854796714088,0.835920759867015,0.2613365630154979,-162.46447025106116,21.007624177859103,70.45269624727457,1.2940872667976375,0.589558191040982,0.3787725168526065
0.82,-130.71354699699444,78.83119257880655,168.01741854182876,0.1271391730964865,0.2588612644365262,0.1007758513748693,-137.9181788747292,81.29749698531027,21.90395855571552,0.0350577288844355,0.423508977621117,-0.112289781010014,-197.3976022363153,8.697362510982678,30.955454711861137,1.1032004533446855,0.9517844962265032,0.0476543460738373,-161.7605395520197,21.450762349330468,71.97700024749234,0.8186027908863078,0.2267012820356543,0.4748160417168778
0.83,-130.7903264475158,78.95791323670316,167.69669967393176,0.1436363336173418,0.0621737157804106,0.1679333672259386,-137.75080346786515,81.6768734627734,18.28310140524245,0.4098116004597666,0.4748030305864493,-0.1099854952789376,-197.7939810283769,9.434853280093574,32.11096162495039,1.115740227150247,0.7059707123331878,0.0204341993716865,-161.8228705401918,21.68999854979402,72.63512372661813,1.1691388828979454,0.1898430379438146,0.7727213807104437
0.84,-130.90230303903652,79.22585477617207,167.44565450118807,-0.0821917022400614,0.1589837638870391,-0.0162523855979144,-137.7263143448465,81.88112668429116,15.372643061005205,0.0278703115602743,0.4492740682696465,-0.0673302413733587,-197.897650614208,10.27229737532033,33.23748156175913,0.905526274889482,0.9051997678756626,0.1811989172886028,-160.3951790021578,22.43432983649239,73.96599475820368,0.9654900798349684,-0.0814210664697505,1.210683216623289
0.85,-130.7964120044991,79.68506730406638,167.18023296806172,0.1172684264568226,0.4022009001834206,-0.0304574998914864,-137.4882713645623,81.8739572303409,12.01702341000436,-0.0418359330831201,0.3972977184226435,-0.0016670736146939,-197.52453691211468,11.246822128529027,34.01395404477005,0.8917077349912226,0.8546321067657259,0.4971015938119881,-158.32120766077986,23.53136930221041,74.85978070405638,0.8674425645559412,0.190980299422338,0.5877724017147419
0.86,-130.6521719849028,79.49174296414701,167.032466455398,0.1181255761460717,0.229816395027376,-0.0629067116620353,-137.4215810799353,82.23747810925494,8.339553669130481,0.0837987333517763,0.4924038613572979,0.1832648586676896,-197.054122243713,12.25099924312679,35.34256463323589,1.0289440447018183,0.6970177954750144,0.4512783176816377,-157.4803527092184,24.133714651567903,75.78575705386353,0.387607537512869,0.0284390889551361,0.7339441688244568
0.87,-130.5415548912251,79.7401349726916,166.5840597337766,0.1583679050881939,0.032710388160158,0.0761470561942138,-137.2627330768397,82.30781791074885,5.6364955321448695,0.1928262945550171,0.3447036948345043,-0.0931548437516341,-197.01409209325467,13.05038800442202,36.40294559108373,0.8850906551061606,0.5534142863643791,0.1861240908078385,-156.15927073839816,25.01444155300419,76.4998816445506,0.4919055852473212,0.0063027443576049,0.9689727107776238
0.88,-130.50205851519152,79.91499688620998,166.53310308322952,0.1530162923171963,0.0962165786147887,0.1261653489790261,-137.18405995234374,82.3437501472472,2.320882411333769,-0.1136637788797997,0.2243379292180349,-0.0203600925961307,-197.1938701879772,13.54071955468962,37.50928558794781,0.7598776279047811,0.7542841320824608,-0.1297319434549603,-155.31255739402067,25.795761941535623,77.54633903758908,0.6728961608650152,0.1456805204087665,0.6753886540506109
0.89,-130.0658344417824,80.18471228538701,166.49361372369646,0.0160153925252459,0.2299911824882877,-0.1177986576976981,-136.8863820848753,82.40650172792917,-0.951937803839487,0.2084364973739456,0.4241425492797692,0.0683280117318771,-197.46260254506,14.142762597942871,38.64824248421939,0.9026562014627814,0.8281687044824322,0.1557924112979907,-154.2845751578299,26.53509045182191,78.257372043896,0.598709768615912,0.0372750079711703,0.2767077645258698
0.9,-130.2318480928003,80.3017935348036,166.31324045224764,0.2792341610662818,0.2203184952213595,0.1022727721287536,-136.33134149399635,82.55658704350722,-3.500174927042721,0.2470291997498114,0.3498860076494429,0.1699928825278024,-197.7535939339937,14.837978939008952,39.73305533134199,0.7650482213503412,0.8783176622370865,0.1127251773943122,-153.61372830752398,26.505668609274466,79.03926339799169,0.5640873018906392,0.0011191972941232,0.4181575743618497
0.91,-129.99668033086377,80.43100806929164,166.50465842592197,0.1231980848099768,0.146296304269398,-0.1002435496930502,-136.38631364746385,82.52561816627586,-5.2749583411486185,0.1765907914935655,0.2972017856437162,0.1132691468528548,-198.21630147622696,15.336470829052775,41.0429954486052,0.7348351696083029,0.9430955971413828,0.1256025789290198,-153.09783530860165,26.980380924010067,80.01852104491502,0.4796472329774913,-0.0524643712988812,0.6027029267010849
0.92,-129.7435141869632,80.51219109460465,166.73401258810017,0.2225820627272429,0.0848345891372187,0.0959211848017967,-136.27498571186635,82.42410607942416,-7.912836794570992,0.112574746364037,0.1785435081980442,0.0843777039227284,-198.25455484297512,15.923800568304554,42.27593273137455,1.013141245914477,0.7754900298539535,0.2059258829022228,-152.01126269361342,27.56138326266341,80.74132195585267,0.3531460472173803,0.0003084916645429,0.6878470291918702
0.93,-129.67143690776876,80.67724955598948,166.52124438041437,0.1687209599932403,-0.1946280238272931,0.0994702242508273,-136.21281832311567,82.44733523091794,-9.71191189084109,0.2669343344216984,0.1259611091568583,0.1142887777795159,-197.92196923680945,16.778572662718364,43.07043022556135,0.7401325210911878,0.2769810313166612,0.6345486485514699,-151.2324363647638,27.97950721971548,81.28487619429843,0.3471188387796449,0.1817203472773041,0.5292075561107341
0.94,-129.55350166190323,80.759150573256,166.19607117121157,-0.04241144610348,0.2144620246988006,0.1316605580662339,-135.8113936769123,82.55630521986517,-11.384792128776608,0.3719717936790645,0.0876929125545662,-0.081398999865163,-197.3672185372529,17.549067837139678,44.02588720940805,0.7051575929812509,0.6418104213235759,0.4996895110313768,-150.16329209309487,28.601091392470863,81.97406741449498,0.52259334100303,0.0371501913865019,0.530785066723671
0.95,-129.27866790495693,80.95774162932297,166.48865318856437,0.2206387296504488,0.2286039029635249,-0.0049449556715934,-135.76829433677202,82.51426703865859,-12.750699301301324,0.0853308399078759,-0.0212893693626044,-0.042614624287631,-197.1264880711026,18.005563477329655,44.94397901816616,0.8329415281685328,0.3765328787136894,0.2601992665467479,-148.9073502890064,28.86382386700439,82.8645056743833,0.4505623517159345,0.0791604227328215,0.4541191715595232
0.96,-129.11690682857756,81.02145133736136,166.68480300969054,0.0858088850879744,0.1596717623443898,0.0553816647469345,-135.47694951550116,82.38409901947568,-14.420890534908768,0.1187446708443129,0.1647173014601065,0.0103746799336379,-197.09815806846785,18.22352950104258,45.4132867840698,1.0963374468757603,0.4474710554678744,-0.1078429714238237,-148.36563208199544,29.362030915013527,83.45218330683572,0.5679000418096085,-0.1160704080383645,0.3650462459318
0.97,-128.51117977063706,81.12485943262088,166.70656338258632,0.0223834165319701,0.2321527865498794,-0.1008403465243582,-134.83334651861756,82.20664897307584,-16.850348458614427,0.2127132770343436,0.1519540380304704,0.069693501927396,-197.49792962497585,18.238914393484563,47.508267608707776,0.941576149425266,0.4622083156839241,0.1053675011820752,-147.2612386265606,29.78239652482717,84.99053326286759,0.4317237406801379,0.0734526248686611,0.3664948330880224
0.98,-128.2981988860535,81.18884992105585,167.15843344855236,0.1765783155666932,0.0805313189204291,0.0125486555678474,-134.60450387057224,82.29684902923418,-17.416832167410465,0.2114368099550782,0.0257296338764927,0.0323077813146377,-197.4076954310064,18.60496825469379,48.526208803072414,0.9626899894831282,0.4767973841037501,0.00809199734598,-146.58249855940772,29.984345358268182,85.82281958698405,0.7422205849106359,0.1595180776511219,0.0872877054902485
0.99,-128.22205420968518,81.32012608319872,167.3353715139181,0.2630906869523791,0.1577655748767206,-0.1077220959085949,-134.4978554635918,82.2513906715537,-17.342886811120824,0.1142406036582421,0.0149492646343187,0.1352167904715745,-197.68962353244171,19.26146685600694,49.71913038206131,0.7855819783482398,0.3966135024250102,-0.0428596006798453,-145.5797554188344,30.222335659710332,86.77538289681453,0.6416694475892375,-0.028236416177227,0.5184642658302597
1.0,-127.80645254698754,81.35844713686144,167.58267250811124,0.0795963903617389,0.2778084264278697,0.0138383203412559,-134.3575583506864,82.34336221132604,-17.98581465063752,0.2102514892371905,0.0555641485100638,0.0460578658596188,-197.23480779070428,19.44911304838495,50.8874794926888,0.8373968485744482,0.5309926460272318,0.1687684347192962,-145.08200018939291,30.429380783505604,87.3637598157345,0.5189735976189329,0.0137924656007076,0.4464601486886528
1.01,-127.62004114278515,81.36606801505731,168.04990077816277,0.1310987486703868,0.1658577823135409,0.0300032205290557,-134.19508301809202,82.33813729592502,-18.66523303036405,0.2178288688244819,-0.0648672428495702,0.0463561216296364,-197.36347432405188,20.06658472671597,51.741930795804414,0.9256318276478884,0.4362086376297788,0.3150341369738123,-144.91132083069502,30.73271185524441,87.93619930639977,0.4159317831613077,0.2097498177218697,0.2810407765726482
1.02,-127.67659939088442,81.45295244974331,168.0450623149356,0.0060391260990095,-0.0648176702997263,0.1784922576651429,-134.11302910398155,82.27172203390977,-19.59501270523483,0.3315146437338021,0.3007768336524213,-0.0162192528854336,-197.33136720655875,20.687573450234773,52.82443641084132,1.001576946541778,0.4294091880408894,0.7002863547051964,-144.0950476137241,30.702256070908437,88.7724977784651,0.273535188645993,0.0399339885115182,0.3830059368110309
1.03,-127.54061215783668,81.60522276354571,167.84917743364045,-0.0649589896639983,0.1814971053148723,0.1446327265228528,-133.7096587089208,82.36168694786487,-21.01078644548056,0.0506367990374942,0.3544408521211079,0.0999145487335612,-196.6372817820353,21.30148008545084,54.0420817105708,0.8781651027560629,0.5746402647166833,0.6665475535371634,-142.86129108509667,31.16332111997633,89.36172921723025,0.4030882555308928,0.1905663104820639,0.3932116069716259
1.04,-127.12895103549285,81.47096332947301,168.2247437334784,0.0976933279946421,0.1136299834081212,-0.075807316901878,-133.58786565906516,82.11158576016669,-22.928293279742032,0.1523886743261079,-0.0725463543102978,0.0657705181338019,-195.99016988538943,22.273221188912004,54.81318086172902,0.7336096077900198,0.3094238423137934,0.7566585039871815,-141.80720670222055,31.672859320562036,89.97386919496395,0.2215109908817428,0.1200001179704525,0.6164807877748648
1.05,-127.00627229290996,81.58298149105049,168.69059980515794,0.0903295827134968,-0.1039559056774913,0.1094141420740994,-133.21881957379657,82.21566123271425,-23.65388147865943,0.1247958699468134,0.2024647446757274,0.0316304926221696,-195.4330653622436,23.33293765248216,56.00471492218095,0.9273939801027744,0.3411479942152962,0.673626516595018,-141.0383902072486,32.18565978288736,90.520436630277,0.2407430353396263,-0.0032603870770738,0.4755891362118112
1.06,-126.47053332153918,81.65301081119884,169.6495864290407,0.2720149228505226,0.0159401583413042,-0.1130881356895434,-132.8706899045274,82.12831599240484,-23.17259627682385,0.2659736486508237,0.025449997748991,0.0469120099460565,-194.46434620534475,24.172852601807712,56.80943977713037,0.815005279467186,0.2704399682864239,0.9434805705053724,-140.0981603890472,32.526986393158325,90.74828373255696,0.2978920332315126,0.0521189338754792,0.7343193998487193
1.07,-126.28175441886826,81.7316127387914,170.13816648524184,0.2041961665712166,-0.0280564666110409,0.0847633045965065,-132.42586351800216,82.09649020862264,-22.89989682161558,0.5310754364137366,0.2898716543059045,-0.0986176722913506,-193.6155235786085,25.176540025645288,57.61640951122613,0.6700342737350866,0.5162386550104416,0.848642733614863,-138.46155587425423,33.17695205166068,91.15232995742392,0.2097222903154742,0.2792385201761472,0.5662763107657738
1.08,-126.12097005616116,81.80262988776607,170.79563721655975,-0.1203529632171474,0.0174248625892109,0.1612288707729133,-132.30270122258463,82.11540128072632,-25.14766615245101,0.451845824696876,0.1695338077165133,0.0356632171363468,-192.79806381718265,26.02535646632727,58.30399211071405,0.2591950007417624,0.1878025194139043,1.0710404146965111,-137.69094861627477,33.91515969948726,91.82743440194386,0.0109921402995105,0.5188346732002987,0.4441446851550837
1.09,-125.41345391603043,81.62562320091367,171.4959089063567,0.1309129314063812,0.0942043202801674,0.1661236364671378,-132.02900164660525,82.0848269004714,-27.62779877588846,0.2530692195890276,0.1443758112332032,0.0037371183071164,-191.42565712607504,27.296289595442776,59.022695308864,0.6884634674421359,0.272394494708954,1.079002076316615,-136.40585216358355,34.580321107625224,91.8861046606142,0.0594182708158951,0.3330701721348498,0.7254652589425097
1.1,-124.9280080196726,81.98348271240181,172.2938234075119,0.4227968564459343,0.1455154577301572,-0.0510760314076587,-131.75380244110397,82.02380639444164,-26.634240081670587,0.0633513880693806,0.2324868171753254,0.0543076146789595,-189.92404667633704,28.456048675098984,59.63785532142047,0.9996673485996476,0.0686571552320458,1.118298591551935,-136.07346795844774,35.210877898762654,92.18153591044528,0.1057571338080313,0.3318801369842166,0.5277037867910782
1.11,-123.91871375751552,82.03268049069179,173.64215526996514,-0.0387177382507754,0.1080737817689948,0.0387733134870559,-131.3987006425777,81.9936935774256,-27.093751042311474,0.1800156679916268,0.2437482656326786,0.0067092962055464,-189.18971309593368,29.70886670823114,60.53916476348061,0.8451478667865446,0.5897367469417549,0.72563379688096,-134.6670857210157,35.92578898480682,92.43865344032936,0.0432016907407667,0.1563087992602104,0.5688155146024085
1.12,-123.8424006723087,82.19962053782119,173.81650008290413,0.0714578948617577,0.0374223048420777,-0.2001810945204666,-131.33942519545576,82.0587297392027,-28.73688000686735,0.1523396152012817,0.3095538505808563,-0.2638633545344606,-188.2469241872949,30.52410587393887,61.5864614990872,0.8176180136111952,0.4605214138751913,0.7370909297993696,-133.07120183853374,36.62542970444444,92.9580206659501,0.1459252195816038,0.2892020986779623,0.6759876006414158
1.13,-123.90625194968491,82.29937424818274,173.98680813739568,0.1284681534966129,0.1755967665335392,-0.031975044399412,-131.21326728397858,82.06474223096214,-28.17633258646263,0.2276760503190936,-0.122578704767,0.025354720295851,-186.36446526613517,32.56407140863085,63.873817026279816,0.9748560706799584,0.3219369366867121,0.8174530712568435,-131.72061994339316,37.73576029394639,93.10089753673294,0.2422451701704535,0.4846709479484349,0.6430045794478164
1.14,-123.79719102884542,82.32367401898799,173.5027548700506,-0.0259992378353322,-0.1654580612728406,-0.0081625242452133,-131.02916187342734,81.99349620478068,-28.74901057382016,0.0172157392245503,-0.0032337795194545,0.0336327522788843,-185.05060429768287,33.42021334976908,64.91049036124951,0.9720656084806996,0.1835809417223566,0.6594318950062266,-130.87567796272438,38.65125311487383,93.22347238838846,0.0886985412346248,0.2183604818932717,0.7357432507415677
1.15,-123.61801680526914,82.32051011236426,173.5579846438864,0.0556276146081721,0.1060797732272927,0.004581347218574,-130.94463699609128,82.22425525302107,-29.515087166650734,0.1818857089819179,-0.0417918977996213,0.1691417995232663,-184.24151841913357,34.26508726343025,65.86259691141602,1.0287272897590225,0.2484270770120352,0.4151505254241617,-130.70109583943267,39.24800923742555,93.24734690291136,0.2266786501561425,0.048771499903948,0.3386786431511139
1.16,-123.81323168211938,82.3660403988314,173.41464288794336,0.2660823752787291,-0.0333014562669314,-0.0672446202662172,-130.84376849718151,82.30567158115035,-29.216257764180163,0.2091860657221737,-0.0362661236015343,0.0695742643783083,-183.99762628322625,34.82428980904926,67.26678488714927,1.058074245964593,0.2700808445177108,0.1879668470934468,-130.06813011376013,39.05857885896172,93.30838866269548,0.1976556247915195,0.0013460182624798,0.2507498278734219
1.17,-124.211203643999,82.16191737330377,173.4929419510432,0.5606663737302491,0.0647225037468429,0.1277646631041196,-130.9622527544115,82.35134996156152,-28.29708202718705,-0.0554432241493422,0.0941537734703813,0.0222112043795653,-182.949435761366,35.121374363573345,68.79752449672206,1.050648719090201,0.1753130266147957,0.5574680476976102,-130.29187121227318,39.37984015727458,93.27130633281745,0.2157056585131648,0.0868496140943377,0.1655434070665791
1.18,-124.93360243760252,81.85750491471377,172.68807583113,0.6666744762158621,-0.0137517398128323,0.0194649571683939,-131.1361475126579,82.57962389409754,-26.019354775853657,-0.1366565887569493,0.1804712052615441,-0.1958669596177407,-181.77260954432916,35.68997173344124,70.0065727595779,1.275412200825089,-0.1454876891003307,0.4215050663986476,-130.93198074329635,39.560429194650204,93.3974323406681,0.2210460776787274,0.2631636697354061,0.3504361263802897
1.19,-125.26043130147582,81.93620479807086,172.09348709974074,0.5059888188821118,0.117454337599611,0.0318280342053858,-131.22929664594497,82.71376488111257,-23.11766470931864,0.3129685696030313,0.4407041066552575,0.1936296895718617,-180.6954292905001,35.88799672567908,71.57468376855043,1.1933851855633812,0.3383040086875128,0.2924243871884917,-131.5056818819764,39.4887978932012,93.2777855573768,0.4764177315558738,0.3046911858650644,0.2357030045168703
1.2,-126.09198805865424,81.93560605095632,171.62090498722813,0.6974585868577815,0.1462767157212925,0.0259374350994692,-131.73637611564763,82.94121010908088,-21.052518763703848,0.2553933843098261,0.2474187579525064,0.274036018170994,-179.97780826826167,36.35733117735129,72.95891507810924,1.0625287105330972,0.4583475832339655,0.2667882654551127,-131.88994424107366,39.3938006114544,93.24311024979912,0.3193806239616039,0.1158728540378183,-0.0138192226082609
1.21,-126.93138986299516,81.93278194480648,171.40516483695788,0.6649300805189581,-0.050791744831125,0.1374335021182236,-132.12751563668562,83.13925930315291,-18.221914362254324,0.2578292961008764,0.2260696992219713,-0.0866762391852676,-179.4443114037009,36.94387222846178,74.39950270216877,1.323041307721926,0.3122092688667952,0.1301029593652085,-132.1122618201388,39.42518721666131,93.05497300922852,0.3769352962060947,-0.038653542871204,0.2259216511389297
1.22,-127.51559153854492,81.95429523580151,170.6633241970514,0.5984795236271151,0.1149140815798089,0.0251713100696533,-132.39725200174493,83.03157751343076,-16.405482498506093,0.4434198982616925,0.4058912385469622,0.0506495993724815,-178.58396028835287,37.541789294020816,76.16249082958565,1.3414891680978624,0.1001997004104318,0.5065788707649226,-132.58899509328435,39.77336616030956,92.94333172238086,0.3494747593383083,0.3142548717491767,0.3167972449608139
1.23,-128.36903861366469,81.64985040756973,169.83254616499653,0.5098358551951587,0.0681777145623847,0.1652359136034834,-132.91064407064934,83.49809134145836,-16.43469127716644,0.5067209436110576,0.8030916708073587,0.2186157771641004,-177.41209785180678,38.28990666855297,77.12706791888479,1.114785019761508,0.2608802718040044,0.6136870093887639,-133.02293778905457,39.69543893564155,92.7801491116813,0.5024314130429742,0.2008231974268592,0.1746248541497032
1.24,-128.99758518737292,81.45508754446094,167.89628769428103,0.2536282684905706,0.3424026064700805,0.3583683663987801,-133.50185551826385,83.22272709951606,-16.24949965307626,0.5092887017959915,0.325040209357875,0.0906713924539708,-176.17391592532223,38.724045114307366,78.33966658849405,0.9015957898654524,0.2921172431356749,0.3380693606465461,-133.96542294812824,39.912767092988815,92.6858489800183,0.4608334859717442,0.1068223921070974,0.2221942895969852
1.25,-129.22900896160365,81.22352477151861,165.9287670394046,-0.1123810446580648,0.2303162708642092,0.1701654070784958,-134.0512902222193,83.53195275594614,-16.408192202339997,0.2876225451541456,0.4030376367953903,0.0989764612219077,-175.61240515474034,39.00545185432869,79.40170353773776,1.2087425283489013,-0.088788532946055,-0.0278594725380828,-134.47720500241638,40.06639329969761,92.12767766699145,0.0459918997944288,0.3223318085186465,0.2751700840840742
1.26,-129.4647291311579,80.89673961815123,164.39541406908756,0.2570933357077027,0.2981798817077657,0.1987688033713842,-134.25112609103672,83.47773745030845,-16.031547926308203,0.0461995607167235,0.2508738889912996,0.1672632252342405,-174.98344278590366,39.17430510608685,80.50140921653157,0.715045232719348,0.0089801036866729,0.418792516366837,-134.79580770926867,39.960775345184665,91.88633184904334,0.4514996030991896,-0.0012707392364407,0.1832074030400764
1.27,-129.41041148757282,80.45053385393257,163.42421657519236,0.3838297124349507,0.1004295064349162,0.2445216711758051,-134.44532105446996,83.5042412600994,-16.209354245872625,0.0739215709483569,0.4462849503347345,0.2298778408471503,-174.22628318240592,39.13352075737085,81.7848584673883,0.8179950947098118,-0.1319366975336577,0.4928924918878422,-135.71296675832,40.10622213285931,91.38311108185415,0.3146198997851389,0.1827636460271947,0.2141974073123871
1.28,-129.12145348216367,80.29265828067005,163.8826711878722,0.3960353262581831,0.1656863873289873,-0.0639542109600035,-134.64329032940742,83.7466582758776,-15.71211720508382,0.1485534158284686,0.0249026786665409,0.5027881622924228,-173.55879660731023,39.18976208478098,82.3891415424902,0.8383689740201565,0.181699048513603,0.0610448356738758,-136.86931621707276,39.92850555773956,91.05289189098866,0.5632342450673071,0.1922940288652155,0.1929434048461902
1.29,-128.12211172843598,80.04472057835326,165.82325278737932,0.3047762735386926,0.1357347733515805,0.1144507720070797,-134.57342598425197,83.78817831960124,-15.608034452543128,0.2887995625918001,0.6304356029459792,0.0133280711420877,-172.5184492211339,38.98922361985452,84.08291922371089,0.7721997584010314,0.1322112132583185,0.3740270162501085,-138.5683514634292,39.42555880272037,90.09105137506349,0.1830562292006202,0.2198839364368448,0.239816555721115
1.3,-127.49376465430367,79.8676747788243,166.64992933533844,0.3348084383718785,0.2853943363601405,-0.0299221486621183,-134.24219177154754,83.78227059764578,-15.590054499886463,0.3544076121855823,0.4855504250128039,0.2266093974620592,-172.03666726080422,38.980172622426736,84.899464388018,0.8819432118301039,0.1401454255402349,0.2147910871917477,-139.19454017732832,39.149563249368775,89.45626455784908,0.4084272941765089,0.0519868735410216,0.1787989947797157
1.31,-127.05972914525864,79.8315836766665,167.41726384783388,0.3081352121543981,0.1787098874819856,0.0848486335485767,-133.86767976642997,83.44206219156132,-15.541655967299642,0.1691906288635577,0.4724083008634329,-0.0276960969960144,-171.62708996991722,38.98366686722502,85.71115013736024,1.0694102918675852,-0.1308827691050916,0.023153458768552,-139.69836609040755,38.84991360145349,89.04176200128758,0.3300674809535786,0.2135411693023491,0.0097284788324313
1.32,-126.7043384744319,79.75898738308794,167.78708258152182,0.3664129855794975,0.3938302183035472,0.0174734424465757,-133.5856819589112,83.22004956021043,-15.50758836179461,0.0982655453644166,0.1721244485445147,0.2013853265879125,-170.67444031004183,39.26853084891618,86.4361182311375,0.4734167787750096,0.3408225663512529,0.3026043196898498,-139.59914725395367,39.339601327667175,88.90893681319152,0.1428332645482695,0.043904722079905,0.0723439025285229
1.33,-126.20616277353132,79.36614395942907,168.2655608947216,0.2842869193413008,0.2599081060038688,-0.0385330081416075,-133.23229856459858,83.18592786119423,-15.739287795106211,0.2956967778368232,0.0851923849908081,-0.0114101530955056,-169.8547382540843,39.38205158008667,86.7841305388878,0.6724790656960471,0.3826982850701724,0.0455024919308181,-139.51473185789698,39.684466849264695,88.65461901135191,0.108061308609091,0.0998644525985767,-0.0304404702889267
1.34,-125.6525775734351,79.22503806774799,168.99162877728665,0.3835411657552671,0.2548334688901659,0.0903688354015001,-132.86705417805825,83.28582942010917,-15.441134834129628,0.3387331183676358,0.0923474149111094,0.1855031195811273,-168.91626395260346,39.46856356306306,87.1672493914,0.4962696077125623,0.5523539032929548,0.5564073825731706,-139.47079621861857,39.81482828074258,88.28982436678409,0.1494045860796332,0.3182221337334316,0.1571428958921031
1.35,-125.27665014587436,79.09656152168641,169.5296409234336,0.4020825789752795,0.0737991448653002,-0.0405508976181604,-132.8281733667825,82.99664819464827,-15.453425916193405,0.2277482478449607,0.0823458586469825,0.069703501388161,-168.0818078569628,40.05954544788175,87.41971514102754,0.7800995619287547,0.0875629797244301,0.4958850484780489,-140.16257286617778,39.6263870075686,87.9138370286416,0.1337996331757982,0.0661550950146583,0.2339530211056724
1.36,-125.19930513388756,78.89451222289176,169.78322263096388,0.4046023979501577,0.1085978803884143,-0.0429011051358662,-132.6437300417106,83.01921514208117,-15.531435610698852,-0.0027857987432725,0.0736027505577033,-0.1515251648365933,-166.6345810959027,40.80954670728198,87.73483442913414,0.6600569140036526,0.142975310390082,0.5544960991799263,-140.0496447018472,39.7202599772169,87.60090980669025,0.2502668872989784,0.1850577403572895,0.2558969632053692
1.37,-124.68800351328645,78.64251723828936,170.70505399402026,0.2706324198393036,-0.0037031934462928,0.087202491972857,-132.68510217373392,82.92682487632739,-15.559782268369128,0.2034763958883657,0.0153606543895319,-0.0437880461360466,-165.47414381722535,41.07589406943147,88.12303511412138,0.6548268434651421,0.4620606028396202,0.4410247531741397,-139.52395602357674,40.30824714136477,87.5784184101363,0.0991986868368076,0.4657886689375449,0.0936596627197869
1.38,-124.1097885719907,78.57635847124418,171.39613403990492,0.286946472229452,-0.0770090964598623,0.0497075167560353,-132.19565066793282,82.90724627311312,-14.911573117382227,0.0077026963784694,0.1910564580820898,-0.0744325246257665,-164.64678453784077,41.33970103546815,88.54331721674937,0.9064899259482098,0.4154813731438654,-0.1245070851719829,-139.7961061460303,40.2440673716101,86.66944483203622,0.2226853515691501,0.1109375401686743,0.1033655729150543
1.39,-123.35986002363532,78.53613024188996,172.15808101763923,0.4798536172274953,0.296853594242487,0.2414378476695511,-132.0660705411617,82.74268413991544,-13.605646582965653,0.0327075427334909,0.1262431994231076,-0.1487543433041299,-164.22412471289212,40.6977317284724,88.77524418859468,0.3059672366237945,-0.0052079763309914,0.7200626169758081,-140.59774020826325,39.94487527103177,85.90136440829896,0.2467456305207447,0.0290275384980875,0.5074319843334044
1.4,-123.07126025452811,78.11540226907162,172.78842157954304,0.1836415641574791,0.2809075554285078,0.1057554420115935,-131.50257350658745,82.42882983140754,-12.556810506009896,0.2709763411549634,0.3644436200308558,0.1560455894261791,-164.82899865897227,40.15066672357732,89.21560040335756,0.3536897129424909,-0.0421477639604059,0.7284958586168322,-140.8248498576368,40.07001999929468,85.45620006842672,0.1605882712809564,0.2567673804195777,0.4538737966309551
1.41,-122.64910698660384,77.95988073096609,173.29578266525974,0.2619484777450273,0.2012181951840962,0.0830694442800109,-131.39088450581335,82.4964968825456,-10.468261787312796,0.5221446019882603,0.2536978439104247,0.1066910881018118,-165.10659274368982,39.42217963935707,89.41086178617778,0.3966136197888146,0.3041674636635686,0.3422697330314524,-140.986888545651,40.222710168544346,85.12444188851289,-0.0857626184799536,0.2964991722162305,0.1196927166425239
1.42,-122.12090354358088,77.98391513490404,173.89573944144473,0.0762883271779641,-0.1132026484773152,0.07743212129467,-131.07613835444312,82.11854157634625,-9.434302944619883,0.2697143728427302,0.0671492092012208,0.1712767663406477,-164.8388054652,39.43584331583345,89.59698714544173,0.2698299107265771,0.4713123074477776,0.1908333744125877,-140.88607595443636,40.182821392419534,85.0673237671,0.0980598418632746,0.2855453861660492,0.1771915160383436
1.43,-121.88217386607096,77.58127966010208,174.22791210108588,0.1287557318623113,0.2183890588937767,0.105887091101216,-130.7813508923748,82.24617453697292,-8.424505265381274,0.2558085488146102,0.0756363764820789,0.0650296093125259,-163.83564158807394,39.76939394773313,89.57964844230236,0.2884995145767537,0.3041915374732599,0.3917595170141012,-141.4749344444198,39.598155539163535,84.78567028686798,0.3488753196334273,0.1229553614251606,0.6566356591690078
1.44,-121.78432986910695,77.34673098795724,174.500136803375,0.1421387405277246,0.091600551104108,0.131710511812288,-130.40028171707226,82.0188433520067,-7.338073330740149,0.0696533948957958,0.2586697457575597,-0.0019276684701025,-163.06977629726987,40.13201320378965,89.39855568006843,0.2056855622763632,0.3293635482780079,0.5394743290866978,-141.58458151054464,39.64599158093397,84.24956961507314,0.0886321807003332,0.1947899110257444,-0.0808822074971366
1.45,-121.26552932725906,77.10069983483838,174.67925290671386,0.1064861763406598,0.0659929832228428,-0.0620480301925671,-130.24254142776468,81.72035057769598,-6.385599366587551,0.4013342109773928,0.09721398746581,0.2133970134000722,-161.46003344860517,41.27537949402494,89.19894080073806,0.2817712540738614,0.1216757100848336,0.5133084800008452,-140.4517592361025,40.452264267318434,84.25944019541382,0.0554543836564469,0.1756408639267933,0.2735732366266616
1.46,-120.9774147370204,77.21138066002125,174.88450780248797,0.202955061538388,0.0355010549378216,-0.0173165324314779,-130.1495654068792,81.67196044731986,-5.931611071759762,0.1473200180509692,0.2044068735607094,0.1343480219534733,-161.00835093845805,41.69443367907281,89.17414729254259,0.1822101368165908,0.1941058588714626,0.0018608495746409,-140.3660163834361,40.23217459157858,84.187468898898,0.174107139816804,0.0756954098697152,0.425868478752832
1.47,-120.74548574469426,77.05494613812893,175.03429731073714,0.1109245994935393,0.0421979733475149,-0.0044605742206508,-129.72970879876905,81.93272741431377,-5.4700703278163285,0.1440229900073451,0.124655245261819,0.1082741731928841,-161.01286086363038,41.4190714812021,89.13515421865685,0.0629165959603957,0.1671568108515483,0.4696734614366869,-140.37402702315052,40.19437259377995,83.85190474862387,0.0735265819293086,0.0345818571994832,0.1595397231384582
1.48,-120.69927827406951,77.10654722142336,175.2074913273246,0.1442434764065185,0.2148877534153946,-0.0177358301869721,-129.69408577181997,81.41614906392117,-3.6728655860575503,0.1317947396456195,0.5526761374749718,0.1431738892662992,-161.1495768444531,41.53659631907172,89.08165045154821,0.1381680935488227,0.0517570109179563,0.411122824714449,-139.84591505514314,40.671755455487926,84.10587575552911,0.2491696338359559,0.1695982804997141,0.2156010578504497
1.49,-120.50640599997816,76.8990067478262,175.71874448501518,0.1188588570957311,0.1714115563490645,0.0981412414170526,-129.32221663577613,81.48401916762397,-3.198112847955729,0.0868624824584095,0.2535829064355296,-0.0310063366091538,-161.2099542050951,41.725532220749805,89.21640643643389,0.0947639981925834,0.0294812097965649,0.8052108057232878,-139.13155048927072,40.80829715593146,84.07967558019561,0.178118981854228,0.091393091076108,0.2561444041265351
1.5,-120.03851245413462,76.71503953034826,175.83486140974955,0.1709202985689053,0.1866961920478091,0.0955253590065794,-129.12875252271022,81.37053362711285,-2.7232983468092744,0.1552359510315294,-0.0103891720558931,-0.0083623113548586,-159.92786883519224,42.65655893473501,88.86130768457042,0.1238665997492773,0.1503282159939036,1.048446821951422,-138.59038007577612,41.160218319050784,84.13388988139407,0.1389007435479406,0.2665601074518317,0.3865256405415417
1.51,-120.05128352694295,76.61469351799903,175.86715441099537,0.1934339534911654,0.0897839140742826,-0.0686571289969923,-129.0102679761122,81.12064755397607,-2.737695214624919,0.4474778575826762,0.1003096695533848,0.0353981845489606,-159.2652283596818,43.4850425567989,88.52785035708465,0.0738438740565311,0.4148770056395722,0.4171052263209493,-137.72329117511055,41.69435064875592,84.2646452810173,0.1215520939254897,0.2853020787323224,0.7108898019338169
1.52,-119.71637435011895,76.44229261538966,176.08051849320307,0.209581340474915,0.014534213696454,0.0124120985381845,-128.62427379610972,81.40614424881495,-2.824946628265842,0.0919333169303413,0.1707315713025776,0.1066848064232819,-159.53317051207063,43.24927104515333,88.306421193251,-0.1052453740876449,-0.0446456147094119,0.1808406541449363,-137.32484386304768,42.00005217658058,84.01173444379307,0.1005845178013978,-0.0539914593264208,0.2132444619207705
1.53,-119.57901972125543,76.58989588033458,176.1059177899586,0.2033286981399215,0.1308549384742744,0.0826166149982994,-128.54028796219887,81.11726429340507,-3.3568977952989125,0.0658285196706537,-0.153951427769261,0.1179138736836935,-159.84997488570033,42.59982931841163,88.27091814892978,0.0950833523853645,-0.0144696101424048,0.2360522805939126,-137.4942619530366,41.72916248877823,84.1715630835021,0.2963394699294385,0.1866983362976869,0.341681535838412
1.54,-119.3108901215298,76.80414144103635,176.65783625696145,0.2254865047128521,0.1057616851456983,0.0672404144584865,-128.4569087607187,81.14756545467962,-4.138425816723255,0.1558887464809507,0.1678165553971159,0.2482976389255441,-159.9479151055317,42.40085607370276,88.5346242069102,-0.0251650396541314,0.1443892359338192,0.1524182454033866,-137.58259516847187,41.54112250935103,83.95006832359016,0.1109150943525972,0.1866744229970017,0.1962760771192382
1.55,-118.937199266891,76.72435911192221,176.90273867982677,0.1499344318288152,8.24302522816206e-05,-0.0262230744823583,-128.0951996039471,80.88466223358023,-3.418283251986636,0.2545139939833648,0.1792966548861544,0.0759209626468863,-159.74762092057605,42.47418776840624,88.20535444964122,0.2338028508667637,0.2196459853507822,0.032992288025021,-137.28287658679673,41.89564303790855,83.70817254780917,0.1346474291738232,0.0917425852806067,0.2402553956853013
1.56,-118.75839710364112,76.81595210767853,177.30485830267642,0.296487768589291,0.0948357633558837,0.0649425056586293,-127.54025979836052,80.67732957611393,-3.217648380332085,0.2850243705623409,0.1987491374879716,0.0657073672384875,-159.61426887347255,42.275435070284,88.25063893652599,-0.0375585151966282,0.266950165219019,0.3173412993383728,-137.50835190236,41.794250817625006,83.4512882673063,0.2091717724266679,0.0995629131747137,0.3543149506786336
1.57,-118.66535440104636,76.60654791423158,177.37055783507753,0.041748011138215,0.1465634884360533,0.1913157420754986,-127.4227714126615,81.04314232141719,-4.347497016639878,0.1406807453964375,-0.1227996605740252,0.064490642184125,-160.16637943953148,42.17531436025133,87.98606284177143,0.1546592044826629,0.1310364986373763,0.0671025875305487,-137.7828397905323,41.32850064746456,83.42604034894674,0.173389436474494,0.2024271222372327,0.1411534873908951
1.58,-118.24930171828308,76.63949095099201,177.53453041862142,0.1014654878780098,0.211700780946646,0.077303241098326,-127.37847597015144,80.85621656336417,-4.6086166561251805,0.1837465838627723,0.0721583565766829,0.1131915963558995,-159.70692478352103,42.503540881236844,87.68950681246717,0.3752805142774302,0.0227025848086356,0.4978312533945954,-138.12151521954053,41.05324936016863,83.05668429661026,0.171454889694498,0.2353629922384445,0.096177188805604
1.59,-118.1525707332787,76.29731231197728,177.99022344191096,0.0525831573934439,0.0084424149412538,0.0327717278215217,-126.87589463958292,80.54190092751898,-3.6759397020485833,0.1360036453693213,0.5061802987599425,0.0368060721308026,-159.49595445721692,42.87318162788397,87.69691411120026,0.0243169016190917,0.3054758197221556,0.4928294085162631,-137.64971197330053,41.48972017440621,83.25834818046947,-0.124384710542549,0.3476267438102955,0.2779417877198705
1.6,-118.15411592458764,76.50020107355321,178.4821716544138,0.1252484782581515,-0.0255736594555724,-0.0126411125407429,-126.751382252009,80.59534158167142,-3.780362220805352,0.2018926699143116,0.2601082173061995,-0.0095494969494877,-158.9214601888603,43.01334706742131,87.43853651099565,0.1106872380077349,0.2758116833089249,0.221691073096212,-137.02785547265557,41.85850896479927,83.12614937059308,0.2381873082032728,0.1864159648875787,0.2145091241121572
1.61,-118.11385591202112,76.37962642053135,178.11486873081512,-0.1565714456548928,0.1007084382566885,0.0400835983288844,-126.27415460918584,80.12575442746687,-3.895875252912593,0.0296956073635575,0.1049464498523898,0.0697059735883648,-159.3005896411273,42.66486077824416,87.97345297113165,0.1628774693179616,0.2064273672973733,0.3000590533896445,-137.4147368340085,41.028963650952576,83.07449989951066,0.3173544950105925,0.0539461509260587,0.222440663139826
1.62,-118.16969956354656,76.35329528369712,178.2086784034635,0.0772917708256467,-0.003824738574711,0.0253039227101293,-126.4165016541353,80.24728188074768,-4.282814965039928,0.0150619308012194,0.1241035081878156,0.0376610225843265,-159.27899048804613,42.6755425363984,88.23858671609455,0.0602175022661927,0.2545330556100982,0.0831871383151904,-137.32237541231422,41.07805530768995,83.23380729025148,0.13142600860503,0.0087956243134148,0.072944318390946
1.63,-118.26567182276062,76.53435905361228,178.45015851792775,-0.0281576837572916,0.0165880286221572,0.1110365604217104,-126.24931111874902,80.42305893810376,-4.347661975156408,0.0705789773745182,-0.0293659763416272,0.2644996813507346,-159.38266297700994,43.36492341680083,88.26581432581597,0.0427299667375244,0.0204354368817365,0.5724652320708914,-137.20169117816937,41.1331287354804,83.51153505009182,0.1626233923437385,-0.107383856785857,-0.0238169897505197
1.64,-118.19465034344394,76.44134909368546,178.63578630209537,0.0985217520129387,0.1225236200990633,0.1728257140969135,-126.59677349645752,80.33445235509568,-4.199206509166853,0.2596017587650197,0.1718068267552772,0.1195012164641246,-158.4945450348901,43.81463348113701,88.18215706248004,-0.0804446765881227,-0.0792810640604388,0.3971888788318723,-136.892289200139,41.54547276448962,83.65105837994281,-0.0538865718484437,0.0930838053963333,0.2912494750093971
1.65,-118.0771341977502,76.48514652808528,178.88053570035055,0.0670269804830105,-0.0358243132826263,-0.0212466937301068,-126.5755250024048,80.19787075413129,-3.791945884276138,0.022024001992983,-0.03590999282153,0.070152240882839,-158.38842387244998,43.75196311225936,88.52964299044875,0.1956618246115341,0.0173087249595331,0.1349790078759138,-136.4613632942897,41.92038386454768,83.76866287245858,-0.0757012466229892,0.136314611138497,0.3910249948316657
1.66,-118.09104880350604,76.2131354382144,179.0762776676329,0.0131773764602879,-0.0101314801220813,-0.045200808398505,-126.29862476931132,80.0884880338261,-3.561117021412546,-0.1606758583724161,-0.0303644845197336,0.0096791867117229,-158.82558022049358,43.95807303886974,88.5740824107617,-0.104610108660031,0.1354206627710957,-0.2102980694977693,-136.17454390003698,41.83739831609653,84.12209860780821,0.1446818337824254,0.0200063329794458,0.2918077418494814
1.67,-118.37586295939616,76.44907190183719,179.3061003600199,-0.0037024534522032,0.1659383330328305,0.0930224239476199,-126.62657487866564,80.13250044990173,-3.4163476723281203,0.0603354140741484,0.0111729324957505,0.1869429129227699,-158.96814906809757,43.99261563804881,88.56361879046975,0.2083953405166289,-0.0173285009223992,0.1293574691916829,-135.91922516382402,42.08353035792002,84.26557985192574,0.2950375437652996,0.0669191029568257,0.0706638444904504
1.68,-117.94647852154276,76.18716962308253,179.29426311690028,0.1340746540267821,0.0531336735359139,-0.0291903664688105,-126.76569272888392,80.05505744563273,-3.171878171737687,0.0652222181217789,-0.1525157408425899,0.1419123587002393,-159.10119517179638,44.09754217105759,88.85159077419165,0.0705095262291085,0.2290143811539299,0.0401170623785683,-136.08127608956622,41.76251601294472,84.14103400510503,0.0056256482879674,0.1348475708392572,0.1058286451438498
1.69,-118.4310862399716,76.36519730805176,179.29087638057788,0.0647627591192873,0.011848978343427,0.0689793487936648,-126.5423271696636,79.87666176219696,-3.186740506931097,0.25194192886072,-0.056794822942331,-0.1403865343871172,-158.8683940838993,44.15920650631765,88.88241339721331,0.0983663918790967,-0.0335258223104388,0.1538539008531333,-135.91074534022508,42.09750961894533,84.09685281952666,0.0484409856303638,-0.0101855946052722,0.2090829118590727
1.7,-118.27496384537524,76.3095102561737,179.4740394245199,0.1235801322508989,0.1133060078679999,0.0841904799904672,-126.60691455962794,80.29402957167588,-3.648968724247616,0.0572778014435332,0.010492565440978,0.0117815304098253,-158.3953025099788,44.28516492035744,89.06931911396616,-0.0040600322139182,0.0599170684233112,-0.1081763277884639,-135.62100936018933,42.49980118215488,84.37546013230205,0.1638506881847491,0.0239617882462582,0.2709651328793758
1.71,-118.02127456448623,76.30899679389329,179.50818540154202,0.0782959276458917,-0.0858996495264557,-0.040283991096263,-126.4932344548836,80.28400444380807,-3.6453160372367455,0.0315303968955813,0.1325997419247949,0.1376019599015109,-158.37161214851122,44.15892546758005,88.94347103488226,0.2562153824513177,0.2385482456124039,-0.0946263672411971,-135.742987934931,42.55689347970312,84.26300863695458,0.1556748966851293,0.1024220511354331,0.1839591453967588
1.72,-117.87422726838685,76.13303856042178,179.72138360347225,0.1476619047490351,0.1119562494665298,-0.1076579659700617,-126.79082889188888,79.97887055936441,-2.968078930082966,0.0597717441699202,0.1834469683068001,0.0097238756174085,-158.45643966736904,44.43296261568397,89.26460207241082,0.2582644894655656,0.1875408081923907,-0.1042713675718743,-136.0056672203448,42.46377493784277,84.0039255564614,0.0392009419307008,-0.0970124796603861,0.3703497580161345
1.73,-118.03244128546972,76.2536942438378,180.0635549806738,0.0883660709210805,0.046173359478809,-0.0502287146719092,-126.4338037751676,79.90551649347427,-3.2893000313808187,0.21725579722605,0.0153369774210957,0.1307958909359131,-158.5602998864748,44.73321508032068,89.5693764746168,-0.0092146767891389,0.2701088974166048,0.1851529673682999,-136.19180173396475,42.29207089414854,83.99227273475167,0.0984837637062835,0.077430644270032,0.3338351660558543
1.74,-117.87081227583508,76.5483407020975,179.93790942612853,0.0611189633106091,0.2651051893814995,-0.05039710107218,-126.46153713474442,80.08818927776652,-4.324811550750672,0.0929254874220457,0.2881645284775727,0.0106907371628322,-158.49486736214814,44.57407278728304,89.33005265331536,0.2233854160934049,0.0292853454713004,0.0484668590476969,-135.75304323676866,42.77824215415378,83.96247497064071,0.0399279416684333,-0.0194644155956909,0.6189865428003885
1.75,-117.60541189072642,76.54118341782731,179.94672542087622,0.0327012079071582,0.0525717263109114,0.0231608274671537,-126.62803727883696,80.08484236730348,-4.7362049647945925,0.1225863418397715,-0.098131072495106,-0.1325099913396531,-158.50604845096058,44.95121491149889,89.29450467426398,0.0319463135346237,-0.0469003212283769,-0.012426411672976,-135.54812328201157,43.19638736005955,83.98187456752719,-0.0341769760643096,0.0604749485011716,0.1963051786294582
1.76,-117.32156441399636,76.52929679154572,179.67668239777578,-0.0015980606693233,0.1943732297713673,-0.1792929401007262,-126.4507997732561,80.13527822226325,-4.35786601964297,0.1538483191802194,0.0947679762472027,0.3045879296648479,-158.88113424641466,44.8911792322,89.36593739017935,0.1956692986686426,0.1276226033727989,0.0131975980722269,-135.8214034958427,42.85103299037032,83.81913591688195,0.2383172422102638,0.0902856174941874,0.2596412259911343
1.77,-117.08937157277296,76.5136137987115,179.32271876387773,0.066354331404602,0.0152933605440295,-0.0747118594958945,-126.10980407311686,79.67064581581629,-4.001333262272156,0.0012267312387134,0.3425879328200949,0.227794360889506,-158.1565052529444,45.44143767971669,89.66241830969724,0.125737830884181,-0.0005389484130029,0.2919904293087358,-135.09974874050914,43.42891373513578,84.18630186384677,0.219717692921018,-0.0158027340069968,0.7213866985327494
1.78,-117.1230895738381,76.34804163504933,179.12079974074902,-0.0254797394916489,0.0921763359672629,0.2428825029611316,-125.98838725125452,79.84501544865262,-4.361577790691472,0.1137496272678011,0.2798779898767012,-0.0003566376895041,-157.89659236262167,45.52894943687354,89.55095430223024,0.3019760190875792,0.0954606767091929,0.0116228733085431,-134.67506690275664,43.98902403701646,84.61117534662469,0.0937272981740228,0.2479778539384662,0.2112276699598709
1.79,-116.87120174723836,76.40885995457063,178.97772322052597,-0.0368131490631873,0.025586928056958,0.0721507416287184,-125.648023999818,79.86635624873125,-4.959810658148449,0.1733132559913977,0.147219099713313,0.1770654196031333,-157.84681171812,45.523540889686565,89.75538064776356,0.0271219238989196,0.065466316169186,0.0801066271892871,-135.1374397820231,43.96282060673599,84.30441229084101,0.3741876969280153,0.0325825341697373,0.03134146407302
1.8,-116.88494850828435,76.26052061412511,179.1348201416981,0.0941293952784179,-0.0410353627159026,0.0101025362610423,-125.61622998910885,79.76223219250387,-4.360637662801781,-0.0227534783762762,0.2329707826428083,0.2199549881553381,-157.89346831644932,45.67906044838795,89.5778406863697,-0.1184417219900107,0.1339556161682914,0.1514522192343132,-135.5706584807293,43.87311916502553,84.60722061569288,0.0476524812135647,0.1069775081435209,0.1341023963806986
1.81,-116.87574229521574,76.26379843901542,179.45081952363097,0.0794197828454362,0.1484415671382528,0.1107701869456445,-125.4959883634741,79.79108584730663,-4.689728000961365,0.187146307074368,0.3149345750306714,0.0306932745368627,-158.39046995318998,45.43161249857658,89.66410193156776,0.0943042983532267,-0.0412175061670467,0.0716034363928814,-135.44265386013743,43.85739378047108,84.68643047237805,0.1029300598380566,0.1178118144712822,0.1817328344044531
1.82,-116.73044152299856,76.17432120633435,179.26008122758063,0.1750216013380855,0.2021614309959812,0.0489288219470783,-125.64583690112968,79.68082682804949,-5.403361064275107,0.1335927056200099,0.1907191722197279,-0.0518014927892341,-158.09522250229114,45.35790142137772,89.55874939154978,-0.0111022067689148,0.0922272347047572,0.0863442455101977,-135.58485358615349,43.48924868880314,84.54887672138307,-0.1429213353333356,0.3116215998411458,0.2869898457729328
1.83,-116.70209810157004,76.23363593198422,179.21331905504195,-0.0117201708422857,0.1223565624011254,0.0510814118202551,-125.4151166390804,79.6718341706177,-5.691494134277434,0.2286051114719221,-0.0260941837269128,0.0706308947177014,-158.06801809197577,45.0932018308763,89.30205343054386,0.0564429136506616,-0.0808373947458368,0.2932838234603164,-135.9722312237452,43.146571068613525,84.50150890377029,0.067632823020436,0.2277548403084019,0.4814038143461676
1.84,-116.77915632421396,76.08398185235994,179.2164654879559,-0.0634403381920246,-0.0801332690555086,-0.071114176268796,-125.23416306823025,79.27855557261208,-5.13752129336867,0.2137652472031522,0.0365521722885961,0.0119546559090119,-158.69062396833985,44.76538257451055,89.42940301107362,0.1352526309557861,0.175111359121569,0.2254657231591374,-136.9292548445006,42.9331874971216,84.21674861692495,0.1534030839177281,0.1372591887172625,0.6641462991170516
1.85,-116.58032918881966,76.13244547476549,178.94986712962478,0.1040736024745909,-0.0004356434754191,0.0556375982522981,-125.3240215001697,79.61238716383444,-5.904827327972536,0.0575163493723314,0.1084462970825369,0.104847223516368,-158.9651525872927,44.64549515750549,89.62523513696178,0.2968861241014657,0.0338905981310564,0.1907948284682407,-137.33908029046202,42.14142773343169,84.21317231245769,0.1052933068890028,0.0040747413783525,0.1582149752113752
1.86,-116.25798928106656,76.03908193840313,179.01767743785325,-0.0136114777593111,-0.0161726347066494,0.1121206913350667,-125.34850933978922,79.51055190784577,-6.462281892759076,0.1618067780248754,0.1148190651832666,0.15589197945788,-158.81286760861263,44.71572077082468,89.15321637848233,0.3008403665970405,0.4825907809603443,0.1633394794504445,-137.24124966035927,41.849165629719664,84.17265927066661,0.0887046384355307,0.0124112451356467,0.1082931856977398
1.87,-116.46557235128728,76.01702117891,178.8725963591576,0.0480995993412285,0.0592371300111371,0.0191171733262744,-125.04488948117312,79.41127845167203,-7.0041689430501615,0.1550357513642949,0.2248653981549783,0.0222622287725516,-158.68927959933907,44.58851928302077,88.76669084390404,0.3418260791147103,0.219409082304866,0.2424227709059909,-137.13598865522115,41.81531850285111,84.54883129363691,0.1724232327995262,0.0599184431035004,-0.0142715650595641
1.88,-116.36391151546032,75.86687130493128,179.10043373697786,0.0354370550257059,0.0422717264146595,0.0416396445493969,-125.01471170859676,79.35589796038118,-6.435470170512712,-0.0037296428183448,0.0019411153688244,0.2055431588233185,-158.99975459860607,44.413562838167294,88.3055916387541,0.1979015681821057,-0.0959297741004838,0.2728419003306159,-137.89417429559904,41.14843436396207,84.16296481547917,0.2322666702655366,0.0323076839361316,0.9263263736366768
1.89,-116.3196245307615,76.00702792318988,178.92243211656643,-0.0002944417597529,0.1608623883589197,-0.0157049987632123,-124.80392761668142,79.18200415003518,-6.057424381851859,0.0827575917430107,0.1298716459944401,0.1712398763943992,-159.42592241755963,44.28989314102176,88.15050165572498,0.1207502339958113,0.2042432080785882,0.1232089798137187,-138.33095986105116,40.50032590785139,84.29002726922248,0.3281254892608476,0.083262858032865,0.3480373114621109
1.9,-116.37454409150465,76.08285989365888,178.69398566541645,0.0178474608916424,0.1377929720401511,0.023923425768758,-124.90956804738896,79.54249837794316,-6.670257552338065,0.090946678805605,0.0956816190959368,-0.0405047331136535,-159.0833204896511,44.32103466533176,87.93250731000875,0.0458884027325075,0.3775212234804305,0.1114264896657495,-138.35689890366547,40.37573234375048,84.43058092812188,0.2192956296841971,0.0240767575680782,0.3001696589673996
1.91,-116.32910851564704,75.99083067698506,178.40956751624194,-0.0648155815728879,0.2007454519120751,-0.0746361947059865,-124.8543471372938,79.22934356478956,-6.923504451567715,0.1228223201299525,0.0646441741793676,0.1939042125328824,-158.69321960496993,44.21481200089331,87.60779386977087,0.0696305040581844,0.3615040678682537,0.0401500555854534,-137.91569198614363,40.445608457584974,84.52089660329928,0.1172788010885119,-0.2438135979723683,0.1334811647294357
1.92,-116.11626265278188,75.80592927276365,178.77410737736574,0.0111228601108841,0.1061955133721436,0.0313854678781764,-124.7193770386738,78.99870296013702,-6.386880194934141,0.0960067109243261,0.0972606303472162,0.1274393816659029,-158.68576066088823,44.12274657407881,87.48472267933428,0.1199219847693636,-0.0084375677384329,0.0643169221460711,-138.5478023957778,39.95499218876379,84.38739322349888,0.1488997167326351,0.2361915841237919,0.7044313609490398
1.93,-116.2657076791939,76.13067040776987,178.47289713430342,-0.0488387132783341,0.0485499996806784,-0.0406306926767035,-124.53221472704222,79.01743937336639,-7.038191704542816,0.0335243510682732,-0.0317346348057449,-0.1867224728538551,-158.58446503347332,44.04964269250357,87.09116967716898,0.0406736540482685,0.0521614902731076,0.1478736519425583,-138.24389820712204,39.638444938401264,84.52570758372742,0.1500856011888412,0.3106461985796299,-0.0335470311878265
1.94,-115.95882408661691,75.97564412619842,178.43219120045913,0.0321907464647032,-0.2014376620365212,0.224081330991291,-124.61734804060984,79.11033314856094,-6.884661567233255,0.0964091093375349,0.16022383225936,0.0766623287841763,-158.4701180980139,44.097964293328594,86.77240725981903,0.1060579873175555,0.1534684697994639,0.0570039437060235,-137.83545990429232,39.65122197711588,84.70011238523225,-0.0010398293915385,0.1096823104803812,0.2335530522628167
1.95,-115.99546352425602,76.19366846537001,178.48493477339974,0.1542477858475829,0.1268897410788244,-0.1478067822171837,-124.31146773938536,78.71055167475073,-6.311604281232452,0.1929032861290806,0.1199087483355762,-0.0126652850847447,-158.46281664177457,43.99416512890324,86.7362499036452,-0.0356636872289089,-0.0356700797590052,0.014686329975305,-137.91066385477495,39.79532404745651,84.48125801957595,0.3090992191956689,-0.0804963488934001,-0.0302923849967023
1.96,-115.80160849802616,76.00948041570582,178.31751732298133,0.0150977139200417,0.044060890222626,-0.0071469047283193,-124.22217623153936,78.57590011135187,-6.493515143331663,0.0368258906605375,-0.1177226256504413,-0.0898241421590778,-158.89116822477973,43.78462347810552,86.6754804928509,0.2078463431213124,0.1303969111236405,0.0742601756276467,-138.03926046899554,39.8390296372438,84.3814469452718,-0.0379660925661738,0.0295506989902872,0.2475023370642853
1.97,-116.01318540819996,76.15069546197141,178.14760073580737,0.1045553065118902,-0.0119835928938214,-0.0277041265790359,-124.29555925405742,78.5560841822235,-6.8020193373964695,-0.0736280966841309,0.0280206204158501,0.0682553100232559,-159.1185473062141,43.24542562203572,86.94303151537994,-0.0092750162253858,0.1242616630007525,0.1835971270849721,-137.95219474826018,39.45658031781825,84.56851240177564,0.3450697510661907,-0.0715591465464287,0.3616972020347368
1.98,-115.8160886440174,76.26580349306028,178.17546656046957,0.1121792789027836,0.1063062415044747,5.1651048272156885e-05,-124.16744618418812,78.73372436405742,-7.0643684852977575,0.2123730732993437,0.0326733061602166,0.1643929655429837,-159.46134335731503,43.11473767155457,87.09194887271403,0.1931937023571191,0.0231722595355113,0.3663143249138073,-138.3352804320886,39.09908807513988,84.96032124736779,0.3602955512022636,0.0817161274360138,0.0637586951370727
1.99,-115.59789145125627,76.41483585811073,177.90582925162968,0.0975776086468746,-0.00087160545618,0.0405502548264864,-123.97619980709524,78.6868972583705,-6.254180735347233,-0.0353996489965371,0.2510873754149368,0.0258438433483472,-159.34717319219624,42.93942903686807,87.37857383679639,0.2477290009675199,0.1485846799956951,0.4268577607227961,-138.138816297122,39.38434795043548,84.73697838723808,0.2501692974347361,0.3000778948024178,0.1806573580198602
2.0,-115.79546939611792,76.32916700413725,178.01851547334732,0.0700123882395083,0.0315177004035058,0.1113160313389021,-124.04559097075814,78.75391745934128,-6.469634729568318,0.0978854484777185,-0.053204441027852,0.0326066795997024,-159.2454073612321,42.583188259493376,87.6885784968841,0.139844175299562,0.0755365552963072,0.2530191876164429,-138.64240075133688,39.14446070634582,84.75153482071278,0.2781366786403255,0.2995897407488264,0.3383976606836522
2.01,-115.78119141369206,76.3626047764242,177.6762188288305,0.220399443767487,0.0223812672070679,-0.1873963458123975,-124.07829181589923,79.00075468966945,-7.463159581214424,-0.0684952211206068,0.3437852023665656,0.0544906853550419,-159.78925480764107,42.31533397499907,87.9543381576788,-0.107441526053155,0.0803659194760137,0.1623535319218663,-139.11842128214496,38.93161735231814,84.91934977186443,0.4474393012289549,0.3795934625502539,0.5985291559786168
2.02,-115.62668010367582,76.37953342972742,177.96250332509572,-0.0181770188472783,-0.0148977678837901,0.0115436866106964,-124.00078223331036,79.09692981979124,-7.937809846500128,-0.1227806209873583,0.1459857061136667,0.1295051894251481,-160.3785404097975,41.95606207650546,87.96715974504849,0.0966559038412939,0.3264330864514145,0.3470706280655311,-139.62019188801926,38.43640074281553,85.1830991066837,0.4739632650943762,0.300045721389798,0.7896272281680531
2.03,-115.85828682244824,76.46144465277453,177.835243571153,0.1644622485867056,-0.0584268940164619,-0.0587596290968188,-124.05955459050718,78.9809958393541,-7.333248680316541,-0.0167680995706941,0.1370497632306793,-0.0189738653235225,-160.59038947048822,41.96291508224056,87.99730320744193,0.0219991689358237,-0.0207215019874414,0.2192900022337534,-140.2759805598259,37.58007190905401,85.5448693414256,0.3342831214822441,-0.0114113061792423,0.0220703298968731
2.04,-115.91609920537482,76.46921938683889,177.70413988703325,0.0596447200031591,-0.0183034752002467,0.1034600544692379,-124.17557372384968,79.16965615982136,-7.380504078049569,0.1331036952265583,-0.0567057820844116,-0.0433342106992844,-160.31482271059053,42.34851623429616,87.92233067986146,0.1841986399369542,0.1332311677968306,0.424975756141581,-139.74866985380928,37.97578160216808,85.86956808650635,0.045108810080859,0.1491715350567918,0.7066434504216138
2.05,-115.80581228455593,76.48425170485932,177.8353293702989,0.251019681815098,0.1541711736324052,0.029343473960623,-124.36806866208272,79.28848849489023,-7.493558036221014,-0.113012050633098,0.1485227524977584,0.0552431603646112,-160.4573734029611,42.53154807092598,87.79851882472103,0.1101601136214179,0.0797411438413487,0.1209266217738393,-138.7879529195121,38.531466065122174,86.3564088714099,0.2666138762423073,0.2206129687006155,0.5504157608658905
2.06,-115.9086489235286,76.53970623936841,177.88566330301438,0.1439960289456132,0.0662101763189896,-0.0116050540932193,-124.44884365745143,79.26996598393188,-7.656622118219673,0.0064701987253187,0.0320551421344265,-0.0520263295281847,-160.52919406155578,42.51421022326062,87.54726397277918,0.2020232553082518,-0.0090238621678163,0.0393534747737932,-138.51437698663088,38.87331720089817,86.88104992809194,0.24133774415564,0.1458916074609504,0.0581876080051653
2.07,-116.11871971524631,76.45505323353011,178.0810523286681,-0.015706699367691,0.238003845453382,-0.1184738902856367,-124.1937662974844,78.98093366737776,-7.575278738830282,0.1269637667895067,0.1752975397243103,0.1643369359654487,-161.02255170266713,42.33263494857128,87.53176191264988,0.1208912575949342,-0.0106998579803659,0.1787536062830739,-138.18035896827973,38.6345625657848,87.0286536573227,0.6832125272882976,0.2829186889597272,0.2264032715079675
2.08,-115.98571975168656,76.20319787318144,178.0112012937208,0.0605780032917816,0.0340999192527579,0.0365037715506254,-124.46985405313978,79.17652015266239,-7.539843867381467,-0.0701402224505551,0.0871178572393995,0.1182538093631625,-161.18670197361453,42.47711884046365,87.5929232825906,0.1033540012534029,0.1733870645106992,-0.0598506196354606,-137.50433014608208,38.81097520810273,87.4360277971972,0.1798241810119631,0.3125276654137932,0.3685504884358077
2.09,-116.21676800372028,76.5371283043221,178.0684579669062,-0.1044883841394031,-0.0759124547219889,-0.0221075164201152,-124.73843244490531,79.12078187291995,-7.269030154617574,0.067750308822329,0.0388045021600079,0.0067162063353703,-161.68506521124564,42.31204545807123,87.46728920315154,0.0944052652607776,0.0885671949652839,0.0633823449530937,-136.13724347824024,39.45597691144266,88.30176125054852,0.0582356187300501,0.1034433828389512,0.4968525726594758
