0.02,-0.3159023038184662,-0.12723381245876672,0.8986222664671296,-0.08966330866261449,0.14776240101799284,-0.13229611998727064,-0.5406758761416318,1.012984666033501,-0.48564481384305713,-8.99387392001899,14.026988707160882,3.355593071747186
0.03,-0.4874769509872973,-0.09115607565284778,0.9363209654594977,-0.07595723116562877,0.5116530615537547,-0.21385268230217225,-1.033376724999008,1.1828823426575508,0.3380091748958123,-9.684475580730814,19.323569403972137,-3.595377775280641
0.04,-0.451081694984415,0.03347057889948299,0.7673772146277305,-0.06470869504188047,0.7037419953134902,-0.3604034061519193,-1.0287456421656154,1.4634564791926117,1.0056350312214024,-10.173847791777318,24.16012934364419,-10.94101914133312
0.05,-0.4902547581876583,-0.021560635807355087,0.8904407190832732,0.06659006034698796,1.0911662565880116,-0.5538758065005881,-1.053194440719287,1.6580608196216267,1.4363838370537159,-10.253410510202892,28.655625348170393,-18.47819418788516
0.06,-0.3124755484986572,0.0410987894103126,0.8329985640085357,-0.07926107565866208,1.277579580196028,-0.9525053728540752,-1.078210378363905,1.860812697609804,1.6445915924563599,-9.740082450449794,32.31401777004408,-26.336191087781224
0.07,-0.4494968678457038,-0.21472967073347457,0.6575449569203207,-0.010283672914731461,1.7348817731077235,-1.3596240113628923,-0.9119523901408677,1.8989053523041126,1.997968329129776,-8.461517455065605,34.87190695553814,-33.91391002961788
0.08,-0.2927159379899884,-0.10980701194915098,0.6649546377120428,0.1544725740909279,1.9945553244079406,-1.4600111521770107,-1.1241858106153784,1.8717986278555059,2.001328978453574,-6.655735288836293,36.576581865266306,-41.56738246422715
0.09,-0.16125314287798018,-0.21326070828965787,0.5201270516782164,-0.1480897258623055,2.211589574927827,-1.7730218123063606,-0.6638958285524562,1.9284100380112335,1.6749974422491376,-4.011932875101828,36.80859840282291,-48.87365557064833
0.1,-0.18906953271751184,-0.14695109859442998,0.6205162748299394,0.020340388311813964,2.1682388500683234,-1.6891361734614068,-0.6037275681318199,1.731278954850757,1.2190812340567627,-0.7594528136786867,35.54076528117124,-55.683482118225086
0.11,-0.17506580324284002,0.03760023389111035,0.49599917956873346,-0.0709611918519199,2.496816206531083,-1.8582763131807063,-0.18839135739945512,1.3852738263340507,0.6714371302824096,3.369852716236063,32.955236571049284,-61.74937039513043
0.12,-0.21265095988950916,-0.2786885987622014,0.6286444334822391,0.10377450428006763,2.5696067056915024,-1.8855306777851422,0.22071065958311376,1.1792946788720835,-0.29188491565736707,7.846128370238578,29.00741978947419,-66.24916233261953
0.13,-0.23729632065860518,-0.2316862894815505,0.3377725512009599,0.02437192947657915,2.368674852073386,-1.9812764007594983,0.23755887325684502,0.9215095667338679,-0.7544132371025483,10.712186225042952,25.987893233321238,-68.27278168221787
0.14,-0.162342960920017,-0.05933208827978012,0.5662368578618333,0.005969404165181019,2.5148675437141965,-1.8601984942192298,0.40696066800079567,0.7792618522325387,-1.4610227289421491,13.097422638623389,23.22418802867198,-69.92764462851743
0.15,-0.08997107290456847,0.10962319275196003,0.4398223110564219,0.07104953982016815,2.3675929120451196,-1.731521243361374,0.6261119556357049,0.20194182320045068,-3.0361960338472382,18.895110193466753,15.752839970765066,-71.75866378518977
0.16,0.15848243577601734,-0.09744039855800593,0.4340560391638384,0.17410447558216305,2.2281752227662355,-1.6391308945479044,0.9632358833086531,-0.431100636695755,-4.705689947375909,24.793216889579664,7.263359979622626,-72.18352035261458
0.17,-0.15522910363213976,-0.18316867906888448,0.5047253610370462,0.1693263075458093,2.46244969308544,-1.685283799071728,1.1284808675820863,-1.1509278946563533,-6.322544604487528,30.741679679163433,-2.7263156119915646,-70.45106956804015
0.18,-0.0386241641805857,-0.0971736427644242,0.7347008935594838,0.11351927267120857,2.0285956945710852,-1.1998967927228121,1.326240785232978,-1.6280197821068285,-8.06081173926967,36.731434860463835,-13.822819584684499,-66.78380758852104
0.19,0.08836711767802555,-0.17519032350817532,0.5832936373649709,0.16896568690162989,1.6515776329024145,-1.0505679167932365,1.5122065106381435,-2.419638044438398,-9.863266511104817,42.16972957625472,-25.501735807050792,-60.75510504421053
0.2,-0.03606648267676148,-0.2057157266567918,0.4833525137126262,0.04477912149932383,1.552650004089291,-0.444598201390045,1.4076686960500193,-2.8243840020327196,-11.681198677796102,47.548746309009495,-38.04748517174419,-52.62498071962464
0.21,-0.23071201634451663,-0.30892000309311735,0.46561796626992147,0.01643828483871672,1.2207318171082187,0.0014616122621932404,1.5003072448000052,-3.477226705773322,-13.595071883698166,51.54182183212499,-50.49814654787827,-41.995818284991195
0.22,-0.01245066921283383,-0.2976718104759612,0.618827925737231,0.005691832970602322,0.9614871995889722,0.16388386477407538,1.372846875529957,-3.97575833913936,-15.256948155963807,54.91693914220541,-62.52610407200081,-29.58672828658837
0.23,-0.013469478274827406,-0.11721447394498866,0.616457099733828,0.024205069903983002,0.6073619324855467,0.8038869389740174,0.9359087340547869,-4.612596893530668,-16.787888215227138,56.78673755253435,-74.12737498040737,-15.133430544327354
0.24,0.023146190552868127,-0.23541201070697018,0.7042859664435914,-0.017750566559837366,0.14236776619715497,1.383069251443473,0.4428675514181107,-4.92449694007789,-18.271789503082346,57.708773524218245,-84.17122949599889,1.3062844711442545
0.25,0.1309305548929988,-0.3811384316463201,0.6907041029397366,0.0885615945649135,0.25167721083086275,1.7533978983654899,-0.045298705230861214,-4.962989541568253,-18.727522918278108,57.25780473476707,-88.47785634607945,10.20548605235872
0.26,-0.043945165116403624,-0.3262041464167179,0.9049117361414916,-0.02618656343613799,0.06952783561552268,2.161038118548899,-0.13836485453527225,-5.104155968407879,-19.463545464775336,56.64606571657998,-92.82439042722147,18.831680346618036
0.27,0.15465606368654944,-0.1410297876345858,0.7919127038945523,-0.012392704282921246,-0.3434652280374013,2.4925112917808265,-1.0391900299490242,-5.218507214811973,-20.41949592660834,54.06547309361116,-99.0677358658835,37.79430096510074
0.28,-0.23661106307918633,-0.18776096401611506,0.5468442042721104,-0.1655021065181986,-0.6139624571181129,3.064498057570934,-1.4195236960385356,-5.165883423127006,-21.22595611319629,49.59432367493412,-102.90331517628137,56.81855860882644
0.29,-0.10630740289264262,-0.08649129257306538,0.5207795685662036,-0.1393379142631212,-0.8141400368733189,3.668081351831223,-2.367913913798837,-4.848297671657096,-21.517672557386508,43.259520556647615,-103.72210903141969,76.06888594588429
0.3,-0.0879575442959993,-0.10155192925008834,0.8184803064776898,-0.0072179647288175275,-0.9439847301344282,3.977319395300635,-3.618108883946683,-4.337706225619248,-21.526444604866693,34.909672501131936,-101.16054776523035,94.77119570944602
0.31,-0.12047888059092642,-0.10149797796194435,0.585051319689726,-0.14747503038206908,-1.3555142903369655,4.6201515986290715,-4.666118844675859,-3.4526889152275264,-21.384667793241224,24.797288568600152,-94.86589585326838,112.48424238206194
0.32,0.0528110289224286,-0.11850816974226394,0.6613540085817426,-0.14245382565010456,-1.4778318397389836,4.775934762938249,-5.457862854542535,-2.753171713005989,-21.024678682470025,12.587045013521395,-84.67820080571818,128.07407632678826
0.33,-0.08578968434134802,-0.05467093120133739,0.7775129779968368,-0.2774523525332244,-1.5829697345740492,4.874745171145353,-6.165743610305304,-1.7871059128923945,-20.221488580982697,-0.9380422681523801,-70.4379230366139,141.22054453072818
0.34,-0.005256291791341489,0.1074244773699665,0.45486170040161567,-0.35576366482025235,-1.8499358099980412,5.038818091127607,-7.073009891795891,-0.54295353774205,-19.053896619542886,-15.983656359325309,-51.924897766524374,151.39467690732178
0.35,-0.059463508238757234,0.11958251241307327,0.5578594191717928,-0.1980872488867748,-1.9806217216878357,4.942838816499411,-7.647720905941165,0.7165025015898843,-17.5628453585106,-32.1839061244909,-29.56792223882541,157.54810458567533
0.36,-0.24289577560051345,0.06636381567162813,0.3816842901148275,-0.1998196779668846,-1.9926109670552479,4.635919769233067,-8.020712374054606,2.299099048724461,-15.572697358347114,-49.32678356628112,-3.418929183536091,159.7769723120671
0.37,0.02385208515031073,0.16855415649922248,0.4708011010402172,-0.33869225725147845,-1.917975487657113,4.288744053408978,-8.200763396750176,3.053212447010762,-14.322113810985151,-58.180293847284084,11.628460015351825,158.31450267837454
0.38,-0.25106760717071175,0.12185717199611794,0.5882083946597345,-0.39925031762958374,-1.9433131859255603,4.468714372600407,-8.282871632090503,3.908625004272311,-13.14000110611755,-66.9371839122936,26.444005537643942,156.9905033164864
0.39,-0.16891780145073165,0.26194787122355506,0.5097513587921363,-0.31687036420951853,-1.95945210987858,3.657743646762396,-8.173605433031472,5.242006227047648,-10.409885580615326,-84.92487719789389,59.46637815602787,148.84040089230874
0.4,-0.18253358101468664,0.31634325632913346,0.24342185398211202,-0.19638717338544742,-1.8075779276661739,2.7069998956114767,-7.88008183107541,6.868234600500782,-7.213119074567277,-102.48843478860509,94.8710187395916,135.07094499332226
0.41,-0.2285213579276338,0.24307828215025082,0.25362471172550616,-0.36262606642868866,-1.7408775378201262,1.706824259000555,-6.9646865203901065,8.262607685014899,-3.5282830968463483,-119.1989942466614,132.1575655601826,115.3697272379041
0.42,-0.4370715990007286,0.18778692372645484,0.09465039909038132,-0.31717560280825613,-1.4894204987638748,0.34024009323304055,-5.840270849370468,9.450472796074015,0.732436829460277,-135.11087820555178,170.89871190942375,90.22008233669868
0.43,-0.24901457875499472,0.4426050458981604,0.21076437249236482,-0.07646803057299129,-1.4288588539577716,-0.9382513628997724,-4.3779906997499225,10.55342170950891,5.257066582036344,-148.84341105420094,209.7555866743956,59.13503623350002
0.44,-0.3277401783106701,0.3447628011846149,-0.07335675927667851,-0.06393740735499875,-1.2955082937470872,-2.46535312330238,-2.2635454827770647,11.380537015778382,10.480327995624634,-160.84955819709015,248.0148333040037,22.104141754479695
0.45,-0.22730770940299166,0.40378778067794985,0.0860104282736356,0.010483277635553456,-0.8122945896858181,-4.307207414309638,-0.08490294016935254,11.62238125453857,16.173127932730072,-170.327429879226,284.78830393212235,-19.620039513897932
0.46,-0.3663276954138282,0.44376110122053686,0.10720604007791402,0.1567241786774093,-0.7032628229198057,-5.925327345315646,2.8178661440710977,11.746722487476658,22.29146810615914,-176.7856722964291,319.0953528519251,-66.33394310584767
0.47,-0.2444350174052803,0.2600320309346821,-0.1294565517391927,0.22143492453302438,-0.3279213397785637,-7.798764622316923,5.982943253215839,11.18951740146408,28.785100120638422,-180.20783869817683,349.70191380313474,-116.76014748604237
0.48,-0.1798216708006276,0.13069695507152698,0.010450011248935326,0.2366525508053856,0.1572023530984712,-9.639580793425946,9.541061489197277,9.999637919255006,35.76173534977411,-180.2228607420683,375.88232803499506,-170.35423006435062
0.49,-0.22837594138488043,-0.042448264101019435,0.001451854060614488,0.2548141873534825,0.33008068903553395,-10.797478641705117,11.388732603914857,9.18810419551411,39.45563382644267,-178.19312509099254,386.29375336415796,-198.36961058161134
0.5,-0.5108559555995894,0.019033852775074137,0.37314337011957405,0.3684274591071833,0.5100199225690533,-11.610036493564724,13.39339355003609,8.179169943824023,43.09442287705455,-175.91602091410013,396.6811370745756,-225.9047353761548
0.51,-0.06816548358050478,0.0982073148532689,0.4184435201483967,0.5500964083364706,1.1844208156838043,-13.579424986668455,17.398966175262622,6.018779348852409,50.65460659095669,-168.04046681682834,410.98585544974617,-282.52899887201926
0.52,-0.23345888897110417,-0.0676500083756375,0.4129951315191633,0.3708748595203313,1.5814523520560217,-15.202934314805718,21.610168297249547,3.2975581292396035,58.57525455929751,-156.18517724212936,418.4806764119154,-338.7232127172846
0.53,-0.17250607369664578,-0.38906106193113044,0.7410058248143231,0.3237259530728632,2.099645003070871,-16.83751769060885,26.014580762926926,0.08798427396776708,66.15396189249299,-140.49430258005506,418.48707187271674,-393.60107570491516
0.54,-0.1147268742560709,-0.5677962533950365,1.0034416084111082,0.46164627674968495,2.736516752109379,-18.49107547265904,30.543709808329837,-4.014269332928243,74.05920717965405,-120.718574576543,410.3291569448412,-445.33742523782695
0.55,-0.13423193902349487,-0.8131561926019774,1.3720232532650876,0.45139646146395224,3.463763440855602,-19.71081584452422,34.80902439040945,-8.674478514041597,81.59044322292547,-97.46619819709315,393.7049155099916,-493.0262189655657
0.56,-0.21830748135173939,-1.0054840556799383,1.543441924954908,0.3028123243222441,4.136408531006855,-20.523365881046438,39.11783228639731,-13.738267004824436,88.88440261284747,-70.6534594359264,368.73863055267896,-534.9436153229236
0.57,-0.13710454419614013,-1.084598825997407,1.9336180978221822,0.25167299088475925,4.935886527707962,-21.1699966645714,43.17331864662176,-19.538660725607468,95.23116703501174,-40.60965985076793,334.9670078811626,-570.1744165754241
0.58,0.030922721912230375,-1.434413403014286,2.411084749779696,0.10670113161161189,5.879869200950061,-21.477320391853908,46.73287581917945,-25.47780056692512,100.91555237189347,-8.603523394780051,293.2324371604538,-597.2121613062045
0.59,0.25252922477881173,-1.6060488539075681,2.9298805137436825,-0.1365602345749872,6.863160592561453,-21.462037498140905,49.948700865366696,-31.843011515623306,105.1662909881756,25.922488352112612,244.3676476944311,-614.9589710548851
0.6,0.13899694686755987,-1.8731097268706074,3.174992194084842,-0.5924423493003802,7.457561718214081,-21.200054450969212,52.55746904532235,-38.451929171607965,108.4455488907348,61.8863826654662,188.09074342145308,-622.6527354058608
0.61,0.4051740047978791,-2.084592547587474,3.7426873289821048,-0.7245569337682373,7.825563665188627,-20.629757877471533,53.467113700891055,-41.57974601983751,109.00265611131903,80.2306614393883,157.1543067844368,-620.9916211967842
0.62,0.22317999881290684,-1.9822291547301547,3.8732613972687706,-0.9712416845831517,8.340459710350988,-20.2634898963722,54.36102944512357,-45.171733664593695,110.03860337049974,98.54141765087891,126.13418410293392,-619.3063588656923
0.63,0.48440648568091804,-2.4151766859831376,4.4769670379485245,-1.245860022788428,9.116565731128935,-19.13303769565914,55.86000993706651,-51.677621634922545,109.78956954556244,135.29137517644625,59.33082832900546,-604.560119660579
0.64,0.4423762832233167,-2.442416807477842,5.013532852454811,-1.9265410732840658,10.132034956097824,-17.42287268801858,56.67289253943714,-58.195500403242384,107.30573806914802,171.1988810130858,-11.327842819722735,-577.6651551044531
0.65,0.5536499439766512,-2.9447601122075393,5.6836881224213105,-2.45195934065666,11.041691062743842,-15.560099306381023,56.47999893926833,-64.13498953947199,102.86600702083307,205.82730993413168,-84.09271371401996,-538.7222434130408
0.66,0.669082655042005,-2.6455265039879534,6.314774095205861,-3.197304953704594,12.026718699327386,-13.100090173516447,55.273489617029206,-69.82889153316783,95.598743388505,238.36924021834727,-157.64543752432476,-487.6388429956575
0.67,0.6597738376697929,-3.1013418396536174,6.897436942461523,-3.7588451132818075,12.628466473743202,-10.589552202202633,53.468056005053015,-74.83478344583911,86.22306988781082,268.3850358325352,-230.2818028013412,-425.17740900043947
0.68,0.8705338306526597,-2.9064577131011613,7.359880069200468,-4.61701926816252,13.173496070521331,-7.433061716158508,51.01954882485133,-79.05411568379404,73.67785269826837,294.5558542788911,-300.2992540923403,-351.91373983706796
0.69,0.9461632437167616,-3.12623189339289,7.812809832401395,-5.468716454989037,13.800288220256698,-4.180621323146851,47.49897693854901,-82.55612685240081,58.68684567925056,316.70989519498244,-366.2009132229994,-268.217844971713
0.7,1.1116002605182385,-3.373382578785731,8.569994360957944,-6.244369597802056,14.452904659730471,-0.9777024915669019,43.49575852997791,-85.18253836373286,40.60758661274319,334.43040776398084,-426.1563629529299,-175.63213374860143
0.71,1.1653420231464324,-3.2476091063431047,8.917571276821164,-7.143599971795819,14.690419723351178,2.7605810677973173,38.48667053746731,-86.51505024935464,20.453782404382203,346.51562223301636,-478.9575192335015,-75.24031783163292
0.72,1.4600619448281258,-3.2570832178059828,9.306649781757065,-8.147171701195226,14.722207593518242,6.7086318778926355,33.15973259052257,-86.89847067730155,-2.9306088189492563,353.5513135875159,-522.9156229306345,31.000248198526336
0.73,1.53998398026744,-2.9977212447169137,9.508954693623394,-8.78890039822444,14.710711928903994,8.41578436559214,30.146726855718185,-86.62908516020258,-15.639567920967162,353.9846593272865,-539.8375913870051,86.43357016493364
0.74,1.5035780259148412,-3.07420491731422,9.637126872471878,-9.083054382819347,14.78750475919091,10.298668200235616,27.050876427328078,-86.02087840720854,-28.420726004755437,354.9002380275085,-556.9285101507334,141.83682793325627
0.75,1.6711249990370947,-3.0286015729560147,10.176372417032988,-9.997496276620224,14.528929464808918,14.049901686894774,20.901826267292353,-83.90088588106964,-56.38275544136013,349.80616805277964,-579.689229074424,254.9990853307734
0.76,1.6857051066899733,-2.7373347258549523,10.10399688528591,-10.98553407738307,13.756032701056085,17.79233523406177,14.198916983409894,-80.39507717273924,-85.73278144685659,338.75493072338304,-590.7889628365531,368.9842294095796
0.77,1.8226381412444788,-2.5247104200536987,10.223657191428858,-11.738828676596,13.036094385419293,21.28222536196411,7.632701254415159,-75.72570378167264,-116.65709205136359,322.1285624531573,-588.9416140640398,481.44210046721895
0.78,1.98797635217866,-2.266188591332472,10.453828346479934,-12.739439086168668,11.899050783810873,24.40892166087565,0.9577109488651785,-69.70585421693406,-148.43091697290626,299.64004817494003,-574.257471928141,590.5455061431675
0.79,2.0124502850037755,-1.9249388542525174,10.527430951900964,-13.246994546470605,10.333355491238606,27.682999134635818,-5.174808346753854,-62.495782448163695,-180.87113050147784,271.99055408357776,-546.7234721176189,693.9655317796472
0.8,2.016288995174847,-1.617481062172879,10.25177034114475,-13.925814121034945,8.610280886194616,30.37577556364653,-11.535525824498926,-54.37034489002375,-213.03304974748139,239.44463458984617,-506.0470860046674,789.8287673206241
0.81,2.128285566355771,-1.2769060871134026,10.007449890052113,-14.59086754574387,6.5535395996904,32.66272668428824,-17.14760435480484,-44.972125847509176,-244.66111870320847,202.56243166793905,-453.56179987150074,876.6274998186648
0.82,2.2335975010066935,-0.7457870108951221,10.150160235525124,-15.009364471690121,4.2577567677529675,34.24920138871131,-21.993481457053512,-34.890927830292796,-274.77379655653573,161.77739351080695,-389.65326672325926,952.4226438371294
0.83,2.295855114074589,-0.5204185764874592,9.619364889940984,-15.271553980004468,1.3087262897404617,35.73452710047294,-25.81935307655087,-23.898913547087034,-303.0415613397918,118.36532377925968,-315.1697435564109,1015.5198429186211
0.84,2.448722556155873,-0.16271004283608845,9.466648046364948,-15.415521884604829,-1.9329484897032698,36.80464102683974,-29.234629440185326,-12.47042654494678,-328.42988023434,72.69544035164355,-231.87514775106987,1065.0202737324007
0.85,2.1296713449253826,-0.02514578180172236,9.079196139505362,-15.299970159965524,-3.374558415510433,37.05585458922032,-30.413615367172163,-6.771671069693047,-339.5389223117816,49.322638629961546,-186.5789916381847,1081.8615254034178
0.86,2.3322260044230516,0.12162569667499669,8.919733310079065,-15.366949027615568,-5.072749129139553,37.244545654127535,-31.376765025295537,-0.7101882766015623,-350.87235721399145,26.276797774040126,-141.38702978964375,1099.223901130364
0.87,2.367257260188913,0.665911726461607,8.42102532648381,-15.172912117504561,-8.513438281808385,37.18850857343577,-32.533657957853066,11.165874233471518,-369.3904463038055,-20.99623978192299,-45.3714311305121,1117.7989819412674
0.88,2.085115767415753,0.9557989688928431,7.950970076318427,-14.79557552197115,-12.428149063817903,36.52886984106205,-32.64043005616312,23.21563235953135,-383.37779743973164,-67.33212704360056,54.55234559638697,1120.2584791273591
0.89,1.9695528961769717,1.4772262884274239,7.745172548492602,-14.524522001993452,-16.557770430606183,35.42472585920131,-31.38241958919235,35.23023196064991,-392.7544791733757,-112.0546543336055,155.72676620184058,1106.1224512700912
0.9,1.9671482893353476,1.7169984098601685,7.33793790730766,-14.012989171431737,-20.720828218595443,33.657667248710936,-28.855837960585244,46.71975223287431,-396.9149734669728,-154.68247109889754,256.72059461300375,1075.8150903145156
0.91,1.6236602427430697,2.1021842764228333,6.930639881866206,-13.389360700654924,-24.70954613772045,31.620351307332463,-25.31046443051829,57.70846249934403,-395.2823125595037,-193.70223689077258,354.2883067237105,1029.4110650548596
0.92,1.4831511585351331,2.455270222337276,6.816614015863977,-12.497719289420244,-28.696400845351167,29.51468564814879,-20.72162991355644,67.93586126055398,-387.859260963351,-228.73944382756926,447.73592862819476,967.5810555934956
0.93,1.0546200908761496,2.5146200070014144,6.407300566596324,-11.65793911003203,-32.80693087155831,26.604009792719047,-14.978049426380323,77.27635961570117,-374.6259888131787,-259.15674630518254,534.1309076599854,891.9038623335542
0.94,0.7970110215256527,2.906448862101704,6.195497125867655,-10.79474997963887,-36.6592999813427,23.55470857827021,-8.200961150239017,85.64193248669704,-355.61738409571547,-283.91775155843607,611.6320702941279,802.7163874641794
0.95,0.47419228534255503,3.1070433741624695,6.044598884320318,-9.826430323904049,-40.45681066515182,20.254858310909135,-0.8954823690718436,92.76227016694084,-331.01144407187576,-303.4684139697545,678.3529436036825,701.9577768708364
0.96,-0.1184144924938828,3.1952233829017325,6.207742366588668,-8.652120346171856,-44.003835469663926,16.839195921114168,7.614855025472754,98.67769708806752,-300.39498103848854,-316.410131631997,733.2644377673355,591.2726281327141
0.97,-0.21443504087614232,3.3194655925786756,6.069735732906595,-8.143380841265635,-45.52833336395112,14.922572381087868,11.791179126724852,101.1434652126845,-282.7536356448815,-319.76492461268674,754.2389291203319,531.8632303738284
0.98,-0.5486095880171191,3.638641199786708,5.973237548511695,-7.557469122739784,-47.02591903741707,13.185989691267885,16.343444420272217,103.30401944401103,-265.254898809578,-323.13438075574675,774.7873932044976,472.30704853148933
0.99,-1.0449053051537067,3.52303865007276,6.401048510165105,-6.382262234137162,-49.874595474259905,9.606464997236158,25.329999708682102,106.6746885447174,-225.35965694649315,-323.43847475536364,802.4567112144864,347.1118480481238
1.0,-1.5262960790441336,3.540707304189154,6.794796880847,-5.333332523783023,-52.04307739415447,6.133977720361296,34.61157831156969,108.73186679552329,-181.54075026968954,-317.74687060691633,814.9188130963588,217.8543067832459
1.01,-2.217693280078783,3.4033501284117076,6.990144237451341,-3.9766881830203267,-53.95700302987503,2.6323009287793413,43.93728660906817,108.82407765299298,-134.64552549489818,-305.77908008279866,812.2849430555672,86.42076148381601
1.02,-2.5946350148138517,3.680348291036393,7.705661560201247,-3.067035505697435,-55.12035837957947,-0.5405541756901412,52.85897868898624,108.03577601971512,-85.30697956448665,-288.3339590994685,794.4363915935307,-45.11532465925805
1.03,-3.2531951234343865,3.6990533091749045,8.466571016246325,-2.037597400624553,-55.682095229223705,-3.4984802262762984,61.88889150216247,105.52108978246342,-34.43052138405532,-265.5702794364504,761.8394893213272,-174.43506704982582
1.04,-3.704839798315595,3.5589998842789137,9.215992358785046,-0.7607583368537609,-56.02191643410995,-6.633331625725002,69.79227593423097,102.05918314371362,17.210191737719484,-238.5570116636294,714.9850563895725,-299.737686959418
1.05,-4.451291132192109,3.58281089268934,10.021809667281785,0.030643952417028754,-55.596658808563646,-8.63266265902136,77.28201047029707,97.1276046364489,68.44157501981857,-207.7610235128812,655.3042169992946,-419.1141179268842
1.06,-5.118564226174261,3.189323122157803,10.651729334911025,0.6625728305769947,-54.7002752123603,-10.742721880553352,84.06932308779443,91.07163518082697,118.14603865053539,-174.04022081784694,583.7518352878449,-530.5797619794492
1.07,-5.588481057718549,3.101536618964699,11.885408877235479,1.6732667650532156,-53.145415573080776,-12.305277546414693,89.43835252940889,84.15318399291488,165.78477364230352,-138.6770153500152,501.9730777157628,-632.8190576695013
1.08,-6.344921220204442,2.9631500088945057,13.018520850112678,2.2469924364818237,-50.78635433900354,-13.627386672802235,94.04966880434156,76.2620171399575,210.11636595620055,-102.28040455841624,411.80535541916396,-724.4313087487707
1.09,-6.449942521341494,2.9244729082501255,13.455144536457452,2.77938636717538,-49.572061960603946,-14.127360863892761,95.63760706699345,71.85258490512376,230.20388167347264,-84.20448781964133,363.43794440088277,-764.5062044887176
1.1,-6.697968959420546,2.768592041237456,14.041174242126013,3.024680832221135,-48.15519015614187,-14.357141194487983,97.41508932558136,67.73818367680599,250.32300850687747,-66.08735409303755,315.0684328528087,-804.3977374639206
1.11,-7.277521378258647,2.541725529283996,15.139137520883692,3.4250481795917196,-45.05369752360799,-15.03445575260489,99.47866209898152,58.55156178430868,286.0689003378938,-30.557696720362316,214.17877276960786,-871.1298232348607
1.12,-7.637962436262287,2.372394750582948,16.362927361508074,3.9393430091894834,-41.591252508306226,-14.680165576093936,100.4491858310383,48.82077974825514,316.2595856880134,2.2267296193227657,111.0630326541781,-924.6021943151037
1.13,-8.064044855712158,2.5089527844076156,17.403195257454517,4.191462220918833,-37.84608458005755,-14.491664372597304,99.9556587873262,39.01349858912803,340.7295779681109,32.54975317597767,8.066006265762585,-963.8726208925073
1.14,-8.405594666541933,2.1900040767949625,18.441271922174522,4.47672053035812,-33.68609278005437,-13.619837356607375,98.38210842268552,28.7510112568819,358.55859174660634,58.77978990689027,-92.61686901989684,-989.2579040050879
1.15,-8.885968403408024,1.9571485425392998,19.496565955843902,4.717383935064201,-29.47800435902295,-12.341558744974277,95.64373208509382,18.38195934883694,370.15327185984927,80.68136835494519,-188.86641002298586,-1000.367882191895
1.16,-9.027251003053186,1.7214652568798328,20.517535485885386,4.678708133298253,-25.34075494622618,-11.30056773926057,92.00128482789167,8.60214813838931,375.1041766374078,97.09143894570461,-278.643200945684,-997.3035521497893
1.17,-9.340321002819033,1.6355282944676692,21.448960471973265,4.474394666710479,-21.01472255273591,-9.778082521407457,87.51154933204333,-1.1075488866034695,373.68198388064263,107.83339933746988,-360.0847272919396,-980.8429530335533
1.18,-9.45715369738762,1.37910286252525,22.273478594043638,4.536175798848277,-16.612798262151017,-8.17050541159676,82.22655883028528,-10.432166009104286,365.99750540372787,112.73906828801117,-431.58382885109575,-951.8977355400668
1.19,-9.49325409965259,1.5509270583503367,23.317614928487014,4.281693596563722,-12.42494123912661,-7.006511333008442,75.89793418802797,-19.34642406885264,352.52555703329404,111.08384739866322,-491.943284872388,-910.8325046614748
1.2,-9.67221890200007,1.455563408646232,23.79277402268261,3.8608417836114604,-8.746241175026451,-5.165319010782381,69.30253591391777,-27.580864010449833,334.0104834703794,103.21679909333328,-539.6882275312033,-858.9588605941773
1.21,-9.677132709214932,1.4447227501028364,24.076012557756684,3.89559376740282,-6.696837390784028,-4.6534440836465585,65.97476241817688,-31.253225547788134,322.4887805696529,95.95526992016227,-556.5066786252877,-828.1103317039667
1.22,-9.539247759689852,1.439943426402633,24.24832722180775,3.705219325909291,-4.972474644548131,-3.8344561347462576,62.3422201413665,-35.125537450670826,311.1679235401712,88.87039343399479,-573.5702746134375,-797.3359986651254
1.23,-9.641383016019237,1.385816133807275,24.91960776242154,3.285100878432158,-1.5558032936622064,-2.8789349022336874,55.39925624010762,-42.23064916204846,284.6710153747785,68.94372830477518,-594.2653182187106,-727.2416063015305
1.24,-9.421595973040741,1.3737342801935042,25.208326735839147,2.921758632205891,1.3171092159029563,-1.7351075808020937,48.326984256448576,-48.08490939628016,255.92567712128672,43.51195795822823,-600.0364266529224,-649.9059336286012
1.25,-9.351318388256807,1.2535735196569258,25.358071028298685,2.156573486754847,3.8005320191289176,-0.9954428187358687,41.71189666395615,-53.54089942090886,225.3000191870048,13.459737777852705,-592.1878885522347,-566.9620274531281
1.26,-9.340157904353488,1.4745658736104401,25.82581517134674,1.7930553763044486,5.888627693888393,-0.5592545663742888,35.44042227813439,-57.92804990869277,194.45729054176167,-20.960119235816236,-570.2284535174231,-479.69511054602077
1.27,-9.128767416570033,1.2330130007827114,26.252372672435143,1.3000706189356745,7.793585496729402,-0.8113540434272316,29.43382530340527,-61.46950982620232,164.53996031049886,-58.03076484438538,-535.0800831738825,-389.5479552720608
1.28,-9.024913802416263,1.398716613759454,26.07790524707912,0.4096797443704777,9.13206936663303,-1.6351102445707495,24.304222332874172,-64.28854306371097,136.33918963649808,-97.4518456455279,-487.9764432166422,-297.7677625565476
1.29,-8.787418385302699,1.5641074793609042,26.00091122466696,-0.29919026879209637,10.086085790378856,-2.438520032419389,19.806170660754194,-65.86377485426598,111.08121898138658,-137.66341961934984,-429.3318929973481,-206.1916678873902
1.3,-8.685187383066808,1.5265226255235944,26.24936964373651,-0.732693254834418,10.672889893948826,-3.931602703591353,16.216261842609917,-66.92278846800983,90.06309407651274,-177.93574845715415,-361.00346512460123,-115.68142961018668
1.31,-8.555090338105218,1.4744416140053307,26.05016178447478,-1.5634690664381663,11.18826727303286,-5.7964575495809685,13.8386586212306,-67.08331205788397,73.91742661594168,-217.09130107036776,-284.07053839497564,-27.622887241197855
1.32,-8.366121492677978,1.4513488123977074,26.28064885534065,-2.111408177478986,11.8004866512368,-8.450901380879994,12.129471711949108,-66.20104989753844,63.61209210385822,-253.91516240062623,-200.2794895828721,56.9547683573243
1.33,-8.498181496900392,1.1555942673791098,26.28185790687897,-2.518062159044911,11.427756722918083,-9.921777258708183,11.84677322711463,-65.30961012582024,61.64488091767175,-270.69910202259126,-155.48208721442427,96.87520000484191
1.34,-8.253993048772891,1.2701861295723513,26.408180833073725,-2.730552109654231,11.41121669110562,-11.503751133915426,11.748473211487653,-64.66858594573091,59.7886220207995,-287.286613779583,-111.04411278946951,137.1645547939314
1.35,-8.014258644546489,1.1118056535381573,26.45519007017219,-3.295700970845299,11.676570744223348,-14.731433943387568,12.300261716110574,-62.46812938194484,63.059602411260265,-316.5408560914344,-18.423579900374488,211.5876719193997
1.36,-8.045411976021128,1.0185133775602297,26.581379231399094,-3.9217380626515683,11.853171996453531,-18.533013965476542,13.879366500772576,-59.54604809597768,73.67270510201043,-339.98245336072415,76.29504159048372,279.94479318593983
1.37,-7.957964136089719,0.8432222045693935,26.630835243390848,-4.389430236288028,12.185268047845431,-22.579801237153585,16.50055292540209,-56.34144015723682,91.80907117718452,-357.7408229156052,171.07873842967305,341.64255177374184
1.38,-7.780418571689341,0.7243426383769647,27.006101055097833,-4.891640869077555,12.729282706073286,-26.53147908987751,20.30207744059312,-52.49680350418703,117.19026460406569,-368.7768845126978,264.91165735692016,395.8450242124452
1.39,-7.655198712393372,0.5042855042909588,27.124607214277138,-5.5651245792922825,13.487335143814946,-30.78848859124496,24.887366058668864,-48.29132138295466,149.98877078180357,-372.98347791652407,355.9862693270225,442.47907155213926
1.4,-7.674987576414484,-0.06166828126928673,27.42595954541594,-6.056277725554092,14.653461678621053,-35.15476478167227,30.221571513659036,-43.549267616326276,189.2887250803039,-369.6232795616812,442.98359926071055,481.14504352427565
1.41,-7.351665659686186,-0.49279169488679053,27.858419097421674,-6.309699743519718,16.509685489112,-39.3620011867132,36.60091619119166,-38.57119861742952,234.25119360261357,-358.80522592288656,525.3382148470644,511.89802391459915
1.42,-7.148090592716186,-0.7892920467336417,28.58797869957186,-6.692444562844006,18.723974351825092,-43.61602322421338,43.39525533575811,-33.16898636077925,284.5566905525518,-341.0892521051053,601.4833084978108,534.522510509681
1.43,-6.902719263047468,-1.000064432242493,29.078122548179316,-7.2946329766284155,21.62554541389318,-47.47216930381449,50.93202896960454,-27.881939072371313,338.9590573755858,-316.5730262510315,670.9321481823495,549.6837769849992
1.44,-6.886302317397727,-1.7160197312770171,29.68445938866015,-7.1617214199392025,25.18850590282313,-50.98455364670029,58.805696292473165,-22.498945883980713,396.28338700226794,-285.7532227534097,732.7180041395242,556.9462934143464
1.45,-6.86868797453317,-1.8868217928940934,30.11993647164986,-7.283519276101203,27.31351471966542,-52.84083249647687,63.12108220908811,-19.83350779603566,425.6646098501088,-267.45480344603334,759.9661249756533,557.1593881802246
1.46,-6.5641981765559425,-2.3745942330898737,30.5646293617694,-7.314097033006722,29.420698239152117,-54.126514956476846,67.26684765708659,-17.245372777438952,454.9585290609768,-249.29380618070428,786.9844663858819,557.3172074855142
1.47,-6.4882187248055745,-3.0896059996814373,31.36959068590457,-7.538875049870908,34.33160148983656,-57.09613930744415,75.99719613032994,-11.473487919699755,513.9629984734642,-208.5995093288681,833.1463044913427,550.6547981129354
1.48,-6.0829001879479305,-3.4246370568000986,32.22772029424391,-7.728649827655272,39.914816132126084,-59.19640941052065,84.92341806570893,-6.386699049524156,571.31961746161,-164.06039573383416,871.582381716911,537.812886747807
1.49,-5.723791341419377,-4.284473123293086,33.16651823925788,-7.5874369723862065,46.24181108616232,-61.16650042995571,93.86000248922366,-1.0291582881813617,626.3114436069494,-117.59230424739307,902.2481124577857,519.2776561497528
1.5,-4.970098353462047,-4.846278298680252,34.45456967148417,-7.718485292159308,52.89397070124437,-62.27849740177608,103.12460010475056,3.7828897674454183,676.7202603405157,-70.00566687930144,924.9463425947276,495.5384611021349
1.51,-4.311785726321615,-5.569930078508769,35.457856492320246,-7.542404547039962,60.59766696895237,-62.689515822576716,112.23247342981666,8.370024828426741,721.8268860910886,-22.985307435388016,940.7473234823133,467.4003502600438
1.52,-3.847061873386655,-6.102101709807122,36.82537152893955,-7.279034276637383,68.31817256579566,-62.709815343911174,121.23612322432314,12.536483924417753,759.7341821468373,22.22536387362877,949.2961929085623,435.4581835502498
1.53,-3.1202805477452493,-7.004181570030729,38.22088942927249,-7.157158869429648,76.6072179121168,-62.05843609539422,130.20983403915955,16.63422131395758,789.5823010460986,63.96681257454669,951.9333173922328,400.62946364581325
1.54,-2.3202506971529635,-7.705287753466992,39.55469313542506,-6.955433859783501,85.2725705697638,-60.74680112256382,139.12396464900496,20.34725431759363,809.8143182671251,101.33594399723938,948.592885874886,363.0759650337958
1.55,-1.5696709738792542,-8.369373147775123,41.05777289532269,-6.6395869330545825,93.85984413563071,-59.32657783996954,147.87849293659224,23.693591758535973,820.4681990454891,132.73309530515417,939.8752938629932,323.95654578724333
1.56,-0.3064386550127761,-9.018060427214715,42.32243655235839,-6.4211529148994995,102.67906975329343,-57.44023308293561,156.26323291601818,26.364435173231993,820.3410130049785,157.14083207981602,926.2632329500083,283.58852050264863
1.57,0.13573130797416577,-9.17010928352533,43.343553385533994,-6.237552048949837,107.02650304557913,-56.432228049274066,160.35273727798983,27.659004623428828,814.5786425468867,165.71451412453393,917.5467894348018,263.2409134987407
1.58,0.6754455398069878,-9.52164654273722,44.265115357152574,-6.126197739932618,111.4253623828468,-55.1835530765521,164.54153316584723,28.6532175962968,808.8699071235095,174.0442438710941,908.6611092477862,242.71870269026
1.59,2.032098007547011,-9.992260013349993,46.11096144203873,-5.714895363501282,119.93969127948259,-52.730796054823195,172.42730956182928,30.837181430813416,786.2383764852707,181.95361274679325,886.9078408609473,202.29002058786915
1.6,3.199335180090534,-10.453547910759935,47.68303579440744,-5.497749664951812,127.92332311342643,-50.21480790050545,180.2194552591411,32.52034254813642,752.1171235292804,180.4973186299205,861.5193732644075,162.46607368303773
1.61,4.437122712819747,-11.451847605331658,49.58033674987136,-5.094825566430996,135.7189686457157,-47.68529974821152,187.86750956707638,33.78782841249062,707.2717879824414,169.64788784189886,832.7267430453214,123.63532177019736
1.62,6.07565642963593,-11.665401678607516,51.49458028595165,-4.601588234212734,143.01868090034594,-45.432861216542264,195.24961060401063,34.715692582181596,652.1966050211496,149.30525822217484,801.184109434601,86.5385847726006
1.63,7.5137258975279915,-12.123236067649653,53.35191420999175,-4.340220558680899,149.47658933855325,-43.24035277306814,202.49197023921295,35.13336681437425,587.6156217449525,119.50565102426772,766.4297878995443,51.29634128197211
1.64,9.031646503298752,-12.492441993533554,55.197706293607524,-4.059329666324967,155.35526347763064,-41.684504115590315,209.20658013512715,35.36360181919439,514.433416671831,81.10224810374739,728.3800078257265,18.712627439997146
1.65,10.752362347556128,-12.704595990375442,57.57995772695279,-3.6452854699339783,160.14545758750606,-40.15413394968577,215.78767669821625,35.15789855285373,434.11704203744705,34.09314492932861,687.0855139992893,-11.399328365674751
1.66,12.536559074860914,-13.273551660574315,59.63334368405024,-3.4476387043547714,164.0167081085734,-39.565527863148645,222.01670031885826,34.57588279567158,348.3525684831188,-19.6664618660951,642.7329509074297,-38.807739899779286
1.67,14.166978987689713,-13.688568329101821,61.95432502436997,-2.9967034531024264,166.90736765237307,-39.512898408180334,227.65857576290477,33.914261091491795,258.09069852248876,-79.58576631673095,594.6868640181733,-63.20270281591109
1.68,15.912752092097271,-13.967650145921981,64.0303748240925,-2.5210020088272755,168.90131326875598,-40.2757519498622,233.0390779702162,33.21412820692418,165.63264385462702,-143.97124042375734,542.6042426574423,-84.56053949465766
1.69,16.92886262403074,-14.096863103559608,65.33072372722029,-2.3868856437381387,169.2120902502895,-41.04404796506775,235.59956951923547,32.54158888485558,119.13259955456442,-177.70596360017785,514.5035107669498,-93.76055130670761
1.7,17.68486889552789,-14.295918987737249,66.42319899680362,-2.3736829264587276,169.56496675467008,-41.87857293980226,238.29940091484536,31.887278090188296,72.47859020730787,-211.10559208113787,486.33069879010213,-102.97806264440274
1.71,19.352203850675465,-14.535818462405157,68.82333069837334,-2.050907769099485,169.44340843201667,-44.19546963285172,242.67306367857734,30.61419865063118,-19.501002782870856,-279.5212341456124,425.5315945071053,-118.40166301928743
1.72,21.150028631265975,-14.967367641943675,71.33493895227403,-1.9179102861288706,168.27332465459443,-47.33573622988728,246.79788479109257,29.346248091046302,-108.44000559006477,-347.35605664416255,359.8423011380528,-130.93235585937865
1.73,22.998582679860473,-15.58673478429616,73.76234634762062,-1.6347489568216031,166.112347922348,-51.296393163685515,249.89110899509268,28.030020082346578,-192.34967974887573,-412.359865825435,288.9050859062028,-140.4560499577597
1.74,24.32116844741369,-15.946376971293386,76.32264827137752,-1.0873521466956733,162.93462411672692,-55.83320346306535,252.60458871943214,26.450039233060433,-269.89425210558215,-472.7503061950182,212.89250460246774,-147.25418164070717
1.75,26.064844919201494,-16.57267462313957,78.64873944049839,-1.0218598925842148,159.20698206650277,-61.35080309230982,254.40989543054997,24.87348549379627,-339.60862453017853,-527.076724109056,131.2201818311098,-151.64853864031946
1.76,27.73360725886409,-16.889545154036515,81.26908276715622,-0.8708528598801852,154.88478219908043,-67.45772721227354,255.46372735707718,23.439100231097694,-399.75051367531836,-573.1403961624219,43.759622972964394,-154.02964441723074
1.77,29.45876597992856,-17.637088885312494,84.10537338648857,-0.6412257687184989,149.70166905492698,-74.01697474415451,255.5274785113545,21.785278728463574,-448.99795791929967,-609.3472983858908,-49.11208239108595,-154.14899027665763
1.78,30.73027435062589,-18.540136487867866,86.66109620193673,-0.6004589060424884,144.2608585099855,-81.11410177831944,254.47057068609035,20.4892518762549,-487.026260498088,-634.1171179458722,-147.30709171374025,-152.70209796571004
1.79,31.983612396065688,-19.526700134708705,89.1752918338724,-0.17975235075284957,138.47589847097558,-88.12750728651635,252.43651841282997,18.656445504184045,-512.7842217013136,-646.7786143523315,-250.59856499554755,-149.57692409593062
1.8,33.42010630018693,-20.18593842304598,91.69796593320514,0.12116239435254535,132.2351239284863,-95.53970278676736,249.6155004813326,17.531001163856775,-525.4507324176791,-645.7552304225495,-358.5253268861764,-145.25418988845618
1.81,34.05690945039245,-20.71299072996395,92.98841010389314,-0.09347337621618888,129.3715642065391,-99.01822813477204,247.32706953888413,16.95019676756275,-525.5778888744397,-638.150259895245,-414.4446290122992,-142.45132884758536
1.82,34.80332737196568,-21.183078092312478,94.01759428476947,0.0023272957058544513,126.45773061002106,-102.69587057592123,245.38326577851262,16.364912109977816,-525.6038826709464,-630.6141678402714,-470.39380181952157,-139.9232318647774
1.83,36.024313247493524,-22.264940200260725,96.72818994936223,0.10372052392752676,120.58247993617253,-109.7168221463853,239.72090449141845,15.080573345759007,-512.9761792920875,-601.1749943568921,-585.5881696864334,-133.63902541424522
1.84,37.08877598107001,-23.41440594903255,99.01965078749659,0.4300816052088028,114.8930139640843,-116.40745198444782,233.11470333239927,13.716376911505685,-487.71634042450205,-557.138877557467,-703.2713663912709,-126.8248757377651
1.85,38.10876393896708,-24.72464287099868,101.33091966624727,0.5070821688527505,109.76631938864745,-122.43308302871155,225.11318498691747,12.821918285711398,-451.30562709962,-498.7088788264898,-822.6051172408947,-119.7288144892078
1.86,39.046345776678926,-25.94925386752793,103.6519753401259,0.653835740172983,105.08173073899319,-127.4628735822767,215.9746641968952,11.771556455795057,-403.8990235032654,-426.6645508262254,-941.9870520609735,-112.47307615440391
1.87,40.14196409844265,-27.30977587133234,105.65499497910407,0.818558435556951,101.03232208225555,-131.87649971044536,205.54894801548258,10.725224426513366,-347.1844636143382,-341.78898116940775,-1060.7047085801694,-105.24590376752512
1.88,41.00734181890522,-28.806862892117994,107.6619275436434,0.9044731467328188,97.6932871441533,-135.2489366813962,193.74624638993333,9.909963623502458,-282.44784868723536,-246.01172475589038,-1177.8017159862309,-98.01676324664912
1.89,42.12304917592631,-30.17098577160881,109.61202635259299,1.0313832502138176,95.42447419464038,-137.41342822362,180.8188745713779,9.15858616185671,-211.0301952417387,-139.85993828753277,-1291.163004889076,-90.99426968854753
1.9,42.89150896649545,-31.621802513528436,111.05400523509448,1.0401206960883236,93.88472797614081,-137.98010580609733,166.6483345342308,8.343188228216803,-135.09940868035318,-25.884752676119447,-1399.833166111226,-84.41364861620494
1.91,43.70071869808896,-33.132403436905726,112.58204309706258,1.110112381860318,93.43197862436958,-137.60818666013682,151.44370360026198,7.6166923578794705,-56.867268272959684,94.20539788017695,-1502.6862013746306,-78.02047407115435
1.92,44.64490101197376,-34.64173656457454,113.66039970487952,1.224046287826671,93.56749658952212,-135.89346947291745,135.25606715457883,6.802106800720916,22.673301607179795,217.74876364823825,-1598.1566336035066,-72.03648576765687
1.93,45.25391305341296,-35.27083099535284,114.40808851094233,1.1538276574141055,94.18491008228453,-134.3202972158563,126.70023870574728,6.447161890628641,61.974224327044155,280.22709013041606,-1641.7279767055725,-69.25118342803196
1.94,45.337883850226746,-35.9136710655438,115.0682911399234,1.1665159719750524,94.88747085294648,-132.524063191339,118.2699456240443,5.887594010697678,101.33850961037959,342.9580324630488,-1685.1236702853391,-66.46484694521857
1.95,46.181899952748516,-37.36336676073008,116.1037293882814,1.4005284993069809,96.59185365805446,-127.73720870136557,100.05759887535316,5.627125479443625,176.63189562328324,467.41215559271353,-1762.6495875142339,-61.00457565254015
1.96,47.291547551206015,-38.62732367521058,116.88756293308893,1.328440997479879,99.70925787633506,-121.75900069148524,81.57533388269779,5.11321789861039,247.30803556169107,588.0302099005769,-1828.937545502437,-56.34052571662335
1.97,48.361994596136476,-39.8233123445053,117.41681227135813,1.5694743000189117,103.28188095373096,-114.31571936277906,62.4183292342571,4.555071299986463,311.42782104354313,703.0449709340477,-1883.6842316743416,-51.46109602338578
1.98,49.252875919983445,-41.025458102820416,117.95187974661339,1.6270504124376615,107.5114220110869,-105.7911088240531,42.80479813243967,4.0182301671060525,367.4089767059113,809.7031020419479,-1925.7913164829627,-46.771469420047204
1.99,50.54665803463274,-42.117357844502564,118.08849011571375,1.4431859494166366,112.45419398065418,-95.98505163629386,22.813031149352856,3.300297859958983,413.77967502411724,906.456918944965,-1954.4975844852424,-42.668835338280346
2.0,51.556917500216315,-42.9730683355721,117.98751674695266,1.7607360930322822,117.66313699698718,-85.37992514079382,2.80707043613292,2.989442819319011,449.44719258616914,990.8306312653402,-1969.6146019949283,-38.57590201933122
2.01,52.807895112751005,-43.830703649802885,118.07553822319055,1.6289530264589227,123.09822205933266,-73.81355365238255,-17.041705112820466,2.6840597004374778,473.55368937881184,1061.2922656207004,-1970.7188198263439,-34.285495176785815
2.02,53.91421092102507,-44.58373544581013,117.56561913233875,1.7738473247696867,128.67435589855296,-61.778955775304276,-37.02470938937967,2.0066556351193365,485.26909808086003,1116.3296771809846,-1957.4661443285502,-30.27336484424669
2.03,55.464588017853266,-44.9229503965927,117.02955118096864,1.7343011402330184,134.27092081847343,-49.31126147768483,-56.58195930911049,1.9150458407118134,484.72961132071356,1154.4461145074883,-1930.4298493464164,-26.119695736625022
2.04,56.8298208175313,-45.14702557506107,116.29698430925743,1.5377852030123897,139.91322848113322,-36.62115912310457,-75.67704065352024,1.4988756079277163,470.9816995929296,1175.0094303764763,-1889.2650729853865,-21.666618835428107
2.05,57.54674809556273,-45.23142198144494,115.67693435067577,1.682116825953146,142.3726218448203,-30.015162993518263,-85.01233678549391,1.3196657215233016,457.95905006762985,1176.6945132202893,-1862.3635386923954,-19.529363996520914
2.06,58.29695898283627,-45.2052504551677,115.30917445498513,1.763903452992136,144.88488241962352,-23.793301428686352,-94.2765243821332,1.2918019248972294,444.5873396831575,1178.249763883524,-1834.969368744291,-17.41625160552717
2.07,59.89370698644866,-45.35340718778253,114.20033548280989,1.52462305161398,149.4336076146475,-11.086546794301569,-112.08940730422691,1.1859836581473249,406.416901435466,1163.2208512151076,-1768.1512146833459,-12.91631993130564
2.08,61.38247457519905,-45.43439210629436,112.83706405123829,1.6558179381861746,153.67550707987303,1.0013220097941118,-129.16566587592965,1.016752882763896,356.94172103335177,1130.7131669066746,-1689.422940806354,-8.40208923803787
2.09,63.110498440635524,-45.096502375533404,111.4710510633652,1.698403632117628,157.3076026429474,12.334817462198474,-145.41425316633874,0.9556096401339772,297.1116446354093,1080.9289581961903,-1599.887830585723,-3.847582287542001
2.1,64.74340865434073,-44.89194599614286,109.89141657127479,1.6279141091208702,159.68718528112444,23.614317712144594,-160.45991725272523,0.6681497238511193,228.14759445291332,1015.4169741814799,-1500.907016801346,0.9016412662312732
2.11,66.5182853072696,-44.372751430778834,107.85003902856245,1.6296745288601415,161.51088100963892,33.503130989403545,-174.2901101655775,0.8334445560460273,151.77140000685804,935.0265406837925,-1393.6192157334626,5.093360574028944
2.12,68.01560695684499,-44.063689515332435,106.16076891573128,1.7297962342260929,162.46491743339655,42.1274761100585,-186.96231145106287,0.7887932610888316,69.07681606478636,841.6856898785819,-1279.4356724116856,9.838111461438366
2.13,69.68239616179189,-43.45941600935668,104.16161413932413,1.5536194346385797,162.1604375006621,49.69579117371896,-198.7333115768216,0.9235101203498245,-17.978686526600914,736.89091873254,-1159.757354657119,13.81507870314423
2.14,71.49038329524919,-42.955306439331295,102.19784599664963,1.5116836065172132,160.8340605167577,56.28752422968989,-209.16613968523623,1.029916657958248,-107.2688245635349,623.3418918133941,-1036.1217304200054,17.641347804037945
2.15,73.01422840174408,-42.09960497584131,100.01900962128424,1.8028740985586234,158.8735513643374,61.148692400346505,-217.9760487198693,1.4748479370945713,-197.4242689847327,502.75740738763346,-910.0195159360645,21.228949385594973
2.16,74.83637824867262,-41.390780265253966,97.76393218960915,1.69167805652319,155.42012964570577,64.80815464701598,-225.66691086738362,1.3942463448886842,-286.27243110403805,378.0442057892357,-783.2779055187543,24.175847120810907
2.17,75.4151863259415,-41.03560059240554,96.433438884685,1.688681016963704,153.16087409698687,65.87339787194274,-229.0362245626702,1.87501725094991,-329.6382690940167,314.4727707351056,-719.8784465609677,25.371137770696915
2.18,76.15669963457336,-40.61453303414203,95.43362114733785,1.753135014571013,151.34808180862868,66.79384123300703,-232.15808996195793,1.9221591767329682,-372.79514907584996,251.11853452390048,-656.8776138740061,26.566957258485925
2.19,77.71368392974689,-40.0389499866704,92.98656166084095,1.493792871441547,146.02789383236035,67.65254332224086,-237.32242269048928,2.1213926245480064,-453.981291725206,124.63881731748363,-532.6605240208642,28.11423537991145
2.2,79.2692517133736,-39.09337842401983,90.55336879654432,1.7314744750053,140.24972797034553,67.20354787145419,-241.48046830233437,2.5559905017154105,-529.1806877249252,1.1157746082392028,-412.24531947290865,29.25933725601311
2.21,80.4637697442861,-38.6828301444036,87.96646933132453,1.8209282713961246,133.5047991926932,65.2945089422192,-243.9818521207582,2.95686990745365,-596.7516460786015,-116.95273945351245,-296.5634343963274,28.910976950745056
2.22,82.0529914257975,-37.93405964569387,85.47008623472452,1.708290147819148,126.08814863303245,62.303141178061765,-245.63094070740462,3.1293212743806222,-655.2128712324153,-227.63441125508592,-186.89791429287064,28.00862082033496
2.23,82.98836134797298,-37.26919770353349,83.24947449566712,1.8727732640283876,118.32061425476782,58.145747529955884,-246.4339995752075,3.5778703399900333,-703.6784993650408,-328.822138416582,-84.13658345582523,25.65486612150115
2.24,84.24621735620224,-36.680323330726864,80.57799173053421,1.9727874675795234,110.22427706103201,53.15160459660336,-245.7375512459765,3.724000580820327,-741.6021453653165,-418.40098981950683,10.781406652929167,22.62426656011663
2.25,85.18243820465258,-36.23903675537772,78.22952574053546,1.9368005209944226,101.94875056335678,47.43491555775216,-244.643684673002,3.9781165694866814,-768.0665888016503,-495.65184472266793,96.95470104113541,18.212907476267063
2.26,85.86280375523008,-36.01345413266223,75.76075844845438,1.960936631939459,93.45515009588819,41.10320595130101,-242.65488530929187,4.289162766424663,-782.7764200402864,-558.784792841634,173.86785835259707,12.873978184393234
2.27,86.6865081918114,-35.51156958656295,73.41156939168108,1.950255778037812,84.96933522482138,34.11056707600538,-240.16638529093288,4.191382771848755,-785.868259478638,-607.1271522513064,241.35372828676708,6.640508868188743
2.28,87.62252449869838,-35.43872891512822,71.04057822135665,2.129270490299522,76.47849679688599,26.83519976182455,-236.7879127737554,4.442025117641546,-777.5325315656253,-639.7537520666325,299.26160394793436,-1.0457847895612746
2.29,87.87582800611595,-35.21716298322736,69.8873589857218,2.0235962560965204,72.58636375717536,23.39138419673598,-234.95745437640113,4.314785234864494,-767.8999172773479,-648.2448683310989,323.42213773794015,-5.378373937369959
2.3,87.95896732316429,-35.21561510039683,68.59884789751685,2.1846896641361617,68.8833089020067,19.94325283502219,-233.16575427400207,4.256118240111933,-758.089628523182,-656.7901668761311,347.25859876828173,-9.41452061228069
2.31,88.58116856406401,-35.21430045542984,66.36838329595602,2.1104153685673683,61.06040877954417,12.597324871907075,-228.74527050571623,4.101443052778622,-728.2513545199529,-657.8680423202167,385.914923701424,-18.836498020009902
2.32,89.18775671207223,-35.098924398520914,63.951476846528536,2.239559060309508,53.931965532133944,5.791193801015969,-224.85415022145014,3.955207405517556,-688.7632411416707,-643.8744696461874,415.2507769149599,-29.06168143875859
2.33,89.58056148959648,-35.314011217014446,61.94374641086967,2.277253903099266,47.48064485967831,-0.959418762075932,-219.94126233374502,3.5311890640658046,-640.6696886292718,-615.4497686775278,435.8673302226695,-40.1484870183404
2.34,89.94615588777553,-35.37404935618792,59.62431468842497,2.3274202683249317,41.581118836823784,-6.763846729787099,-215.44891130941,2.999491054100739,-585.7138402923047,-573.3174436607225,448.48954205251016,-51.2373889199636
2.35,90.2831259494964,-35.591126550000496,57.729152863936264,2.2041856180330885,36.59580969747026,-12.263189541406897,-210.84236304586122,2.414796984393839,-524.9145666882467,-518.9573746586891,453.5522895913813,-62.94254416834672
2.36,90.6251535185529,-35.79903048876582,55.67731508970653,2.4433618230241327,32.3184134748504,-16.58816260297079,-206.21810975640014,1.8172185894607977,-459.21113539415654,-454.03567605019447,452.07246250089526,-74.55899704441929
2.37,90.77608782484371,-36.04915066202444,53.479715469461645,2.257400542041586,28.93387404738668,-20.5821614208406,-201.81072087585636,0.7964859137524817,-390.6254915811286,-379.71026101548665,445.23596570483085,-86.22638942093927
2.38,91.05874195671097,-36.1570566014266,51.7970124048333,2.371697935666206,25.9171936740807,-23.184033498722147,-197.43347150327122,-0.03880069233988741,-320.6104023223504,-298.46268486160585,433.3354981018131,-97.91953546148434
2.39,91.18649684980265,-36.45189814204906,49.57760928097637,2.277702035768666,24.06079646532619,-25.071049986213698,-193.46187350025593,-1.294841937804298,-250.3457235412887,-211.42457569308232,418.1169291554178,-108.70879092303798
2.4,91.36441974305488,-37.02349246589273,47.824809175532685,2.3236162825681514,22.704816106712396,-25.872687062491764,-189.53004469328394,-2.387367026834041,-181.61471030178978,-121.23112250397304,400.6295540997746,-119.30323408694467
2.41,91.5056026759038,-36.895473391196084,47.042456899119344,2.313032364772634,22.46098149885596,-25.797981613963167,-187.80447849746034,-2.958520405905389,-148.61077477944178,-75.44840552994751,390.75201484120487,-124.10414600524888
2.42,91.62076520591016,-37.330009924563065,46.15994314096289,2.3356408860614635,22.375964848265752,-25.505223538149718,-185.8030412551681,-3.9079459480241754,-115.47285890661404,-29.857138084051975,381.0910356465769,-128.84912553395142
2.43,91.89274931280357,-37.48414470778878,44.300979310793515,2.1888454149742214,22.34761497779626,-24.59118802073621,-182.33488650360152,-5.080186544195237,-53.26690237030672,60.786358032008884,361.0491133924156,-137.5996279618682
2.44,91.9480706602492,-37.56258365033738,42.56365977316097,2.12103935817983,22.965648215703233,-22.357867872077193,-179.345995005471,-6.413443334826035,4.112467249503504,148.79866216006457,341.65052755993827,-144.93203659451896
2.45,92.33499774360102,-37.87417164825448,40.884382890142106,2.028017637131968,24.030811907235226,-19.50780890139808,-176.3304233339404,-8.220075433596326,55.122759571930544,232.7743773565275,323.0659048040711,-151.23049375174992
2.46,92.67997267217106,-37.9509088103659,38.98908141833602,2.116697258417507,25.617098052902943,-15.860415531470348,-173.7673660002681,-9.66964606071048,99.56949169870236,310.47586870899283,306.93608083337847,-155.87770348794294
2.47,92.91124372875335,-38.06393838634805,37.466871867661276,1.8721382617032574,27.74655290044769,-11.304727301313765,-170.85095438813622,-11.322727485047906,136.93290146265542,380.69579054219724,293.0568015199445,-158.79495252351367
2.48,93.33925535523659,-37.99177543459456,35.547140202389734,1.7010104093098064,29.532221405916793,-6.28963185934205,-168.45933042271196,-13.04425453782726,166.1510383427523,441.82564547428206,282.57853940341766,-160.47129405491035
2.49,93.78822329939638,-37.95559166822204,33.97146170804495,1.6271719355419214,31.853913667926214,-0.8557312346555184,-166.0000078655562,-14.632360782254882,187.48165151696912,493.5698443929337,275.71579261121383,-160.00028363420887
2.5,94.0586885719215,-37.9626119098961,32.462512495323274,1.2282957005879416,34.29123630460253,5.303906116744947,-163.62716705980097,-16.34652963104891,200.77336998703467,534.0919981329658,272.73636691482585,-157.98167662876605
2.51,94.53983389186354,-38.06992785840069,30.918974728592346,1.4765220145295692,36.46004252338673,11.22759405488499,-161.06145091579302,-17.970841289470187,206.49354797140703,563.6660780887628,273.8571966121378,-154.23287153527681
2.52,94.92762880623928,-37.79095858583212,29.192404813100172,1.0987682500596931,38.86215112701407,17.42605658620069,-158.4641599076502,-19.32435246345199,204.37756391585629,581.5064930146921,279.3680298542972,-148.67384758175035
2.53,95.09238559298373,-37.5576675524495,28.435351514619096,0.7763988279916414,39.70911959621991,20.569546569510827,-157.17773814512304,-20.162577113994015,199.88986258043977,584.5286559036165,284.1079996488984,-145.25280997920459
2.54,95.24555388763044,-37.60160102079908,27.508337605911525,0.602431778320125,40.58853769774568,23.620339901558975,-155.97636484552592,-20.808191972602575,195.28239227037147,587.666248927666,288.68088880934147,-141.36468850315578
2.55,95.83473948419778,-37.215010311788234,25.972432283680863,0.7594094691933128,42.378511096162605,29.744720588574594,-153.02547511856181,-22.183991620588156,179.69262918659197,582.4293890954644,302.2261367262047,-132.74539078301356
2.56,96.31764510329525,-36.74954776929985,24.51228621840092,0.32532389217007596,43.743230170565575,35.446365404161426,-149.88506586538563,-23.585686153893885,158.40595639382352,566.002812210028,319.0551316320597,-122.36625922930381
2.57,96.77357897412234,-36.30344604170608,23.010012411091953,0.32130443400956477,44.99846624098808,40.98353629977782,-146.69094696467343,-24.71610962755762,132.2666611004004,539.6721606923214,339.2600312025939,-110.5815287442486
2.58,97.28229567297066,-35.727500751942095,21.35562932725247,-0.0811908720280826,45.56073127400073,46.11004778563525,-143.07632305279506,-25.642201296497717,102.05039298629481,503.18830146348586,361.87679446903456,-97.54192962804548
2.59,97.63427742331824,-35.30122022082541,19.9761909359173,-0.19432718820855224,45.84617206326688,50.507477715730865,-139.3881166166393,-26.56168221258621,68.73773448987767,458.6606426110462,386.63046650108976,-83.49818132642486
2.6,98.21548336638077,-34.63876240817721,18.7928433052931,-0.8235216927107742,45.99990289018413,54.60314605377368,-135.26190818899858,-27.29719747228749,33.44930325867172,406.47228726305644,413.0349249029706,-68.48611084176672
2.61,98.47919140012867,-34.13169477602924,17.41383807136185,-0.9456046540706247,45.502900859447514,57.90951352044706,-130.6593907132058,-27.535733213559702,-3.3510639907901516,348.1186058265746,439.9187797043036,-52.759860689330594
2.62,99.10854171130832,-33.36176918946367,16.26725253558131,-1.3240586031284547,44.398291709022196,60.43012042035038,-125.8584705428265,-28.14949882776761,-40.17692992804061,284.82671641334326,467.09454108274883,-36.7953311287065
2.63,99.46348595140408,-32.804456611345486,14.945356044122947,-1.449594965201588,43.526482051909234,62.29078176209017,-120.6745279326235,-28.210763958414102,-76.43416317022219,218.26860448184706,493.6513394941579,-20.19436109966312
2.64,99.97480933362547,-32.24651096191506,13.784548485134623,-1.8103564339059182,41.67160900341513,63.398073778357,-115.21602840860861,-28.240356212333545,-111.27782642523721,149.4002662570118,518.8456946466757,-3.886721748732486
2.65,100.0368739826412,-31.75427576645128,13.165334042137731,-1.8381904284495534,40.74060395805551,63.50267585397344,-112.40336320219573,-28.43478469543251,-127.45932795271641,114.83811712821013,530.4246837169725,4.362289670349085
2.66,100.19754960814915,-31.517944979843346,12.715798961418031,-2.076356727983889,39.783934280304564,63.576178885112625,-109.72415559504797,-28.152874750602756,-143.6213352614945,80.08659849519182,541.8808172384715,12.422580383206421
2.67,100.81534553776346,-30.80209143734168,11.569524306322725,-2.383191055126295,37.49734304874254,63.28941206958712,-103.4872816765389,-27.970487441684266,-173.65773144741794,11.353481804979829,562.7965436867279,28.46579221715524
2.68,100.78762216581644,-30.414632767114163,10.479273081684461,-2.7627036971655077,35.26178496006329,62.300232007248994,-97.58493991198337,-27.413537842559546,-199.98102435027462,-55.53821022288043,580.4806277925177,43.79810413607066
2.69,101.270263197013,-29.692430464618223,9.787709762575679,-2.9057382859783196,32.861934870385966,60.59888863725549,-91.41961067297636,-26.481805593117702,-222.66127643223632,-119.5994113372998,594.7826898327221,58.36666972155176
2.7,101.70745225864832,-29.04086224656768,8.770307589475099,-3.0762155357089376,30.218001942748984,58.25952312924294,-84.83488931010216,-25.878524113178795,-241.07648608435633,-179.59063000016,605.0250544590217,72.15184225170448
2.71,101.68871696794083,-28.297753786381147,7.962783143263914,-3.429526801913235,27.672703672915663,55.5488661506833,-78.46361529451474,-25.08291223234396,-255.1801174439152,-234.4185464427343,611.1334437729741,85.08059356009143
2.72,101.87321358438494,-27.920555189101638,7.527351037223614,-3.832807661627215,24.775006175437944,52.41528006894911,-71.87875408934092,-24.00641660576445,-265.15289768490766,-283.2079963384999,612.6816768880963,96.50717962908232
2.73,102.10301338349642,-27.408704037012548,6.677545568954178,-3.8045576687055256,21.779490318044143,48.59073178032689,-65.66910154760318,-22.905103168897202,-270.41728327553903,-326.05027441479433,610.1235167770313,106.37781905000932
2.74,102.46756439422772,-26.84962457544095,6.002771605483821,-4.1476958301885265,19.280223428405268,44.58684029664762,-59.372459365521706,-21.605623617585543,-271.44131923810363,-361.59582621904894,602.9756947811404,115.350084878428
2.75,102.5515691497922,-26.811165393872937,5.502560976190814,-4.369486216136529,16.61941337950381,40.49703907405055,-53.19395606281554,-20.508246641501778,-268.8561257789427,-390.47026172620485,591.5654290283113,122.54457634582877
2.76,102.62954589696464,-26.558723539052526,5.257722635411751,-4.392031144535815,14.11797152927216,36.331467829926254,-47.33596335183958,-19.195630980091007,-261.7935102569358,-411.88868574155777,575.6378600955155,128.36750772422576
2.77,102.79465631987154,-26.279852801559112,5.054352281132187,-4.781117158174915,13.036181243565427,34.072099434192125,-44.62621531512233,-18.390299868214953,-257.0799869291091,-419.1747273480704,565.6682634443631,130.38740552091275
2.78,102.75314534970292,-26.22695195563977,4.6321654883052155,-4.614381649730631,11.821753372737852,31.892827109183692,-41.72732272236669,-17.86639955486265,-252.14419949010397,-426.47041711727087,555.7734575405716,132.51317975416853
2.79,102.98643748350341,-25.935975070225506,4.532939852209088,-4.913695169735012,9.685649075375126,27.305955885275548,-36.53138411441248,-16.55913337338324,-239.26537523791632,-433.6280288069849,532.4589048780751,135.27183296787638
2.8,102.98300962023198,-25.609265258073453,4.1762715551811604,-4.964064398046458,7.592999768052015,23.152574846993787,-31.21543691924476,-15.010018587340458,-223.63639762549744,-434.38514726122906,505.7358459880386,136.53845818031834
2.81,103.00817453527732,-25.597000692152495,4.016364928242522,-5.178526147194311,5.988913492354727,18.903133152034687,-26.406466055385774,-13.670394771350788,-205.84536743181565,-428.6211945480873,476.5468378280185,136.48633036861338
2.82,102.85807159512778,-25.346364359568387,3.6671238371718666,-5.2287075881262,4.159899614921297,14.729113388291218,-22.250798867986504,-12.172460846307331,-187.11444749633176,-417.0811364597576,444.92654948132514,135.02512589446732
2.83,103.12480006573422,-25.18707749780034,3.537740089431552,-5.219451789810757,2.7123789360798347,11.052305505446885,-18.379262289296236,-11.047772244686573,-166.83858385675845,-400.7105801017486,411.53930051519654,132.3379788067375
2.84,103.20302470424112,-25.323724996368,3.521893513650099,-5.391636079756894,1.7381068747358928,7.287786077751313,-14.758978065973013,-9.757930685669942,-146.05943750223003,-379.80491733232054,376.6053912768767,128.43092338653017
2.85,102.94254738052551,-25.127029041461743,3.2679784542841874,-5.514897449965844,0.8429484575711851,4.038911021073535,-11.59410954650993,-8.450909952320508,-125.27996648857695,-355.16100644594246,341.2891238344694,123.47782231501823
2.86,103.17501581704832,-25.237367235696162,3.2255473280750686,-5.818009522854803,-0.0867968997841344,1.236516982799939,-8.83373824439162,-7.235532484504316,-104.65010867058626,-327.3543535557119,305.57859462019405,117.95600441348161
2.87,103.1095995707771,-25.031654157369207,3.2996185511709855,-5.510950754018328,-0.5545590751534762,-1.4307532102013214,-6.340855280361641,-6.2982319421308155,-84.61339906684053,-297.4024956091549,269.8288342875606,111.26567744320072
2.88,103.33137274020682,-25.28850109086716,3.0021434986969697,-5.857597954930323,-1.1842469186253102,-3.5202196884961965,-4.447868528805435,-5.033831587949712,-65.63152058976482,-265.74227564223753,235.01091384972327,103.89276941141664
2.89,103.10220359938307,-25.26935232700602,3.2569063889818617,-5.674406983913385,-1.1767011756060581,-4.570776488990147,-3.2871692344981716,-4.791144688553573,-56.47033679334482,-249.33608311123103,218.21827693440662,100.20548314142349
2.9,103.07012655854183,-25.299462923835556,3.0412678464079272,-5.663793419048482,-1.1169165513495352,-5.372775958844843,-2.640788892600262,-4.1596686154709115,-47.76747019751733,-233.11382170536885,201.36035869849843,96.34593372201442
2.91,103.23256632223112,-25.474992180997127,2.9942366769846975,-5.710815101766131,-1.2490369793130505,-7.015599841393394,-1.3247723664801319,-3.402817220303014,-31.52536830471409,-200.37930317733517,168.94149939921726,88.54558030528354
2.92,103.13496978500753,-25.310212991327937,2.871010522733749,-5.817744079952769,-1.4858009186865586,-8.39133894115247,-0.16366902541030265,-2.72439101752344,-16.574646517180486,-168.0765543200188,138.30102781421695,80.47458682836378
2.93,103.19325901400701,-25.461004010352408,3.0933586207962565,-5.803466831650839,-1.421338471450587,-9.216232610515053,0.43039441047002336,-1.9612119128393657,-3.456516979034391,-136.24681100927594,109.8363848900661,72.19703595043286
2.94,103.02512970452976,-25.614160773312268,3.107660700451673,-5.711713072982714,-1.1787683729322862,-10.023356474797659,1.0000263860992744,-1.308779720139105,7.773655849055775,-106.20024269505919,83.38685223800357,64.11791202856786
2.95,103.02356060641551,-25.76046125290806,3.208403941023707,-5.952476889159932,-1.0545165250413935,-10.296128552706268,1.502741068315639,-0.841648727350887,17.74776880568885,-77.4856548163141,59.364749782634874,56.433351490003126
2.96,103.19079589044223,-25.994662854777154,3.0215742461833166,-6.115485915681077,-0.7507607712231213,-10.563132857589501,1.7566200027099965,-0.47175896786602767,25.738672636091977,-50.73496984646984,37.45774193485268,48.40264933189488
2.97,103.1660761475013,-25.86940347155388,3.0751558762480222,-5.824687696409217,-0.5929344221434428,-10.47749057905375,1.9238550014617566,0.05585411034134689,32.2177793604406,-26.462260046315176,18.01629400119831,41.27960974162567
2.98,103.21641953362602,-25.917560931272973,3.081220052449022,-5.862291658615845,-0.23507894645954533,-10.62398266735751,1.8267764191593503,0.23172663945621097,37.40108724568099,-4.399540833699406,0.8839344498531779,34.359380942188736
2.99,103.13123712190992,-25.972488745151775,3.048105080833618,-5.757949654555575,-0.10970157693213778,-10.25276910256932,1.5928932784498693,0.5306135499903845,41.23956185387872,15.363599203881154,-13.802172051475312,28.078015908872285
3.0,103.0697180692707,-26.107601062333746,3.1048036146854505,-5.701186842614783,0.24868860578245636,-9.889427662593082,1.3391615911603127,0.7022990262889282,43.77058355124898,32.86721759324458,-26.369563352604953,22.251616112136823
3.01,103.21381353575651,-26.2617058545422,3.0534675980648447,-5.814714133710504,0.4070564117331529,-9.800404352329801,1.3718848124253762,0.711701437137968,44.79676770911285,40.37802528279906,-31.761730707356715,19.4650191321491
3.02,103.02229135023414,-26.32670803199297,3.020680141064245,-5.8288146995564,0.5596181942664543,-9.750859970853737,1.1406278908678198,0.8472170595341666,45.628627403778495,48.168087739010744,-37.26030938573458,16.928543629523066
3.03,103.19456763181854,-26.331133584015035,3.221268729874525,-5.769428282047528,0.9037112020251749,-9.120148995909494,0.922244982366194,1.0099037724063182,46.5410792369235,60.90022213983369,-46.03696125193071,12.186049537344593
3.04,103.28812097803885,-26.314215810066973,2.8766888523830443,-5.907345997074163,0.9160464860179002,-8.606308524241811,0.8129680436611351,1.2544345619173747,46.86618745176122,71.54367492225647,-53.46432371515804,8.05730477797813
3.05,103.16491689623265,-26.385449097292963,2.9978371710512235,-5.911862043354487,1.1377579195064629,-8.32048044458237,0.2824253874103084,1.1885958266434948,46.55603828728981,80.95338391044045,-59.04367458723975,4.197497079039282
3.06,103.09081987943792,-26.47184720556855,3.011249355235141,-5.605320829234713,1.2433134765902998,-7.953069301103777,0.15175087241051582,1.1839012245415212,45.79934755513515,88.07106485309092,-63.50457538993084,1.2692265029070988
