0.01,-113.52809385873657,73.12645759768459,174.22202719953023,-0.06193181086061809,-0.06525355006517534,0.0356931680043161,-0.01215442633681151,0.08260596592809148,0.05254321445271984,0.3839210274669167,0.3220112630358199,-0.7035465053259702,0.48614956267970094,0.14396502693523436,-107.51957519820242,82.43945318927386,37.087581518685795,0.009545328742520847,0.14052744312462448,0.21602422467451,-0.10839832871500113,0.028000364567658843,0.03497113885607148,0.5291190329950809,0.6739683200409654,-0.29348254357545955,0.5743131778061865,-0.09557781053484941,-185.94754704819033,1.0757412999726148,9.106924731840076,-0.13222894501936708,-0.088816119720949,0.050322468565815376,-0.036820824367098014,0.1662956861134627,0.23119395845894286,-0.6150825766690471,-0.4100655250372204,-0.7268608185506643,-0.41468020738521016,0.06395543814029424,-158.87190579537693,13.183570753698984,18.81505004871559,-0.11420570209119596,-0.05019008387318755,0.12065763970544312,0.16183692834008076,0.19004215332732194,0.20865669754652397,0.4974143973304291,0.5696641786605214,0.4648654713000389,0.43003894807463505
0.02,-113.58654817870911,73.07012744483139,174.21457547752476,-0.066336774397933,-0.15608171156946324,-0.05717910400899129,-0.11860672607571288,-0.004396760689403241,0.26994173236503577,0.4484932448058125,0.5509033840164094,-0.4184814964403349,0.5059725838627464,0.1646375904509296,-107.45804088502855,82.25090872142852,37.27093035357291,-0.10876498349793573,0.13644254255510022,-0.13070410694606824,0.16418342198357846,-0.010764299108327054,0.13497999161391835,0.43701111812225,0.5960615930331643,-0.5438769429587598,0.50180119503034,0.14969752967126376,-186.0053316475569,0.9954748319236452,9.131981418438345,0.08748211822379606,0.012897197925933853,-0.07777160422927144,-0.021902330789648518,0.046640671315922894,-0.0038041621010682022,-0.3604990997374845,-0.4065203627317868,-0.4658677097978732,-0.4062018083169051,-0.017559284287160925,-158.89658582358916,13.017033184499985,18.80225093376223,-0.0011897727912522202,0.02888876632201398,-0.01097907285491754,0.06823892599245882,0.009395979846323128,0.0325378683014949,0.4832819330489596,0.6326672987639146,0.5840656478765583,0.6309070142704895
0.03,-113.65033100720979,73.48418490947043,174.21312125740025,-0.07310381832965852,-0.023312076126655357,-0.08829788482171382,0.08821792665757562,-0.11823647936168609,0.08878918924211232,0.42822369603025184,0.6892960193177057,-0.5252972724821466,0.41142578217428494,-0.07108049945990637,-107.59006472226389,82.29116602963254,37.23634583230412,-0.07096115112749245,0.16232407908620267,0.041814769922368274,-0.027612402892752914,0.1157912420743033,0.037757025965069926,0.5306400569847322,0.5589793559584098,-0.43747078140605866,0.5757448111694807,-0.14517177636529366,-185.78118904925267,0.9460520583230572,9.16374367233501,-0.03329008005692078,-0.1524052350643671,0.17008743934564813,0.1290502999156884,0.06065954782504154,0.2407627042383932,-0.45255729920442395,-0.49042226935793315,-0.44713646229755344,-0.5179856249939296,-0.03531459327956732,-158.75336284105936,13.006485220393051,18.83891105207656,0.1445106962229281,-0.06827146749028058,0.13782484720281266,0.05290776265897381,0.07054366681406704,0.04125102349704476,0.6908346805681691,0.4776778889641015,0.5287014433734044,0.5460799008677196
0.04,-113.75973387866816,73.25545812577832,174.15644218023075,-0.1985348152585495,-0.09757000572569571,-0.15730482964894105,0.13339011275332935,0.042466265462926665,-0.02623530632599226,0.6055309593277689,0.5317177339466558,-0.5095528122923024,0.5133902799759313,0.045014971286191204,-107.59710093768619,82.2303155251536,37.04648456035586,0.013775169106019017,-0.0015320507007787892,0.08690861259770696,0.03699513557161838,0.1526852396320864,0.07981639241225195,0.5935552209209721,0.48722597896587777,-0.5303857658734863,0.5560414678308819,-0.10768001697656837,-186.04358704175138,1.0369147074172125,8.965017068570305,0.13712941840163428,0.004649294488772793,-0.043703891985705456,0.05468279842603045,0.17028333088664901,0.18155054342726523,-0.5568206151400971,-0.6091734469303446,-0.5615983128780312,-0.44590938208636033,0.08803240991521595,-158.72446892643774,13.060853706355616,19.01810523571732,-0.08475497513538997,-0.09058027384907542,-0.03408790530316479,0.06233488451296852,-0.03064789929902427,0.013450443015308226,0.4647667279153785,0.4272570161285745,0.4916986674175723,0.5309030320772835
0.05,-113.58775781377832,73.14041723315059,174.2872231787474,0.07023274986710457,-0.13343531183728327,-0.025968892509355593,0.052080510053594056,0.011296269105034142,0.10175264536167972,0.6430860706721513,0.4525833451112946,-0.4286674448288028,0.5393681153083709,-0.10001781239085923,-107.56602720657808,82.27633036935137,37.04853727008624,-0.14051669832308888,0.13730319642888272,0.06308544640756715,-0.042497973640462,0.01653223339569501,0.1826823838759721,0.5758321582668252,0.5404909683630582,-0.7740644667509162,0.5176388466314648,0.0030434696162079874,-186.12290956428598,0.994234139927906,9.043136923852964,0.039047421648388314,-0.06852252136865532,0.041637859560651504,-0.054916826999349466,-0.12342294564722264,-0.19908229590756768,-0.4734383426959266,-0.3897403508067444,-0.4681643699966378,-0.505193145255,0.20229904135785187,-159.0099174587291,13.149720729464946,18.771000986208247,-0.15261779937228329,0.03232380640541715,0.10938786254892567,0.14623432571484812,0.06438719382098293,-0.024666489611511015,0.5447622769863159,0.52124068536477,0.45829863970159096,0.6957929536078562
0.06,-113.71999345733566,73.10895072684333,174.15523441200364,0.16740431432397168,-0.06741140518785196,-0.10258240575259914,0.20427198935264834,0.10939489897482842,0.23035635097609283,0.49060841913457925,0.43275193555069513,-0.5411161483692509,0.4287877793422785,0.12754380823522132,-107.57717092374787,82.15164896177826,36.931435077965126,0.17433705084015114,0.21351503248682627,0.23089706518848319,-0.03183153944257326,-0.0682785403188097,0.1659915097371046,0.4738241838845021,0.36378465123582837,-0.4787872270052435,0.44435134907261764,-0.04443718225146209,-185.88617607229978,0.8835811621546373,9.163854782492814,0.14256996029521726,0.09689279569326414,-0.09560822372736423,0.11592140831509229,0.06215952421969638,-0.02851109442645812,-0.6626166532346887,-0.5834393647468765,-0.5490460119479703,-0.5044938506544434,0.06329104006259588,-158.84604231698907,12.832352047650012,18.876262025629554,-0.17437526352034655,-0.010757592619984366,0.2774950056047185,0.16343795627059649,-0.24386467459631353,-0.028390432462170715,0.6046401979577414,0.5997883198502745,0.4019707653078233,0.6719367482483989
0.07,-113.52529627991146,73.18042753975773,174.21772122346798,-0.028757562664566756,-0.008192128251879162,0.15502529042704313,-0.019178326753473546,0.07996485984712182,-0.17537412866016197,0.494320028673175,0.4384437492177478,-0.6557046444919428,0.4510238965589422,0.052470750247280415,-107.49702505392587,82.36192401314153,37.24452260418898,-0.08251468427693052,0.024499370180176228,-0.15244962077301794,-0.08995718510724328,-0.0937852986452333,0.18334677829193233,0.660062840421126,0.5194157702213259,-0.2921226838124762,0.48015818774053054,0.0796337269326354,-185.86676579570582,0.9697935435135773,9.028828369819363,0.026130069391406816,-0.00425027727283254,0.09898919932384442,-0.03000569630049551,0.1421071381501633,-0.03514755373890691,-0.5828981731653691,-0.42625591509701116,-0.5292237646014888,-0.6632829392332836,0.19204589317354293,-158.97853273057882,12.89634998139451,18.98536044817999,0.05185104859875122,0.09738821106135835,-0.10153721727846819,-0.11042113172712399,0.06626180453666228,-0.10376457792450153,0.22545097704696204,0.35042922462408055,0.3501882625150582,0.5875275846902318
0.08,-113.67445536849071,73.20925007797273,174.4217012512107,0.13868003867411421,0.021315479754208184,-0.07539916499396504,0.06501926430223323,-0.17829497877291753,0.026078544121398047,0.5369467888327326,0.4420496624479521,-0.4123035793979044,0.4537498350112788,0.047916231296017985,-107.64437454509864,82.24647273906757,37.0103495545198,0.09141124681290345,0.006687010875494226,0.04943720620719477,0.1802968662083112,0.15022113778412452,0.2047785556464158,0.5259073988721168,0.5186509113963149,-0.40177458655749076,0.5671369863433612,0.07188031146511024,-185.88374302820063,0.9125510575900996,9.206085157365203,-0.055366091762521094,0.03940760627083345,-0.07350571325191774,0.03578760913582466,0.033084121815415445,0.09927644282472228,-0.5457607621662047,-0.6807453282007677,-0.3366923161005675,-0.43840099053839787,0.2265817392377898,-159.07819945414272,13.113362504586,18.856731616627606,0.10356872111980583,0.01554401181653979,-0.061691392106159676,0.15167232824683483,-0.08641247545090687,0.041008130012092976,0.44264736002714045,0.5054771364135314,0.5038385436018443,0.6287348360006907
0.09,-113.6065589244299,73.36091982997921,174.16143784851548,0.11116582818181632,0.0033299475599297343,-0.004553600993582408,-0.09098014513220519,-0.08940408794525373,-0.06991973547022858,0.5227166235876255,0.43001105233457854,-0.4976392164101179,0.4902299605821772,0.13189397552324916,-107.63096631106986,82.21486262606366,36.83862132492018,-0.07878139850325395,0.10370794953582158,0.00988807659276028,0.026059260526204914,-0.00740459720947198,0.15495534755771928,0.6064417955251565,0.554290403062771,-0.5029658508436958,0.4645092990334409,-0.029155561460183096,-185.95320211737763,0.9753557867298414,9.147734843985805,0.17089838589080328,0.006839667653002944,-0.1865696437414843,0.008192209013028497,-0.06614541955017579,0.1695488260585582,-0.5776953131572035,-0.6649051171494549,-0.3653412073185742,-0.5052155741002721,0.04804505949140109,-158.96930287449703,13.291262034761893,18.834072519161108,-0.1624414852846665,0.06562645086215362,-0.13875258210173186,0.16895641863871746,0.010707627784154903,0.2360743442728105,0.6836368284512013,0.4721362960804672,0.542057503289552,0.4115486738828011
0.1,-113.77072278673282,73.06899575982845,174.27465963553766,0.04469021932857227,0.08792951722764299,0.04631703628341438,-0.08088726251872064,0.13636981666726702,0.23050066625877896,0.5238653843948008,0.41500655784073426,-0.6016982333632599,0.58132063628588,0.2852840042777321,-107.49152491385401,82.24296383112177,36.888357238677436,-0.1585444954810496,0.1885362953308264,-0.08006004855878972,0.08770714184719788,0.10012573663730814,0.03888671100391262,0.2696066587468581,0.4983417164623173,-0.4068186727247126,0.4573149208747619,-0.0337866000613411,-185.82027633814945,0.9908399110314405,9.185085213877125,0.04036285062891738,0.04016116509573924,0.10821393159862956,0.1616109961190292,0.07917665695016433,-0.04823306904818922,-0.47225069410499076,-0.6411969683588277,-0.47239681945202844,-0.6197272613750593,-0.02743479283455777,-159.06005963030492,13.087336534838224,19.06582748415243,-0.061935024947812424,-0.0171255970574286,-0.019626617708919075,0.12703414172475486,-0.01172485303599631,0.09021786388650331,0.6177124728117784,0.3583853425653867,0.07072684968877957,0.38609130249465307
0.11,-113.64877543701094,73.14209989714858,174.5116177822097,0.10265542081030524,0.15483093031353606,-0.029534310187125157,-0.04123519158700559,0.003693943781033264,-0.05078780153611817,0.5014873378925344,0.3428196553253443,-0.3616210601578743,0.5041863560327067,0.03524966642285139,-107.5583385698502,82.29004079646025,37.02604419081824,0.14461583565773592,-0.1623516950632117,-0.055168038900782056,0.20473996230748226,0.04625866438349516,0.05229584807954131,0.5842712894743218,0.43008956201190224,-0.47336167788550476,0.5098732158791043,0.12999754825433096,-185.9363444929371,0.9904553051082751,9.225697863151304,-0.011625058366584567,0.1556518672607146,-0.13301669837154703,0.058632536871032585,-0.03951920185873174,-0.022070249584562593,-0.4562082730613699,-0.3641489949291421,-0.5300359669661107,-0.6448945119297884,0.0286197985641731,-158.9639223566923,13.171488119754265,18.934034179981342,-0.11194926957394444,0.07416544064454274,-0.06256498295231214,-0.005774377073107539,0.25657080674330457,0.16819898556170298,0.29405148080218346,0.3427154125780739,0.33192833307806147,0.38995297452888306
0.12,-113.65006597699677,73.17462284691209,174.28330998642568,-0.020507802764429796,-0.08277381029508403,0.01367201375688251,0.01816738288220198,0.1370326781606252,0.04695088122160725,0.5992756841354552,0.3724869663277806,-0.5254237460002934,0.61520365030628,0.15076290896180633,-107.7029517984763,82.23482928515507,37.021265836620586,-0.13247851259743992,0.002070820683031105,0.020204457393602243,0.07286573058319434,0.05934627078688143,0.15660988463890999,0.5361396144511121,0.7037261418649418,-0.4016031938818859,0.2660138495421266,0.08441281262441855,-186.0197240771366,0.9096621016609097,9.110561478010208,0.0895959478882523,-0.04171287930007958,-0.20519665275825288,-0.012914030081738026,-0.034372750134918695,0.12380669535943062,-0.4670239714245196,-0.43336247171423004,-0.5625140787813697,-0.6219606181025759,0.057349468291029555,-159.06844487283684,13.259262236317964,18.977810836402494,-0.027618649705737956,-0.044427459769778285,0.10840610263129828,0.08346965627480155,-0.09344674235358051,0.02320473455394699,0.6062145460159973,0.5789433412347879,0.39297288837273814,0.6571629567305525
0.13,-113.72517325111512,72.99674378511693,174.26951841082095,0.158638423887039,-0.05093772036555059,0.003442263996638601,0.027427567027992785,0.1506486157234072,0.23352449530590283,0.49806687748628803,0.5227598987290432,-0.36010437625486785,0.4191555168402143,0.06240887749643067,-107.46334612685712,82.38457479706283,36.79929496014776,-0.04497318180172225,-0.09105091375177388,0.029295828948396198,0.2379162845148164,0.07228765335532085,0.20676378255688377,0.5507548994984214,0.5212248476850491,-0.6831322707274441,0.5417088351228044,0.2165559541489407,-186.0247288594656,1.0708858021274699,9.002789642606173,-0.023015298436886794,0.1308190700616141,0.005034573591936015,-0.06585279940482569,-0.10501261661477028,-0.09871686962892423,-0.33084665940166785,-0.466827804756247,-0.5206915175689775,-0.47214219832668775,-0.08557182288772158,-158.87701863372118,13.07851774741517,18.763414501166025,-0.005624084606835163,0.00298686379670473,0.12854385756777006,0.03885275656308115,0.16261956663816052,-0.06905898892695944,0.5263310229122402,0.413318855315437,0.5119550140125521,0.4612013894476365
0.14,-113.5401466068089,73.37233791213283,174.17748981996758,0.0350519854899807,-0.20210226137711815,-0.05143335942069164,-0.00205797765567263,0.11356654047752764,0.0709048491492512,0.5552086762393957,0.44806376774310597,-0.48334189329888194,0.579421990339042,0.22141868547298466,-107.40482174502455,82.44835512856498,37.03061447182511,0.14561472776119094,0.1188045686231324,0.12357964549037032,-0.09816347938784875,0.12103329473021164,-0.1272079208034633,0.5582674956077754,0.4675435774527928,-0.47099619251750285,0.6046318433596123,0.16600949767662482,-185.75262190586108,0.8285286764623806,9.242176162649056,0.153522954919758,-0.1106038491558976,0.17503834142653077,-0.00967564113816105,0.093924970993992,-0.08042908390150853,-0.5897636255931281,-0.45430879979503486,-0.39019137909437285,-0.6236701040894002,0.14708028865847977,-158.84907843670737,13.277634029406698,19.07911512569495,-0.019734433489132657,-0.029315190705049246,-0.045154300296899916,-0.02547146428984469,-0.11690276280099625,0.02173578215942868,0.6082588521196963,0.4656870113366134,0.5804565377031199,0.5169870961438666
0.15,-113.51522778767395,73.18958610194457,174.22868228571915,-0.010191342505987425,0.0229980969402373,0.07173555986434065,0.03812730290874335,-0.07450152407474789,0.04065679793765877,0.36002140958313184,0.4022642571921634,-0.304811724132674,0.4803535994065037,0.2980669009829478,-107.35830912920109,82.38208660232888,37.10972946343231,-0.11373882658176998,0.14442338977182728,0.2503408157850775,-0.15540609803300817,0.006317446102289598,0.02150700485309372,0.5858318049268815,0.6571913050357796,-0.3970312809167339,0.4660533054234112,0.0942852378608886,-185.93351110363662,0.8691900526204331,9.09370359932391,0.0037492349522037158,-0.12212319827421879,-0.009183062235580608,0.032340371798332226,0.1396164857888014,-0.022218162118590457,-0.5775972609922574,-0.49861290721821727,-0.6243336674485785,-0.32464765770951787,0.020019710126229773,-159.0250764793644,13.380915848465152,18.929720303258616,-0.013558052444819304,-0.013682341905776491,0.1733561483574531,-0.07614122004877026,0.0406939109474468,0.04026034174344795,0.4529719026520176,0.5187887898495152,0.6646595053183517,0.4604223277582458
0.16,-113.65049274119566,73.16701639341595,174.6586764170486,-0.05738476151281993,0.1385967981033962,-0.05948553155541969,0.15805693451387437,-0.09034950582993244,-0.04678856870285418,0.41612390771980157,0.41733170476327514,-0.5878747354825765,0.369412963209331,-0.012867930457203136,-107.27155497904634,82.43228723623142,37.10219384643229,0.021871857864780082,0.08537119405633689,0.018182023561568818,-0.09426461930857119,0.04190373971841117,0.09531896206927443,0.5518967766364099,0.46562894009711414,-0.5304700124300801,0.6479799538445644,0.15697286568673638,-185.79953115384495,0.9900928987063151,9.056382417728072,0.013297612132287022,-0.021211471917497934,0.20983396221955786,0.05646270160940889,0.020321801251161384,0.05078448173082055,-0.39317361204677664,-0.5102246431928137,-0.4181196118882279,-0.3778284178656499,0.062462523936402406,-158.95940190413222,13.213497401381234,18.955013651051026,-0.01742867949773432,-0.08246541514728156,0.011820584898077132,0.0964790551756385,0.225763064247747,-0.23857529674381148,0.47447686834305697,0.5440153567472128,0.7944712512004325,0.555882475086512
0.17,-113.47146696648444,73.32951505017783,174.4633209788239,-0.014637610108275734,-0.12236446439276244,-0.06596763222683973,0.04865122724631816,0.07032379995238297,0.03577243425388702,0.5377208794169668,0.5344968502192015,-0.40830119245435403,0.5952570298234588,0.2599656138285199,-107.42059630859444,82.27934814395168,37.115583065471604,-0.05344911766624866,-0.08321525316963692,-0.03663921162428261,0.07384948895888695,0.12471537711372842,0.04084912683483953,0.5425630903898061,0.5364958933704194,-0.5556588759433326,0.4457195826481697,0.3086469149954669,-185.9745447819485,0.9739210769157101,9.233057040353533,-0.04537646530777784,0.055699849568809155,-0.07515862717652723,0.27681773772379303,0.09478870375838852,0.041799554120993856,-0.6641814813288415,-0.5469041373149728,-0.47734943094971455,-0.4096053089504573,0.31649797220307585,-158.76631309970784,13.024343158992252,18.969582255296345,-0.1959273615014721,0.033788477035735974,-0.0198646623744343,0.13181177208804515,0.16326112400630916,0.09648549329519543,0.5723037224942913,0.6020731645816926,0.3877562435357903,0.47899573656579275
0.18,-113.63170337895109,73.23913978301034,174.23230437516438,-0.11637554946747862,-0.03872483894132964,0.007220406961527812,-0.1350656637082459,-0.041995638327175414,0.02471552963264919,0.5619754305698635,0.3977140499695375,-0.588500312751712,0.4729670847564774,0.2508458381295684,-107.41364298030807,82.35940066256296,37.11587738475101,-0.15392024371980884,-0.04867893947498719,0.08870209624872889,0.22996113538737745,0.12939946891482648,0.1443430080519615,0.6694657588305012,0.48024620579368554,-0.5986001111740553,0.49085667725345344,0.15746330950460022,-185.95979542773085,0.7039111140054103,9.193990162405026,0.1294460639655181,-0.08708176993228191,0.0446824666730454,0.10132465557475652,0.357621422592098,0.19742691726013445,-0.499843357684611,-0.37393029412688994,-0.5537520058759233,-0.562086059589756,0.07071310124280672,-158.90884427426016,13.413833625894062,18.970957128278577,0.16005648529403896,0.026422184724293647,-0.0601674245119651,0.13111216413517754,-0.19848608477423035,-0.003243321987102518,0.3870325110949766,0.6079462124839391,0.3919654179574718,0.45088356462341517
0.19,-113.66717356265984,73.15276464991152,174.328495399394,0.31089103424165115,0.06097845036043187,0.13323041615055195,0.10754663375155962,0.29706548792711085,-0.046538133393846506,0.4016657287400676,0.35480746091792936,-0.5169015702054912,0.6097457160437979,0.08353956097626777,-107.46029400528847,82.18994525297603,37.174348573649176,0.18340858180949526,-0.06721736079007283,-0.04844410193457244,0.1861876716819968,-0.020984911279492188,0.3328192945669563,0.3952781738693497,0.43383593301410645,-0.5327659385718517,0.5597807508431593,0.22071669929674195,-185.87895489898318,0.7528750468948381,9.218691275980612,0.12596610491862567,-0.028159795237876213,0.001842764204097385,0.07131692502146382,0.19558495584074215,0.19076065111854357,-0.3510078343794888,-0.4522345367757164,-0.7948607635937307,-0.4490689742740882,0.41769115090688763,-158.90654578311572,13.054880116555006,19.075208459529378,0.021754975792572826,-0.0043119203242676304,-0.1515028857174579,0.004782917059225301,-0.12890151998788738,0.16675120963864032,0.6364313905126987,0.5460021861170348,0.3748076262999887,0.5969816562798755
0.2,-113.55369432986195,73.07451345310956,174.27244150731295,0.0719661346570705,-0.13717278792703214,0.09776744624405133,0.021848575548912626,-0.09285213833261556,0.09787895823317969,0.5583037438389665,0.38605981782111387,-0.488630312619478,0.4788928794456153,0.23793055052032502,-107.29241040631203,82.3106100897729,36.838190964786165,0.12320801359449178,0.1465232997252704,0.13957546417656114,-0.02136727155642426,-0.0827922631484585,0.17659822747245046,0.4702776511479662,0.4978773953088339,-0.6666432135480189,0.41981063757449033,0.24699584682401982,-185.70935951998675,0.8852961537216532,9.37021690527803,0.13824697688900267,0.003371499790706424,0.14478355642045568,0.020545155429509306,0.258905530567387,0.0485842616716962,-0.4660462396652857,-0.6668535687657207,-0.6134483007968872,-0.36721933970693155,0.1665403127015782,-158.9213751256854,13.246241145373357,19.060523211446537,-0.05078945921966306,0.07329748119114579,-0.05902108713472191,0.07249478611809883,0.20314969272171862,0.02283839834073951,0.39428310404056177,0.4989265312825105,0.3493571779492852,0.5652074383130877
0.21,-113.71856173241592,73.38996460896388,174.54563887390393,-0.04901044651487782,-0.05193361644291859,0.08425502042357365,-0.02637821066194012,0.015328020331067886,0.26745738371704186,0.33997238318773604,0.5133982660155212,-0.4454103822128269,0.5895979231325632,0.17787572215792577,-107.29566430048723,82.36220369781859,36.41524021050969,0.1707383166345234,-0.17551573999710737,0.03689947710910715,0.07190446429658603,0.19733428558286586,-0.019832253545048778,0.6073835559245929,0.4805426268333043,-0.5006674149886553,0.48676861573676267,0.1822874288546018,-185.6213337887623,0.7924033186668002,9.156363752622505,0.11704209697916967,-0.011148500127985685,0.11646774181129839,0.024113517924636767,0.14037740030244564,0.032895353642993265,-0.5313605559530767,-0.44478312415570237,-0.534377757797004,-0.466170846438843,0.15744646764714104,-158.99666323796026,13.249315583286046,19.049370273044833,-0.019753223877193422,-0.013633166607544574,0.11378734389954298,0.08601376643230407,0.05874064672092785,0.10232167770488595,0.522605464792636,0.5781514813489073,0.40269977992733363,0.5879169754798229
0.22,-113.71876894515427,73.25242617354405,174.3224219459646,-0.04174670207446826,-0.1094200417201447,-0.10479927398951903,-0.033045943095809174,0.05408930457692251,0.04812970078354374,0.5499567887190457,0.6190970508005089,-0.5234067033762596,0.37964844807727355,0.14779972002126257,-107.3153412307363,82.30942131195272,36.625061192429065,0.07397605740856267,0.036262645404013236,0.05439986769761059,0.11260655011400414,-0.0462628897385476,0.22696824740063115,0.5515914604294192,0.6202110039602711,-0.598239656290545,0.41479389161072144,0.21288825428009464,-185.63308632946922,0.9791326507346476,9.35892684036625,0.01129767209299315,0.13292101460462077,-0.10298402715585057,0.0716786881101325,0.17436720674958883,-0.006232556886312371,-0.5474881364645701,-0.5538182107258282,-0.4709185606845513,-0.45410860252757246,0.15379280350077318,-158.87813374081964,13.136873281939671,19.010944825473427,0.1167966637540541,0.03551542678535931,0.07053243984456518,-0.035808527210130975,0.014936145725183397,-0.011471706454149352,0.5495393987085541,0.40268197037887643,0.5307066112167291,0.456947321075698
0.23,-113.62155993585795,73.2633649305082,174.22224433006096,0.044198029903388114,0.16137104786277723,-0.1307018283314911,-0.058656972024760196,0.204627631872213,0.10508827346709201,0.40059018082673714,0.5345937778019938,-0.5299987505045395,0.4290552118464014,0.1667497188297195,-107.48230703187134,82.3262101625124,36.317781084107175,-0.06777591124868981,0.01851871114796471,-0.026066489336551053,0.13367869433734986,0.009281491565829005,0.13765873265287237,0.41787976756234824,0.5945689014824196,-0.6263649869770573,0.6703391823963603,0.28387811492916387,-185.7328709208768,0.9049412108122402,9.407195553327751,0.05025342838480939,-0.22059863787068698,-0.08755208535241504,0.18556475352361004,-0.04261590140571869,-0.04586836935894338,-0.3344772582772984,-0.5292805347604208,-0.36614393883876845,-0.38008086774589755,0.18372551026399428,-158.78161862451594,13.352354815044317,19.106337696259835,0.08352375052207611,0.06876630175402543,-0.14151621838569178,0.07558891061950075,0.018857066162697125,0.35789690250042117,0.7016758425969502,0.4950909742331336,0.5795856638818104,0.5440322470503675
0.24,-113.55085073654445,73.23405758371817,174.2579867899432,-0.06847454057074868,0.0411585933655457,0.0737022683646245,-0.10754342071083829,-0.02978641837364515,0.20761347668341054,0.5474334263528987,0.47945753002299163,-0.4598312859937638,0.569668950739007,0.33019787645406334,-107.3866548433767,82.29699401500528,36.412150997601515,0.06615241949150473,-0.2918856841038738,0.005993172550003107,0.16307792994092477,0.04968310192328803,0.007532428047223622,0.5376863493741411,0.518900329200483,-0.5994903290968602,0.41416167220391037,0.22549779401575315,-185.59370737459835,0.7490408459726798,9.310870953986882,-0.05214566422790738,-0.013502863390831524,-0.012563131975662348,-0.0036575559843876476,0.189850137252048,0.02007083649057502,-0.45872073053008805,-0.5744593756418384,-0.4062221973183002,-0.4705258742162484,0.26542107898342393,-158.7430915168464,13.001465375713423,18.968202225426086,-0.1157349472158525,0.25060125500906427,-0.13723759336993854,0.017498647107868012,0.2680264257660477,0.10595028545547527,0.5755386836432799,0.5798820350724697,0.4605619104805179,0.5165390087764328
0.25,-113.49228334323406,73.16102422731645,174.31475494761932,-0.12175283203631876,0.06931208888492342,-0.004850096856956272,-0.07214516821401638,-0.04079574018610281,0.13685848864972391,0.5824063226577354,0.5470214254276954,-0.40075720656815517,0.5178598676366569,0.33953410358549463,-107.37265540345986,82.42091753821667,36.243904282385024,-0.13836572093972324,-0.013320274212236933,0.031709807373958655,0.08716819983220195,0.03483461673507988,-0.021357457707758376,0.3458412845697193,0.3294308072240767,-0.3973895370125358,0.4461707875194668,0.21820760624281443,-185.81577746614724,0.6923466843752547,9.396714411450901,0.01669657993828543,0.07573365019781442,0.0037463706043317025,0.2555135280873314,0.2764971540300504,0.027426999908859127,-0.7329901438114348,-0.4022473494584696,-0.5277191807447144,-0.5076965853704801,0.2490524688238922,-158.9934219674744,13.236645224631896,19.094672109064412,-0.18958223315622946,0.10016187998684836,-0.04190876307043421,-0.07986820826425438,0.022212331792980905,0.09697624652747204,0.5275905013537147,0.5156842292607401,0.7178184113702153,0.3505805748496811
0.26,-113.59583513892554,73.31062875035886,174.36450761185324,-0.03528854581026686,-0.026660982134064343,-0.028418926973567262,0.24588779980154718,0.008508909688676168,0.06924041885224405,0.41541912827021665,0.49893864849563996,-0.6034312333016572,0.43176267633756205,0.2710215152045046,-107.38566750980728,82.21294641639813,36.40595985952433,-0.10422398671656152,0.2047562573619591,-0.10609587012532043,0.07640767273397245,0.05130330732016049,0.006109359842915919,0.4580129567292841,0.5687788845002146,-0.37171345508055825,0.6463721351895193,0.36564004336759315,-185.73896043805823,0.6022068900924358,9.186041008187994,0.1617990101673683,0.056570630544378164,0.10149206578150531,-0.1039124621557983,0.13729251018095082,0.13066534923672282,-0.5214391300177112,-0.5184099515680873,-0.4080960462514326,-0.4225771717453233,0.2100970553012439,-158.754862287182,13.1903748573415,18.962403510016248,-0.0198644346143892,-0.1478682837431988,0.054408725002008475,-0.10308964383420532,0.1957862992178161,0.03645107569830724,0.3397487384266249,0.4397360679817137,0.5070430882920227,0.6258826449688525
0.27,-113.28047616168455,73.09081143470594,174.45706800317848,-0.13195320827214316,0.018272265507858647,-0.08355799139920075,0.027518702745258597,0.04245081571068657,0.10251143234532885,0.5080964140562045,0.4443428651632104,-0.39972161473605977,0.39242488752968363,0.40644139634333265,-107.36738776971752,82.51860295721976,36.568936898964644,0.02752794789553725,0.10473164659051441,-0.09964235870980181,0.023764713111614932,0.06681573828745216,0.04827569585026473,0.48215029430454076,0.477825501729401,-0.531348089654528,0.4653738148529372,0.24072431874911615,-185.74634596057558,0.8704700886759956,9.254144808288483,0.11633556649965321,0.05064519124751748,-0.030221574612524574,0.012261033253542983,0.0789716678648503,-0.027921561210184062,-0.5573736553822575,-0.5367931533579053,-0.4607390704533485,-0.44041635868834217,0.27019369616335903,-158.8352581856466,13.238958466587304,19.026909291566334,-0.030738316174274145,0.2342272636654671,-0.03450439176405951,0.14234897369952013,0.24759590016683078,-0.061830820054495333,0.6195199930156111,0.6177595485147828,0.6819318195092561,0.5425807615073777
0.28,-113.4002901265227,73.29061778367326,174.42446675207182,0.039257805617254324,0.2007376743048694,0.006420568807438143,0.10385110975547023,0.11565580999851532,-0.07168592968048268,0.6062729713394598,0.4163120892258352,-0.7637339125944481,0.5417061271856752,0.4882974240074123,-107.40785472207149,82.26978389492687,36.71940554424191,0.05701616731448651,0.1466042662542562,0.12057103575260801,0.036270207464473285,0.09715104666227997,-0.03478634803308591,0.4786490871554842,0.590940089664811,-0.5542640090823026,0.4252034859110483,0.2060269002288258,-185.69642052543557,0.9378055859597942,9.352226512660538,0.0688933207863982,-0.07783819356658284,0.10149440883375006,-0.03785797329725872,0.1729237628366786,0.20418105079476587,-0.28997989528676116,-0.5492913329744478,-0.6206333618305195,-0.545220177563867,0.28825243344938867,-158.8329518054177,13.085221310835978,18.89705503768383,-0.12225991781311629,-0.0929552330055461,0.077190143849907,-0.13278776128789122,0.1286444595401222,0.03572021276482328,0.62788593451131,0.47498304788373724,0.45900922695678037,0.6376468353717815
0.29,-113.63409113878848,73.26045835626152,174.32226833573787,0.1343651840759284,0.07611735441825494,0.10407440972375714,-0.10479066312918488,-0.07059794954736028,-0.1468457394737093,0.620504884110087,0.5931437562205378,-0.5079989199112185,0.4206505548135571,0.30705574832050353,-107.35309974920452,82.36505328513881,36.74509277209026,-0.02351575450608129,0.07438910713167321,-0.032185853218005156,0.038338712756518595,0.07119586086043728,-0.030782067362646257,0.5445964227494893,0.5120944472028511,-0.6485122437345149,0.6205110830826184,0.11494381139898652,-185.66307769930378,0.8769789324001254,9.236956877152945,0.0456451187574503,0.020919321215803047,-0.05663341101782932,-0.05493753687703748,0.12247652338080674,-0.04516516635288645,-0.5550839555916047,-0.48413734686818183,-0.5951276769113328,-0.672438415156202,0.34726021817830677,-158.89085618992988,13.318688966658069,19.144222446070376,0.05901752046385905,0.01970849799861334,0.008569695164829876,0.03674365098474473,0.10530553921187388,0.022430202757400108,0.6067603173035856,0.36527499800968255,0.40767774923345484,0.45132625751117467
0.3,-113.52283650901352,73.2480370599731,174.36878917601175,0.07633761011718782,0.07337250867976328,-0.0543891910916785,0.03585891740406155,-0.1556877376547727,0.07785983798246628,0.5940761115560856,0.4856825965043383,-0.7098090367297083,0.5611168396398001,0.22128213912044484,-107.33922888619391,82.32411453052299,36.59217545841935,-0.15479570467958342,0.11679617247332567,-0.07564746624669338,-0.028585619015836804,-0.1314771688028902,-0.04414635500411006,0.48681671579771013,0.3693282208015886,-0.4624063041072795,0.5012746668587895,0.13966612144883242,-185.86086953003357,0.9262971129571731,9.174623805678616,0.15832140981814075,-0.07256953462554573,0.043977593584768326,-0.03199301806977395,0.12807052856572942,0.056042664313792005,-0.5772747902845556,-0.40333884602560677,-0.71114644746854,-0.2924418611917318,0.36234396969524557,-158.95354597500207,13.437682521736502,19.161497274386186,0.041762829348952396,0.07228961874461635,0.043177803348376134,0.07758675788273041,0.03877701845695,-0.07559534654888019,0.4991121778589007,0.41467033637765893,0.40201780892045186,0.4768971912117868
0.31,-113.46664985508633,73.12621115467009,174.23289985911182,0.13855005978370855,0.022014809185947837,-0.054778138324979776,-0.009582395258137096,-0.013770304740976366,-0.09701632522201167,0.5504600141937953,0.5328620484498587,-0.2706999731375238,0.43730364666349864,0.5119477158735857,-107.38850422604273,82.3412355853658,36.64703439668075,-0.22599667371539012,0.06945969862854902,0.12163818279815995,0.039198643132539845,-0.12111752482692495,0.003510504934507594,0.5179607226711664,0.5287446813016831,-0.4718530499463698,0.42564716770685274,0.17224576226533622,-185.74657932759715,0.7853398499784292,9.206108848942065,0.07692311538620442,-0.012017854907182976,-0.07520943815328224,-0.22742235588827756,0.17661232319512082,-0.1318495546047364,-0.3057021853966764,-0.5677727040238548,-0.5167957213065785,-0.551620466755711,0.3348488839168811,-158.79065461428632,13.34892383399809,19.125043451420314,-0.006977438049266441,0.07719642621196522,0.04795756759160213,0.06716362023535599,0.15866789773391,-0.0009857008870929954,0.4855367599173506,0.4775630797209245,0.43535456668099964,0.2739181254074423
0.32,-113.54185314402275,73.15271580273482,174.45836588879538,-0.04402266177953328,-0.1092189402511496,-0.06871540990641307,0.12076951233591252,0.008648235821121253,0.10160242305570912,0.3391122649003938,0.5033367781990717,-0.47566287135463,0.40296359948030125,0.3244331038372459,-107.36465447250718,82.40064791697434,36.62282338954411,0.0780891656026662,-0.00749480375566999,0.09329114065118738,-0.05855196658343157,0.11043836978794813,0.15650385811260495,0.5589893431435535,0.4892055509569214,-0.5214894322291327,0.4662195195020592,0.36156310572401096,-185.6722311776522,0.7980576868088084,9.284072211193614,-0.08088997233063526,-0.08954697264604349,0.1019520652870119,0.02861920153707074,0.16126473059549568,-0.06728742733491969,-0.33705962392594785,-0.5253239257158863,-0.6085007761836396,-0.5774464008992264,0.23179530844093083,-158.914674796637,13.229091102767534,19.045765932871845,0.0861551035946855,0.052159950122310526,0.0593967832797557,-0.09599295480742404,0.2055956023143122,-0.15148699054860215,0.5325653608487082,0.4481089482784956,0.3563708016529824,0.6430352084006989
0.33,-113.61868386543308,73.36583457562946,174.40453955746892,0.020777660850314166,0.16644019273183908,-0.06360656493941744,-0.0518695684148182,-0.09120215341629809,0.08076503171049908,0.4796721302547967,0.5532971527669832,-0.48673341347929533,0.34811368888711935,0.26773924633787644,-107.46128256128195,82.4819079083362,36.7568219996898,-0.0015934664162524578,0.19064651124811904,-0.18972199375679405,0.0767606958633138,-0.015401685837456436,0.015960911587385093,0.49321738942453947,0.5600189565567842,-0.4176962264398973,0.7145441562644824,0.4917230346427418,-185.94311788615283,0.6693684929481143,9.162284673766612,0.011369669024489684,0.11149661605686684,0.039001769292177274,0.1487148309337925,0.04666024475512599,0.12187850368296885,-0.5431143878619054,-0.46259521854883195,-0.5095638688938879,-0.4287683445671618,0.3812106794931792,-158.7895127860793,13.149723560014392,18.990346195815746,0.03268872774013927,-0.015104621856009798,-0.07231539045602373,0.02219741114845032,0.11943288163759502,0.11502200098802061,0.43938638137185226,0.705848280763493,0.4141032920591455,0.6378798885496502
0.34,-113.60074905840946,73.24647644176684,174.43548955153224,0.06855289578317929,-0.1346265814371552,0.06408911657512169,0.052616255382842037,0.07491248072108675,0.04149971357176169,0.18997255986432832,0.6658378210229152,-0.43452974830750024,0.5474066966647954,0.45205137839439913,-107.37475804242254,82.45939760247465,36.97972033647067,-0.038825893660667576,0.015888154059136614,-0.03828686928186363,0.08159058485834618,0.12003689028982806,0.23481595773412442,0.6637172784877482,0.47875447285541844,-0.5453548426336853,0.5396803882525101,0.5202713518736699,-185.8834992122157,0.8600912863752036,8.874277731527217,0.09213166743254736,-0.057600633814303505,-0.031185965754634865,0.04811859124452886,0.23994928850739905,0.07557562800533588,-0.4745930274071917,-0.3298247352256145,-0.4789478457667403,-0.5970667066478188,0.24542279183374488,-158.6884126768858,13.410096527757677,19.17994653232336,0.05549815750433137,-0.056433788605090116,-0.04964067056879634,-0.07316324840487587,0.20945764686092566,0.10886174807900353,0.39373496145188247,0.4679490161390139,0.5597940945815115,0.43530496859243284
0.35,-113.6107986467869,73.30960823660655,174.28937059780665,0.030709790310168246,0.25312586421934896,-0.14245425803432793,0.08527168375176143,-0.081568275864227,-0.061060776718017455,0.5148204065477027,0.5888615360514644,-0.478365755816065,0.4789810907106621,0.3922955672032352,-107.26701667347719,82.46810179127908,36.95362137679655,0.09456260654757005,0.1630591641314585,-0.047551908622898445,-0.06149783656096468,-0.014771329324152108,0.14137433781096437,0.479156663203487,0.6269782858207935,-0.622173686997133,0.6003892909522786,0.2535232946145367,-185.86651747355234,0.7014681197422057,9.118867586365303,-0.04024610185460872,-0.006745518346199771,0.12402644070419386,0.09997661684183765,0.10887894186477685,0.04325902828176114,-0.5709965159240947,-0.47114475246914245,-0.6264590673396673,-0.6235440748566756,0.5269009047166343,-158.78967631894804,13.163966847324073,18.792553242147203,-0.11551366345985313,0.08723859117570629,0.027947610803911224,0.11176607314167794,-0.153804610667859,0.09818382051461129,0.46477299226102897,0.30752171808235784,0.46827347071989295,0.5841943902257788
0.36,-113.50582231762152,73.24176578617471,174.2769255731628,0.05192389040047173,-0.13855705638063517,-0.22400748722644803,0.09885330356986796,-0.018918712911234904,0.010757620065580977,0.33652940960723854,0.6551119055820792,-0.5032285871134654,0.6545881022858325,0.5362615786329976,-107.33889096778499,82.51538519926146,36.9153085932206,0.06775146790614878,-0.04691612019071705,-0.05015380339384141,0.20497015417724737,-0.08511419975404427,0.11517727580058615,0.34970769532392376,0.39547073500245666,-0.4257415222675066,0.5613738271185502,0.3573808770730016,-185.77029997898012,0.8114667212294335,9.071607147891866,0.22748845045586608,0.0334455690605018,0.04634596118782175,0.11985758691304171,0.2510405895907679,0.05660568957009,-0.4818037834364576,-0.632154723857778,-0.44264349214104637,-0.5966586504591753,0.35811451587449944,-158.83525071282892,13.170537451737184,19.00101638264241,0.19992058229598575,0.10636907622339692,-0.005907067426168511,0.017864396778813713,0.029791841143284488,-0.06474962624599899,0.5213672032697428,0.5615702826257412,0.4933574640831453,0.44133204510498225
0.37,-113.50930299245846,72.94282031038945,174.4008099703659,0.05461797888963743,0.16725240765560123,-0.02835924389038798,0.11304822016935387,0.01816263845667783,0.13693863770113873,0.5296503428966287,0.4483100639440354,-0.4603672677509484,0.42890318872919786,0.3590516020428114,-107.37948659779893,82.51392154182416,36.9814652886766,-0.034494500377214195,0.2003200500595285,0.0025518291616395284,0.06033217876135627,0.020273428659621395,0.019559374069398228,0.5961623547751498,0.4434248964885839,-0.5127380912207536,0.44281178980729474,0.31270914739160627,-185.9147425879148,0.7289006227371405,9.10398958832046,-0.20035435817032898,-0.18525255842918975,-0.06026506967659365,0.021212126279031088,0.1766277580539328,-0.11800778913291579,-0.647498746310573,-0.3570185609704718,-0.48994643923927844,-0.30399901470546575,0.12976479390088372,-158.7292487536659,13.142207520159516,19.020757687365883,0.06576805334348249,0.012861348018005252,0.14632669038314244,0.10445835245852596,0.005135516372210561,-0.08223022579037614,0.4277446972185973,0.3254512600591304,0.5532351314177338,0.4311348319354855
0.38,-113.65108439724469,73.15879392391058,174.29964929270383,0.19429290402486676,0.2544487431865425,0.0982071707550754,0.02839604540562897,0.047184286791210325,0.3138214228465066,0.7786155593581101,0.4436463100747456,-0.5745900682654231,0.44621485729138993,0.2883314271792413,-107.3091078451187,82.575790281131,37.068521559544095,0.15718522006122354,-0.1319470781855592,0.11298255874188119,-0.06490762570157059,0.14232313404365143,0.1536776010096618,0.42368809519507766,0.5022578600867474,-0.5072327980218893,0.572297097837006,0.25218558771523164,-185.87089675060312,0.809103109500446,8.821855951123831,0.15940376621594607,-0.25026534281140633,-0.04961841658325582,-0.10995039174972265,0.13637144401697815,0.02708740304338121,-0.516941052023757,-0.5064557287730977,-0.5144560395030988,-0.38947067491702914,0.2903520287317726,-158.8512315796272,13.282826428514564,18.898361199323052,0.18162459834067632,-0.04636004491671692,-0.18040762918493836,0.018949679157698955,-0.003103986123518823,-0.07972690376967233,0.41516136504285805,0.3826473939707531,0.5526593882260816,0.5048605519740447
0.39,-113.6495210698668,73.05412455077135,174.3316855883032,0.03170370598284284,-0.1440290516393789,0.038010587343169366,-0.14553746586041263,-0.044408876544543105,0.06664947502569149,0.4079160830704016,0.5233412928863086,-0.3896928481124507,0.4498454074287275,0.5241123453674627,-107.2823299642658,82.4185035426162,37.286619470887096,0.007587339090825823,0.042752288656521226,-0.10369458865232535,0.08852934297456148,0.17456133426908987,0.14272683156817795,0.44333465506802955,0.4111286354334145,-0.2591147235223382,0.4898281004814284,0.40902488207104765,-185.83744654858563,0.907115999315139,9.35876060207268,-0.011203283890253877,-0.06566672483202382,-0.021319709388150386,0.10366509269267062,0.1282298717621158,-0.07682386504140137,-0.5477298407689043,-0.47251783699181055,-0.4068116961695441,-0.6530659718374676,0.2701826775543141,-158.84827190475775,12.98353483111692,18.79144729811683,-0.03633297222484541,0.09102447309112716,0.03890496306505686,0.2250435369527068,0.18214780790174423,-0.045268215403318025,0.6267856589828302,0.4849556288591564,0.5620199893510819,0.5951282709234892
0.4,-113.67668010071961,73.12149379786635,174.5017048190345,0.007239619380264555,-0.1243873596535311,0.09372173697716667,-0.0915016945404266,0.07819915297298716,-0.048179968726702285,0.43170090738541406,0.35592988973341794,-0.3790359470001978,0.49565183410852065,0.3618758070530814,-107.56151958728228,82.4918477056999,37.2346158052818,0.09963198616367756,0.06140783094686135,-0.00651530578453997,-0.025215276528597938,0.12292939673451027,0.09450175935666585,0.6039393743433297,0.38622928344346286,-0.41704568782356505,0.4905435618615257,0.3556527780906517,-185.70050214525523,0.879494827663707,9.150721929109613,0.015873995217556225,-0.038489798535060724,-0.15732428180597832,0.11166453871286278,0.01572246276590254,0.08854185271230323,-0.4354806740357533,-0.4515459320765155,-0.543752819141736,-0.3775319088172401,0.3881421946468369,-158.88827430103925,13.158311573137995,18.98334560983707,0.19154097671118067,0.09084423591323124,0.060571419818109595,-0.08037095270922592,0.15309755672381237,0.02455311654306193,0.5171276959407808,0.6349477342375576,0.5301532712491288,0.6299507613519867
0.41,-113.596535208835,73.1617424322173,174.1280790519433,0.08327234769029929,-0.20090992175424294,0.0029696432348057704,0.0871358072809037,0.08805813797068465,-0.017557314565476597,0.5271537069526369,0.5857565917494492,-0.43821689891310145,0.5354270951249094,0.46678805275759827,-107.3689319594081,82.5601758795633,36.96838987419098,0.1724179089295326,0.030180950688289847,-0.022325697889048743,0.3123799509385228,-0.0473193620484197,0.2334370711047031,0.23392312730356524,0.46733617840145464,-0.5681555845143332,0.4943159570653416,0.4236933423525378,-185.8738865927558,0.8768052944041341,9.015564283684299,-0.10520746328119136,-0.16813611592578878,-0.09157856534482853,0.06878297496582533,0.10935124340347972,0.06951522664244862,-0.4306108526247708,-0.5314748078265511,-0.5167611059857177,-0.5371693875136381,0.22214083463365003,-158.67436886461343,13.17016398885644,18.882839211572385,-0.036849295819957266,0.009578170841155044,0.14645101417289466,0.14599533292951308,0.1401398875671759,0.01905078958398339,0.5042517070610497,0.5177633347562463,0.6311212045594814,0.5222840059684036
0.42,-113.52108728083054,73.05318024273073,174.25717404065222,0.06029400321273646,0.09317853787773453,0.024861360134934993,0.014440027428855876,-0.004182374916320418,-0.05944953258113435,0.38951789057988084,0.605340618445366,-0.29529140752834115,0.32896781895465066,0.5079650638070028,-107.3069911563051,82.59382152561852,37.44039294088388,0.016999038315339204,0.11831514339429489,-0.11468753013116924,-0.12250997132152872,0.11597931652018428,-0.11281863462336719,0.6164303149895154,0.6490816032880732,-0.40798706179045824,0.6164464618063142,0.25283642098083553,-185.98118696884424,0.8427125020374817,9.024715570902426,-0.08541942977740224,0.1349307625768674,-0.028852863581362888,-0.02494071499605289,0.06408958699633918,-0.0546636934185645,-0.5573245285562142,-0.4901602333629659,-0.6307087619898729,-0.4761806833717099,0.18786322548965453,-158.7949558176898,13.111694742153787,18.751799678333985,0.01805745213881342,0.12101495733991639,0.0025004799979594476,0.15994786214711798,-0.14937106970498845,-0.056668039973508826,0.41365608847759605,0.5155233969870123,0.5292123499283391,0.5187992873638659
0.43,-113.55153447212183,73.03090809327571,174.31707011873755,0.16356111212285732,-0.15300608973934737,0.10754425419586987,0.10571128983266506,0.07351785014920917,0.011689742210941101,0.4172258783125027,0.4382242670506066,-0.3655913331309055,0.581244265536905,0.41106563851628114,-107.3788426648635,82.45888373760859,37.48556266696667,0.07927248089341943,-0.09336132401716014,-0.032411219487953793,0.05334243704376514,0.08017773504264425,0.21922883189605075,0.25531366663817845,0.6213309729511428,-0.4327861860413946,0.572355534328288,0.48090258200383246,-185.93125524306515,0.8032953108339649,9.098485860798434,-0.015456647355958166,-0.02178187379799465,-0.01854293311839637,-0.00864461873336734,0.1137299973648927,0.0802871721417303,-0.620412739286612,-0.5468103995159203,-0.6678273394227427,-0.5146515527097771,0.339544238273235,-159.0207648310816,13.158987225707465,18.835090617299528,0.13402362382592123,-0.13689625925757648,-0.061318796247056155,-0.21886703066701912,0.13703822722523135,-0.019191958716405076,0.43471227252838207,0.5798943059438676,0.5810316403411975,0.6078201498913622
0.44,-113.41538223753798,73.07965104916026,174.22030326560957,-0.026017663825933977,0.1606598036735141,0.028149927735392127,0.12371161450121182,0.07184322509284469,0.3939996304443473,0.6008759470484845,0.7339544769489608,-0.45139441698263855,0.5350808813240592,0.198325841222409,-107.45007774302114,82.72540930179792,37.66108514139235,-0.14430472752530477,0.11375491424991699,-0.030331125440910545,0.01675541747303345,0.07208819658980581,0.22329394376962833,0.6019391530900056,0.4069047830771849,-0.3936962899222393,0.49293967312419684,0.5711241243567446,-185.886201275172,0.8355810324378735,9.026539319843316,0.015571340375770251,0.09820262295356019,0.12287241584159266,0.08780400555061374,0.0038548184830770327,0.10213043932183803,-0.16593122969101654,-0.37354365163788006,-0.48036383093961965,-0.31764530388952417,0.5944041919707012,-158.91029459162374,13.046836897584678,18.645045500501894,0.07612377113904896,-0.09889630577573945,-0.08513605997048314,-0.04759071418703653,0.01615088788680931,0.12209979004275963,0.47904523097700724,0.5832626492712774,0.42418785345578086,0.39230108280799914
0.45,-113.65907530360242,73.2181232342046,174.20586543875598,-0.05753367817744471,-0.20660140116277403,0.13213978180874206,0.16967478542997344,0.13048762016717208,0.5042430249376604,0.40933052045971346,0.5064881523487584,-0.579978203029523,0.4446332789136327,0.458332824678212,-107.4030194787296,82.59165199488918,37.583365137394445,-0.08278246983619265,0.12979704395089775,-0.1033857509533536,-0.15579929501030718,-0.05980631419891058,0.06325912149170199,0.42322480465383405,0.5253826335604725,-0.3773727493279211,0.4391074433690109,0.7407029340685953,-185.96918557627384,0.7359977068850552,8.951377766204748,0.17512454827695517,-0.013569571039241607,0.07419312198687139,0.05154563426871165,0.03260960274865319,-0.0636421402757727,-0.5260757674242317,-0.6751970538542044,-0.6389283282261777,-0.45885458998495554,0.5112446562103046,-158.76735219524073,13.379382152278083,18.9641098558808,0.025097197638241957,0.06531654060512247,0.06650895222125812,0.08739046772732259,0.09751237074312341,-0.0033744856786557045,0.5522855484816799,0.6190160906724245,0.5756522153947623,0.35891171311164893
0.46,-113.64069328670746,73.11973821437533,174.15745373413856,0.029194390372517545,-0.11236933213088467,0.006830727529266076,0.08673006285062464,0.27717590426001426,0.7567276227905588,0.7768574604555247,0.4925677547169501,-0.48017955582780186,0.6080264692571287,0.42007633563903063,-107.47643099378013,82.73845237582245,37.681064931293086,0.00895586099982228,-0.12084853439039041,0.012531310242366173,0.05871276202618273,0.2554000103046565,0.3304443813570001,0.5029185780524701,0.4272190477661032,-0.5374250922979327,0.4809047688468646,0.4841503987577841,-186.06264267061783,0.905967406388173,8.921383998636282,-0.058047652737491746,-0.09766049270960134,-0.003757508114888737,0.24854927830031703,0.050803229764937466,0.020332712760142736,-0.625006585339102,-0.6835501648246474,-0.5127796494115314,-0.44323916815718484,0.5219648693337134,-158.6712766176696,13.29391853985702,18.6872372697377,0.011025885092304184,-0.028460996014405,-0.00624923839270314,0.18743273526458742,0.2137179444909848,-0.10410533694614703,0.4785805324520476,0.48496005167976974,0.45638249753307436,0.5735816829340179
0.47,-113.63323131936619,73.02234537908738,174.07790578940313,0.06554498244820012,-0.04449255982940646,0.03224758969535975,0.24322910499592865,0.21204130844312735,0.7318882750756786,0.6578661280360495,0.673635075176135,-0.25315729602293036,0.5929217396958695,0.4728534589042217,-107.32900501988672,82.50155515353636,37.69144518408593,0.015984954091785554,0.02047259279328387,0.04021350708827017,0.24331753392289818,-0.027221031412422686,0.25472233456560756,0.17611287767509182,0.6178537088044435,-0.5395609901202212,0.2952596843698029,0.4132241871178816,-185.98217938614332,0.7912296246594258,8.793031821073738,-0.048722159226257035,0.03255871521321366,0.08854353853154373,0.7666525043142399,0.20159397495496054,-0.06016093950945805,-0.492015570525833,-0.5398200275609479,-0.6848100339827125,-0.49787859595914397,0.3742758835852107,-158.97772014482447,13.2294830971708,18.894994982216343,-0.17636475245698266,0.11541209563061025,0.14066262475406846,0.30493820918822684,0.09399578280928635,0.2863359419613022,0.39378884366722755,0.6679264562789494,0.562919377661223,0.5368182454572624
0.48,-113.60391206161603,73.37170201734558,174.04071566059707,0.1500696402222383,0.011234602594771805,-0.11350206411563646,0.008747653861070764,0.12070892691188706,0.6524327705662887,0.6189305039426349,0.551186727861811,-0.5116409670424913,0.5046810355129613,0.509401855646213,-107.4889213159367,82.51392908413723,37.78985203979996,0.033833995170110605,0.1694951206542549,0.07934820429819003,0.19367311765359727,-0.07239767886622424,0.03331091360164126,0.498577897249517,0.5666733368216398,-0.3365458397904054,0.5136747495892802,0.29917514734639783,-185.89834861139866,0.7826746432422929,8.920827274525026,-0.09912640218169842,0.0026030604453735062,0.11241457863801049,0.949939904971868,0.45064887428596345,-0.01649929148555007,-0.4651336176062255,-0.40093555027118793,-0.525766973445889,-0.5142769911651143,0.413377598147281,-158.88078585195518,13.097665605016699,18.71638875458395,-0.15423307140456755,0.14661452880566866,0.010965897000184117,0.27246333212295365,0.14173867374133567,0.07006804569095229,0.4692772412867516,0.35847583490793156,0.6189061672169713,0.357110729495015
0.49,-113.74995897240596,73.24478874182395,173.95162057199596,0.06516186014438578,0.008187931154061474,-0.049022370757241494,0.10576997949846086,0.07640012031342411,0.5388051525630995,0.5697536498426171,0.4311752101769193,-0.6668111811072346,0.5386420353854583,0.5896379393315202,-107.2548151094679,82.65691135431749,37.78744400853659,-0.07153270816853503,0.09575473250066713,0.04146869990751602,0.1590506429200268,0.04451231951513362,-0.06276175120592134,0.6167352128095613,0.47843656305997717,-0.502448654405491,0.490372415404402,0.4045065749408663,-185.8901737884617,0.7078381374299382,8.92548199204071,0.10109572606547607,0.03384452154586794,0.01219025268584542,0.6801203307692079,0.531407907567913,0.13451155626070838,-0.394361708268327,-0.5020476573998733,-0.45235682350356615,-0.4418796262485034,0.3488921259237405,-159.00143088094998,13.118972658562571,18.62306144857956,-0.005807859450138379,0.012938966121860941,0.13894888867391567,0.6331090125555849,-0.029946360878438355,0.025754531594173798,0.47575055337800964,0.5727826474048571,0.8396010493938726,0.3527944598064445
0.5,-113.96827257121723,73.14801619986763,173.99342923063745,0.109704771523213,0.07950606712489099,-0.1578260796792451,0.2903487209560185,0.020417727147572985,0.7437436272099187,0.56670157424149,0.4957984057127779,-0.46653351489517525,0.4564138895809737,0.42798391561125726,-107.22658949001277,82.70052930435973,38.54855068491887,0.11814836156076555,0.2465122932214831,-0.1710157643832059,0.11127418768901759,0.2072161938588368,0.16281081268994374,0.5111047490445033,0.49480460108108704,-0.7224302331754234,0.47470033822666324,0.3436586861119559,-186.44075587715193,0.587273240066321,8.962262852471738,0.05598988938508087,0.29385853939524853,0.16253973031022373,0.5206392755728463,1.0179370889957633,-0.25390510239011843,-0.5593288786377985,-0.5404723109397004,-0.5932381345616844,-0.4397487500562146,0.47772680569993753,-158.87954122829206,13.058062907022538,18.73324690066455,0.06534117435973906,-0.05742357383255289,0.203170638647312,1.3477171848357599,-0.023724797373716397,0.32103850712664506,0.4557352055785892,0.6011357445859452,0.5168489341201485,0.3794275294228526
0.51,-113.94723994819343,72.77396309664576,173.90696131544541,0.061026358866905814,-0.069451368179073,0.10248290654218377,0.08915498995811766,-0.10463216058903746,0.6002329404027278,0.4107489905936467,0.3778398145917341,-0.43279056185254083,0.641162936967448,0.4830829254816238,-107.37256219376049,82.75299766511203,38.57077922128514,0.014909617301247853,0.01906601100977825,0.0908670108650117,0.09066642346423132,0.33354601713229387,0.11080908154765516,0.43636782728022805,0.3922698197839541,-0.29270821996692964,0.29992562036271636,0.5657503246723531,-186.26735907990508,0.2789210892828814,8.853121158190362,0.007845613505052536,0.3229542347278105,0.1766627020907759,0.35986230694173027,0.7851999631365065,0.0991469692566396,-0.4652460059151068,-0.41324282682319624,-0.6342832228125933,-0.46930744577364,0.3714556398633958,-158.57717274322462,13.050364849411746,18.78773397333503,0.11570199441407641,0.039875240561678085,0.11217709232774156,1.300778025409616,0.6212841556340801,0.3022705299681615,0.38189294246844024,0.35100066445873823,0.6051856018119368,0.5700093945369527
0.52,-113.85294421216074,72.80870913876419,174.03495396286576,-0.06465412272713046,0.03600916652642053,0.05279077841410789,0.4842276248180477,-0.04975537411707816,0.5020359728006086,0.6305194116281211,0.5343996069412472,-0.3231314936428344,0.49616015963115934,0.40762213596717234,-107.30922092779991,82.79284172716144,38.397097373071055,0.026803015339065997,-0.10251984085505274,0.168009316111725,0.11233870568769819,0.34346579538558075,0.42673769939208783,0.44192414976806327,0.5579859233962431,-0.5222349609302384,0.4098078271452775,0.45744636907014374,-185.84481216184764,0.20747452334238625,9.06382438322204,0.03195046607561111,0.20649010056225076,0.22314468409597454,0.2489266783280047,0.7237537361319597,0.7480686092712387,-0.4783196796089159,-0.5860769024014185,-0.42987937402324805,-0.4453088834568269,0.3541590511720894,-158.24273523405003,13.254518739937913,18.82124009287413,-0.05753290373385517,0.06956812575471534,0.4166661355168345,1.3547058947243877,1.22850831029448,0.16918298287927377,0.5558817529192279,0.43142870271791534,0.6233388390705705,0.4480108259072418
0.53,-113.84867803732172,72.78958946802746,174.28560706555072,0.07477674680684032,0.07499576251439644,-0.050973317504735605,0.2702948315023064,0.22160738542545128,0.5110890819555918,0.4196006327661708,0.4746407426096525,-0.5482043086270774,0.7681726973220437,0.427144886782498,-107.4956647937359,82.6147658417017,38.2890545081193,-0.019190500415330422,-0.09474542809895241,-0.04407694186127018,0.3330457498772941,0.18339148573328337,0.40001444086886395,0.42233068194479295,0.5104036971089453,-0.627553489258386,0.4983463797532522,0.40408017240593536,-185.57055108496868,0.20017706962811097,8.871588185815904,0.026387632216007338,0.1713939324125217,0.46755123461551984,0.20963034421501675,0.261392982766517,0.769848237129808,-0.587277129285972,-0.6580967027725309,-0.6292795827358897,-0.422952738984268,0.4515501158851866,-157.91712183587634,13.237443173103095,18.902311616234506,0.20466601295416803,0.002672286983656305,0.3501080232615445,1.4796787209691928,1.4510952815742173,0.4884899539998958,0.46771688923128996,0.5289824608137826,0.5396743319450208,0.4580265710320329
0.54,-113.69936588999742,72.53317207528791,174.23819947491617,0.13776106845024477,0.003680576701984989,0.029952822006899103,0.24671714675854647,0.1209745706288494,0.6646459332818464,0.47027852598813574,0.6015177309660977,-0.5951858978037392,0.4869647505548065,0.43468601927594275,-107.7460690689667,82.69154718663663,37.623894433732595,0.1587835212672786,-0.013985155811926692,0.02250914942928884,0.2238415440848995,0.20455658465872345,0.32791208843132336,0.6043530407086879,0.49327576523771904,-0.5653133137594339,0.5881307020719498,0.701775883604931,-184.99617881660552,0.5924354470227521,9.021944497375618,-0.12787203971500752,0.2018663298385605,0.435982200888676,0.491823368378045,0.34900034684787345,0.48570862325990855,-0.6364240536609751,-0.5783832774398937,-0.39238198976902955,-0.6019909574599827,0.47803867656192023,-157.19092267878312,13.481054349433705,18.939374702043864,0.2203083706762889,0.19910268723352728,0.907607348162356,1.071857814295147,0.4123738801485372,0.41151470538997653,0.500684663901557,0.8948564338814112,0.4515960081398382,0.5507422524134695
0.55,-113.75299961276104,72.20405084729484,174.1048167416996,0.008054747255756119,0.018564938596529044,-0.16397180792183452,0.013240556760288916,0.27976353514328617,0.6286374801966516,0.6528329533629975,0.6324812785126559,-0.6443123846562566,0.45259534410413316,0.3363044324907126,-107.9197444408591,82.73811549617028,37.49127128651166,-0.03948466953497416,0.023176041115783336,0.001070099245304372,0.05419355513797727,0.21148905358465098,0.06492806965920339,0.40068325714523906,0.4029513013803853,-0.5664799331054088,0.49656460572905325,0.3783960776004987,-184.83421422496778,0.8497180942210836,9.008131622169762,0.08364881943334522,0.29308292067402053,0.25932990652933147,0.36950071396357725,0.04718877909836816,0.24168651927163534,-0.458870098474182,-0.5270148055673551,-0.5988119300308085,-0.40896274586593406,0.5315750666246837,-156.4864979905814,14.000016770794076,19.086928863515634,0.32590565640805547,0.15220915032623505,0.7200376840838723,0.8823423983501572,0.36768966915917023,0.413866288058616,0.5130512905102349,0.5168175110665169,0.5153389399506654,0.45455206919862184
0.56,-113.56436517218222,72.15541477521884,174.2164409137766,0.0487443206788057,0.10491851119452947,0.0017381296638723416,-0.021285551972350925,0.16527247481395158,0.956625506387105,0.5370612035488306,0.5914422402796135,-0.461867312543389,0.46938319050987204,0.5168660670154859,-108.19246824039533,82.85047817047749,37.75282281351495,0.09695772050248778,0.20698609737804446,-0.08617341954856444,0.06919721955281807,0.0661604580341493,0.3708543883002807,0.5530268176505648,0.48554571013718734,-0.7464810213270022,0.42978619716076105,0.5054821006109094,-184.69113731233008,1.3423513322226457,9.096936420211366,0.1919284540245554,0.3568502178034007,0.12183159380591702,0.8740382309280406,0.5604821100913473,0.09539123655637992,-0.6376188859392012,-0.6532354318241951,-0.4027665660907969,-0.5027800821501962,0.5533394759569815,-155.75113274947074,14.451891715812847,19.264567615086857,0.46064964566533917,0.07823985414907028,0.5432251107107225,1.1773151788836629,0.6018285263230858,0.3322014701837948,0.5419970295489768,0.6132214276399177,0.5031961607913008,0.5284106320087699
0.57,-113.486113186029,71.80966202156152,174.17592626906085,0.08817839377704868,0.10969557268343816,0.007006134767217469,-0.011329853423704322,0.03613945976479043,0.8915968584580701,0.4151377832774306,0.3956787751366987,-0.5377331734158907,0.5163386414425863,0.5644280903116285,-108.14698578578796,83.13078173455783,38.10683251851847,-0.07233154791682567,0.25715034827730826,0.15424237297340748,-0.018935359710845492,0.215681021226896,0.488916455040806,0.45500895107399314,0.5671973855150954,-0.3504324137140141,0.5909438483710006,0.5159616772338099,-184.79606610326599,1.8276067597460663,9.053303975548323,0.15498128468819378,0.37685478839256653,-0.02971322664420077,0.3871515733369446,0.5776757801857411,0.25536000441694534,-0.49278275158943974,-0.48882856687986775,-0.4578205016146667,-0.6454217970467377,0.8822454749644209,-155.77056935056177,14.881536902455004,19.569842280053663,0.03166308062048173,0.19073820711144623,0.4333072410810163,1.1104680471122685,0.7633522507091312,0.21986738274869477,0.4598033215940257,0.5339190488196108,0.5075725569093573,0.3248812178458452
0.58,-113.34753657571748,71.7043477655179,174.26255655337147,0.1796236853935077,0.055748454529982755,0.027387344654345773,0.2977045124873591,-0.040269039461958714,0.6155466752839384,0.5924838966315522,0.5754797553056943,-0.5294122519958432,0.42221130523884626,0.5292583975382834,-108.38032203619923,83.3735478463541,37.95080306464233,0.06435134916971283,0.2827879105561716,0.04145996388286132,0.0896176673895619,0.3114702845323969,0.5286983442398299,0.608158193792225,0.4539300603205883,-0.5207835494203585,0.4562609309538804,0.422423639676207,-185.04760387180175,2.4266163325877144,9.17997966775553,-0.051740636649113755,0.37964104406218036,-0.06985165657058212,0.07280870106840762,0.863511811277313,0.06205117998237429,-0.455140866811228,-0.32022211568914627,-0.2909955664610368,-0.4322582952806374,0.5092659618663606,-155.2134213237916,15.133804031670103,19.83973344691852,0.3591316191992228,0.42536243638329896,0.21385797193097797,1.0104961819871994,1.0549229456684408,0.31103365591147597,0.5399387652284521,0.5083229141684039,0.4759915107642715,0.4503914201761523
0.59,-113.20203989562673,71.55271314477588,174.47298912844803,0.16331627624014097,-0.013194235196384435,-0.011777860483271136,0.3478161484981336,-0.012558706774602371,0.3503585653608474,0.5002828245850274,0.5271160010678273,-0.5852619524220581,0.6256196729323685,0.4153445429438358,-108.28535028204261,83.71411165581817,37.92439822255447,0.04861625482786338,0.18304806197137222,0.10029903852503864,0.1371750086886543,0.13328307697293715,0.32311442046493716,0.4831585995208228,0.3944615775077974,-0.5841371559614984,0.4997643515698881,0.7395789373609206,-184.86991353787303,2.9713431774506294,9.30339877301716,-0.11592594170375052,0.39265443245784587,0.004077342730258532,0.1634685476689061,1.372219485649832,0.3443919051420347,-0.5810167430223698,-0.49767819043589284,-0.598179991295657,-0.5462153669144325,0.6501518409732199,-155.02600613868069,15.532787944105113,20.305388539629128,0.5070584267965927,0.27378183672467116,0.04690694540361949,0.7674638345590135,0.9915020119688943,0.5120118277856207,0.6982502237338062,0.35942856833253545,0.48932997805373046,0.35651822835905306
0.6,-113.2115524720246,71.49225417842185,174.37175274472955,0.27921547892653653,0.2430190551974012,0.04984054641954428,0.5994532087016556,0.26157789849546925,0.35784080921807837,0.4925522834888137,0.5231793592285664,-0.5156945452175242,0.492707113565686,0.5199414124070447,-108.23252166893639,83.8354542692131,37.90977779488498,0.0791786891637886,0.33027961221054514,0.0025462359335124557,0.20950429517078545,0.021770176538733074,0.4127920750635947,0.5113803965657979,0.32191635072241465,-0.49480408707339796,0.30810161606939485,0.4930625492256715,-184.47258531350363,2.9458661007010765,9.269642980407506,0.006727616648272761,0.33652530937280195,0.18672568934069056,0.21024115475618088,1.4341181469347346,0.4401489685754603,-0.5848058278468166,-0.4942198807789905,-0.5592239566629837,-0.3987078417149903,0.689806263900135,-155.0354801700512,15.628547654896531,20.571706951165837,0.7136224318640388,0.24227383039342953,0.20914059292008458,0.4454976459303418,1.2689957400223644,0.5471172771322372,0.4197994466491907,0.5488733048117388,0.37345928952322816,0.43208715222149874
0.61,-113.32946722463423,71.39624182298684,174.42795981763248,0.12876277197656125,0.11788786707922427,-0.06955568401173838,0.6608409353397983,0.23859910539871454,0.36751919599943195,0.3704211080735832,0.44167222554459146,-0.5308443751774283,0.5266636063229376,0.5643567205365074,-108.33236655315964,83.87832677695451,37.91857528227377,0.050670282341937226,0.47922275231363576,-0.10679179386274856,0.07871191304099116,0.17433788655600635,0.12210563754298565,0.6086828626810521,0.5220837927198871,-0.37785708966252723,0.5259129186886141,0.534761906515218,-184.37517953785968,3.3586483755114704,9.353173245072071,0.08365931027955245,0.43953130660937423,0.500890249429779,0.2835537824159366,1.424618311173783,0.4949097185032986,-0.46667646615043124,-0.4751556899100252,-0.5184069921424485,-0.5814282241761638,0.4604671653070143,-155.10526583513692,15.689742536574137,20.933762008575695,0.7137675384750362,0.31608334021921886,0.1662635991557301,0.24775789432426312,1.1803318483839795,0.4700708952602027,0.5495412393741389,0.42990885167110393,0.7253053295816643,0.48664544125357617
0.62,-112.89485314249077,71.14806801902395,174.67062898941595,0.16366697796260005,0.2514072891964022,-0.05588063832668591,0.43870854621224176,-0.09653326901823102,0.22970703905173787,0.3717927940145744,0.5370331239517796,-0.4377417568947042,0.5308589829109169,0.558913703558692,-108.08575562973375,84.27585384666625,37.93651141039267,-0.061303480979826096,0.6679954942386601,0.04369050262908277,0.32993786244261664,0.09632249520219142,0.27500799093537687,0.4908783175677263,0.5534177706057956,-0.6375230180263702,0.48415466766235565,0.5237524519268119,-183.68169362637047,3.4519080550950156,9.376343090853515,0.10398674756060855,0.1883619556452786,0.7234849057850717,0.5477441282317819,1.047515860363177,0.4444737040550084,-0.4478650209636391,-0.4857609538374035,-0.5061130490146213,-0.5930641310262194,0.6192774358744415,-154.6636153050211,16.343600051185604,21.51503549945376,0.6699863544268729,0.33936207187150175,0.2554449648104597,0.12549506001288385,1.3173251957360075,0.454018930216287,0.5037177846124894,0.521045762276959,0.5361342441536104,0.41180809797993173
0.63,-112.93956432121178,70.54310852621458,174.64340510698494,-0.0084487180640795,0.47848989186082946,0.1254620538435117,0.9973499310098737,0.1652096435699706,0.2581422936351739,0.43610825501871575,0.49558794534114053,-0.430062481628145,0.5525286907738688,0.3808857610809393,-108.27106646976688,84.64750528565745,37.90359759315346,-0.1883232374225301,0.6410202479342203,0.110178476649538,0.18957031424553922,0.07838631082127588,0.12353206933175846,0.3936408081409788,0.4344612753173827,-0.6584488127022169,0.5285380436895413,0.699064380072015,-182.81509460377217,4.035053233851906,9.265954937978385,-0.040414712357883006,0.21944848219557303,0.6282643612502692,0.5357595653484595,0.9904600609229225,0.6121313907446183,-0.4077441728977734,-0.7324290989098295,-0.4759840572850196,-0.3355164481602703,0.7371775486625781,-154.22710037838576,16.74644434947243,22.368169599527345,0.7450285014286855,0.3197646067686055,0.47580563030529444,0.2235213473058601,0.90214295871898,0.7947188471087976,0.5462367184546073,0.3766243473845844,0.6859020421903358,0.31662109872384364
0.64,-112.54844438331558,70.0682331970415,174.89172538831806,0.07481729519153497,0.3709225353087469,-0.02271432353228272,0.8574405480779385,0.054546779280144835,0.08424576477684405,0.5513052348012756,0.455960189831147,-0.47536986357072225,0.5097023644032682,0.6128104775722778,-108.01581901429405,85.20600845545832,37.89475065287897,0.11739943271079123,0.6062440345720993,0.06642285234623124,-0.07713385126961883,-0.10564155503935775,0.5712868261312298,0.41331013314827825,0.5478811638196728,-0.6115966522893911,0.4055168113642093,0.7993422566005536,-182.1840148767161,4.474419219853029,9.322790880731642,0.02009265361885997,0.26597652474039485,0.7231291963868597,0.3334783650498727,0.8497511582943666,0.7491127899867607,-0.4717045959779563,-0.6362887690084706,-0.5009993154944946,-0.37741591269989394,0.6527077569697276,-153.39768011728694,17.26003992430029,22.659119467192244,0.6042126412173069,0.26759713414913744,0.5130334813332909,0.39042952819157495,1.0772653505875776,0.7690852461299229,0.463376822537543,0.5821015558901793,0.4589116460375366,0.40665482470887243
0.65,-112.62252631798363,70.00893008951903,174.9378896419443,0.10208087629065771,0.4632089450681527,-0.05765605287577974,1.4747974848257064,0.21576923273172202,0.07940943647979425,0.5718348172189793,0.4486734003413516,-0.7595518337116419,0.46302329872187276,0.5535668324663027,-107.7898101441972,85.69477170769768,37.60437264701694,0.185983771723072,0.8073707103277377,0.04184693804104956,0.1477434866890113,0.27957936533578454,0.26434762970078834,0.699187768425132,0.454375824047248,-0.8136201093517185,0.6141422062759403,0.6701237369033224,-181.29954969959633,4.817888710510252,9.48065737744754,0.06957510340230068,0.2289108684458043,0.8649825670610249,0.5920944036058112,0.5692469819721739,0.5189865401967712,-0.4462768026044843,-0.3518450690856932,-0.5034659288979174,-0.4287338054289119,0.6113685355972825,-152.9152022853888,17.705941826440956,23.06290984328967,0.5449478171161976,0.23284734051070816,0.5419708922531196,0.658231079425661,0.7926218382294228,1.070056441539969,0.326170025131885,0.3837151050863369,0.4000316383802641,0.3853724458528295
0.66,-112.79098104858176,69.23185631023888,175.20509189706968,0.24305409816050755,0.6807070839015982,0.08432182320666748,1.6686637514881166,0.4460936282519702,0.7031852526374794,0.5601369322474139,0.4032089519195356,-0.5929310549203152,0.5862105861738072,0.5264107299204404,-107.69616171481219,85.72488414187464,37.8445901100957,0.2788982007598796,0.7724552835007779,0.0644700024706537,0.29965842748836385,-0.03697768595420695,-0.08790098092148416,0.5295873415428052,0.6239392636618876,-0.46890654187608277,0.5879753669521446,0.6190044948144547,-180.5101100431826,5.094772450106462,9.181518615438685,0.06839099259382853,0.04899025332263596,0.7473697863462698,0.4723333955586281,0.5380860081501081,0.8490115794052128,-0.4190587358066669,-0.3328470419300427,-0.4719251192529054,-0.41314593584695425,0.5037217617804488,-152.26036308494292,18.307730863339895,23.83487133197427,0.585410738401882,0.11406587935518195,0.372964831811601,0.889064370226231,0.7512778948164998,1.084790008819722,0.5102428545859675,0.5281978010316203,0.5470633119695512,0.25636563024161435
0.67,-112.60354734386189,68.24056719593207,175.0621929454386,0.05463934894068638,1.006829210301589,0.08281631528028124,0.9869125028962389,0.34265189185420525,0.38082452247749154,0.8017297738134492,0.5225111738990985,-0.5127434164331964,0.5655199612976295,0.5027126202857872,-107.52246904050557,86.01160823967491,37.71315857968494,-0.04936546751649673,0.8343896254949111,0.15542609351435208,0.17259836483282354,-0.23371557618958994,0.13939341321749574,0.485567828268983,0.543036806460097,-0.6152903967273615,0.521718527101285,0.45552783088510895,-179.653452523067,5.278688088823658,9.363704583357494,-0.03194282069017769,0.13211880631998507,0.58645956380073,0.5243703055243567,0.4089571244027319,1.0773319437335789,-0.4470457997136949,-0.505493663437994,-0.6050193176477985,-0.5336373758325763,0.5298599772593104,-151.5325265533386,18.53681370358112,24.47860294834407,0.47441893077267927,-0.10027548684586106,0.461210190860691,0.7901311331397181,0.6255263192709478,1.1357880953188642,0.42283543651106337,0.440179878943768,0.548229561361223,0.6419070065910949
0.68,-112.78796461978934,67.2449485308953,175.0590053976788,0.1612332917794701,1.3165536896156538,0.08709420443244806,0.952378278002158,0.22456431523595102,0.36816486118056113,0.5854560185569851,0.5655534623750956,-0.41720837977674496,0.5139950928975051,0.6556471067296371,-107.31624881493491,85.85728875005793,37.949889362054435,0.10009083774981711,0.9774225267940053,-0.12876719535344625,0.41259699994479254,0.47546074670322164,0.23589945890330452,0.45419005229912063,0.5765530552406107,-0.5200997077181021,0.4988090715304163,0.6761785822544937,-178.9118393106455,5.371652866120974,9.40116421782392,0.08102681863609576,0.19375810049073477,1.0058459339218138,0.8134292723150771,0.13599179585041385,1.428008041216155,-0.5402145692996112,-0.42298178492887517,-0.719742841495928,-0.41441521956091915,0.6545005308235463,-151.16496565615228,18.574469930601435,24.886861061352082,0.34184947373814745,0.0233524554177715,0.4950697688440016,0.9993442112090951,0.31365359938296467,1.00317219135004,0.5796013301853514,0.4505654793396558,0.6597109374126731,0.4052878535422774
0.69,-112.58504241963469,65.86734452730092,175.22476019823833,0.1555547520929577,1.3213083092687707,0.24477459263182,1.0277236705536181,0.19233586419060106,0.07308192464377346,0.6453333350527042,0.4841771282854774,-0.4132621858949396,0.4572710849731694,0.33080485364369483,-107.09166635849364,85.47345329708133,37.757577919979845,0.185320184847473,1.029663268093562,-0.026154879050730877,0.32074678830078807,0.36323738429779817,0.06403316085782448,0.5010448299571222,0.45841143920081423,-0.5223301938994923,0.5538164607724391,0.6550274119108215,-177.83720358517138,5.38570221000896,9.276586833200566,-0.012956142523670791,-0.09308755129304495,0.8949317271798716,0.5211907321145135,0.26307681824205625,1.4243522509275408,-0.4130861684667982,-0.4895047515659768,-0.47985376848275774,-0.38030676649673256,0.5785502321061402,-150.19412628501556,19.027261166684955,25.37567204386844,0.5665965964832083,-0.11019202750641255,0.5249064613443035,1.2909245978590407,0.004962304883693018,1.3199673953849516,0.4171180229224021,0.667072124197616,0.46753935253124973,0.46791760399069754
0.7,-112.39691391510512,64.15464918321119,175.37616729406548,0.2018959579625754,1.385704062501023,0.17164183100785443,0.5132594902606664,0.14939058345721,0.5806219125182599,0.4977599041259412,0.25067162597724924,-0.6579109828511025,0.6480057044631291,0.6060530118964955,-107.0816272308254,84.92778318642338,37.61195010951811,0.053088369695558954,0.9784879204322945,0.07865828888948798,0.5393736411041502,0.1552817702896036,0.02206350971847204,0.4879362323724701,0.36923871947295184,-0.5339913002202479,0.4547144759863909,0.6446510615619558,-177.0873465441424,5.648774797896875,9.244577264366006,0.12081471162416033,-0.029119154193967794,0.8931753059309765,0.9911560967440877,0.25161790480959795,1.6321241025749527,-0.4974124789773869,-0.592077847521437,-0.6391707261279993,-0.5071038783862027,0.5027748200779841,-149.35790153874706,19.132017655114165,25.590115778438584,0.5334532191603104,0.12399211297950928,0.483948338262603,1.5817803519833102,0.1324757366682422,1.4004389755160356,0.5966646412187975,0.4350211828623194,0.6550398868778763,0.5367450933968501
0.71,-112.30953973833877,62.399392408629275,175.55090580749163,0.2617205200100593,1.5583345809358766,0.2526224283063964,0.4385701334709121,0.060167497942620815,0.5293247610567615,0.5750249006169281,0.29272598686748,-0.4725545209969236,0.5809100516260692,0.7218323764428615,-106.77744979628469,84.14404049522042,37.54298678298902,0.11747503292260962,1.215117473833425,0.11956816069185018,0.6173104064670776,0.06156189572369594,0.32033199343607377,0.47342303298689264,0.4259882159667979,-0.5063933805384833,0.5776060134227381,0.7242357792279801,-175.98883891348513,5.210773583714725,9.250929226701244,-0.1678221206278787,0.16536779774311622,0.9850582854235194,0.7581819301159868,0.03728728282434625,1.658853802725935,-0.5017561560862679,-0.6586133800972269,-0.5899826162804647,-0.45839059306788765,0.7708888942263722,-148.78514796681304,19.11090918823623,25.815410205576754,0.36613318038501647,0.2044769807539451,0.5416782763660438,1.4001727752983688,0.36277280346983354,1.420766913804762,0.5686261103592019,0.5818321289926144,0.7397362941448571,0.4603643589984727
0.72,-112.18000428648894,61.515527849691416,175.59326775833702,0.15062148615693638,1.7471680014157531,0.018740640855738358,0.5291062879128312,0.13870090563956025,0.6995567748612247,0.4451732325108759,0.37989390699118203,-0.7238740240336683,0.5711978123375496,0.5990252441382781,-106.56939365205517,83.50809002158813,37.66118931904143,0.07462955685420411,1.2041324741857977,-0.12861804697113483,0.5780868116600321,0.06162781064872666,0.5031824751788232,0.3211744749978511,0.537858798714207,-0.3240598259854009,0.5379262751492903,0.6775697341781756,-175.2950379920614,5.240973206171369,9.295638742791573,0.01778976153781133,0.32028743477088756,0.8975428737389504,0.6942610416718127,0.18863914043139296,1.5617331320436367,-0.35335925826589987,-0.517605696960851,-0.4744093755420075,-0.4012898042735822,0.6306532082954506,-148.54374405422743,19.190812093932458,25.912974583108745,0.26409614321536884,0.16913891826789657,0.5162458514025912,1.463143689194323,0.5521603166362993,1.2607079357433084,0.35283859398412754,0.36251718951025547,0.6589787104039173,0.44625411978726665
0.73,-112.2372317895976,60.511999040449936,175.7862055823244,0.16145468567910704,1.7280772896972885,0.06987874456056517,0.3572776564808884,0.4500460077006869,0.6849724197066863,0.557017545201892,0.3151045736596915,-0.5524624993826586,0.6012977312611147,0.8270262485783892,-106.5282450675763,83.10203879091873,37.809367495952806,0.06367106456724175,1.3477935744850984,0.0030835912961121176,0.7303530057514681,0.07976431848494629,0.345632488637323,0.3833296115137647,0.5691315323909469,-0.5686762202425997,0.4467915267523574,0.691987483381991,-174.58717201698792,5.049368164378218,9.298760183609193,0.17170118165800263,0.31341976785636866,0.7655085455134235,0.5823816694375685,0.1891398683399936,1.6200534245493454,-0.5242931023688612,-0.4958864198672961,-0.749926667143138,-0.2776319226358891,0.6043283000360691,-148.37741834662376,19.313888763511507,26.02847384133408,0.33503582814060684,0.20965939353572455,0.4302129946377289,1.3679737037249808,0.45195123309138585,1.2739472442314463,0.465572122076011,0.2487243249431733,0.5415876128386922,0.5908643083820033
0.74,-112.13416135244567,58.895811298738636,175.84953039780424,-0.03583818741415003,1.4618847405074842,0.1986978945737808,0.23137123230315038,0.927527008285657,0.9157480328237863,0.6359008317239618,0.47058789321679195,-0.6282794738184919,0.7597235444320085,0.6111502334878992,-106.24569535611674,81.77454551650858,37.63280680124467,0.15035586573168275,1.1377265049634278,0.0016351505709895214,0.9704115646405025,0.1755207820299137,0.201897458581722,0.4864532217223296,0.5534546222163215,-0.41317460254586486,0.45720684697569486,0.7429479877103823,-173.878233737,4.7820111437345965,9.221945636262388,0.07925350101718245,0.24070069405365488,0.8466537891823238,0.2477954481904704,0.4662043910732381,2.0469763947231576,-0.43706006103043515,-0.5782265041593568,-0.38119716088004607,-0.16358323483194576,0.6695098746409223,-147.77408933272594,19.45224443810993,26.27702498310727,0.3999710160867479,0.0007804521324376312,0.33680380887511774,1.6196347147183803,0.7160485551017545,1.1795841768888284,0.30142008930764447,0.5345409008936112,0.6456909490598194,0.3381040734532231
0.75,-112.44760336135107,56.84583680376958,175.94269496450428,-0.07893800333384057,1.4815858976389176,0.015756559873895543,0.284465451521071,1.1915423350882184,0.39016251062460305,0.551911337318108,0.1382419432590552,-0.6590792108861139,0.6450007201533615,0.7825460253771632,-105.96781734494614,80.35774927135297,41.564497862393985,0.040908942168185074,1.4649597065442428,0.13500816335734458,0.8867590254659572,0.24605927024084928,-0.10725196102355396,0.42513259821658944,0.6355548759638207,-0.47543910854946364,0.49047033209118596,0.74128504537039,-173.02586778337243,4.700524472477292,9.089001557870096,0.10967299888083434,0.23462899759480607,0.7536256095539766,0.36227852453967957,0.568031469399481,2.128464859717386,-0.36339021122370413,-0.4339511528908539,-0.4667609166305828,-0.35912010954009105,0.844886559728268,-147.11046035830074,19.306490240473874,26.393029383264214,0.03784780023921458,0.3753097770597312,0.19666279395958686,1.4444591978979742,1.3419195363073286,1.6533974931658928,0.47011412389725427,0.4061983899158925,0.5432224674537832,0.37281325587357583
0.76,-112.87258389305802,55.51962960139806,175.67423442516463,0.0913969446850337,1.4894328481670465,0.1763770124930148,0.6712340906076648,0.42997418738451865,0.01725503466808037,0.7189762887502573,0.45424084061156655,-0.6574775528186507,0.45166891930829717,0.7326274545198098,-105.9277143304672,79.00998012550959,44.67054996400465,0.14050117300928064,1.3191876283146418,0.10587633233697125,1.3338882716070972,0.021936905102273946,-0.021541684706044173,0.5111976536456082,0.45403956374782806,-0.5621593754646079,0.5496094318037461,0.6896492241714349,-172.2487027126257,4.440991748899842,8.975966582145926,0.09087337130600776,0.17815974770049242,0.7033130610376592,0.4856428156079305,0.5345164091836623,2.3901241808100075,-0.30899906406653643,-0.6554016507084337,-0.738642097767313,-0.3181300254920464,0.642405489709409,-146.72954603976711,19.133096419297914,26.76620616079814,0.3998044986156907,0.3042444536679281,0.35112015118961193,1.4042039202062684,1.365955522828766,1.6664562433627608,0.5493864915264817,0.3640278525481013,0.7801268462810076,0.31948214055248236
0.77,-113.46274790275287,53.852508554505754,175.55833487459236,0.3527942806847312,1.316671778765155,0.011751634170391718,0.7096428240637643,0.20253399915648906,0.5514178822531741,0.6440985855944951,0.43473545378121764,-0.5336950406875951,0.43271079975813764,0.7196849054316701,-105.60079802737856,77.43380512097049,46.992626210538624,0.16460432552928753,1.433589913832271,-0.008936054128375087,1.3305681982133595,0.14460074220447683,0.20298505594485824,0.3055153037986526,0.366866888670703,-0.4226266768945843,0.4806916312402233,0.5314435866508084,-171.59776319429432,3.9812225116269824,9.005787336911505,0.07110512006372104,0.3062180452499143,0.7731747998863692,0.6426125348973383,0.4134440263683612,2.382642592574334,-0.3923245568365472,-0.5753270302789988,-0.5915309998408379,-0.5101252098084648,0.7192961379265511,-146.7299218801653,18.85895551721528,26.954734771358808,0.17995070247353345,0.4491602568487362,0.16535871983727546,1.2832037484424823,1.2292613842137678,1.952006257372783,0.48007619700133863,0.4776950042594683,0.5420585960742323,0.32748450042824095
0.78,-113.82548678977953,52.29373948807489,175.60588988530426,0.11568044015958479,1.4044906234463699,-0.0032676766508243082,0.7552812197814703,0.4220888333692723,0.606290981153568,0.4698240001437129,0.3437850126461418,-0.6098769384716846,0.5860216736408462,0.716130578319181,-105.10928873526115,75.53659578550209,48.66076640914323,0.054586158503360765,1.432749462629281,0.17324717798475814,1.173117826145206,0.171565983520389,0.49254925849413844,0.46054306193470407,0.4036635774873651,-0.5611501928900317,0.6445462574867006,0.6905317510683768,-170.88295694079827,3.655809234295016,8.692757921870273,0.08820002766181323,0.30829082103046856,0.5543651745970856,0.861407033928944,0.2923767743535471,1.8366629909924337,-0.604729914183135,-0.6285509947317187,-0.7137265178226275,-0.3277025008020937,0.7301587812796796,-146.2023363483958,18.39345450208043,27.083315657204384,0.4392689587686393,0.379177815027873,-0.008750961782865052,1.0744467385741565,1.4019684271239456,1.9580158709050384,0.49483988614031854,0.4022558815421166,0.5287878895972065,0.45190961655203854
0.79,-114.22690576727632,50.86277722847486,175.62960362252167,0.018122016402802317,1.5667690017017935,0.21391757875118256,-0.06963806625505303,0.8237774557679354,0.7237132847343797,0.5472815566183807,0.3403911703021829,-0.5524167482760391,0.5623435314514773,0.9291815989316897,-104.68202799586483,73.84726746547422,50.36063977935622,0.07688745108532258,1.5932316838403302,0.03929366863655338,1.1491839400625334,-0.049771104002167665,0.5348034723580343,0.5782502719155427,0.4099371104419304,-0.4658049542412642,0.4448492436586159,0.7789907007491458,-169.95372876237101,3.3173167153758762,8.685025189755793,0.1426637288571463,0.32365001866542686,0.666098048593399,0.9783486524601244,0.016753142649359398,1.5272088677508497,-0.3945699019926827,-0.6261219408436541,-0.5235145608156261,-0.3916800048911797,0.7842612695364726,-146.05239529810683,18.281076918006477,27.343272958527205,0.24303628481891798,0.4400451142449131,0.16750975274762125,1.192900277489817,1.2149839845199495,1.564252127974898,0.429062938260595,0.4588078165231467,0.8310339035424209,0.6543535142634589
0.8,-114.94644734242172,49.16071839388474,175.37557709957684,-0.009956764614526971,1.3577315813310264,0.28112252608393107,0.5125959926269288,0.510199747490897,0.8296184632776662,0.8216440762357663,0.3956459713535375,-0.6604367685441117,0.6195262560709625,0.6794894561047313,-104.40529805584117,72.13531920236127,51.50454616918744,0.12801084467370877,1.5318114624933217,0.32375497946762777,1.2218771607845373,-0.18029415341600155,0.6085826615568404,0.5275233402737128,0.33399939567246933,-0.40252052613589956,0.4895189915838631,0.9493608557899011,-169.48446745665012,2.9060905436808655,8.602608067294874,-0.029455444245268567,0.6476826367705866,0.4313171870073418,0.6228058031648507,0.8464878518438489,1.7155738855469813,-0.43421517075601335,-0.5609669015698753,-0.6256674101048779,-0.4241148447618037,0.9352947915086479,-145.70423203389788,17.811706914816106,27.32585923640843,0.08598811756876279,0.5263653154311632,-0.00654596880140991,1.1917674427263139,1.4002998005645164,1.3601785530908392,0.5123975183830864,0.5458959624093358,0.6103244145892427,0.5532226371270766
0.81,-114.90184787433826,48.07620016143904,175.1410341501998,0.04385006157801813,0.8455233154862126,0.1381642381535175,0.6469512272170181,0.15018724505122338,0.9304905793821443,0.7049313538811904,0.2973849363603568,-0.6069744369001475,0.5822442384913973,0.9595952282022525,-104.05417665826576,70.63629701263844,52.76660360725152,0.11962577588661252,1.581628058225662,0.23070348405294738,0.9196526567083665,0.24436836087593433,0.377372340496046,0.5078111288941584,0.4530176025886332,-0.7199256173764134,0.6100355625604026,0.5793273522305955,-168.61943198870577,2.800950178628778,8.56905106672798,-0.0450546334846576,0.2676947598912641,0.40078593718072114,0.6490536518032906,1.1658989534654267,1.6536241628380106,-0.45933036738104266,-0.5609016808693364,-0.6197529660562224,-0.348094612619701,0.7416978323941146,-145.6294026251646,17.297756822784383,27.333932361662143,-0.14810757892237011,0.41543472066161985,0.031143250371832062,1.3368430961111029,1.6059198735684308,1.3727335105640182,0.4829437960448019,0.599161647453259,0.7413909925428195,0.3615488839364207
0.82,-115.38764812807138,47.0107252514295,175.0036152988292,0.10096713048378876,0.9168644122866411,0.145145862967402,0.2999703342111269,0.1536724017840779,1.0854397305922492,0.36317412565211926,0.36257064987441423,-0.34041136864254373,0.4330729383713353,0.7860911523366345,-103.66333330755985,69.09664587987315,53.49569985183613,0.08558771448529061,1.3704466105476492,0.07620577533902095,0.9327228385321841,0.5763579278915515,0.06153431921639918,0.36529732532632214,0.4218167520019097,-0.37448844924521496,0.48897001658998385,0.7187060168505238,-168.66078321878345,2.5131667780269997,8.826238925848024,0.08324618537590227,0.46187707638588227,0.2399177533466213,0.5475031021347256,1.3248585412506095,1.5081265480001247,-0.4090503987161121,-0.32698403986421065,-0.41721954708786735,-0.5193689806736831,0.6958786570276139,-145.485656536009,16.896264726326052,27.028699107764126,0.32947347838529073,0.34079200174213814,-0.15047596077154365,1.1124768755825665,1.262849242661497,0.7046519918971392,0.3933217414709878,0.5047286053860518,0.5809306207434197,0.5318422307634599
0.83,-115.36103276224739,45.80801070401856,175.22659786127272,0.17505551294833965,1.4645329780308562,0.23926417788680815,0.43601481616497023,-0.08250889341451952,1.2055703553540194,0.4759767637809792,0.4361096983388624,-0.3377936498140523,0.518608842771263,0.7790299111301097,-103.41031974430135,67.31615187761805,54.46713166841537,-0.05369965085277746,1.4416595493203026,-0.10089282303567618,1.2818636362430795,0.575264544153621,0.1797962082109356,0.22488801349499427,0.35880870070418425,-0.40245722976969134,0.4616363500733354,0.8056871964096837,-168.2336559480609,1.9163174371546114,8.93863080294783,0.014645093723538644,0.626180542779127,0.13213216222959737,0.29524662902165716,1.3279852251401039,1.4918625320297432,-0.5774186091191065,-0.5853357864800143,-0.6128973150000206,-0.43600309232495044,0.7338232751388319,-145.68137586346234,16.76331973231177,27.026411057666376,0.14806101381180375,0.23354100725344204,0.45397323996220473,1.2308277836090986,1.308375073222383,0.8982462106122172,0.5046989775331792,0.5674261244322824,0.5299331344535105,0.20035465283397777
0.84,-115.7480705267179,45.147523262530875,175.38137979789886,-0.07468014478506838,1.3122742814694535,0.255540257313838,0.41603507110645344,0.38087976484595054,1.098339572005522,0.6957836395072307,0.48402631756326964,-0.6399862022010886,0.7626562684947509,0.7295724648186497,-103.47584837047678,66.53308419038858,54.82671417788164,0.15646727420465228,1.589134024355508,0.24694156031640918,1.1285144422806657,0.2756688770654526,0.5892842239860417,0.267271923865917,0.5497635933195432,-0.3811581546633789,0.5927816962045778,0.6468314212164264,-167.89560692914483,1.717372970947709,8.813205062262252,-0.08807163815881265,0.536076519659255,0.16529383196360542,0.647586349719703,0.982956325139484,1.1925632978522727,-0.40848965814619403,-0.47312086029129136,-0.659150803249691,-0.47800319257044227,0.8041765706663555,-145.66102764672866,16.48597895271943,26.846699144132245,0.1830323851396673,0.14595523856991563,0.22619604230686724,1.0446120931113332,1.5231820883962266,1.0218715508423886,0.3983018868254869,0.6194376304738365,0.7462256864876272,0.5218772843028028
0.85,-115.78403966653426,44.46693109899099,175.39784174074765,0.0005997555573551555,1.2166545756979026,0.10974207369795314,0.26040683645671764,0.5611009399778484,0.7857370857261317,0.4545525495389563,0.31981006530202816,-0.7555253117996692,0.44075456879892283,0.7362652788019436,-103.11594264308086,65.80231864028585,55.370730476895766,0.19119304797703351,1.6151957529191434,0.14726507489643198,1.0679273830199307,0.310249132729559,0.5814909070479067,0.4351473390428722,0.3492860197771085,-0.5054288174451693,0.3678795081745344,0.6771926413331911,-167.97384307301738,1.341998073216151,8.942461091296087,0.14687321190946456,0.3875230695066261,0.009606154772636662,0.7593208893052846,0.798682912720825,0.8014797114313248,-0.42861678861983193,-0.6966233383089409,-0.6446060364340374,-0.5113837435880065,0.6440496355109806,-145.85530311152598,16.07371773742694,26.81030424734364,0.23303758651259388,0.2156507146270114,0.31011211456967663,1.0409371976599917,1.7007985664513026,1.0691227814178035,0.46143071094019844,0.5663535135537892,0.8448976190623624,0.4007250562741331
0.86,-115.48895997635329,43.02645497756767,175.46373726421731,0.26362713571956037,1.2533954101622142,0.05128735628300149,0.0633835877111433,0.6452133774116723,1.0554208522104338,0.6450038703227587,0.15572248543292327,-0.48496326691022107,0.5172575829187086,0.7953681001228827,-103.17473949006926,64.02679529079911,55.773829100106205,0.34070106578572035,1.6283304772374412,0.03514453111269632,1.3187747811051236,0.1730381080658212,0.6804584867452769,0.6704933954118144,0.3952272354546448,-0.3758059002143952,0.33365591518882876,0.839546226201434,-167.95475836511443,1.1413389089991752,9.186382196057323,0.17900820149575905,0.45478764937964833,-0.09788155906323057,0.6041339859240064,0.5677764548859531,0.3801885848349301,-0.5307084645616288,-0.5741725752666464,-0.7703293455097892,-0.36530993038923426,0.6028464258142034,-146.38340595576716,15.625690979250884,26.755648727646722,0.2250569650663558,0.390908246777256,0.539722187540998,0.5804245712261918,1.4209737536653475,1.1775362866909003,0.47851330248594043,0.4900715829458413,0.6306895702786032,0.3878209905124286
0.87,-115.47399511294867,41.403913259094914,175.43856658243516,0.057434588665537537,1.282533645100918,-0.17082947578254054,0.22173989156892399,0.673864261368128,1.1575211561022403,0.44732170380076347,0.3093397025224004,-0.45341094225501466,0.6269586695354049,0.7964536403691639,-103.1231869722481,62.16699058537103,56.59656965339827,0.22713012011508021,1.7424282348020161,0.1335375568842385,1.4407108410882277,0.1672824902725664,0.27419491890337394,0.4157441060028443,0.3500736060827063,-0.4813423577808763,0.4898550139937031,0.8215401953756768,-167.84657333074153,0.3791653789580952,9.362478804833545,0.15742114576177255,0.31827238402945207,-0.06898470720892241,0.9104948166600635,0.7245229550691924,-0.011379477532989526,-0.1784029687282231,-0.43732843884662465,-0.47770036779856495,-0.39436317610368304,0.7938700238665318,-146.9003829526579,14.801837013205091,26.268518712906978,0.03227013165122561,0.1893810660177215,0.665510173558697,0.5090295686061516,1.0266883584940363,0.6851314218882861,0.4170464084377855,0.34324823940103155,0.6366208845894538,0.3404644915678873
0.88,-115.52564524775246,39.92471942531372,175.8034706282822,0.20981748336163036,1.5094293869752475,0.16561468359114018,0.7969902695730418,0.7586765130515698,1.0595137425678673,0.4881741702915545,0.34463957864581585,-0.636356687047327,0.5021587735277956,0.947322239793838,-102.82914162675534,60.488919470618,57.00884370413716,-0.02927371811841957,1.536699509070057,0.07128375146271256,1.1140402252936268,0.27871019745181475,0.33363696147435307,0.3167193220529443,0.5323128817509251,-0.4156891607929724,0.3760570477751627,0.7722963808735245,-167.97044324029497,0.3021646513497417,9.509452350536792,0.2631766943558793,0.3342127215196319,0.08860006737197088,0.677979704108647,1.2228063337437143,0.3270238609330633,-0.48378754317350836,-0.5058583912091235,-0.39999760390323313,-0.47440408055387207,0.9597675489395341,-147.11927921884833,14.362964747968775,26.29550556928228,0.22931231630777074,0.29714961188410716,0.5764350146930168,0.61538762531905,0.5262839729530522,0.23049638470013217,0.21084650254694742,0.43943884272000167,0.8111739058262691,0.2971301022682226
0.89,-115.78278072313422,38.592552926689606,176.54115535745973,0.04505040940411004,1.3735130180824822,0.3663141063885651,1.6272094183093733,0.47697280373838963,0.8615786989037362,0.6578369120584538,0.4966490395120592,-0.6123618140131761,0.5116513338537911,0.7307200679344802,-102.48600755348025,58.88631389268976,57.62241323248514,0.10485785629993111,1.55701378923867,0.0979802738216012,0.6163237937201153,0.18353345382440756,0.27237502856299295,0.3863428000312094,0.4735578649864554,-0.5122442008623833,0.5591629413186419,0.6939377776754978,-167.74743408006495,0.4257276290290232,9.607225289455204,0.3563098640165591,0.5760833765856375,0.031121228038183686,0.41127522863578586,1.2724390951774391,0.6476327523882796,-0.3384767809404654,-0.6299504949961288,-0.4738489624727073,-0.3975420092713533,0.842640669325362,-147.65882708487226,14.062483920709212,26.068096737877877,0.35232474914644607,0.2188584457444108,0.5210496578510139,0.7482191317046158,0.9044587196932639,0.3538868196853443,0.46647526534065825,0.5410733095027545,0.5541351168604528,0.2324407489743815
0.9,-116.09436145321006,37.85201486795814,176.9984303394408,0.21895245188455295,0.4422473269653931,0.3532274925314746,0.9653294734491287,0.2510316419455765,0.5237050387364572,0.8127673410870302,0.2254760259370187,-0.5396447307736882,0.5185368453771236,0.9168444169039082,-102.23568817692738,57.43416977515173,57.84898476990652,0.1642425689285191,1.2894624561956,0.05090158029055466,0.3010779022102283,0.19468220677977122,0.5274541242470179,0.3868723813653841,0.27436924520575334,-0.2733201484559672,0.24952641137829287,1.0085298873039885,-167.61490605345148,0.733416453000246,9.902808154201916,0.06836003461937579,0.2783826031129166,0.10673048311555579,0.11949534644927831,1.1525333576897165,1.008995795917157,-0.448858130731677,-0.6178370448776566,-0.4020079227122822,-0.24552542811449532,0.7714913734395563,-148.25500383335986,13.399353783309234,26.10961337466301,0.345548505691695,0.10007514471110268,0.393479201952562,0.4914335122585498,1.2681712181348637,0.5511336589966619,0.5259709672386325,0.4447221917285956,0.7011306972841177,0.4913056549784005
0.91,-116.2154489058649,41.30518987028893,177.538392718768,0.5222496670825838,3.5527380267352395,0.4372469302783638,1.8145446917656023,0.7651468306345298,0.8062493791347118,0.6957436011456004,0.3221977832568788,-0.5305811124574047,0.5578887188296707,0.8167217371016114,-102.42414702226017,56.07722119946513,58.56634898158888,0.16997072233363952,1.2314535074682078,-0.08210738056653205,0.026526621359373587,-0.17283856987382995,0.5513809706289006,0.38547507604327275,0.4202577692119225,-0.32042007571263825,0.391082815653036,0.8780126511961205,-167.82215889240857,1.2198270344092106,10.185011473295102,0.21535396901674794,0.29742679839500846,0.13571112745173675,-0.026018286423679107,1.563117906697693,0.5794958677268999,-0.3525967533568319,-0.6216714971937958,-0.5591482188938358,-0.4522844250222385,0.7971408700744544,-148.6134170813226,13.180369414051759,25.568126977654348,0.27226069457091095,0.12008332846735373,0.39075747111345427,0.7947401529346865,1.6335482603241405,0.21406904647456354,0.4333871552463445,0.43998762776319783,0.5490715880065944,0.22766663992623648
0.92,-119.77538275169687,45.143737301318836,178.45205105562118,0.5473077068455858,3.6348387374631326,0.5150392122748833,1.9886175613118897,0.2543900544287281,0.3425086976993376,0.4434630670993033,0.31441353918282516,-0.4515955186053979,0.6736940822844439,0.7607224968163643,-102.34299235976422,54.25673316774476,59.124468244406,-0.10787249734867227,1.0682782599230123,-0.040305478868620036,0.27438153278550015,0.29921086460548174,0.6700604139310862,0.41307963935723024,0.49802494354475746,-0.46689035404479856,0.2929839859953446,0.741857222588486,-168.15003266960667,1.4536957399960493,10.104529175876912,0.007768332219535157,0.2383490022252724,0.2675812886527454,0.06960357810989691,0.7295055734389548,0.06948232016132938,-0.22754304985230647,-0.5591903147871408,-0.703149716757667,-0.3565323839796619,0.7492394783883066,-149.1784993751752,12.592852547906007,25.306335915370816,0.21139354215605388,0.16008796340808387,0.7349826324390767,0.5318872537432384,1.2363724731734336,0.1731167424476356,0.43573888156408347,0.24433845213565342,0.5713919821152357,0.3593408511107832
0.93,-118.51627231409017,49.018792515353056,178.99534660448967,0.31666051663325656,3.6711314344574753,0.48065867223974085,1.4575321388770441,0.42048926370299466,0.31776894593887167,0.543755578764648,0.1826862214873613,-0.46724753906654204,0.3681992275034526,0.7534334586488309,-102.40933140735271,52.629602519563306,59.99642930104352,0.28734392327720004,1.2979808575639011,0.12458527542968635,0.6894959217457957,0.2697327626125983,0.6173447808118185,0.30363775728657905,0.2488449174817513,-0.5061738885315589,0.4463484312025542,0.7921188006616822,-168.5793296929442,1.9062102853713194,10.236853345087878,0.22862178753728107,0.33958903864644235,0.32324617884059503,0.45337255588080727,1.676152138167242,1.0389883970441203,-0.3767152646174152,-0.606999076343873,-0.522755015492765,-0.4342734171549065,0.8044237027575156,-150.02988281312486,12.27322984885609,25.208008465111096,0.22162171532445488,0.07185398174753516,0.8283285124305232,0.13402996464353495,0.9181784129417818,0.0697252761863989,0.48860289992059386,0.5085617129168833,0.5217277876816433,0.5341840827512917
0.94,-117.41148762681448,53.03812698918561,179.76404949650302,0.1961182043677842,3.4994626608215365,0.436204590495352,0.7368608387383483,0.6423678349013092,0.3324950994310711,0.5927914498425182,0.35255132348877716,-0.4862638923389513,0.44126526227947027,1.0203971998441361,-102.47456920621453,51.892637926478606,59.952200275551355,-0.026637967735447993,1.0558965972779941,0.26035099914137344,0.6404495643992614,0.49139027839861776,1.0590049201084386,0.32012951404030243,0.37950253788770083,-0.3569685044802231,0.36626499711549354,0.8146528699004751,-168.81458586643046,2.37232854935733,10.439493218043,-0.03713065664811231,0.1122799984920993,0.650874513153571,0.28451584817147657,0.6869519914382651,0.48705492796233213,-0.47719739404367706,-0.4843811751058282,-0.406226667916492,-0.38188423377054326,0.9728252274446838,-150.93468737666598,11.706952332266317,25.18425498913224,0.2644675835126173,0.21661281052623665,0.9172177868205783,-0.015795839625089986,0.6375055589777775,0.21197821734324046,0.5539719408153245,0.3861414497213557,0.5454983663405504,0.48531591815212
0.95,-117.61863337395837,56.01319688378636,179.47025928961907,0.1964245556003847,2.3290890359776255,0.33302690602921314,1.0965970802883425,0.7402707509807417,0.9410358781335785,0.49212147022398467,0.6060281910930878,-0.5331437751281977,0.4961168896652196,0.9241395367541647,-102.6118527283883,50.785062148717046,60.53107880611588,0.21704994086901902,1.0624639126766273,0.18039420427762304,0.16219234962165052,0.5739502938524325,0.33984269775419834,0.5322878997167243,0.32993787440384675,-0.5856528451658025,0.416373268404547,0.9228447982074428,-169.2984762786704,2.5019797971259754,10.45698297612334,0.012976269177818073,0.30000493058811606,0.5344087349098012,0.3621225749809557,0.6890919402209716,0.8586384369512532,-0.474910211956282,-0.6509143339040414,-0.5298695582277316,-0.3690728400009881,0.908939588540513,-151.98710633918478,11.231053726216295,25.161982288797905,0.24685465307421958,-0.1458929473951645,1.10959962313894,0.10221987429491207,0.6849656180868506,0.19629678281225954,0.6769277754125653,0.2877159648446447,0.4690903952897637,0.45501281707527824
0.96,-117.19099223501192,57.187366222639234,179.21852616865328,0.05479699073217931,2.1089704061633787,0.2912694925950347,1.3459666320922916,0.620369579636942,0.9020481704250963,0.4863621174121882,0.5799472178759204,-0.4629142772457458,0.6020924254288987,1.0003532480977073,-103.00046537181855,50.1949925311438,60.869568488037615,0.3389851749176781,1.2075231819023886,-0.1004427006039546,0.20426553844349044,0.4071686541238492,0.36781512405518757,0.3207274686006443,0.21596732725253395,-0.37764640818003453,0.27800539284675824,0.9296778519540874,-169.53244431317114,2.5950835659967257,10.328842010569785,0.12670391241209614,-0.08866251332646552,0.593554156805987,0.2786780211708413,0.9701361517714581,1.273945479700989,-0.4594968714894148,-0.42415476247543116,-0.4273151387298797,-0.5065726750965568,0.8408068589432973,-152.64469227112042,11.1216346853343,25.115711211378645,0.22812988953014898,-0.00395201088539697,0.790445175016998,0.05426431982953584,0.8889323018765388,0.30227345794308724,0.557018251646787,0.6054144407116491,0.44881020737622057,0.7186205040753362
0.97,-117.45992422463094,58.062865158526584,178.9860140314207,0.01827743611182958,2.012442341693005,0.313339258265659,1.500982689531052,0.773908881689275,1.0013974041692026,0.34560599351352167,0.221572742992766,-0.5307586267955848,0.37153491370247077,0.8362455603766771,-103.41640534351319,49.464789156940014,61.201964088483834,0.6777830896107473,0.9630781895208314,-0.06218022594856269,0.22886612527019304,0.22888889450596378,0.07792624701069152,0.37999038955975306,0.29928181105299206,-0.4279821243507323,0.6394533140510765,1.0531274478653654,-169.72063389195685,2.7845783186035833,10.228121042161225,0.09907909012275316,0.07181389097880016,0.22474093933943523,0.4664734985705363,0.9808832404710986,1.481541233271099,-0.39576054025849916,-0.6292926029443271,-0.6767589316967827,-0.3168751379101801,1.009662985947838,-152.7604305257436,10.88209179117633,25.23770432111203,0.3303788045657416,0.09868171740697784,0.9592345170954909,-0.07232573249843101,0.9991678811003832,0.7317110055868384,0.38072973800965504,0.5456504432953297,0.5202034936769987,0.44886995325025963
0.98,-117.35945462827563,60.28295419132704,178.45877996978027,0.08496483615167184,1.7150740456036573,0.31111049271899255,2.4257718933534553,0.5478806344371026,1.1747166586644646,0.63060115587184,0.48510060982149644,-0.5963968389442971,0.6155598924697742,0.8586843043647915,-104.3790618042443,48.31267675006527,62.0895114451896,0.32719868890751774,1.029773769948728,0.08575944275429197,-0.11691647165788467,0.4457404430321702,0.04332228021650358,0.19636996326366096,0.40265099226864076,-0.3831654071842774,0.39813538770659923,0.8679056368461359,-170.2184534527889,2.8775054666584516,10.11145278388533,-0.07707988758032457,0.23610580343316695,0.3250656260856932,0.36467378289822255,1.3264027393360318,1.3609889935215422,-0.22968567712952281,-0.5721431879917074,-0.5464468917431894,-0.20417062104214123,0.9230076883587806,-153.84733582647894,10.385556850025184,25.111193362844112,0.20617507474186142,-0.05042867120822815,0.5851165999243235,0.38105391249026166,0.82714602571426,1.1746015015332751,0.3712262689626973,0.47392980865873346,0.3928242441726344,0.5258334560062969
0.99,-117.32674719140397,62.07608983501698,178.0415218385237,-0.0016632328820739561,1.7200775347837993,0.09446149301545576,0.7625698183934234,0.9289683868604173,0.7472613701266323,0.6044466583734137,0.4468393755335072,-0.5402223541882265,0.584252008007694,0.912230312957918,-104.68432577135825,47.41628475398417,62.16657637917856,0.05879210726873868,0.7949861255651662,0.015337934311581182,0.11021533328813668,0.4019653801992789,0.1913123944116254,0.2918320379981898,0.37201831204183633,-0.4476084960604835,0.24681701941090473,0.9008471658083099,-170.70532873542257,3.2689927960279004,10.3230944389444,0.21524289037232525,-0.09773453661288103,0.527763718794682,0.8609036010278955,1.2630574162037447,1.363491355462853,-0.534471370959003,-0.2526147694897019,-0.5904134929677303,-0.4906570118471939,1.0768092603683872,-154.4623998860631,10.108405428423755,24.883058066308507,0.24467821612588395,-0.058172095560348795,0.5073553197812831,1.1357354158710655,1.0839940026745278,1.8250894289033204,0.4196385946885031,0.4399207334662189,0.6830979422458592,0.47595383697688837
1.0,-117.54759210847584,63.819660977375456,178.02817882447945,0.2239678620168365,1.254631775530645,-0.0064303886246790745,0.39203865236083935,0.5313103193786812,0.8904578493627711,0.49161923330282015,0.5071676348560865,-0.436328182587929,0.6157214942775977,0.9434316888037725,-104.87442087985758,46.35080519877837,62.371064410761164,0.1635649149436013,0.81792324155239,0.06380985402704159,0.763575308278713,0.2433773682542253,0.18756158748833013,0.5102089984061629,0.2282845521699099,-0.39786432710447894,0.46047785250808254,1.207304616665866,-171.28773524775988,2.998266515116715,10.233962477217387,0.019990963652854063,0.15289891641770348,0.6835610566851306,0.6879642281652842,1.1882406230225853,1.2608611450162583,-0.42425006936147314,-0.5666892856287536,-0.4452514967767893,-0.40715790952966996,0.8541956920012616,-155.06889907689342,9.69001436812369,24.769371258324185,0.16199717258238155,0.0736358836011578,0.6402782616042411,0.6525879716514247,0.6502492430576053,1.7519369958492736,0.30213471082753396,0.5554480845008676,0.3851708266621262,0.41901940946601096
1.01,-117.59367075644091,64.97804064335969,177.83620915871512,0.16062721620587103,1.4892145944202837,0.21991020804006328,1.2889334408597264,0.7088744401636046,0.35941304733967233,0.5853879162236404,0.569776229248614,-0.5395045726055473,0.6530479219133839,1.0069335521503953,-104.78442109054133,45.52607774572203,62.935664644020555,0.12125997424268281,0.7587293394323051,0.022758517122133608,1.0415580833172495,0.24719424624865408,0.3435356468068367,0.5212385957108129,0.35954088159201436,-0.4321089844115726,0.34219467949106697,0.9068105143938154,-171.48699078457432,3.1870208577790278,9.977256612155628,0.052539630005267984,0.014697919958233524,0.43458139595274825,0.5451805459719689,0.48272989870475325,2.0272118653552864,-0.44446153910303837,-0.5895496950885813,-0.46552326629311697,-0.6046954814497243,0.9550138959569021,-155.8375417089079,9.579432235657457,24.84673789055712,0.24853688290120476,0.2819885801383851,0.7183001603934838,0.41222559721211827,0.46657615609383174,1.8548932980429034,0.3917143385963443,0.49245097418140044,0.5500889897394187,0.46379745004610673
1.02,-117.29881055916412,66.56722144749209,177.0782206585361,0.09661405697973956,1.1705149060359152,0.14698268797213718,0.595490215718312,1.433525884480074,0.11664840659251915,0.44755341650895275,0.3761753560352984,-0.4534326684002059,0.33285339068836584,1.0444375741265914,-104.90656902528865,44.574440446660205,63.48679024559769,0.4244714869205838,0.7576386827852746,0.032456972056859455,1.0377870435358296,0.29154759404405556,0.5235253683793387,0.3062955805746005,0.35037133429561584,-0.3232839235438476,0.42325672148961047,1.0143893261103092,-171.76713943259728,3.1660229718550554,9.735526104813443,0.3571840693027965,-0.07480437652114341,-0.06285859258670222,0.8797307885539758,0.5784307690957109,2.339889277783188,-0.4312788718464824,-0.5609108000615148,-0.6468057433120975,-0.6113551184772535,0.8606302931448008,-156.75382381329365,9.282409651062737,24.683441267961577,0.20921199509275779,0.12221514581035844,0.9753634781749215,0.03573843170314053,0.26434140005345175,1.8120479872412674,0.4243982506971186,0.3704534785524962,0.5577851180048551,0.43885867443577065
1.03,-116.84989190351779,67.31723466566977,175.95450969764588,-0.02380745261711767,0.8513537279827588,0.2529520912774426,0.21767869038783294,0.4570964632573956,0.32546833119388213,0.35701360715131136,0.6118474589282247,-0.5519355586768901,0.37215981247832414,0.950608891345917,-105.20808501975635,43.87909422273382,63.81009760054617,0.40369517277409694,0.6077648056318511,0.02162354522610349,1.1695938815994549,0.8059761659106749,0.7883796451282794,0.40456723085070584,0.4462743311935279,-0.291919839017041,0.45464768576345804,0.9191276178081931,-171.2097776718679,3.0553431462763867,8.98934091581577,0.255084471576428,0.12899417611511313,0.1974177416478758,0.8012347984510589,1.1648272311475625,2.548492752616164,-0.3593125767205583,-0.597902770195182,-0.6699729156283377,-0.31069977411011174,0.9269529960487973,-157.4412312940449,8.507993201427936,24.75880899807146,0.07937514832684076,-0.012274698210445245,0.528514487299462,0.27841254884813876,0.7344328820647259,2.256923668195561,0.42748443836626493,0.34222862381373764,0.6046757348671995,0.5560905577410209
1.04,-116.21449126033225,68.26053357400323,174.56053639406827,0.530141444335841,0.866667174107339,0.3518516422761279,0.7412293885246284,0.5627435332587596,0.971517943272679,0.5042797232006271,0.38163435864847534,-0.5278547066613188,0.5651509008812279,1.0506808023050787,-105.30620019250745,43.554723882935136,64.26409650535342,0.1720409042568035,0.38217597930634783,-0.10412693579026282,1.1944550649117835,0.6987322415036175,1.1346179292036926,0.2578058583218018,0.3244748617773043,-0.22220458266999726,0.1355745455374418,1.050721854972251,-171.15741698216425,3.3464787679583248,8.381766667538868,0.6072317995755849,0.04976556574885039,0.1634855162812867,0.07941074386766808,0.9256856890094907,1.5462488848310114,-0.4844925379769115,-0.48353242098233473,-0.4898212299591533,-0.5468861342510279,0.7037593480633435,-157.98822580226008,8.34473549416504,25.143639327341063,0.14701081857208634,0.07188802694911775,0.4059724765290452,0.4686507916506575,0.29881371318170663,3.1924791305736373,0.5558762888078203,0.4784794630113834,0.5832018888004548,0.5355810731766313
1.05,-115.68594612602152,69.14321709919135,173.16181580338937,0.3307872673433262,0.6213919266983186,0.2909637135240807,0.5051147695465041,0.721278221505571,0.46983687632513443,0.545973412762779,0.5062750943798743,-0.4759694258374102,0.45487190305399317,1.0202955469061776,-105.09411492822805,43.29540396289222,64.27787995555377,0.2549380081892061,0.33672232346868003,-0.021222666246232993,1.4919317894614823,-0.01868895747558913,1.0341072530899382,0.3501865551875402,0.31586229834655494,-0.48068059826241083,0.25870375306484406,1.1678735616998062,-170.99897267706328,3.207799824467257,8.04779247072846,0.3256665925527147,0.02873671289607525,0.17126265183180722,0.06393503722257472,0.9035802884199495,1.6123000347883087,-0.3650181693677071,-0.4613413884035556,-0.46827563440858944,-0.46635383594657054,1.0156318478596336,-158.0080741670994,8.377901397563734,25.306031484157913,0.15668640785232982,-0.09012230567459383,0.06923582436928503,0.3833725135399968,0.20659025308262616,3.484995265356589,0.6494244854282928,0.5468140973845623,0.6625134549864724,0.36931571448057937
1.06,-115.36560999095977,70.08722220117951,172.305981184,0.05052135863323845,0.8425849405752746,0.26284371206558366,0.5843818481562378,0.15294845244708963,0.09284846526164903,0.5669100164014629,0.6207147828542006,-0.7678199040979256,0.5488074397010505,1.1071337818081286,-105.11544554231705,43.22168212359922,64.36261468852175,-0.1229912662151547,0.2015328277140832,0.15991177120801398,1.5449034787535574,0.556972673121517,0.17241768152772316,0.3406835219942965,0.2645357159795616,-0.3799954280310208,0.23424282984728406,0.8166558648493529,-171.47693569524577,3.2042394097578866,7.436522008437033,0.24604161813939282,-0.11535956366544878,0.7762553251786443,-0.000883463900319478,1.6293135725969932,2.984683892759687,-0.34473278617957354,-0.5896989448865824,-0.510610644581907,-0.3831201844549419,0.8599075817830519,-158.35196365711215,8.455762422664009,25.686333626789217,0.26358972215656085,0.14211315663846685,0.07146698287752257,1.1619157220436902,0.6203854316519178,1.3991483766933273,0.513733774640201,0.5024731043596512,0.4530036946446653,0.4998950173477609
1.07,-114.82644688595487,70.56722319144299,171.1714467288485,-0.20626052309502885,0.7410667340432343,0.31707396579259356,0.1941290134820562,0.07902914970258942,0.41080221275358536,0.3941344299624756,0.40479144199965217,-0.5784229391218557,0.5665357081749779,0.9795017921220451,-104.84086615280198,42.80099946533085,64.16185858906734,-0.12608578068666496,0.43456703716719974,0.1073275790830349,1.4488767032604235,0.7143852352711562,0.14139264802687312,0.3632832887205643,0.2824525358836606,-0.2418745250245029,0.4060011706771469,1.0250013627041623,-172.1962636859348,3.268792384690054,6.77898805834932,0.5699488311348815,0.16703372712516862,0.539427591091749,1.0698280848903887,1.0821096984153742,1.8987881966449003,-0.42700795461230023,-0.5633140094028601,-0.5935069709111402,-0.34961180021728755,1.0202910543953405,-158.9445346273182,8.85753245984734,26.109382526880438,0.30533356567486675,0.6253053750425187,0.4296644506093855,0.6874923521213065,0.8505925828547686,1.6965388138580402,0.5505565187718982,0.43983761726862497,0.7024567492798982,0.3560422168942145
1.08,-114.75822816077275,71.09236166349456,170.87190158780965,-0.03052343500735394,0.6236254153065681,0.07500662494563273,0.2092831627448563,0.20662495233695927,0.27459496531270344,0.47496158627050084,0.5768931972714892,-0.5878965686418894,0.5815323003065219,0.9316124469282547,-104.79804425395335,42.620425974271406,64.40497065227679,0.21754613941614728,0.10393277495284359,0.025445766632943144,1.412019126609659,0.6586979924634773,0.17544875260888587,0.3467189387782955,0.2236180471565477,-0.39810262597327245,0.18668172383100828,1.213371337395612,-172.46952093829645,3.5819497043296713,6.262515930749112,0.7469224785789614,0.09934604933881533,0.4072518573172462,1.069954442652679,1.0332146159009528,1.8389065917999656,-0.4323599771209843,-0.49359387671318394,-0.354083068387785,-0.42673353085084087,1.0374976309740396,-159.5460484542389,8.773804666333323,26.46918772909838,0.322544338316505,0.3774901880700361,0.9942925093714086,1.0433179963009467,0.7223849111482115,2.7110379600099717,0.4316136373952075,0.37405759704519526,0.4924624266876359,0.2534967093971644
1.09,-114.68734309259054,71.61234699621446,170.5173106945776,0.06213316166335342,0.6602249540352535,0.009175924301729699,0.294472376868717,0.31965826087286064,0.1639300916450423,0.4646914726150352,0.3897112625514797,-0.4685939229811105,0.42852165637832795,0.7383315229647716,-104.8483680248613,42.42026125241063,64.58542201641258,0.10564195855564357,0.20543923543198753,-0.14183356607976386,1.3467231522406156,0.658085748055261,-0.005726726267257329,0.3198301531306636,0.15705076076498292,-0.4274491017437864,0.2659907100383661,1.0036801862824232,-172.89107048221987,3.284199277202952,5.993862758086364,0.8725302591089433,0.2387969285936197,0.5177277932234222,0.8711990224107586,1.1832842242187551,1.6320554108777312,-0.3934323974441383,-0.7439614308661987,-0.5941745658175641,-0.6127729456902956,0.9871620108596368,-160.0433458800954,8.669672448785432,26.77856733869355,0.5664501229953669,0.5676517818374397,1.377582897301004,1.4421290463639904,0.11900495692152002,4.088882787634034,0.23711146528961702,0.3722363213501424,0.45576207550782977,0.5560728257071382
1.1,-114.65704354313786,72.12606787709694,169.60562699220844,0.015743647364449068,0.3452408606618783,-0.03247204221497092,0.9896291810270745,0.3535442668018833,0.6328935326219964,0.5916596336577954,0.5341092211701604,-0.4912461333267207,0.3982223763299531,1.0240782807436575,-104.68612502339758,42.26170188366215,64.71592616749672,0.29145293917397513,-0.029917870613666415,0.06472320869150587,1.3764000366736193,0.2684894569301486,0.18473569486975627,0.29920155866170434,0.2772613700037482,-0.5477191943567927,0.45994887728404715,0.8933207568660239,-173.45016014085098,3.3010782187723238,5.081090796240211,0.9012188300448214,0.27100057659906657,0.44601175769581025,0.9685962363033905,0.8967168248659668,1.1851012139556516,-0.4229425910763195,-0.4482595173069066,-0.5308194529504335,-0.4642403984954087,0.9767187154056913,-161.9192076919115,8.470357793115427,27.91980268048564,0.8203489820335644,0.3998676627519345,1.437047938459535,1.368197355102753,1.509800336250948,2.4819044429816315,0.6311136423975233,0.22344413882625286,0.5971945826057056,0.3298827280054413
1.11,-114.42124587995801,72.8804688976824,168.94594262230197,0.07767905356719076,0.4668416655466716,0.055707678361615005,1.3533351971195442,0.987302034681203,0.0449098170543519,0.4923146864453145,0.39263779937450016,-0.5288756270245296,0.4551673452106917,0.9503772650234262,-104.80034565463505,42.40033014967922,65.14302131292047,0.09918188609318188,0.24797130046029459,0.17445171562973183,1.0093322344398488,0.5076431548239396,-0.0570420648288279,0.2023024942411591,0.41589607192472244,-0.18366588588185814,0.27692999083456377,1.0266346142846354,-173.70608654010783,2.7855778708302172,4.338758333739125,0.806641605026387,0.3238987604372512,0.13450533358711309,0.20375166991531776,2.062579303675771,0.8185557499495048,-0.411818635304487,-0.6225665191784026,-0.5520615870676951,-0.5753744331719629,1.098427740948557,-163.47185170339023,8.159717242598315,29.31071678970663,0.9776970364920903,0.5455450100715824,1.47253473216681,0.02397758842897861,1.3752859655284497,0.7835992822901301,0.47453891843329415,0.35453581272862067,0.7441109437432396,0.6454289094487882
