0.02,-89.89026916789658,80.82803691321357,134.5248899132949,0.3386039635324269,0.2743721343891982,0.0823191831975304,-137.38012618734714,87.05644793575347,2.96770241783914,0.0228654294566871,-0.1656194248895787,0.2248552648485912,-168.86150168337258,1.6891910926880482,4.189740444078875,0.0142427097189083,0.1954244128660037,-0.2218362506123581,-155.29397752735636,13.93266057702292,7.010201283714971,-0.1217523722121288,0.4382066298146382,0.1429239357647062
0.03,-90.162984043156,80.76884967030702,135.45884048313252,-0.0419826774783199,0.175355358476284,0.5118177899908193,-137.6077803641614,86.79191777458503,3.103441404475379,0.226100147116347,0.0403307452564772,0.5393608071890803,-169.02379396247343,1.7039595301760198,4.127234642624426,0.0423054046333145,0.1532784686055598,0.0645901123097242,-155.37103256822078,14.070550831808092,6.887865728468563,-0.3558019373242143,0.1807210934600924,-0.0316580050834047
0.04,-90.2722579223034,80.51557137061924,136.0431224518674,0.2507300470185761,0.2355904673621471,0.5174160892512014,-137.6495545670738,86.60756414338402,2.824525854698225,0.3465789153768389,0.0979790296073175,0.3701112180511835,-168.82369311257946,1.7161383466535352,4.267413478400617,0.2065694302951138,0.0323026773533845,-0.1309153226536004,-154.9920882357053,13.856402204888996,6.654246249836876,0.0128341704347923,0.3521182281264885,-0.105517559117255
0.05,-90.61283047121157,80.24225401397139,136.92682087016513,0.1571390763312406,0.1850710937744161,0.7156799305112218,-137.634948969836,86.23966198192053,3.184011593432898,0.4666016614049755,0.3412607839794146,0.463416794767559,-168.79755166106412,1.682014184721174,4.299710479000924,0.2490329480793794,0.1467880826080723,0.0331736095275133,-155.35071338306292,13.989113677515508,6.607589079781966,-0.1038731355965141,-0.076468166673914,-0.0399698372984173
0.06,-90.76468554000768,80.11962683095197,137.55389954443646,0.2974701540244858,0.0774367745402451,0.2259687595142641,-137.3868958265892,85.38842064759179,3.6022612272306493,0.8531337648247993,0.0015311021037565,0.2523552806870268,-168.9849942661854,2.153867327751971,4.11090409178145,-0.1266390769836554,0.0438267519241648,0.0729938391232005,-155.46128196170798,13.9371564007021,6.753963716138038,-0.0027386406511592,0.0429164802952131,0.1681048946805025
0.07,-91.04754604292734,79.96274053088092,138.96329733785046,0.1481302327876047,0.1987357147435307,0.2396856653845097,-138.23757651813634,85.00671084127394,3.7805516195215407,0.90204311793442,-0.0541963383269824,0.3461736601091665,-168.94254165187493,1.878838948251764,3.81326040934618,0.0935272801865201,0.2275821190866266,0.0922046524533963,-155.1728205596634,13.931726704127511,6.591613267564798,0.0099056728892459,-0.0378424912659924,0.0245511138269484
0.08,-91.39051832743036,79.82110630819689,139.945248363184,0.220783646982472,-0.0097688822386256,0.4163969125070086,-137.83119785304112,84.5326327003392,3.673543677311082,1.2852947344515435,-0.0305273135138702,0.4400329420209535,-168.61974514386,1.956053222914224,4.294894979209679,0.2737136388993186,0.3546916223483884,-0.3566728805540283,-155.3949438671208,13.764011849148204,6.476361732396535,-0.0466877619835097,0.1523632350814077,0.2637831869524021
0.09,-91.89145528903408,79.42027458308964,140.65493156867169,0.4670396185473174,0.0565111878015763,0.7107170740323103,-138.15441885801394,83.6752409575696,3.663736553738393,1.7318936143157857,0.0487373273433433,0.2992760312890128,-168.81667642455508,1.9677868412370307,4.157244357280114,0.1517320928594658,0.3004971905964388,0.1013777168843611,-155.50715051976175,13.998514691103605,6.561334226842787,0.0556637547513705,0.271178453083706,-0.0447345321247944
0.1,-92.24655971732616,79.01153498725283,141.55499569734866,0.2649327817446077,0.4061444145131967,0.8630960831508078,-138.18993542695117,82.44335343031817,3.772555422516634,1.6309421466600558,0.4104979676177012,0.2583043942400294,-168.529666701181,2.049051741966136,3.844096581815891,0.0290017899635236,0.0653105662590464,-0.2354184631398211,-155.7601360638657,13.827590957417758,6.62393742089879,0.2856416824043072,0.1713724236267874,-0.0848573101597622
0.11,-92.89510511191652,78.85105573937923,141.79210143563216,0.2143253948100622,0.1362617678273627,0.531816410961285,-138.69569047043927,81.4683892415205,4.051660579300015,1.7637136076627369,0.0747423399701604,0.2921452470130175,-168.5452131858358,2.476483899104277,3.849543896582887,0.1004620329212151,0.2756280507095979,-0.0486580607870482,-155.6999267167499,13.77786157532375,6.186430884735425,-0.1848831018911617,0.1651569689231811,-0.1306172299750808
0.12,-93.13115762975754,78.56626630419673,142.29670500397322,0.5429654737483509,0.1340569808084367,0.6448575191816256,-138.730145500028,80.52818814985685,3.834120526342362,1.7917134897588392,0.4095620756973144,0.3425076718085427,-168.2586950786155,2.3191384478756083,3.937954132160187,0.134581970852766,0.1054182472888094,0.1100848504858464,-155.90174260476746,13.943539440796195,6.22873541965277,-0.0019438214132834,0.1152272993620556,0.0147601843248529
0.13,-93.0923437044208,78.06871361096806,142.63607334475668,0.6814316902433937,-0.0648239414657299,0.7741493850749038,-138.80943596115316,79.56589850767693,3.969401617147636,1.885763770661145,0.0654889212062937,0.4036839361402835,-168.04345566660348,2.416776422566964,4.009300585052066,0.2318975518065423,-0.0919898121275163,0.1123280529118532,-156.35142931000908,13.875699045472754,6.320744757482852,0.130406569988442,0.113359682308587,-0.0310620127926853
0.14,-93.81820975431756,78.01182956854765,143.42893073565088,1.085760385289685,0.2625679967372022,0.7935924519341321,-139.28189054182457,78.1105783806528,6.043875695441933,2.321601331468808,0.2476938857204041,0.6032899591527259,-168.11560432046494,2.348587454205633,3.97016230151316,0.2656538429528682,-0.1339518218876578,-0.0582296036713871,-156.01294442034592,13.907519180596324,6.32607004758377,0.3392245240818895,0.012587323901753,0.2170384255497103
0.15,-93.86538295629028,77.36010997353715,143.90527534488203,1.451939659806838,0.4964198347542009,1.0081670316235716,-139.36453262011418,76.22542740079057,7.820231068147211,2.4674442293155923,0.0286013808392865,0.5444085993841457,-167.78409700054124,2.559827471213739,3.658260616628812,0.0757671919351526,0.1841137370943775,0.2031868233767509,-156.16540916176712,14.03619555536118,6.485396194472733,0.2266162226965204,0.3806196829211787,0.0166198178834863
0.16,-94.52842071659006,76.70664661946114,145.2571900590014,1.491814880256788,0.4284908450047165,0.3715147510836073,-139.75895949968307,73.77399211740808,9.563904172288176,2.428247690210917,-0.0288248053854882,0.4702714487704367,-167.70109920704553,2.695380111901533,3.65689662918484,0.0958002193229241,0.4391509462654567,0.3094490222398787,-156.38802016669703,13.839444340361291,6.655379395049918,0.1429128566746267,0.3559809430132972,0.2992824355793553
0.17,-94.82348691756968,76.42722270201253,145.5158460713198,1.5334758414887102,0.4770093043236527,0.5587299735379307,-139.8477507576954,72.88945565198925,10.111861579890446,2.157675632402365,0.1508585377240788,0.3874292137946205,-167.63137029018688,2.9426851599259,3.79707125543706,-0.2715126687401327,-0.0168809706354659,0.4363870084274406,-156.01998141634644,14.017536635679887,6.419570507880405,0.3092663744646521,-0.0225536242783094,0.2260216633281372
0.18,-95.31088693982754,75.96539193775236,146.05090174650485,1.47902607433409,0.2709063390134592,0.5799960161953311,-140.00277187730796,72.24913836456169,10.087729241533616,1.9963274640337367,0.3485650782786173,0.0034550504443122,-167.6668083461727,3.066358690903057,3.764273531094691,0.213700280948614,0.3651927986179162,0.4940531273735355,-156.21253777766037,14.09437197592412,6.3672218172948885,0.2228755621197447,0.2868284805656789,0.2542607124717513
0.19,-95.95476767325196,75.16621433454043,147.13280394696346,1.6229877915099635,-0.1506055474105326,0.1070869432594321,-140.14266027509717,71.13655188288867,10.513406823816483,1.4517591155627974,0.4767283533228259,-0.0056568260446532,-167.33096605565007,3.0836208132568097,3.604623856810629,-0.0052135887679498,0.1723213919452025,0.3415145978841356,-156.01199015735082,14.040390321235035,6.351114041990767,0.1387474261801496,0.1343967262427919,0.0429347926533809
0.2,-96.52908371705922,74.36533738925559,148.35715199796962,2.0924904800022297,-0.1954492245394533,0.0549125426682413,-139.8422966757827,69.6743246213469,11.004253972591725,1.005117855216205,0.4437120922540312,0.320229916565151,-167.309932822297,3.1312194234454607,3.89366994947179,0.4152035587788147,0.3337975743835029,0.0904904791501663,-155.95375748756626,14.072844772257458,6.017644466842153,0.1016183926595749,0.197260030045245,0.2498390215847986
0.21,-97.4472485055604,73.33725929786819,149.81546711318992,1.8425103533889455,0.7473718560646785,0.4582837056944494,-140.07546224008578,68.4402562887128,11.6952839821005,1.070566377629377,0.1824939825131022,0.3572187703629665,-166.94954272870098,3.335089659698129,3.649690366230278,0.1106018335140292,0.2815035918442053,0.3160322785265876,-155.80880035938128,14.011494337206395,6.015725127592016,0.2059777571253587,0.1007374007241237,0.1043559474429023
0.22,-98.01323683798049,72.18904345935213,151.27870110430206,1.692034759863352,0.7289693576148587,0.3762277977812017,-140.1928908244687,66.99167745232332,12.340845274449013,0.4470638938162569,0.0311803338150453,0.8208830915109844,-166.57297127319927,3.469311266386651,3.740602548392285,0.259346685921105,0.1705820940521197,0.1776622885474398,-155.88310850005962,13.930209923102945,6.02937387194784,-0.0778794307073705,0.1559551323443193,0.0416310264459134
0.23,-98.25805440961994,71.49520471090858,152.13323733368173,0.4552754357849039,1.0808094303717355,0.7043028072879198,-139.8785764151753,65.39349423904913,12.973301768065284,1.037896761490619,0.1216200724325039,0.0888655691750689,-166.15208946211862,3.466534965791502,3.472287065504851,0.0868791068860678,0.0893408779727225,0.6468300749207478,-155.45440925191812,14.27420020215689,5.998136890111175,0.122732291928267,0.3101274793345707,0.0235969357422664
0.24,-98.58750310555207,71.07773563949317,152.60922594053974,0.2503543183779979,0.8533717769719452,0.9394968695849808,-139.92514954883916,64.78876303064153,13.137382340912108,0.6968304427759018,0.0584688343089788,0.4390712088308383,-166.22640523677765,3.531975036333564,3.771871814320059,0.2096258559170531,-0.1528408346107178,0.8438801683504059,-155.37837961746098,14.28396337346045,6.252129810614605,0.1029492771710053,-0.1530558841096498,0.0698519700213245
0.25,-98.90942675009184,70.64235987476037,153.40701459855413,0.0288417566155145,0.8121710488125337,0.958140761988974,-139.96524853742034,64.16919692585603,13.33739500379452,0.4519977248350695,-0.0786661833136163,0.6779547624114336,-166.18200776528653,3.7001896558483054,3.657213148196348,0.2194225176507549,-0.1977765144950427,0.7630620624289512,-155.34937992931373,14.338769218355974,6.238194112198868,-0.0500834787280256,0.0741025640285638,0.1318419341873156
0.26,-99.00992520311335,69.70073246484618,154.44638721550226,0.5754333268338556,0.9220327853143722,1.085395393667912,-139.90619970288415,63.11859804786701,13.457923286910544,0.8138086080939285,-0.1124052689302967,0.5556712046774199,-165.7340093548554,3.803210348726945,3.777558788390356,-0.0389470472830898,0.1056223893916357,1.4457337056828357,-155.17387335621316,14.29388399058011,6.054832159302615,0.2102928352885849,0.1741426205484387,-0.0766567062567316
0.27,-98.72658932696928,69.28109505955457,155.46436938981194,2.1507093691971844,0.5340950964081747,1.222866478192041,-139.62949438562308,61.968145027091765,13.704027564430968,0.6900252346155145,0.3006634130920128,1.513095124991921,-165.31634654940407,3.663772486757154,3.2259154423117207,-0.1060608455238531,0.2874546891049969,1.57645192996433,-154.7540438942863,14.310800654164426,5.906957605350333,0.1805872578291141,0.1989781864602207,0.0445150382839114
0.28,-98.43295682874624,68.75076933904074,156.5090546642736,1.8895854470413147,0.470696895811283,1.082670401101154,-139.57829512433105,60.676683367611176,13.394655588838884,0.3280459196839607,0.465536696862324,0.4658106255772797,-165.31230742718623,3.471554404184991,3.080119702805905,0.0845980720169002,-0.1598282533512279,2.065313134230738,-154.25894762375654,14.254884162226636,5.795675832143765,-0.0863922838708159,-0.0910975612051944,-0.2816799768799128
0.29,-98.75847705071251,68.07628978636147,157.6765558956599,0.2899517189224219,0.2661672596694842,0.988411663445169,-139.5696921818457,59.44043904280486,13.383771045562902,0.1809347747437835,0.2391332105577743,0.3332899029495425,-165.22124830197,3.680427473668702,2.7860946126959534,0.0909453861790428,0.0863973363490516,2.540131340196219,-154.28612308173257,14.355892929403865,5.675825797616176,0.3318609894823924,0.0970712381011141,0.3929494880215709
0.3,-98.78989193635496,67.20764121722891,158.33287336979714,0.6176756899868103,0.2265201803042439,1.0216111033723545,-139.68632348295893,58.8031582005729,13.44655489878815,0.222946505962579,0.4817849583492051,0.5479950484430434,-164.73866883575226,3.817820872469419,2.543228671808002,0.0386690928773343,0.3481766131592511,2.450933550963385,-153.94756741713448,14.50863882278352,5.494928141887371,0.2121039108598582,0.4364667014068815,0.2000713206418599
0.31,-98.97148002231238,66.60747078809625,158.84750038055395,0.0405769704824012,0.2675844666073331,1.7514201518362993,-140.2498311985961,58.06503962931055,13.613774287734802,0.1272312526461499,0.2667390260926346,0.2029454416486568,-164.6285222725065,3.822479317777766,2.199104807153597,0.4277040718564448,0.5936639488837363,2.701235682020402,-153.7200825653669,14.795303377907285,5.70070695060349,0.0619109737021741,-0.1657900508123292,0.1295128318399028
0.32,-98.77656477219526,66.39917624918344,159.63398345612998,1.849202077884076,0.3802367937553897,1.3871319690730075,-140.70469609920812,56.96044314547939,13.305514001745038,-0.0281974063043747,0.3547010500890921,0.1497778044695007,-164.1872417775986,3.848819717167456,1.7925084690514996,0.1224122684309873,0.943207064355518,2.793994679183151,-153.53051107165328,14.733961649588696,5.942058497000811,0.5349534101703041,0.0776603400539986,0.2264665478967891
0.33,-98.69688834044752,65.90450384428455,160.90517110043268,1.2011609122953804,0.5842412135347829,0.7759447091205685,-140.8376755026299,55.73684711694687,13.5609895400719,0.4512842531584545,0.017753852490769,0.1920892991292819,-164.94510133916592,4.106499044541795,1.924808475449104,0.4192918222865229,0.5263522566567009,2.108102044177998,-153.26977127992598,14.501638436095408,5.767738236903899,0.2743347768653944,0.0634804982362405,0.0740350998267541
0.34,-98.68965340431218,65.40585864753619,161.29334804024384,0.7785599333763131,0.3975501955639031,0.7774500153863904,-141.17406213143954,55.28847216249548,13.50685641874413,0.3696166098726697,0.1063858238010292,0.1452568789635635,-164.98246495292685,3.9528638255801463,1.7772992619131067,0.525279816338282,0.3217599717422527,1.5652471290060472,-153.10362576898706,14.69559543155436,5.692089011559773,0.2317911042643779,0.0658615690482356,0.046186331363823
0.35,-98.54613946115894,65.24422069967021,161.7382924591209,0.2411909225146726,0.3070938505914696,0.6611259247678148,-141.26792368781378,55.05706550981439,13.339793360111964,0.211949118935424,0.2921154072436124,0.3436107825762688,-165.13689604414523,4.1599055528442594,1.7523216012625868,0.5774460500786772,0.6436588672129835,1.410800117728239,-153.12405979989254,15.100661421812008,5.6501207707281775,0.1718089366842207,0.2081842807003798,0.1237766493511921
0.36,-98.65723232604098,65.16776306378911,161.7906170334544,0.7819793944106052,0.3490877818552456,0.730429580596097,-141.21829994055284,54.55639138119132,13.441070884424178,0.1180151500502304,0.2844486055325099,0.829456991073231,-164.86539107872616,4.3033113437752375,1.965235842900032,0.5089056855999117,0.1066793655501436,1.688690440498141,-152.8185701740535,14.789207726820258,5.908596976010973,0.3734431320436407,0.1502800684383372,0.0670389973452358
0.37,-99.23776136239717,64.70052023887942,162.0914273315715,1.219830874345578,-0.0878203341360607,1.049807647124123,-141.1413115158262,53.96793426655479,13.406840606107624,0.04897786608595,0.0003560161125884,1.0303415593916798,-165.1006612628585,4.177612200474004,2.0234767844639587,0.651571842173488,0.0063002391392666,1.6853980167489844,-152.89461482424116,14.873152754936545,6.065343342287784,0.1946816366119708,0.1946913329483588,0.3205061747334979
0.38,-99.66152577178296,63.42840929028599,162.26670062026955,0.4005395631851507,0.6380067925980211,0.7696066431173,-140.99903471691417,53.03435516728226,13.539620733113988,-0.1108784575563613,0.049566922590834,1.2249212466800603,-164.57116297510825,4.3739924828373535,2.192269427357168,0.2469497686921448,0.5912580015031278,1.9932686778313464,-152.58910234165864,14.718206328387629,5.6221706043358495,0.185367616196266,-0.1699474210191735,0.0713041124708186
0.39,-100.703858021247,63.28954257913646,162.0315554560703,0.3186947689315932,0.495341163534288,0.4301845416454807,-140.97821261871874,51.87207092242709,13.613604973073976,0.2884109171155026,0.0661781025981125,0.871982269586194,-164.7887994942846,4.316552376174764,2.229018082893212,0.1836683072645347,0.2149468258978559,1.6292480140361632,-152.69865441630813,14.547654330649522,5.60555701584624,0.1884027552020436,0.4248047569492145,0.1071532645899224
0.4,-100.85689038375396,62.55440273842507,162.3545619155536,0.6127134512554909,0.6304967439218855,0.3765976967349804,-141.1204691041995,51.12981848852392,13.56375078908512,0.2845999501577004,-0.008972517360225,0.176851900677903,-164.84166046746134,4.276558770861499,2.5422091315265454,0.295659377836603,0.2652551098641371,0.9783467917400142,-152.30228367646595,14.80116263123682,5.822984787817892,0.3491845073554746,0.1991826548445943,-0.0231690117337864
0.41,-101.4267732084718,61.767841753656,162.47084446616904,0.8808831796085201,0.1081310066427053,0.3435378875373946,-141.6485726511633,49.586151634518025,13.2123521336192,0.3782845384204031,0.0966292142290095,1.306505706797275,-164.69759491442525,4.519691219191137,2.736288954703115,0.6033373403477938,0.1034285012251606,0.6267805473998871,-152.3757593622516,14.703675381549688,6.0506588680444215,0.1650217930062849,0.2060209885993761,-0.2343631114097948
0.42,-101.43540626316452,61.30325827635452,162.37703079399444,0.4787897520810369,0.1556645156458803,0.1190345273890911,-141.299288557163,47.99433323751749,13.163598480335166,0.9242483905919956,0.6035973299732765,1.4109319677516423,-164.8686070675423,4.6501622493498,2.685442477505761,0.6752221090625303,0.298405009900525,0.7661751814482538,-152.2158771670143,14.68068638447144,5.7349781865393945,0.0674632833252349,-0.0248152026359114,-0.1604742378250772
0.43,-101.75655715631024,60.91312782396825,163.04641770424087,1.5353890041036813,0.2091345107692994,0.0856342117433278,-141.22518884016142,47.36779093753073,13.400441877239718,0.2247500352684808,-0.1864771005920592,0.6121330249561086,-164.22562056967104,4.509967722131829,2.4537805258866,0.1336659963687913,0.5318376357764956,0.9886919709063656,-152.14969995507786,14.532722166444534,5.762952609733223,-0.0939459967068487,0.132828399034446,-0.0160697085518875
0.44,-101.39417156248837,60.66566471334345,163.4308761053118,1.7559822325486232,0.1916564902868203,0.2013475747996302,-141.0865090461241,46.44364122359521,13.26674245632166,1.2968402252060949,0.1203393558441418,0.970363000125552,-163.86446141617347,4.817187389377033,2.753017409331012,0.0983556557995548,0.3968593953041541,0.4932389378200807,-152.1286996549989,14.383371606008872,5.693114963922854,-0.0342607293672157,0.1522929703934143,0.0519343866888694
0.45,-101.71593350891338,60.21930029420975,163.23072656605558,1.7084703169160522,0.0355333856407442,0.6292290147094454,-140.62326266919914,46.232543071139744,13.205194324373634,0.8587116628631928,0.5317293128687691,1.0956621688077917,-163.733864947033,4.843369397310183,3.0944226335604954,0.3788610767976744,0.0734968736536077,0.3591929712481657,-152.1971820908991,14.63957372653718,5.424560859930632,0.1741891784789207,0.255862269658302,0.1113032098968683
0.46,-101.52714175214648,59.92264809010375,163.76092639419593,2.722369310447589,0.3913723633561556,1.960786407608371,-140.0880992631291,44.4815713868632,14.182642103420632,1.632500271126701,0.3957424912877555,1.954702567211416,-163.43681476672734,4.927816869982188,2.976595073718517,0.2830395013749572,0.3172248292343259,0.4760737058172583,-151.92318823338408,14.45457394805646,5.413808730624406,0.1156591656178824,0.1136909407266497,0.1496546836524746
0.47,-101.19599070987744,60.23081896743725,164.11381925159185,0.9565982832973308,0.1532952225139796,0.3581242781776899,-139.55446693516043,42.77484336721974,13.430806874766404,0.2755476378142805,0.1700929562174458,0.5139494084206087,-163.12998617636018,5.007141003320923,3.232511403323624,0.3151268009705745,0.1567134395997194,-0.1537479843596685,-151.70060812199924,14.618333647324798,5.637257545855289,-0.0180632958173563,0.2664888659814233,-0.0043036031273325
0.48,-100.93897621964324,59.68089868648288,164.5539539736592,2.243158597010196,0.306160930671748,0.7765361051917752,-139.67325385084885,42.25077480480319,13.311768627616056,0.6465316030371813,0.2468934674251675,0.7360263638347057,-163.0257594051693,4.784671632355274,2.975814500128126,0.3322784106631853,0.0915303781345806,0.1702308979331774,-151.58801389211408,14.24643769491392,5.6440845359695855,-0.1631000839465309,0.1747294468772665,0.0448091077106035
0.49,-101.11708914777994,59.39446650810071,164.91310664864895,3.638942986387916,0.4109757075084907,1.3374896236475395,-139.57629927878207,41.73596103901385,13.192095553503908,1.0136284901191932,0.4207380645455201,1.1364556561908803,-162.77757910816422,4.669270791147006,2.971609805285941,0.2789141383436713,0.0154528348692155,0.2186681298325442,-151.9397530800255,14.173226672758087,5.341725554812016,-0.0991300127558758,0.3724634554437256,0.1822972142840931
0.5,-101.30245495206744,58.66504650486271,165.13484161534294,0.499716292609832,0.4039531204927428,2.216256545177488,-139.52562122858856,41.684645532562,13.380084973421251,0.7274997554660521,-0.0850344898879265,0.5296829747051033,-162.65704671608566,4.920367524925572,3.1421319067393974,0.1575313951901109,0.3561680202197942,-0.0206203483176043,-151.72672868513217,14.621234742586806,5.532144092007226,0.1479429280856589,0.0213656028405576,-0.0337023097782526
0.51,-100.25534376521954,58.53518908390328,165.68525208659494,1.2082108408769012,0.4401411223589424,3.4037699719321486,-139.16151364490693,40.68137848996804,13.435682684680277,0.2429085738693255,0.024208676302886,0.5126310411279785,-162.49629073062866,4.791077069523437,3.352635578239094,0.2678879581847638,-0.0473554720804153,0.560541724397238,-151.86390050579337,14.47478011469422,5.4148807983894525,0.0122394306759495,0.08658585770941,-0.0819001386741213
0.52,-99.19126439030435,58.93543843305271,166.28505846733222,1.8860220813786608,0.4852618366032143,3.0185479381393474,-139.1304433761556,39.9727237514194,13.139428467291204,0.5432787556532166,-0.112226031410305,0.309583764615968,-162.386011099344,4.932413012365296,3.734671856950661,0.1333034130854141,-0.0635554202995577,0.7425083783664439,-151.9826362567418,14.444535663377728,5.752729923202598,-0.0410338436366902,-0.0058617562930461,-0.0645627861754428
0.53,-98.37915281874768,59.46088895045803,166.88644968904336,2.6267679926429723,0.5469319914232722,3.149204703907297,-139.03154342127462,39.48753860272279,13.197219740238864,0.7602884703601293,-0.1276766697885546,-0.0904578680910935,-162.71786604353397,4.969407574508896,3.60907858311227,-0.0167605593472608,0.0549945363267776,0.281577570782261,-151.9252814552996,14.482833629668145,5.376237421659389,0.0836023174831826,0.1139442657199402,-0.1470944180135361
0.54,-97.5151974815316,59.21244601909842,168.02537861985363,2.117683786641793,0.2933629027884521,0.1018041089305822,-139.07463118383595,38.91635069617862,13.172625487222916,0.951838071771903,0.2955088728326584,0.6805878105249423,-162.5621671204599,5.051246296987409,4.031819701147998,0.4376134605736702,0.311442254038515,-0.033214034959074,-151.6714091100339,14.424406097621286,5.325971108108035,0.3680623796384797,-0.003475432195287,-0.2600919502228683
0.55,-96.92505505946266,58.241429588213805,168.36610690828354,2.5463712077986127,0.0438734627593444,0.216910410031426,-139.20525315076117,38.39583051685581,13.654854938153743,0.7282157410873925,0.4161357036569158,0.417931272128239,-162.3297664191371,4.478318433519484,3.772569750141193,0.0373502593800821,0.5963611129501808,0.1996661261467143,-151.78948003012238,14.39769751866292,5.27867477588099,0.1360148617150861,0.0309955131268966,0.1503409095041837
0.56,-96.20287797126986,57.88557722480773,169.4294382122108,1.0104215995133956,-0.0534487130714184,0.0179987926547562,-138.96948912587783,37.84990598084497,13.549751841254697,0.3820561519166558,-0.139194976370704,0.729583160927854,-161.99862493561898,4.407057483002881,3.7227675732844783,0.1917115539968922,0.5149668810264292,0.0823046703491192,-151.8120023403195,14.63225683586926,5.286788214765989,0.1544014552271194,-0.2139827302272025,0.0715565244817645
0.57,-95.42644534120213,58.121137601293206,170.15326829514314,0.6777352428511317,0.1691635907982424,0.4014138269067205,-138.72311988758463,37.81450110462252,13.49495050492216,-0.2064152294290614,0.2202410721146498,0.6293699561706032,-161.45543372550017,4.578178290842725,3.8264491146751594,0.1086651222771093,0.1536186581193436,0.2218731539979227,-151.82557986336332,14.57895366615118,4.880963898193188,0.1496312710215278,0.3022499972177584,-0.2957714318235599
0.58,-95.0497652560269,58.11722159886954,170.81315272347555,0.6039458096005148,0.7641503456519455,0.4297873246348833,-138.49127921132722,37.12748538842703,13.43252082654184,0.3132657895059922,0.3213315263599007,1.1297984940130008,-160.9430337531969,4.413237558023497,3.6598436416976976,-0.00399138870665,-0.0739429199806441,0.6719850279355152,-151.91133400249373,14.325530175152904,5.178450642690044,0.1518772911298331,0.4688410968697127,0.0697892811661132
0.59,-94.5508846622259,58.48314554700509,170.87723300458092,0.5897174857369715,0.0840963624776329,0.0007103593516258,-138.57399204238789,36.3039737169966,13.605174460400711,0.4740063822360839,0.2395195025953613,0.4143928987988236,-160.60538711020965,4.593584924848769,3.854861085640252,0.1078210232157335,0.3674450483341246,0.0080149503525163,-151.26299746018893,14.283008632451876,4.969116108904271,0.4918291905952862,0.0596596935987732,-0.0592117295606139
0.6,-94.40009995890588,58.30723777022091,171.31019766188817,0.8550230046550931,0.0509985605059526,-0.0245028068123197,-138.63549638671833,36.30490593122612,13.44486314505207,0.4136590342733458,0.3609482302234503,0.4418520607510321,-160.30885145534313,4.593183216201921,3.8450521587552857,0.4866432142636743,0.2783886246515423,0.2336028640174134,-151.34633509004925,14.314939756608185,5.150204501530524,0.4196960335467522,0.2298544018398109,-0.1989161115329364
0.61,-93.79173051115332,58.54489854474142,171.28129643724668,0.9574149710303944,-0.0515455941347759,-0.0615802394050005,-138.50785895717192,35.78230533512521,13.586360502725125,0.3486324655081194,0.3379129751918656,0.332109618540804,-160.36198870932063,4.479943126257555,3.78417938159238,0.0663650175894624,-0.0676042170697172,0.5588192077167429,-151.35287963614425,14.537634929550125,5.151097049430066,0.3149596984699441,0.4389189328179481,0.0229457089088504
0.62,-92.88972424961317,58.35906985771447,172.3850838072493,1.229987710429972,0.2609557087405905,0.4493835365518488,-138.2086746136545,35.29296643439914,13.53476323968787,0.1662606494764864,0.1425822330944872,-0.015599244539945,-160.1518446681095,4.423975634002112,3.9045131041312113,0.7532620967384004,0.2701086613487177,0.7490430397094753,-151.20208073681383,14.456543054050108,5.055158615196931,0.3720412815595605,0.2478252855672579,-0.0919263504589191
0.63,-92.25819848397916,59.00674133793802,173.07587839542902,1.1787219780492078,0.2032682455744608,0.5430934479522156,-138.7886389953379,34.58363943101197,13.64421075499884,0.5258815456362271,0.1554476167353401,-0.0612908032420124,-159.96468067500302,4.499377301351469,4.210389306569936,0.4034446884717186,-0.2661883895868243,0.3012075803605114,-150.94880961123746,14.695293798743284,5.011258459175817,0.3472179664006499,0.2725332903114312,0.1065974630714782
0.64,-92.00772568137158,59.19333195635103,173.40763257559306,0.8409888399765391,0.7286935752145114,-0.0593712073306787,-138.6919344101861,33.6527998715993,13.40966487827939,0.7807402882164041,0.518493118755188,0.1047200863890484,-159.3878457709573,4.458454553450594,3.962942504928443,0.7191233540660452,0.4967491471946302,0.0320879849183481,-151.1713942696894,14.462409662435624,4.766414618492978,0.4673566380034438,-0.091230976028819,0.1446741206528993
0.65,-91.37873004495349,59.40088752140114,173.68569233971954,0.977723090350112,0.2728546863894721,-0.0728953745182756,-138.9552868017211,33.125247440394915,13.727402631595808,2.1916643655847645,0.0318779570571401,0.3073085177682284,-159.46877908875825,4.534034512778206,4.223926639671312,0.756839303113925,1.4766734859047317,-0.348125197784595,-150.9872288143758,14.583602447454568,5.118569414051695,0.3750043220849043,0.4774145096394931,0.0136035141852455
0.66,-91.23198670079891,59.70502621659538,173.67802217232,0.3790430902503154,0.0077325488923918,0.4455752793672168,-139.01440569658337,32.828924745379375,13.957996431732424,0.3079061947522363,-0.0527914256043926,1.0215351740554506,-159.38594615195635,4.32464322325211,4.043689728474196,0.7550896492496157,0.6087162361410643,-0.091683701197523,-150.80444399634544,15.325965916286409,5.085532015540431,-0.0146056213799503,0.3642235074965259,0.4291798266159179
0.67,-90.63724634479485,59.35250985888774,174.3525235483347,1.038523759820907,-0.0509861438331791,0.4770696866928642,-139.44025994860542,32.12121684496489,13.486443468468114,0.3395160668331377,0.1656802787723301,0.17042990189368,-158.90982077274452,4.705534660928514,4.07145104253386,0.02549046034132,0.5105572310483957,0.975430390732526,-150.54898825249094,14.947623410086589,5.644278766770632,0.0258577439247926,0.1205326488186687,0.1647052222065399
0.68,-90.99520269608962,59.48451474841887,174.0911730223441,0.7027306204830437,0.577486702160375,0.7708974289283665,-139.4957887085767,31.57561632495337,13.469680845590917,0.1403125419817388,1.407097677874713,0.5167613382121654,-158.41610476101243,5.131567945753796,3.94302901317695,0.7118715239871313,0.550474470908592,1.7849859502789671,-150.49505973781925,15.214218093383806,5.536604778043602,0.3293798928258856,0.4944025597401081,0.2359388567214471
0.69,-90.50721332406977,59.41658569434746,174.38562712533488,0.3367968174076819,0.3618165797682941,0.8577332256998322,-139.65391424609643,31.491064256325483,13.391028526014958,1.0260190885276272,1.0170162945401444,0.8167158491296032,-158.01382141316915,5.065728211817257,4.210405282560637,0.8763714979326608,0.6111422804695297,1.021473091927949,-150.3201852763154,15.27914420077466,5.681298268533682,-0.0601399446723502,0.1280656191741999,0.3865258995702936
0.7,-90.09988335158884,59.360893447302814,174.61288243977782,-0.1568976979024778,0.3087397356547063,0.819723677152157,-139.5358601874965,31.15872912444506,13.25617454187435,1.655503873079502,1.3137788795823886,1.063275210030485,-157.7677262469663,5.171781943045369,3.954937600240039,0.4428997158202624,0.3339546857353268,0.8152830054615055,-150.21184431255284,15.65873292094448,5.769874491941719,-0.2308840274760487,0.295743730452756,0.6127648866050586
0.71,-89.69127959217737,59.20449411953526,174.9601851376011,0.5212900958866566,0.1986154082755122,0.1739312221004162,-139.5159290199853,30.568146842094365,13.093113489955716,1.9595062496677067,-0.0607545672545669,1.5448958993462434,-157.02379129870366,5.140856183650282,4.240026788921356,0.1663944769213285,0.6019629569817642,0.3660268586897849,-149.74602631907317,15.65373610471994,6.031583615303798,-0.1282120462274284,0.1707989397318028,0.5518768302223882
0.72,-89.64628731269828,59.0500036677348,175.07615113758862,0.7356184439731411,0.0941187075737602,0.4430600222446562,-139.67278243391513,30.776595638048075,13.258566412935338,1.2808994016096826,0.0568870635006903,1.512287132334353,-156.7589996119967,4.960246003644621,3.717559619251737,0.4709228006378024,1.092664153699814,0.2608624322004671,-149.7335133945619,15.845525039385942,5.817462147035638,-0.1640201602450866,0.3359309608842995,0.4780992379912981
0.73,-89.47391099351795,58.48739822430022,175.05249629869485,0.8585387705280472,0.4676368650725326,0.1414389777520376,-139.38760818278203,30.650499343323705,13.024788828422446,1.1356784111402445,0.340447281592955,1.297042124320597,-156.5462152866433,5.2013776795805695,3.8468556653904327,0.39913520118208,1.6571471950640924,0.0640241666639157,-149.6386328167563,15.74051097647856,6.17723064914592,0.1688002306848666,0.242020166642779,0.165286472618988
0.74,-89.67059657650363,58.4301209934981,175.08916707728483,1.859087757899582,0.3525470336842455,0.012825718806871,-138.89150263642492,31.225454980583383,13.241687118120977,1.287910480583646,0.9249943375234576,2.714200488601614,-155.87127129664216,4.935402743771268,3.736701701907744,0.5658838948418914,1.292610678857707,-0.0718360195657848,-149.55130180877663,16.11613389388329,6.366803464077823,0.3289682978623744,0.033943241056976,0.7697591241229751
0.75,-89.07475939221537,58.84517372468666,175.6154643396136,1.214807273260219,1.494526451789822,0.1298545040027051,-138.94437355438214,32.4581223853077,13.888042182222083,0.5420650827521718,0.1576491300491941,2.16986033322721,-156.1155983848684,5.367989321956494,3.15088455875873,0.4137957946626208,-0.0448655783066425,0.2463902169276795,-149.42952160545602,16.45704690785615,6.351646113433561,0.355913371763227,0.1064175337582999,0.7113548770511873
0.76,-88.89053488889284,59.63364134335452,175.38015673732744,1.0328269849185368,2.599606107232804,0.4093462389529634,-138.7917394640373,33.0180130764533,13.588964924308586,1.1998692478536856,0.9569173660738292,2.023533337959849,-155.87434058987373,5.420872560637177,2.5452270995290074,0.4386254927411598,0.3278023606828945,0.0433304617774865,-149.5854951368515,16.305673579189516,6.938927545341517,0.5344401236560871,0.0004994549974561,0.9954758204115486
0.77,-87.68682541314992,61.047138140459325,176.2064698450614,1.320661026189815,0.5196066112341928,0.6193051971864604,-138.90380702503072,34.308205328877,13.839757319860944,0.3913828143866157,0.1617537785393872,0.4284386241685282,-155.60882122587117,5.409974484273003,2.540024154353544,0.1446962560185098,0.3786142540621612,0.0146453680621366,-149.24562341094418,16.634622438349304,7.129198206818905,0.4279280454980043,-0.044901844976776,0.8226061828228987
0.78,-87.03597221730523,61.71795885191765,176.93510682653272,1.7053840597926269,0.446243428135286,0.2646749641048842,-138.9096898634806,34.470297929231464,13.529035849488348,1.2772571891974311,0.7642469437501863,1.0164283254921502,-155.50214833098184,5.2268940291840265,1.974406655983076,0.2114267097442985,0.2234969124053119,0.6557599380387127,-149.03964341952025,16.843862720128364,7.203587457647925,0.5093573411022961,0.1849188649142907,1.740534647972242
0.79,-86.58294660906977,62.97659770936264,177.99104545994103,1.9802730101560528,0.5824245578247298,0.2174197705660671,-138.80641898648108,35.326777154479146,12.70986076613896,0.1428387090409355,0.298730174684151,1.4331658179052127,-154.31981137611095,4.936041415884178,1.6830731892826882,0.8218927764345951,1.623005818064387,0.6705181103521638,-148.83612298735397,16.949752776008552,7.652576382114413,0.5030828864792938,0.1718292334489465,1.8474489905760765
0.8,-86.70008195662061,63.87205956836487,178.40323250770123,1.6044670998909094,0.0459453497734085,0.3171237778818802,-138.7024624113006,35.838798968603605,12.734603430159533,0.0078052189801707,0.0010872737478519,1.8091060514624788,-153.43334317873166,5.354253179341662,0.8212347618849709,-0.0487481015585709,0.8541342603384967,1.228937834423142,-148.85324455018616,16.833422180501046,7.614940314063726,0.6964711050525841,0.2652146754686876,2.126003699889588
0.81,-86.0380081957111,64.6967735132233,178.90979953005754,1.4228402761933308,1.1905244030006643,0.0136746049863976,-139.18388209027694,36.35007566342595,12.67600548067884,0.1327933441852065,0.5607209504670825,-0.0426616739557586,-152.83664230128696,5.405924978019158,0.7469172191541557,0.8358033653823889,0.609693585936715,1.4071919065940768,-148.80319865151557,16.77000400780704,7.978537604744357,0.5971265769131968,0.1346521614745014,2.1059878781308106
0.82,-85.57715702394209,65.33671441047193,179.50368201040686,0.3264903277875832,0.0725558052516895,0.4864461897908053,-139.02167706622407,37.32419312793523,12.59385290745724,0.146515328212268,0.3868594756843805,0.3826433220101373,-152.67466474397645,5.526218869791881,0.722210258038872,0.3064259201280332,1.0678344918673637,0.688564815562406,-148.3628528124938,16.869760024798836,8.259345041508153,0.6054747264141115,0.7088585700553617,2.7246687404243746
0.83,-85.97317631723837,65.78554301674728,179.69604867752233,1.4065718110524477,0.8950577929976613,-0.0199212585329543,-139.2622360255284,38.202181988102765,12.211302140552151,0.1991610306454705,0.3572434996804993,0.3491196003041834,-152.4991410686529,5.80532803488821,0.2216739473552584,0.3121951207400343,1.3186368632907015,0.5313548055193331,-148.4895366938781,17.30238034783646,8.688933893009471,0.8205858336767335,0.3270003651526474,2.659541613371858
0.84,-86.13285630497339,66.245803892952,179.5681226860417,1.525777597041858,0.7043643220652728,0.4298963656091309,-139.24696912373963,38.422895886783785,12.42833460776801,0.033370866835976,0.4076742552112499,0.2114560351538681,-152.76487010316407,5.7896766282019225,0.293865801451647,0.4427669676353346,0.8123257528204991,1.0978967518566614,-148.53144894079992,17.266926684257744,8.864295286074642,0.5492561425031104,0.1422452346242908,2.762881144654698
0.85,-86.37605758185946,66.39547552457988,179.59245228677247,1.5110858521434984,0.5185965565957781,0.5734481171075285,-139.22539832683168,38.71912009066512,12.4844298195685,0.0512662746239832,0.354435886175615,0.3133670740759412,-152.85435791180709,6.0907233211964265,0.1849977338368311,0.7053672812369323,0.3867505386550934,1.4398936221869156,-148.11875720421284,17.23404478900499,9.05096880281176,0.6073849290358545,0.2068197978776334,2.710162119300453
0.86,-86.65542778207163,67.07861430728835,179.28223154958036,0.7921010224113126,0.2837014924279485,0.7431964963395294,-139.09358770485733,39.05296014428385,12.944620334944863,0.1649405837585373,0.3825825903085769,0.1944562757486457,-153.5890572863639,6.2370675304469145,0.2888125035314874,0.3364825976763609,0.8358205559229949,1.4127748671942852,-148.15658095508962,17.439031493796207,9.510135175806363,0.6925630201063424,-0.0336740224840222,2.204049451212277
0.87,-86.94513681603298,67.69157854171178,179.21282884205354,0.5585297075741785,0.328496796039096,0.4231228910249672,-139.0840972491448,38.63512712898685,13.05714128849644,0.1218513544337649,0.4225181974142392,0.1521800466303247,-154.12726643004785,6.647095748544071,0.3494318788148457,0.365506363833806,0.5379883394356973,1.1685716297755642,-148.0957413081248,17.129178130824222,9.472258866918695,0.5692463215303499,-0.0121166791078575,1.9892031667344137
0.88,-86.62847974844212,67.8401227697307,179.22506519919148,0.5096632214382539,0.2116544911110911,0.1499522246433894,-138.9297479319048,38.75920438772687,13.290873314576666,0.3899005651557348,0.5743553535963871,0.0585208364480673,-154.86579435130025,6.9525055125205135,0.4891269655152981,0.3893218684141779,0.6426426098926563,1.0305974232502937,-148.01045671531364,17.26982806021915,9.634400942483746,0.2607696096218317,0.4482704096592129,1.3981481465564838
0.89,-86.9780227726082,68.26095000663005,179.0781434518382,-0.2730924134367491,0.5902704676488444,-0.2578041401709378,-138.90264048242696,38.86212042500373,13.691213880257695,0.0400725098277528,0.4531970534070405,0.2290090065576003,-155.05450601916678,7.003867914742764,0.0533208270174754,0.3314899425365381,0.3272839563328606,1.0714418777239954,-147.66003024299965,17.61857454956121,10.20205620354997,0.7393263033092206,0.5697196500914231,1.0004162751604673
0.9,-87.40685805974118,68.53620563673257,178.66642223780354,0.1569673974242657,0.4224585763588175,-0.0474865857172841,-139.19874457071202,39.60252727155481,13.49973727733468,0.4750020922334003,0.0948199522526219,0.2496623647146653,-155.19069659690567,6.79730081939063,0.1972199895476928,0.3456389110540216,1.0829935650678384,2.1128868767013667,-147.34022585427283,18.015446311302984,10.66565021195393,0.8234461262044416,0.817094129459629,1.850151705685008
0.91,-87.54458778488464,69.40001657175054,178.43663226531726,0.3033854274633452,0.0258045505938174,-0.1643814614545846,-139.3801152131636,39.94913965237336,13.02709437732617,0.603586605222515,0.1055674034741315,0.1849246859446529,-154.90139533115857,6.993647533708514,-0.0586761963190602,0.7559936516805303,2.1088099222847823,3.1418096620890448,-147.5590928253554,18.01269830805017,10.392057501650948,0.627481955811981,-0.0114675685838128,1.8150919639388003
0.92,-87.74613403083436,69.50333430931192,178.10029277266307,0.514947091907055,0.2376675520284822,0.181609465314965,-139.17562616713738,40.305943755211466,12.933720880273452,0.1745806206276474,-0.1516764393208146,0.3930580702952652,-154.71325366286638,7.230833781991889,0.1415834381522426,0.2998854515938518,0.8350615121648973,2.0888831627499096,-147.92125773535915,18.13500855420584,11.309904852450194,0.5645146716523703,0.0759643993868665,1.280370708812957
0.93,-87.96161027757883,69.91055068618807,178.08736443405277,0.4902089786032633,0.1445519181092115,-0.2079343771614358,-139.49194997807697,40.51849900215175,12.950528434888264,0.1081228020039822,0.4829807435220701,0.679659625234287,-153.62309995183787,7.397620680017595,-0.0326371283311761,0.424887407217689,0.1928610956648224,0.5525803703103147,-148.00596652670802,17.821917823474415,11.63531722883499,0.3903657800068231,0.3358462386994546,0.3469800958498389
0.94,-88.18971288879017,70.1254697719854,177.5368670603435,0.0874998359613519,0.2053240847267968,0.3482971001981062,-138.98294642252722,40.94928725709913,12.384333434433287,0.2391363363665989,0.3800864552441186,0.2983582381483968,-152.8394034744632,7.036860419241812,0.2764432189374827,0.795711189661535,0.7824799099445989,0.2703648608074983,-147.89828435377072,17.98810853772393,12.139379831198683,0.5143233674151215,-0.2690270629582145,0.4549396400397251
0.95,-88.3723793585927,70.62257027172977,177.22879185064656,0.3056937287885902,0.1558788676667749,0.616462568787736,-139.2478135653331,41.63908330897311,12.063717306455064,0.2082664561849916,0.2060598659174199,0.4741171058357707,-152.3759281179719,7.142113546912038,0.2585371694847357,0.618623546751417,0.4990971205840919,1.0589478524579634,-147.00420529821065,18.3588351180776,11.996887425027207,0.6094250557863057,0.0975831253527286,0.7158689704699555
0.96,-88.51711862334699,70.4910707032746,177.12168767728105,0.0269951713586233,0.3259429849624855,0.6518140804720376,-139.44163022262157,41.74423340483049,11.784012839717516,0.3336698362382144,0.2275506384646594,0.1701854784945924,-152.01534664272225,7.125983524128883,0.2047430598509129,0.5945097752995865,0.3520404739076491,0.9529921403519522,-146.86310752639693,18.445750808909605,12.167707215050832,0.680923070627836,0.2542765669888257,0.5508836536116422
0.97,-88.58505560405301,70.74651767859848,176.93762882864075,0.0523394675696958,0.4357685339475594,0.6171123202982022,-139.10717806072984,42.07222370524213,11.84550900290261,0.4196222831104614,0.1412242725257687,0.3291989855821513,-151.7721313478726,7.186919662549178,0.3083539900453712,0.2534456713094556,0.3397490354171346,0.2177867022897118,-146.83030762155067,18.37421917335305,12.346472709472954,0.6433640998966926,0.3434269449744936,0.5206373080517782
0.98,-88.32301143596567,71.32955265086348,177.02018989231468,0.4193790610510531,0.3769986393600796,0.2137941703417848,-138.9554464928499,43.07264061356493,11.476776209886149,0.0632316445804182,0.2789369362997336,0.050454755505674,-151.94072094620665,7.26634188185183,0.3875574965564872,-0.2485000232329262,0.435389273599121,0.6536536746232408,-146.65628406266214,18.565658605666357,13.041448747872616,0.5856200079495797,0.146538813140622,0.1236970909368799
0.99,-88.61690463371981,71.71981328374936,176.8686249291316,0.433478780932385,0.1855289718172253,0.2661187523184106,-138.76794925349805,43.97747736695288,10.863969725118077,0.1003171283150406,0.347030626302308,0.0895163487605223,-151.77338221860046,7.285257958047634,0.8925512922067972,0.962320533493658,0.1112406782295135,0.3238135780390099,-146.12939199433555,18.665469979877923,12.966208870320418,0.4540778854825836,-0.2624914457948383,0.0209534558571668
1.0,-88.88976989346949,71.9872337405736,176.90498815178398,0.0853900493271271,0.1860599561610395,-0.0683604202109533,-138.87269641069304,45.06471293832429,10.111085411018683,0.1657954686377848,0.0431909184205637,0.1715588572031602,-150.98587160709602,7.111660529883363,1.3153659369020403,0.6770923579739573,0.6185008266893367,0.6908720151937443,-145.60188705158347,18.81188122182701,13.28683686351016,0.2461951533640741,0.0702205923144494,-0.0369860817267732
1.01,-89.01150561948342,72.68817334446148,176.58200324621774,0.0637547424099731,0.0753445690721345,0.0494512968726584,-137.1663602619875,46.28050264908171,9.312653934229116,0.040701129862519,-0.100013971587766,0.1325474204319946,-150.63841335505148,6.777209618253763,1.6601210327002618,0.6305575806475369,1.0870673460354705,0.2842278704850997,-145.55624845976195,18.63080700989909,13.98005149682783,0.3229616601771167,0.1316981980534952,0.2978014485869874
1.02,-89.14077951910338,73.62188479200856,176.21865135679047,0.1001461001824163,0.0717126199830011,0.0660675932615019,-135.35008158140778,46.86240371789727,8.291122822829726,-0.1576171733613406,0.2947970627930792,0.0934715687571585,-150.5728564612296,6.934782923347337,2.0412202073996286,0.4932116938410901,0.6843478006218462,0.2558857227616747,-145.35633573973035,18.9149346583355,14.221487992019089,0.2255738168837082,0.6428023325346207,-0.0082822857615154
1.03,-89.53261410622503,73.91752793017622,175.6895606870601,0.2819441815442784,0.1907368949986692,0.4515926339617785,-133.57206263731698,48.17795411342712,7.13302269298956,0.4994893336378342,0.4671240152187167,0.0146269960325468,-150.43163630901788,6.987253115521231,2.4655744288170243,0.6505158784767828,0.6485617079068119,-0.0084264444869366,-144.95758043735347,19.125215596470508,14.976310131317248,0.3041705264977348,0.0158664003897037,0.1353236681428257
1.04,-89.1968198456636,74.74829984335683,175.96837837267907,0.0674359428343051,0.1904228411775866,0.5405469903250422,-132.4130550874615,48.75833949845186,6.395884110046103,0.7921870445590029,0.2064163654289425,0.1987801426392896,-150.8325144108319,7.093449971372323,2.9030080207707347,0.8133104913911466,0.4338962618123101,0.3466588547137867,-145.10434024095235,19.089916123429568,14.927417375251029,0.1782261054749623,0.3421115702742928,0.1731366641711372
1.05,-89.10909731030264,74.79045319850071,175.75814359609447,-0.0776913100697559,0.1919392495787416,0.6115344693836715,-131.6729405147061,49.246574901071774,5.864781918214322,0.911482874876148,-0.0121548409041548,0.2844799322632473,-150.94437267255512,6.976146366657387,3.098564619183862,0.136023937259606,0.3393612669070204,0.5173613873264638,-144.95524293915082,18.895460608817988,15.099409888642452,0.0034951285809672,0.0837227069432417,0.3596026705930777
1.06,-89.04285845011555,75.54064079951989,176.30908537765515,0.3873381388813174,0.4491696741676931,0.1513907294224201,-130.30780148721848,50.13394854729965,4.260333994324631,0.5326734742742074,0.2707480202119002,0.4628376749224021,-151.31964456942586,6.810272306362064,3.265138401350532,0.133982897405759,0.7176799142611506,0.2191011770526851,-144.77664251024552,19.215111818541057,15.303989407369178,0.4585201422950555,0.0871703716268847,0.3763343166594933
1.07,-88.68398341170783,75.88068355185544,176.19226538351649,0.2295056223862705,0.0921873485658862,0.3498984124057784,-128.99081208617798,51.37747485878376,3.426541087134916,0.6869088186942214,0.1583508959961548,0.4837305130509511,-151.51645631559805,6.604309446061446,3.6871361460278704,0.3402677814555994,0.4894398740300025,0.5743935062759048,-144.5567160171466,19.213703257242518,15.633015280474144,-0.0084879988723733,-0.0991816021053788,0.2404605453855008
1.08,-88.52349693101786,75.99127243702843,176.46148877524237,0.3572560666144336,0.3127252040800736,0.3818571484206349,-128.62548735451412,51.91492264589613,3.188720766801634,0.5255522257715478,0.0463424194349264,0.3156781898775537,-151.68666073515143,6.902525263430436,4.149631143249368,0.3579609229721059,0.2910306007646832,0.4850060285022624,-144.56914042349428,18.83730636262672,15.80971856784917,-0.0474662528835347,-0.0190402411457688,0.2793032190545201
1.09,-88.47343536341292,76.12706292656938,176.87562743004682,0.0778816840776775,0.3433549243763701,0.7523467308385098,-128.43357002852468,52.230229905217335,2.7064036189975997,0.3977740149408542,0.1078975268547968,0.1654620945449106,-151.75026463000904,6.990504156421105,4.422132791875907,0.2320370728360989,0.2285714548911649,0.4933135633913528,-144.63533454556327,19.04338841230041,16.246419301692356,-8.064869130784691e-05,-0.0072664396785882,0.2652407727775868
1.1,-87.95532099418422,76.41566338403122,176.86979697847917,0.3572103373594742,0.1615453471885679,1.1764037319934215,-127.23079613008952,53.34229107317686,1.7246060826035938,-0.1102558909060553,-0.0915544036577961,0.7276619350105813,-151.40236326012635,6.734935335418317,4.300672647026045,1.3847044180784898,-0.0538515203496478,-0.0477001773886356,-144.4116566392485,18.879994966701755,16.51002409100593,0.2771817124544483,-0.1627873527110017,-0.0477638213763012
1.11,-87.96915422537192,77.10068481813158,177.71280387451557,0.5672397549678065,0.2103770325661377,0.7838074059377286,-126.89056332378948,54.37617333405522,1.069736911783859,0.6865193731488216,0.0519718088436657,0.3983447509183775,-151.3362611021844,6.976216190040808,4.779823325078207,0.5853837223602276,1.2742830014980018,0.4875834910844467,-143.7757724334093,18.991997411378584,16.510855313964168,0.2934264155259903,0.3270456104473271,0.0854014630448088
1.12,-87.67416064731837,77.91041146999788,178.5896474532318,0.7933044818966051,0.3495744044217356,0.5818481680622752,-126.27477049319964,54.53774092024731,0.2725825323975919,0.506611648807378,-0.0237070849240086,0.1809319461994122,-150.70819247541218,6.719804292696155,5.135388491225456,0.5430548646094526,1.147030491749801,0.2373450450998377,-143.40057970613267,18.87130443193941,16.61804300268693,0.3615033414214754,0.3440100153259998,0.1994816615587618
1.13,-87.4981081555544,78.1146358227466,179.10692087577132,0.5254155081486623,0.2626752251259521,0.4572961529209635,-125.75838091664836,55.14175225132728,-0.1754289594667328,1.077701982618875,0.2522532718941935,1.009572027066047,-151.18572902591396,6.29390050356477,5.620533343739153,0.1575593195626355,0.8751216961565397,0.2015180901532884,-143.66086285505924,18.8013473826387,16.88609108530052,0.0502624917260839,0.3912776018264299,0.0847696610507609
1.14,-87.32064319989996,78.73115760696726,179.23912336363975,0.2050104337055541,-0.112901807477944,0.7149556456266725,-125.18258428031362,55.56334224155793,-0.9523306534652016,0.5197589873886292,0.2063116782283188,0.0746344598443646,-151.58626691362167,6.345370859018344,5.854035637352129,0.6789118579889915,0.4395641594938665,0.3149191874195992,-143.41951368200205,18.68106860627824,16.86753898325497,0.5093462694976647,0.2635846383219368,0.2485973288196628
1.15,-87.01880167003407,78.99100022351692,179.49979994152386,0.1807812054236422,0.2572269452800738,0.705231639892151,-125.23136575321352,55.64823234878397,-1.1354465086064849,0.5889473854610077,0.2723277002785361,0.6858963811573938,-152.17400778055838,6.185138788044876,6.66161701773928,0.2787688887464071,0.3540559577875067,0.0295603950573037,-143.61342060602462,18.534917433085504,16.966045917806195,-0.1124673771193396,0.1479295946850189,1.1207302223696876
1.16,-87.23610529465934,79.44873474969339,179.15483217632786,0.6329540780699198,-0.0360278669491763,0.7931559953514347,-125.05614681819765,55.90392086571735,-1.3374273594626402,0.2782325539043113,0.3656020890989658,0.6122282775601325,-153.05833003295172,6.039735827048058,6.776712533056396,0.5078914052345946,0.1766686079945121,0.7333054580548956,-143.6243832491032,18.55874520840776,16.887499810683003,0.3726837228479486,-0.0593740939476028,0.2767146545277218
1.17,-87.13457176428643,79.70149302760834,178.77064113164175,0.4597343640634074,0.2953025193750989,0.1762847539880576,-124.693867877539,56.05482223431808,-1.8262278708219613,0.3549877282407035,-0.0125300756580839,0.567573231992513,-153.2846640742446,5.982911631151267,6.830361434192211,0.2857705646147997,0.2308154078365084,-0.0528868145685684,-143.95170999936573,18.009072057246307,17.202385190663858,0.3189110964142161,0.0037055489340547,0.1502235109077181
1.18,-87.06044971657657,80.06404879019999,178.07859600100196,0.9246815320286494,0.0770545608795192,0.2981709772765671,-124.46253313670884,56.44916356660468,-1.917753785064032,0.4048689504632992,0.4103160515600123,0.4634388598301817,-153.7500098317957,5.635404506345569,7.410815666125295,0.2385560745709909,0.2841974290940631,0.8083360580476426,-144.56183021644267,18.023567501039302,17.50589776432613,0.4555295485157088,0.2507980997454049,0.1053013183033453
1.19,-87.15702778432977,79.85250803004246,177.97349039872032,0.8126120178130916,0.0855346909733729,0.2253311548791631,-124.13715226056344,56.37585525834961,-2.43724500729095,0.2106909365049883,0.2932838903530519,0.4019666207002237,-153.8592187298514,5.133924597954891,7.218130962250108,-0.1734037017937666,1.1472535533416823,0.2582614294521224,-144.26873563765002,18.10765634589956,18.054575472479023,-0.0073087021520441,0.7263316549480315,1.158993649647599
1.2,-87.51478773452516,79.78390418037431,178.17985279782826,0.7702048687924723,0.3208224943441997,0.1443408541946156,-124.15003437673352,56.73399936609021,-2.5401409838644167,0.5799148692328222,0.2183530724087976,0.7639649848386866,-153.86276106185483,5.338886905503319,7.3612056208387715,0.0389630150616365,0.7610527379433539,0.2412518015041119,-144.4171839191014,17.911504901274302,18.47209615524886,-0.0158337157298044,0.5909606002439541,1.5632299813901394
1.21,-87.64507047662687,79.7071785934507,178.14452797295968,0.970864870005369,0.4351792804974308,0.1216433905709725,-123.96299098432488,56.87727430665327,-2.575816351057463,0.6289154630139183,0.0165630830928005,0.6259796006251328,-153.77271703875974,5.306265480486642,7.45522228214964,-0.1221950474933823,0.2470400114168681,0.3986994091799515,-144.5135697658012,17.895883486177482,18.60099464814028,-0.0500796401990729,0.5153054147575442,1.9361360476621303
1.22,-87.48639175799705,79.34998089910798,178.38318087862143,0.4847592559149676,0.2208253907975569,0.5603134314228253,-123.71735165358436,56.5718162845992,-3.0515690438073686,0.4658651303941359,0.3563462018251969,0.8078836297364829,-153.8889735319418,5.176397060355801,7.587589496366414,0.1380069752109802,0.2069414933147474,0.2969076045203089,-144.26169324454418,17.672648802783314,18.684552519616105,0.0839515448374161,0.4747675979288123,1.6400057676735262
1.23,-87.83839872639187,79.48319154546158,178.71571934850348,0.546631366072331,0.3200868336879927,0.2717300548188058,-123.77602796544272,57.04848993526307,-2.764049696548636,0.6518914181155242,0.5049445978299625,0.8380449544011371,-153.46003475699496,5.073223196055313,7.308366686670248,0.1126924142029157,-0.2093967569105362,0.5373147226696824,-143.8733083071999,17.872971806988094,18.695263590477133,0.1101611918171169,0.4627724399267636,1.0284803246033352
1.24,-87.83924148831906,78.73832350784035,179.0339937866985,0.5843640423255715,-0.0384153107754249,0.2313718534428326,-123.35209606933113,56.33320746810163,-3.4106050770198912,0.1841351909932599,0.7182435173361847,0.5545889102975036,-153.75273815202863,4.9992169229564976,7.394365402264555,0.5143949403461793,0.3272640657863213,0.2291198272996933,-143.66904518348582,17.80184946674117,18.720077522063523,0.2083622641606818,1.1888233551526788,0.4417583504709725
1.25,-87.85037496110705,78.88964213404931,179.2171377290309,0.8833046109151933,0.0607155053910127,0.0846869151548516,-122.95806639196462,56.49914352878248,-3.616164471961517,0.0968041343622322,0.5983174670053634,0.038342034627926,-153.72816155681022,4.602231303633142,7.503959365598696,0.13474956837512,0.3373289093390943,0.9455853629282568,-143.61062906236853,18.05144812018196,19.812645375493094,0.2887854702007419,1.056963475759204,0.2201331219276573
1.26,-88.14720205683867,78.12512581247903,179.26170758802718,0.6247506149840151,0.1194026717468505,0.0108328769655862,-122.92192471556584,56.59680039306684,-3.911624520322975,0.5839439107500617,0.8573645483333937,0.325463298875948,-154.19338268853178,4.467687765515271,7.641812620798545,0.7072397971174765,0.4448315224841717,0.485781508022707,-144.02168304624,17.520332454557714,20.61135148689312,0.061169725285225,-0.0509738871097021,0.1454515493271451
1.27,-88.10673268180709,77.97777292732785,179.8413556021287,0.276421917892056,0.2748723469870879,0.3018995675129043,-122.15443342281496,56.4176028233385,-3.895058198104409,0.0605457209060126,0.4921925971743977,0.6574979345196206,-154.45255572049842,4.436494254391239,7.777766274269884,0.9363000964142064,0.034456353607647,0.2411190325715752,-144.44922956741908,17.458700802705284,21.67444996161877,0.2281824274987659,0.2970678872551429,0.080333238109401
1.28,-88.12224794411487,77.25469160920056,179.7132465959192,0.5668273786343306,0.5744870350342856,0.5129009173222713,-121.7832599825507,56.207154670534365,-4.47680447571666,0.1267428667044287,0.4237400644058032,0.6848454763929525,-154.488399286996,3.693423971537132,7.391743912434383,0.7032097548204465,1.4278195383254104,1.165762944797051,-144.9894623021154,17.017112162914426,22.24834687093761,0.5391033395593295,0.3980102429459841,0.1154060876604664
1.29,-88.19596557000126,76.85276216113921,180.00271896759403,0.4879212175863313,0.1237549864694933,0.0164218024391208,-121.4555834409354,56.07841629563029,-4.270291941084492,0.1938795346611881,0.5387974382100426,0.9288977228491914,-154.06111996136016,3.3520709523325607,7.17004704583865,0.8301398431259606,1.665233114755512,1.5234458072712844,-145.04857008614405,16.987974182968422,23.300589013117385,-0.1806845505118439,0.364807114172767,0.2903483809323169
1.3,-88.3825997508462,76.17659473869026,179.8717650562088,0.8636678960598174,0.0627344982556891,0.1277715112934177,-121.48614477589804,55.70950055453251,-4.449990282277623,0.0385809869135492,0.8723297704549883,0.4960783346321708,-154.20087177894675,2.992740448165682,6.274482621249461,-0.0914265980633823,2.134088873510721,1.1812483554222717,-144.65685139479243,16.814072783961315,23.94428673807363,0.5886263458567069,0.6036654530791802,0.059209346637038
1.31,-88.65757264263864,75.3140236278535,179.5972969174952,0.5307493693778419,0.4722480047341796,0.0090597115815724,-121.09160898286513,55.80380240745444,-4.819096320816522,0.1184081008549418,-0.0110356457803012,0.0176710964296222,-154.43146819317187,2.296859716192185,5.870169437363327,0.3034051635058953,1.2838020449498144,1.0669862984464622,-144.92775797829808,16.86212076415623,24.87674384940979,0.6091317143062667,0.6930363209792708,0.078126996254648
1.32,-88.70475313905935,75.3440871968003,179.38399287291196,0.5843146272539728,0.4951971668632076,-0.2386010038053061,-120.76975030748652,55.88694142008839,-4.564849640312602,0.2375686354749026,-0.0250541978945028,-0.0396038199821925,-154.99040344621767,2.215130388979864,5.825909150111392,0.7564404294494507,0.7137196401984242,1.1712444630464065,-144.27230523742983,16.78077265011105,25.43434137059536,0.7003855639423155,0.6864343983544168,0.8679814997361739
1.33,-88.89007902771868,74.91586585430775,179.16491546166378,0.706264476124577,0.427924041778715,0.0076157939377323,-120.98384870337728,55.75126848941947,-4.617084416433585,0.1489341367889275,0.0441624580268459,0.0435880255538539,-155.4932823372886,2.298713566950281,5.565996414289768,0.6548219302662001,0.2781630545007274,1.0328062149172583,-143.9628764972971,16.64050813606055,25.71235608727202,0.7633532017609971,0.7270495862551922,1.415585150506704
1.34,-88.80631939472369,74.20370741773785,178.61488534291823,0.2379858811693911,-0.2145315728270346,0.251601523199674,-120.69130658959668,55.24415442489447,-4.163496305580135,0.4464205224843315,0.3025710229459014,0.3117952143915971,-156.477525823201,2.0010647375716744,5.420752085800658,0.2641341234797228,1.6577008267229896,0.5215714418826414,-142.8322023706915,17.18568321853833,26.28230859907293,0.3289711146813074,0.5456283229614279,1.800780948084025
1.35,-88.766554890186,74.05076137649729,178.40721324225584,0.3068767559658799,0.1413945657217756,0.3813356218647762,-120.64569421561832,55.162816532219296,-4.122324845330784,0.0008047835442968,0.33454334509388,0.3276744500343045,-157.37153159533256,1.9470275506974783,5.388331061576961,0.5010148725140537,0.9235334121786344,0.0987160482815639,-141.9950380708292,17.70209438318692,26.547853561867136,0.6186885794772562,1.3483801174135828,1.5882071531895958
1.36,-89.09001438551458,73.18867951456916,178.3226442848203,-0.0291014729604549,0.1794717805434115,0.3850009626639044,-120.9532766414758,54.63807911311262,-3.81522071710162,0.0806083183847032,0.520724480747543,0.0108071276615271,-157.41767766383452,1.8602476120148077,4.658854451389385,0.836490605664112,0.3116543633927769,0.7225031041590383,-141.5933929529841,17.983104248387928,27.133391402416887,0.1941494455913122,1.4091452661058086,0.9983784006787148
1.37,-88.847936915177,72.46518175212768,178.62166767098003,-0.2015131063458129,0.2775362708461793,1.013629326473315,-121.1231628929707,54.85885566585852,-3.8750235836098135,0.5393774615695343,0.6755874339150812,0.3153261716642694,-157.40324638956338,1.7361415728948322,4.354331991356532,-0.1191448110978452,0.079257667602409,0.6655899940774401,-141.68886341253025,18.047413947930064,28.153614788003825,0.1997590899137998,0.8668892126876832,1.37261238712456
1.38,-89.06561030603004,72.23552503854778,178.36189053977003,0.1579746898853579,0.5959644628310543,0.4485924389629153,-121.42746500984298,54.9455988410635,-3.535699122297605,0.6554446443093256,0.3423499788937811,0.8919689030488754,-156.9968436913138,1.7981291938825326,3.8102206059761694,0.570741297342603,0.0879693693915447,0.4402300254751019,-141.9015097487531,17.687461499650233,29.13592900391383,0.276295315463208,1.5607546464531843,1.89565017580496
1.39,-89.01119070602222,72.06650649519787,178.101848042796,0.0404566687782338,0.4345030955502489,0.6069691054576504,-121.61092058749374,54.71592819389504,-3.936518078400226,0.2872774562395662,0.6257190727090277,0.9765243234141724,-156.6738478812165,1.764611176996682,3.79473769323118,0.5221860033262519,-0.2009489476034746,0.3545538808181409,-141.88372578372864,17.71385037398622,29.35988027915781,0.2495356264217116,1.1766507796018322,1.7221783815690264
1.4,-88.6797271669748,71.62100127611942,177.9558447499412,0.1069628453951533,0.4733977853402656,0.3454003022605035,-121.41132395406248,54.88632909755077,-3.566661176553025,0.2200442597867368,0.1783272335014356,1.0862783391500184,-156.7135645098891,1.5904943586354976,3.6125071807238687,0.8358521418536458,0.1674020105524386,0.2627223891612754,-141.94693574032223,18.119123347315067,29.43383449621698,0.3342829337062777,0.9302536881496978,1.603744566732687
1.41,-89.44283278205563,71.23364556953969,177.77633189295986,0.6005919884608035,0.6650565939697466,1.0112061505115468,-121.54367860112444,54.89523380572236,-3.153861816793889,0.7085763642087919,0.2002544502972698,0.1606684636370518,-156.22501382058434,1.7294459004665277,3.0120045954006254,0.4605650879446954,0.6932349551668061,0.5390698122061405,-141.83699418024176,17.689857460822374,30.09807567867879,0.045641930856365,0.40627297861489,1.3261859481858789
1.42,-89.39677435401549,70.74945905552282,177.67079107040408,0.3868107873589079,0.3362659558857221,0.8390162159444652,-122.07791222029016,54.830047534841626,-3.1951259770152927,0.9168183576635413,0.662672054232801,0.4412945521715959,-155.99006230204293,1.9049388352252223,2.667474212054961,0.7227769496208102,1.432657793521282,0.8908730302734286,-141.79621141335824,17.79888954773796,30.81161361954864,-0.0607850712033753,0.8534315448646855,0.7921297104064743
1.43,-89.11857096549481,70.81942171763771,177.44088746086186,0.3536787790951172,0.073752650293182,1.4336539298735305,-122.63697329838956,55.12022427537179,-2.7433237593717776,0.8665161102431681,0.4821609344916095,0.2958969687265357,-156.21320108943289,1.5537113717518516,2.537949310396197,1.4002097295702896,1.32662619902125,0.7098493630739461,-142.08595068453934,17.559708728752955,31.01963554699497,0.5249797021754664,1.672332732278227,1.3163091156532851
1.44,-89.41364798446938,70.48197919625579,177.35817138155167,0.3512377750008834,0.3547586718696153,1.2210906921737623,-122.77479622420675,54.944513161363474,-2.3524508895391523,0.5748722890966174,0.2168577233115339,0.4581291230736655,-156.1148980788867,1.4823495077369917,2.4421636579658217,1.109861147046433,0.3359053702147129,0.324089099270076,-142.0466243678341,17.651312166300897,31.280666070419333,0.6982271284331762,2.1337242563242182,1.353289961194384
1.45,-89.23953954512659,70.16092693131523,177.50843062476548,0.249702456861068,0.3655284364518085,0.9462706589776004,-122.58300157418884,54.7078231005509,-2.17875431738738,0.3228513790765194,0.6154101372361507,0.6368929760945733,-156.06727102476722,1.764381621391219,2.605994559068943,1.1278707049426673,-0.0907372657304022,-0.010069475751285,-142.0056282433693,17.482429164221767,31.917567977877443,1.0759230574016403,2.5560667113981723,1.9328365771049587
1.46,-89.33116462613569,70.10369539160736,177.1233173962225,0.8172259104818944,0.1418517338607398,0.4361102346808038,-122.93505080671063,54.60831335547981,-2.223213578998156,0.7382323181128284,-0.3222354085262029,1.3697059768782245,-155.94339769036,1.4824549547814034,2.250503227827597,0.6143431062131796,1.2294819787746836,1.0151853605122074,-141.52698286744626,17.30717089090665,31.68231057260205,0.2339799831658228,0.7869179566574785,1.462920750184019
1.47,-89.03386625330376,70.02118470072321,177.5439264873073,0.8873084088331953,0.3607106372753988,0.3004851108569443,-122.35817403653982,54.36837254066023,-1.9972145189319783,1.0422897480904014,-0.0170601724702013,1.8983430947833408,-155.52826531977394,1.1702382207212645,2.107297553772051,0.6693656556115614,0.7406184294144449,0.2251260792797904,-141.21713798230292,17.3749359823636,31.751044848705604,0.091347098962721,0.5340381407626151,0.8871603934500588
1.48,-89.01053579811665,69.83318628301699,177.76001015037684,1.1334768191493332,0.070479786511748,0.2089220709529712,-122.2065905351586,53.9848249666202,-2.0319889581334394,1.8275853982127896,0.433331967967523,2.0194295375784783,-155.98413589641402,1.206831936376329,1.7637897428746356,0.1168292663149925,1.595701865741754,1.756494319611314,-140.72897372812193,16.969677570097197,32.65389224979818,0.265697815560889,0.4194544324515322,0.1211277410484398
1.49,-89.10244024715712,69.85066705922263,177.7184339580779,1.1361195766000718,0.1934719126935589,0.8695550867318155,-122.26678808532012,53.34226562069981,-2.0607581614501806,1.2578270900283322,0.409024684852883,1.8152456173612177,-155.87172218444755,0.4923593705804852,1.490109708062755,-0.0610628446477163,-0.0348035784618528,1.179944266797374,-141.1173700640786,16.81145858823726,32.660467568417424,0.7126535246132428,0.9082256915823212,0.4011593948574678
1.5,-89.26279402988906,69.66561377799005,177.81127666695528,1.8062654539704557,0.0219837557229859,0.9406280020215904,-121.8870461791766,52.84919754217976,-1.7514398031272398,1.0020526399683,0.2386805827036355,1.2730165765221635,-156.3109369479934,0.5046340361196101,1.44690639883566,0.4821687838966977,0.2519924666165741,0.6729325077098807,-141.0740707258946,16.430242761440233,33.35840917436854,0.7631724137073944,0.4081063124387922,0.1023030706196692
1.51,-88.77474572723189,69.40128356288963,177.89945428832877,1.8225367662471157,0.0600883305008336,1.0530612635995469,-121.73569517455395,51.96874854305824,-1.6942843956734668,1.0810590936288582,0.1659353587684989,1.358162051721051,-156.487466406036,0.4940522348725905,0.7163091135356949,0.5616148038327601,1.0078358364962774,0.6690569347024528,-141.0010875435702,16.49285638570863,33.61443582871354,0.3940326476467872,-0.066913990036614,0.2808986454562788
1.52,-88.75737464165165,69.04258568997813,178.18674080716406,1.487904499812525,0.0516668270380686,1.348155858429008,-121.18937345000582,50.86495296353378,-0.7137150061714844,1.3572262857674078,0.1169500943633198,2.008845952892381,-156.505328002035,0.2812460437555578,0.7088103273205444,0.5848178650589455,1.193805860989005,1.4715358741352635,-141.07955466355713,15.794008326585985,33.688740884710164,0.6148707289355424,0.1791396778442417,0.9321998999885956
1.53,-88.40886543358255,68.25620041503186,178.45117138703972,1.4776690781111168,0.2732225393757604,1.1883697491284866,-120.85396101806158,48.97967235413999,-0.2902557066051185,1.135717396590835,0.152423087348028,1.2105615410496318,-156.69721885851249,0.3154418681892167,0.3699063587021751,1.1018498765512676,0.4951719206594545,0.9158181540721994,-140.8691988903254,15.512441595998991,34.19484725106408,0.3288787349170693,0.0928481921668921,0.5655156234690695
1.54,-88.40653589913651,67.75163897312463,178.46852488102087,1.5370751738387978,0.0195993832820402,0.992970787970955,-121.06391674375192,47.54824019352736,0.4625821849269937,1.075254269808566,-0.1759547056568892,1.14621265929871,-156.79023784307944,0.4963184265421859,0.2620694096648281,1.6393991605129847,0.2754690941417494,0.5825054144559239,-141.6626011297824,15.090430921518276,34.599409497227875,0.2004333501145575,0.2829902089880062,0.3808747233202739
1.55,-88.06949857991995,66.59026614493443,178.54139776379353,1.7452249853787076,0.3530423088182653,0.6458101000400385,-122.07969919175002,45.70418550432963,1.5382800935418754,1.2053139185863468,0.3223282123221075,1.326323959081855,-156.95084775614663,0.9338256548723392,0.2803564534737172,0.963687349088178,0.5888371462221241,0.3441767772406006,-141.79647363669545,14.878344973374672,35.48668536391104,0.5608226902318116,0.4887094480441368,0.3531881995625484
1.56,-88.06111897912076,66.57787878804601,178.66685635017734,1.8815799860989864,0.3464627767677795,0.4266741351103751,-121.99023204475202,45.30133683155547,1.8508232183528843,0.9988643679478626,0.3124331293196448,1.3137668148801154,-157.00549988426354,1.1115182501805256,0.5719184977192189,1.1453920444818242,0.8252482813113056,0.6130225222885366,-141.90847914367208,14.699734296886987,35.71460101132549,0.7634807729068057,0.4640122983471166,0.6932521875814992
1.57,-88.14366354779929,66.45419321681356,178.39765999318868,1.5325242638477286,0.3933424336942335,0.4064045711008418,-122.04846826919096,44.85590767741876,2.448890975932664,0.8188050776169878,0.5230150241513398,0.9998413983810585,-157.38793355610127,1.000375359753343,0.5322794696082955,1.058570114887558,0.8749153220638581,0.6150234220468523,-141.87220091958744,14.519089925827886,35.84229355404726,0.7019997070394507,0.3772007459995545,0.7855004365706734
1.58,-87.55824648148945,66.03034981717481,178.67717487709814,1.4483087956895009,0.0324835255141836,0.1360156908907837,-122.0146326960234,43.7162392443433,3.292173725912003,0.910641553515278,0.3682785388220928,0.9756736123515336,-157.72380526839638,1.4159195615926332,0.3259117733007668,0.5251079296008059,1.1134727502881814,0.6475745937325075,-141.8183469388555,14.175414161859916,36.00070085766208,0.4117394312696505,0.2990559375227432,1.0466254335782703
1.59,-87.29643806490421,65.03536371273405,179.36241040654667,1.246454228063316,-0.0683704276605528,0.1194813655014606,-121.99285780599226,41.72437899425872,4.558398489178904,0.6487729137668166,0.4863042543503283,0.1965206785016703,-159.00721582925277,1.6914397731425057,0.7437131104873047,1.6681988388904103,0.1402200000125639,2.167397187452003,-141.93153418812682,13.882386169444848,36.577435196841805,0.7263568956274514,0.7314851263909142,0.0286874430801298
1.6,-86.88569897505265,64.12546360058077,179.37299030171636,1.8078145683822973,0.0524235336741812,-0.1579862358377065,-122.28759320749587,39.96995898237248,5.725035972229618,1.0592858612341751,0.1784052527466696,0.5102095776386038,-160.58375282448782,1.8721029283053652,0.7686542078904885,1.9508041591257184,0.9768007088378065,2.184766911779686,-142.09075559309454,13.835083793747044,37.43310664259516,0.3459838356622741,0.576386534023094,0.5924177191129743
1.61,-86.1781355917809,63.149961282115314,179.78151232642227,1.3767682959141114,-0.1057391344371774,0.1018612399176292,-122.20808176993462,38.17154159892696,6.738689282029022,0.6821676634879325,0.502463358599703,1.3513849863671443,-161.43864139713529,2.358649990039384,0.6067583897672919,0.3330539539445672,1.5196541503062018,0.8321661030617875,-142.2599369653983,13.438756737762304,38.04199384345452,0.3605747667886743,0.5315442820445999,0.5756963760696456
1.62,-85.84238092423871,62.69389529880228,179.71110376325322,0.6663278313129567,-0.0370581783405493,0.4930402827388132,-122.18339391151162,35.86080044661677,7.834217449610001,0.8630643545995489,0.3487788709342502,1.2853484366967294,-161.90817537840744,2.5891805904858667,1.340188812135385,0.0903477362987472,0.4609501874402401,1.4563142572755283,-142.69912847507956,12.873833896863992,38.42384111887695,0.370926086778469,0.3806249919549344,0.2249354307338568
1.63,-85.06888880894775,61.773214737618,179.56653925243927,0.7265714047821082,0.4160871932966287,1.3427275983970992,-122.21175188768532,33.695659222198145,8.479141760769924,1.548196645743522,0.0085092096913566,1.1632887630598958,-161.16326761610551,2.9916104517393656,1.7194424731876037,0.4306338150575229,0.2308832726289052,2.415836219229155,-142.703423138953,12.680253863256326,39.13886766124194,0.1331956501858413,0.7626121363707801,0.2244957771842545
1.64,-84.31867955916627,61.25914314711292,179.08753575102472,1.4805075038941748,0.4420808060991257,0.2743133314428915,-122.17992670296442,32.83704840045263,8.98138720847761,0.5992470030653357,0.6596349856378609,0.854940961285173,-161.66187007734231,2.803110455974517,1.5766599931815792,0.3536492751039302,0.2954152450074936,2.400652792788424,-143.0574741063487,12.556292576369623,39.85410371509538,0.3854637897132267,0.3623441136031772,0.4039501469214508
1.65,-83.361433737027,60.82957641470952,178.0783563932442,1.0964144906124982,1.5319988718283368,0.5087645608888551,-122.26013299435802,32.8328793665348,9.569555179677108,0.1901971247468015,0.7073906240015607,0.4638805869840446,-161.4018813072427,3.036310330292846,1.9495601745969944,0.5012252812893088,0.1943768353160656,2.1008228638600275,-143.5368614736666,11.88101924855044,40.1713400778569,0.5662657697802527,0.8845020316179621,0.2447355373106388
1.66,-82.08800380119932,60.44328098042971,177.87710954616398,0.9542516406523702,2.591704086205897,0.936169630230805,-121.94835491218184,32.18598561059839,9.91052926088406,1.2437175637055908,-0.062630668096496,0.3175964114963931,-161.56816816184747,3.1351658646375946,1.9280544182302928,0.4970772738496687,0.6568855483004136,2.1786154772469084,-143.75520600283176,11.945233469980836,40.55514272201104,0.9015399928131156,0.2847869038648672,0.5791418148456768
1.67,-82.37790727264006,60.62629607262029,178.31448314730193,1.8788922798232304,0.8554626838662908,0.2102082942963504,-121.93849191160618,32.33049818808905,9.611568999591189,0.8485014304895793,-0.1890891698323932,0.1772575222606039,-161.2936646604336,2.7408550220519965,2.015554116827997,0.1353117905584456,-0.0905594848164856,1.9886027970433435,-144.3456634666953,11.598721755995856,41.4944983684764,0.6428391809584586,0.4423059534748675,0.8494500789116898
1.68,-82.33963425439751,60.833020837526895,178.33007591842426,1.1210297110826373,0.4411612986623098,0.2808563001254837,-121.79496967571824,32.272248795508986,9.93192503298302,0.6690326964142244,0.1563028390090202,0.6698494613836253,-161.78417432675928,2.714991820268993,2.069661200471375,0.5207357600557194,0.0809367939755062,1.8372693139762648,-144.5561585228538,11.33023718016124,41.799213750950265,0.4771428199019576,0.0373236282086852,0.6749289079031731
1.69,-82.36413108980487,60.93655028685851,178.43004717170973,0.3794985056757194,0.3343719384881262,0.6294167045933402,-121.80812388600636,32.440416164785425,9.940080384776998,0.6703860191036599,0.4320632394004344,0.8590780979676553,-161.54713843429158,2.663977150155812,2.250004960654284,0.4122699438995504,0.1680488174737052,1.7833966851472538,-144.84599106749243,11.267203605399876,41.9294185635705,0.5382561475120371,0.1532640749534999,0.2236277480106833
1.7,-83.49015461458578,61.75985146051868,179.91551707657214,0.1738668461501545,0.7794023571412009,-0.0146593378741785,-121.59958396536392,32.542997193618895,10.037758123959806,0.7724828332541914,0.0710321557570814,0.3049565689799591,-161.44799079648027,2.1422882154182297,1.9884203270354552,1.272686594369142,0.7351313143366511,1.970042267397248,-145.666645645955,10.87570476272368,43.20749066634041,0.1084432256850137,0.6695059203006144,0.4702355157199389
1.71,-83.89332312914185,61.095980219792246,179.70524745879692,0.6524105503580693,0.0294757146838034,0.7870484305090347,-121.77945934662532,32.835675574585586,10.00069408982499,1.1948142362763066,0.1350647772411343,0.6031249042491292,-161.01140538925293,2.484570386944757,1.7959072411007913,0.3513350345741488,1.2605355839123509,2.0718981237756,-145.80835318733432,10.775032201470797,43.8657866629422,0.6626535052884982,0.6817267760013934,0.1213410764564397
1.72,-84.04169496704306,61.03858336797121,178.85832991340175,1.112210666286023,0.2314047766015332,0.4123868236111524,-121.6817158115272,32.81503852297314,10.01132356231407,1.417773324171255,0.4734054678102784,0.2197671108916181,-160.8347321682803,2.0380087310952693,1.9291558722765223,0.088883160463815,0.3245586050620602,1.6636341257194494,-146.04269175838832,10.501449312536945,44.38556692987188,0.4049010852286619,1.830302068947131,0.4080338390878244
1.73,-85.39200459651353,60.19333179126851,177.7211271321555,0.8330304053337498,-0.0421594856561122,0.3570752082033914,-121.8108469176535,33.51844875501625,10.256456070800796,0.5162913499850655,0.2213395642466086,0.3147451252113079,-160.80625530620338,1.571029515215069,1.8175413245153909,0.1491844321358201,0.6430654298808463,1.6023980062779573,-146.4246503007715,9.812314639548482,45.57408758782618,1.5110144704478237,0.3132912496897712,0.6936182280366324
1.74,-86.82509628340502,58.653673761767166,177.15598306331876,0.6857162410126603,0.1138600266678571,0.6382696387739372,-121.53205078681476,33.68954356546009,9.931464644825356,0.6407026725362229,0.3239715674660893,0.4316526227492052,-160.75874984622814,1.5947797909025438,1.5695442158180062,0.0365214177162199,0.229850035725897,1.784109597605135,-146.73340109112158,9.402024541736262,45.85619318594311,0.9879030359357914,0.2834503638047477,0.2479052327618187
1.75,-88.38606249904876,56.98969621515577,176.3072565680279,0.5639624812972142,0.8024876933107987,0.7219409029322261,-121.37596531117842,34.11586534534191,9.865058053825113,0.6193745089880472,0.3284297528621545,-0.0345589835944451,-160.85283772886916,1.4314162094790512,2.020636556354202,-0.0638408199793286,0.1548885715519227,1.4170666998258408,-146.99930439622472,9.51870870139464,45.75568724763445,0.6893257668279723,0.4514835830050294,0.0875021564122534
1.76,-90.4849011162041,53.14327648428689,175.18559559061256,1.1015933939638545,0.6330956727864784,1.433735397160455,-121.51888941683644,34.88905064299134,9.94231261904988,0.6210375519520172,0.4250264970511338,-0.052262486934244,-160.57274595520582,1.235927780583607,1.6446171194065002,0.4006161676475935,0.3636366255914018,0.6812648722721221,-147.04848442670615,9.207839609228431,46.27657408889778,0.1602316397825285,0.6768909266269402,0.5542104335569569
1.77,-92.8220715569315,49.97008629087384,174.5520449752829,1.6936725389016158,0.6050347435723492,1.4280550529407772,-121.4727446331448,35.397794753213574,9.873609161417074,0.6320672882960494,0.1538492052359564,0.1739395784323071,-160.0731165412787,1.0410183192178228,1.5923531718856143,0.3513079175369459,0.2460268360795607,0.9672424620339238,-146.98665036579325,8.891137883257125,46.43673042707289,0.1245420011162068,1.0736521940773711,0.4432517195867564
1.78,-93.81326346754918,50.42553975387486,173.45691479423465,1.431581638963307,0.4634463623367612,0.0979201705433371,-121.8061190451529,36.23016503008135,10.127185603670034,0.8326809612622641,0.0929733749621989,0.5928475263498968,-159.83950948750785,0.4239808459516686,1.7797729893690122,0.108384788786029,0.2399931795424881,2.0150294238903537,-147.169292894527,8.737852447187663,47.03996543973786,0.1561108979803161,1.2989205856384538,0.8469810746567115
1.79,-94.50951149450997,50.8590356247806,172.80966514852918,1.1026625034352453,0.3147639056157088,1.0455211902246515,-121.30963685002229,37.00654353239049,9.936353928010556,0.9458634664939004,0.2245202274202138,0.6970495713694606,-159.77075435578666,0.2670036949127003,1.3824363452669006,0.1693191471509906,0.0297317827565723,0.4184137539160228,-147.95131391401327,7.840058467695984,47.95997809625953,1.2784229429703495,1.5852633616001974,0.9965710329617156
1.8,-94.69005216541936,51.41831974650151,172.25598730208935,1.104577079560385,0.302731189814604,0.8572338981023232,-121.49839027640154,37.4973699320697,9.997485756002456,0.7704828713218671,0.4344725418429659,0.4871198863851183,-159.7540648995331,-0.0903009863483776,1.301465509580944,0.4950942974732483,0.2048303154393827,0.3625623489254855,-148.3140479434719,7.402105826405519,48.213417012602456,0.6850245924588126,1.0643919702287905,1.4451822296108758
1.81,-95.045977691096,51.982905861680365,172.0272281978466,0.7327651434619655,0.337388288048193,0.942498194526548,-121.72810314899466,37.59841668989165,10.309237332353154,0.7289674965029822,0.5699328575744771,0.1109877425151092,-159.3898828769895,0.2254822236685055,1.4296788618030534,0.3148915982697493,0.4593070240550225,0.3442505968024628,-148.48754046339485,7.168071543123362,48.53295372326492,0.4955449311180379,0.7500323344488181,2.1291938247728948
1.82,-95.32686951798864,52.69122881008629,171.4178766887354,0.536085477776253,0.0406525350045026,1.0971527058923043,-121.78727559948275,38.76450309285227,10.61377675754919,0.2863120133643564,0.6242691901080069,0.3730225902992446,-158.74023527075946,0.55884675000894,1.520921856556237,1.0887879938047762,1.180102820608518,1.578141278040927,-149.56995064669772,6.367284221725594,49.46842356334798,0.4445381633754319,1.486280945144218,2.844359323002733
1.83,-95.88934488976189,53.923316830472,170.60581783852345,0.3644472564870932,0.1317702070668402,1.0651826755909948,-121.924383700469,39.888289309812365,10.963146333024586,0.8248642492050338,0.544042394737458,0.3333294379025826,-158.6680266062082,0.5712938816858414,1.7963591031728816,0.3154496338506038,0.2021851675827133,0.5765010816249982,-150.23018820386056,5.570365510273623,50.08842923773231,1.008995291671012,1.0433889704647747,2.317839252758334
1.84,-96.00742981836768,55.40838055914346,170.1484532286137,0.3182538735949627,0.2019993450679632,0.6687171813238053,-121.862227665355,41.16331653066302,11.018645689425322,0.3463130363395409,0.4312393005816492,0.1357158671587229,-158.5606268198744,0.6682380862619344,1.837032999745973,0.5426800058937605,0.1548637659600516,0.2592254260921811,-150.52823787250117,5.020716527631174,51.023551362777255,0.5953392045930279,1.3865256596316626,1.5641112942447897
1.85,-96.10683393080868,56.4754935859721,169.0606793654066,1.1591260476233705,0.5266373078518521,0.8847366398847167,-121.9312060665155,42.58329344513365,11.31255602383836,0.7905305987446857,0.5874296506070426,0.161286275869835,-158.3253048631902,1.0070959143379834,2.2029321862583804,1.0239308283430535,0.5663575491286891,0.6821068345000738,-150.90854941674291,5.141723253576863,51.56777051755854,0.2783732108891902,0.1621151030659152,0.5833567747181722
1.86,-96.7402857415825,57.823049937697725,167.78157645692633,1.1305124491142415,0.4011873269507852,1.01347364181019,-121.93101644267097,43.7577479096607,11.77951931686814,0.8345171428801104,0.6986003264125569,0.1966463052817144,-158.69183204759585,1.0467300293083102,2.3491291869910857,0.9927400685947672,0.580402895449068,0.3504434382632174,-150.6963815722912,5.271925788297248,52.54165401437381,0.4948092813885519,0.5808872190612169,0.3984900361174037
1.87,-96.57448529951591,59.406215696362224,166.5822013818691,1.3844996785270869,0.2435132955059483,0.6554531943375319,-117.21822200994166,45.14035478612856,11.83239093104106,0.66660690198593,-0.0530016033984183,0.3996099539672181,-158.36788002237446,0.7611566484448181,2.294761536520299,0.3058629678013703,0.8311172627844535,0.187738229103183,-150.64302883686742,5.759327744992708,52.88565001950951,0.3881855759340807,0.2478799207469285,0.2625342039400973
1.88,-96.8071610290862,61.01775596233198,165.24760731156812,0.0653632908880377,0.1569338075172161,1.172938759173806,-118.10523930530948,46.73542301865324,12.005799504793025,-0.1144171821413618,0.6399541503294457,0.24388590316887,-158.73427232921287,1.037652685398217,2.5025245586551077,0.6234493312156172,0.1078264535042534,0.5944342087442288,-150.15213634654174,6.433248984545645,53.32438955878721,0.2146868154899658,0.0296331685161422,0.7647544818077852
1.89,-96.40839970212636,62.80047356618173,164.61105091498194,-0.0704363442415672,-0.0231152808233733,0.7038615268899354,-119.13766562192971,48.20575877322518,11.970134287147763,0.7909929540752874,0.148338095692607,0.2860479111564655,-158.43563971231805,1.2443579685127788,2.4987558387272766,0.6859244855122375,0.7083945393468938,0.9197787599482412,-150.08558399589066,6.288046217859161,53.47159155622048,0.4596025523951368,0.8159392094923184,0.5326608000508306
1.9,-96.17951703730412,64.07150367687493,163.83726991340507,1.2479488496962263,0.272682594549179,0.5793346197444307,-119.6165072413732,49.755871758267546,12.39167033141858,0.4424701576538975,0.6922070556377502,0.2811237587585948,-158.72452105987284,1.2058879029778031,2.372050358443133,0.5892345708459809,1.1248546790023544,1.3524146496215672,-149.38502559664695,6.506172906145584,53.98244589176995,0.6319634357616426,0.3226520413592397,0.2777482700557895
1.91,-96.00431525136143,64.83383159137529,163.46934614508044,1.2527737646953006,0.4789630472906379,0.2315798829939396,-119.57947670853478,50.48660944987813,12.551418689338783,0.3478406788061361,0.1974055572120547,0.2827649852835507,-158.93364853065015,0.9831344211652006,2.3373544747603363,0.2325868190008187,0.8301535828065458,1.3563346476861116,-149.1875503607099,6.696269340517613,54.00901071184519,0.3793769671409865,0.3913880817342383,0.6078271844883404
1.92,-95.86591435225334,65.32048718044805,163.04530218577273,1.224167326727614,0.188355547361034,0.5917122307180976,-119.63444180829198,51.0106368010748,12.414675876670342,0.1548073171090873,0.3260192036540063,0.5986341074888195,-158.90679933626137,1.0650290938840712,2.3927893266346523,0.3908835008400483,0.3803787147067589,1.1934714572144682,-149.3717089743382,6.771015941994118,54.176216894801925,0.4986774279695807,0.1746797050107047,0.6000796346116786
1.93,-95.88825509840288,65.39406850609944,162.5204166227243,1.3171365815239413,0.4339193367878233,0.6648342570617917,-119.43372226038908,51.17023620960189,12.176204228103508,-0.2437005023587375,0.2149025675240551,0.7402470726769539,-158.94457545256282,1.204650640955528,2.7190210287102694,0.6407353031216858,0.1340643317477188,1.339629598319374,-149.004968498281,6.888769414813519,54.47304722739162,0.6122442478804889,0.2419479280881351,0.7115080374227178
1.94,-95.70144115449132,66.87870373125048,161.12718657554473,-0.0571915632247695,0.5408753536262028,0.7754906924709505,-120.00039186224932,52.60875925235023,12.653727368529053,-0.0478453775405368,0.6377594349264133,0.664893582891079,-159.06219601220266,1.2763133333480123,3.0170532627676505,0.9052977000719526,0.2080019799290821,0.3885620408304877,-148.61079108183668,6.740667846369076,54.55676396473292,0.3003030407913727,0.6816963434565942,0.2775295664152088
1.95,-95.56845205716034,68.81087721099456,159.1536292003372,0.097599582840153,0.067991602348499,0.7178885046204582,-120.3786633637845,54.431923806181935,13.242932349925644,0.6261908919253889,0.400437350516975,0.8235479351970169,-159.510523778159,1.3840190706482205,2.8229040334910644,0.3886512962471277,1.3307084317305713,0.7833094178776033,-148.84149241811997,7.016269449854783,54.57075368938756,0.4390510725441065,0.7365908537913455,1.7753706594937892
1.96,-95.02822790464784,70.46545894355882,157.59555279581073,0.5135768326278167,0.1209802748358893,0.3475202124650669,-121.18763858987614,56.66051451466304,14.15180574205019,1.0623286075097813,-0.0848628649354389,0.7904144777340225,-159.6726572295131,1.3929427391301723,3.150274886699203,0.3158945737665428,0.4422143682336307,0.2626463384377834,-148.394288150468,6.924648218538608,54.72844361632561,1.6819900593680328,0.6920617100801302,0.5227276055033756
1.97,-94.53510607237308,71.97979101015021,155.96493793415578,0.0142588081391414,0.187317609375803,0.6524522544001299,-121.7654515142142,58.535060682145584,13.684261685772046,0.1568251440235092,0.816347486284295,1.9504796759583265,-159.8592147743188,1.5386380016636991,3.449389012055914,0.7749761045743186,0.0141642639694235,0.2228802371742392,-148.48925001608885,6.947714690292147,54.77567870745559,1.0265842415144633,0.4590278724613966,0.988169467628755
1.98,-94.75309361268135,73.04322339192028,154.34585095451914,-0.0723013624013597,0.2355890209619446,0.989553859435766,-122.33850839923348,59.8293762200608,13.198439095196225,-0.0625832967297708,0.6460981312055365,-0.0402513002695183,-159.65931429072603,1.5278282713864246,3.544981638525862,0.5665213611232375,0.4229052324476985,0.5751268476054207,-148.5746575009156,7.014175376857051,54.831468778020735,0.4671223046057171,0.4602800201234125,1.6251711308770962
1.99,-94.50456493883512,74.30849994708737,152.22562731011678,0.2961800123247966,0.1235848775086531,1.0960676305259414,-122.84243897165646,61.739328903064376,12.365576511343471,0.5468829188800352,0.0857947049013329,0.6099611151593614,-159.78990204306646,1.737455818583025,4.112726518768366,0.3712046152403464,0.9415394315219888,0.9916891613495742,-148.85769248135725,6.700208301318962,54.75743273048052,0.791250740623312,0.1367598504528708,1.4890487316427632
2.0,-94.25315535570438,75.49691128549725,149.77608283876282,1.0915636083652638,-0.0040294691118437,0.639393532157112,-123.49430965980186,63.48852531621232,11.604447242827865,0.9785547605242196,0.3560489669203585,0.476654788872912,-160.1905123172247,1.873511239419522,4.312673060292936,0.2348100994885906,0.8191987585640172,0.9890337962191774,-148.98803547112823,6.921499155081821,55.46088595925076,1.1611949864582949,0.7299835129150792,0.5870949234566177
2.01,-94.4084536326564,76.57004281244731,146.9490021011331,1.0940941870649372,0.3505038327320892,0.6187394780471916,-123.7385232486996,65.67215995447413,11.043633716196288,0.8952428135526254,0.3459731125124107,0.1824502117711521,-160.46226877557956,1.9512442613772247,4.300399360129029,0.1905541982268292,0.8663456111679277,1.134150982393256,-149.18587252237472,6.608992291640513,55.83260489263076,0.4201774199806313,0.2658497115219867,1.4271721732222398
2.02,-94.33014876459715,77.52223958938974,144.2974905006717,0.5425551318376133,0.2213777872500313,1.3669044300998845,-123.637911102074,67.3818246240632,10.20800229196555,0.8370492195306672,0.950884168948558,0.0323541042930818,-160.98590361209529,2.2193300388002912,4.324783414660361,-0.0150630358153153,1.1279207315410138,1.0219949944804645,-149.6854370267469,6.313514732339093,55.92213505695303,0.3573657368628695,1.3527787158025093,0.6568088090200409
2.03,-94.47818717482652,78.52840431102216,141.3651571250837,0.441452490905721,0.0957763189201071,1.047850344763182,-124.39378043159977,69.43015499809214,9.901110782317014,1.1267471351027285,0.3147089539088221,0.3175900236727147,-161.42725256254775,4.971084753575945,4.279401131726443,1.482182503744915,0.6716787800935777,1.2371768405149497,-149.9317749055772,6.344667305271384,56.20527285460656,0.5016225515386686,0.577566562702843,1.418445308040984
2.04,-94.39487650354184,78.54337291144319,139.61247114117575,0.8451151292319661,0.3792138126633247,0.7334140624757584,-124.51097224187852,70.34403198356796,9.133135790624852,0.9773347454029322,0.2882342831885456,0.3704989918910262,-161.0680891693897,5.204153052527359,4.219201499130824,1.1887917647193516,1.138108652370902,0.8913459847286437,-149.91010824696752,6.205664776226992,56.18823316251899,0.6581026311509958,0.3789727657983565,1.497020351185319
2.05,-94.49621115866384,78.75219159296532,137.72788815145856,1.0609926871268132,0.599379060582383,0.4496543411865262,-124.51130645905089,71.47907108407865,8.797653737673793,0.8925565327856625,0.4679159078135604,0.3454126506460351,-161.3823044501681,5.413369254577999,3.818974154988556,0.515836141498019,1.7614461764078382,0.4741228975008235,-150.04661382220016,5.937065355820644,56.48344959489399,0.7628725065049555,0.2964557361697132,1.5935267667485895
2.06,-94.84502553297676,79.81589546146716,133.01335718301567,1.2119025571331503,0.3731508503702996,0.676927452338174,-124.58578736218251,72.88901974622755,7.872527662444789,1.143263154377939,0.0988992751092414,0.5243861981302919,-161.62868557982824,5.739938331204534,3.091603486325223,1.0273307944990704,0.651138580716884,0.1429775524522382,-150.09211207656918,6.546909535120132,56.31049913394206,1.026387777806688,0.5436211147363588,-0.0067511291788548
2.07,-94.5781646072951,80.18913110835351,133.25671049038067,1.0637639160236678,0.3094881069961881,0.8130218883871188,-124.76143707347806,74.84397746642792,6.351992794365299,1.5976289104854973,0.2522497469175271,0.7508117763825151,-161.9772898998612,6.538947766937756,2.538668538293386,0.2649404007286779,2.8507244558740044,0.6285101564503411,-149.81802459868945,6.461839629685504,57.03985270692446,1.302986696945089,1.8521094025498628,1.369366040716719
2.08,-94.75678249657088,80.8903984746969,133.3852678082979,1.0864837021983855,0.371498384807733,1.161914482165305,-125.65013239812856,76.55620316144588,4.502242548651823,1.248841602065954,0.8346153125266422,0.57225872782362,-162.71382998681412,7.495252926604688,1.4445894611543346,0.6908408432707669,1.3768451549452507,1.5029753432131454,-150.53960705125476,6.147478895020991,57.736804188780845,0.4465035744071655,1.069137585407277,0.5477948710571613
2.09,-94.93994414123117,80.92637837697539,131.19504987438253,0.9613932224026736,0.5147783055480021,1.0187077437288496,-125.50934592204696,77.56121396133632,3.800721356956793,0.8684973829489585,0.6528789992171904,0.1834737179577209,-162.8543861602504,7.6831653719767585,0.8349497949173,0.911754086309972,1.0227783016332557,1.2918817259650237,-150.80545604283066,5.982515301335344,58.30933760998196,0.1594782782444479,0.5624227260438306,0.5430635647442079
2.1,-94.70321093089302,81.4061758426686,128.81403626885088,1.2507877854725515,0.2188227354976119,0.7393539426766776,-125.38228846230376,78.32217498252705,3.0897497451198466,0.7497118919668128,0.4020343576873044,0.5787423962496623,-163.20944833323708,8.20737127691993,0.3655550392726318,1.7077475572227565,0.5532290859645668,0.1129933996790418,-151.01951178346872,5.840721352442006,58.6195393442777,0.0870348809351293,0.1765910447105272,0.669295553167778
2.11,-94.76504385373283,81.45924989068801,124.679939232711,1.0674462420353432,0.3405093384020814,0.789124154425726,-125.57590278590436,79.53026067148771,0.3068349270118121,1.979888912632333,0.8567312322288563,0.4033231126013061,-163.1504644102671,8.925269731051726,0.3895086036949874,1.7052158366518897,0.5018760976690131,-0.1209833379335696,-151.75774836501185,5.661799994246923,59.3464746961108,0.4314665072235858,2.811480835059544,0.5893808979676193
2.12,-94.68461413012449,81.7672337293074,121.1167455499931,0.7407833103817791,0.0498303714962426,0.7985791986322907,-125.7479564872866,81.58903007724788,-3.005409629249875,1.909049493163572,0.4798612724402515,1.0204764811940414,-163.50391839566737,10.215117317637803,2.0560183984277214,0.7990880332641702,0.7244561658600535,0.4495157587987743,-152.58598939092067,5.564524971796465,60.69841873168544,1.537790885815162,1.5162093603633382,1.0285199410476515
2.13,-94.5384919367556,82.17156451290643,117.81152890127292,1.6580086595042176,0.0564072229872853,0.6517038554529418,-125.6829084823146,82.86949465773118,-7.383904861624082,1.5170971574233243,0.7661403877101585,0.3016395509821382,-163.95810199558213,11.989827709244734,3.539939846618485,0.2125761655894401,0.5834215151796552,1.2024792982206656,-153.008047050999,5.635280101182871,61.63177575691241,1.1036561990318363,0.8611415101346214,1.197755786974267
2.14,-94.882516369591,82.50171162384741,113.33598662801892,1.9741078615542669,0.4033669530997348,0.565667593965021,-125.48443393111032,83.33284950709111,-7.455841259621836,0.6794294351974957,0.0212802698911399,1.1045690550585272,-163.64106906585823,13.40178665108556,4.9302124981953614,2.3833188209203806,0.3988076652901998,0.3186149479065975,-153.24243284697772,5.758443089788767,62.8087854873564,0.7213831899335577,1.4998962178470936,0.9441681667292006
2.15,-95.28548797496391,82.45509115851951,110.00172189512254,1.2833232182710392,0.6084501560417914,-0.0124460858800339,-125.96385690782894,84.90856831248598,-7.40420607812464,1.732943895000992,0.4346830801382271,0.1810677787878301,-163.93709059020668,15.543545829171505,7.005647696788943,2.168336671440957,0.66696743747509,1.6652472617588812,-153.4946102218151,6.158141493826109,63.67312323884192,0.2752302880516332,2.309479554631345,0.142073169752095
2.16,-94.96339955652,82.50344024991016,109.1377096409487,1.00569805461428,0.3927652296381294,0.1800250207914309,-126.28043367337202,85.56529670691637,-7.43028015656206,1.491230551332463,0.4982338791772832,0.6709222044289511,-164.3001611679212,16.254603218444974,8.035417668742479,2.2227812356096224,1.5119399738876829,2.28005158576875,-153.40515114225994,6.347228901785964,64.14172804991968,0.5909388162180846,1.8530933783339456,0.3670571799053178
2.17,-94.93140092189056,82.8926413436298,108.7991218388082,0.692153289374977,0.03082021424131,0.148681910718178,-126.17630167365002,86.12600808436164,-7.783131689090514,1.41568582100582,0.5775089285994172,0.76061948733233,-164.47409555392156,16.779148436905455,8.712745314245705,2.3072459450154605,1.8479913841927336,2.998103280110712,-153.32685970220103,6.285109380670239,64.72903281392125,0.8400921710428644,1.864805733204142,0.8129692645747885
2.18,-95.1232570624914,82.54687850448391,106.75127995827472,1.3670586656061936,0.3868058022870513,0.0826066788983231,-126.1629797989322,86.6380253210466,-7.538948320410965,0.8761492364362946,0.2232285326574528,0.5347535998850497,-164.26518090184868,18.922429276054224,10.722732389179171,2.452825391101714,1.0192987954675334,2.533629118294206,-153.38337892806783,6.628323390627554,65.47260077235792,1.356163010243134,1.6851056781680551,1.4580462738172548
2.19,-95.18264286575132,82.52946569782213,103.89294800857336,1.8527067836322069,0.4732474311376023,0.412710375585427,-126.38141169427018,87.10511798904058,-7.727807506280207,0.6972450150257944,0.5001830342645205,0.2948094446704812,-163.46532154214265,20.209401800355916,11.854123014207948,-0.1665978297586388,2.360186804843565,0.7481665137135418,-152.92338352988992,7.207359285037124,66.5312784304461,0.4444296144279626,2.014686187474168,0.6568733857654636
2.2,-95.42311792747071,82.81800782343723,101.649584365772,0.6938694097342466,0.8363301422525271,-0.1272642820998152,-126.4423598103459,87.00110623473003,-7.662744913510242,0.7403555895255178,0.5329427679903567,0.2448129652199638,-163.60883158300888,21.82388382116028,14.23276748419232,0.5766538140579087,0.8158719023108782,1.7940109185933375,-152.61367674480806,7.546082902652003,67.48887133910164,0.4373892569742997,0.8613646996291987,1.119402654872498
2.21,-95.70862911851243,82.90509544627966,102.26660286209228,0.2030119837392338,0.4327593807400696,0.2443320421302859,-126.19172909907768,86.68399136664165,-7.699650832688797,1.0257573440433814,0.4008464957164146,0.5506754247378953,-164.50766138404938,23.37304356654544,16.498825553475232,2.000012840809408,1.8424682836404005,4.534473422947435,-152.15880647215147,7.934199536948622,68.16355466103644,0.7332656837739338,2.3254269848826112,1.5903206958677676
2.22,-95.29123095430823,82.95700029855371,102.23851255718026,0.5353968631284427,0.3173826016111724,0.3725137129748824,-126.06972778910291,86.09495468092717,-7.586115796264732,1.2526096216728069,0.4465487484836067,0.3018949061420219,-164.57517383392286,24.54079543961008,19.37037246269941,0.6480938925478297,1.4162551196991866,0.925905779851699,-151.49713278522051,8.583187139604188,69.32362981207793,0.1362564833444535,1.3357107876920669,1.1240443932892004
2.23,-95.74031640701466,83.09885078409873,102.66687157090058,1.01623059012668,0.1080024049784691,0.2656529696068581,-126.4510520718543,85.38170625603152,-7.556754821590796,1.4417126954759965,0.4523944759297716,1.0427994748406455,-164.4253950264081,25.528934648288025,21.67743368926219,1.7564492525331232,0.7389753744758385,1.3558758640325403,-151.21170378153164,8.653907903230596,69.7632088848392,0.3968042124444138,0.8238472939092152,1.1120513541095842
2.24,-95.64867661944218,83.27156396382046,102.40435310552505,0.8436793384438619,0.4343087350474814,0.3281918425093177,-126.08689370256548,84.50631286380946,-7.602138505928487,0.6046318291631458,0.463234428733439,0.9668277944863568,-165.4024569164876,26.811217726749955,24.83526549462224,2.360342366240181,2.3419085101669115,0.9481665343337704,-150.91826748104558,9.11918348961665,70.51163314059987,0.4062193741626836,0.7088473505561512,0.9328590652910888
2.25,-95.70777259303736,83.24253885367071,102.33360901410704,0.0878451710159231,0.3727549320932731,0.3711521680946477,-126.0348327074252,83.90781174390142,-7.5324344225299535,0.2975426177825419,0.686938701533236,1.357680552044058,-166.19485046373953,28.29241935546052,28.271641465911102,0.5798730110592515,2.9827669513634545,1.9198132736398976,-150.2480811610591,9.6755242159869,71.50789556727882,0.3422376240537257,0.2819536244195744,0.902436251711468
2.26,-95.74201999625878,83.53950129356593,102.56253437705584,0.2208661834960778,0.3296986787428305,0.3797435921583681,-125.98327875322964,83.60726942997992,-7.717505992651545,0.2928551468645514,0.1852531361572607,1.180777258264744,-165.72958153682916,29.635605407019145,29.99228635613371,1.2154650491979544,1.6051047270265413,1.4534945816887224,-150.02383450914564,9.470689514621167,71.52417979190969,0.2975986953760123,0.2658599873250124,1.2942852590236995
2.27,-95.8239173408708,83.0037090075696,102.41658629623332,0.115295482757485,0.5746307108865295,0.1779776985659479,-125.89279780437622,83.30345712447688,-7.857790940104381,0.584202133078326,-0.0290325736207044,0.705021363741921,-165.64816603544614,30.35067642305768,31.224138219284026,1.888782534086479,0.1341622188456734,0.9141685210767422,-150.00873573775397,9.83128528925714,71.87535470954624,-0.0348364386801837,0.3977437229761948,1.2796639114038797
2.28,-95.65938963386408,82.97658061494819,102.60549660197094,0.4521132488387731,0.4974750807785483,0.366447583608499,-125.9744587116113,82.87709017129903,-7.650290691702633,0.8821012033645284,0.3851175305907519,0.281618534934299,-164.99082753942665,31.3962729296816,32.193912912661766,1.6115198294922202,0.6201113029915398,0.4252968157003619,-149.65666243259176,10.206181087309089,72.37452121987438,0.2832832957174322,0.2005711716086317,1.6629324905439933
2.29,-95.82008213241286,83.27650452068731,102.65903589796876,1.0307869534884992,0.5976775434775103,0.5210150152063405,-126.13654099671284,82.98704504117035,-7.877481005409605,0.8682363725312167,0.5366655479055876,0.0183702079088344,-164.32933728463505,32.469891829093456,33.138158773365696,1.2820000295160696,1.4533595108150177,0.2687372048606354,-149.24150041263178,10.44592771142993,72.72860912234697,0.5113863843815649,0.0775175776615401,1.694771090099119
2.3,-95.71528790349286,83.3068405838803,102.56132294203388,1.1109546249993374,0.3457406942068318,0.0481131413609424,-125.90077416084488,81.82953658093379,-9.56134454245817,0.5459334656127964,0.4413800328430704,1.1413583945058092,-163.2613403634768,34.19147093188157,35.92492278974057,1.9594668766494616,1.961060259865624,1.1369727983721152,-148.63913913999343,10.7558568127068,73.15430825789969,-0.067932884179076,0.4397701684878757,1.417092466318665
2.31,-95.51998851203072,83.10868152717288,102.47867242179149,0.1836244600101081,-0.0614715510983725,0.882107641660062,-126.42411296447052,81.42715729132861,-10.61045701292929,0.4165080723007024,0.5325648245254653,0.7460671267233099,-163.4548239105961,35.572591157903425,39.32310819057614,0.7242796794739943,0.5218321199496572,1.6706770787907006,-148.26197275904798,11.10474717315876,73.77562746219915,-0.1500088955518805,1.1445700733069903,1.0952702342483114
2.32,-95.60292645111925,82.93861783454139,102.5263228992102,0.0778760749362992,0.3265522008947882,0.7971778155758322,-126.15431047310396,81.29751412860321,-11.632916191969503,0.5727506783320554,0.5390178938694017,0.2181235632415828,-164.36933004980793,36.26351282109855,43.29460770595136,1.4040726957438594,0.2864078748296699,0.9237926969147536,-147.47812326385306,11.0575611748299,74.50502947354283,0.7033537407575794,0.4066858012423922,1.1946455526407933
2.33,-95.63016781611074,83.13249939333082,102.635912338485,0.6232551629821588,0.3567476781553255,0.4961137101004492,-126.5245595386569,80.5676385423933,-12.4114053665934,0.8817325675564299,-0.0238884542428683,1.3932332827039555,-165.366543471595,37.0045167662959,47.77654203864668,1.3691655469393833,0.9235478221530418,0.7520162776539172,-146.9447007278209,11.511520548593618,75.0243689321056,0.2051768319152848,1.434836183123933,0.5700767399597366
2.34,-95.761328895814,83.12722511545942,102.52579527626388,0.3270528441214169,0.1406490150224881,0.3365524386249975,-126.94310826832876,80.22554797318269,-13.31699302716898,-0.1366568866456288,0.1588837024281577,1.3966781662055945,-165.88128708216362,37.537926487654026,52.22877513248383,0.4646784760076979,0.586155614418874,1.8920676662882343,-146.53448996627642,11.86773472102499,75.42442406822879,0.6477562908473878,0.0111609400754995,0.6288305072097662
2.35,-95.90655207019756,83.05372873683103,102.58580151523212,0.3786862325573105,0.0189545192685582,0.6422815699761073,-127.11680277759486,80.12157746723656,-14.05654131126363,0.3929961824225303,0.3919687796209207,-0.0490845813619922,-165.9768593508523,38.25331861987915,56.28090022168266,0.4907992957117434,1.0595455696646527,0.205909558632466,-145.57355923339182,11.976188178578171,76.33748593112085,0.2167431713944615,1.9354131365665157,2.6447282805749177
2.36,-96.31140765888858,82.99526313459239,106.05577909629564,0.971639498019885,0.115904516528984,1.5714303473213336,-126.96816197752808,79.83265994446883,-14.50096810931175,1.1035264180384985,0.3188329001659327,0.4528280873974377,-165.65111860483177,39.505135904476845,56.27312600620432,0.4887410954634331,0.7370962815526731,1.259763063876793,-145.4710801758463,12.335663995576612,76.68942060654355,0.6029240674419062,1.383046759973248,1.3566287870635187
2.37,-96.11359655077284,82.79906169920433,105.89919471032836,1.322400678833895,0.7403666610075743,0.8484277375183484,-127.5276209237264,79.341726058312,-15.602455224762895,0.4369791953809022,0.5964628012417489,1.4022767952932988,-165.43661322392768,40.48928612298776,56.0174592432961,0.942369735160324,0.3135016682251422,1.9680071220886548,-144.96991898752836,12.47963074739876,77.52036830281757,-0.12066641485894,1.630251128440217,0.6848500297075899
2.38,-96.13515185259524,82.95152178931485,105.62932312803736,1.1221294884497788,0.5721804162809535,0.5083523905342006,-127.52652863304394,79.1499532313249,-16.455608491517417,0.2852120166048768,0.0878519687737074,0.7461566859727371,-165.1356977115703,41.22866160028448,59.9977282156012,1.0465119448884936,0.2034599570421166,1.8312479015559424,-144.79726893703938,12.968225414994038,78.50688102606938,0.5480681333109799,1.380814178374506,1.02561317371749
2.39,-96.1120728796353,82.78618922988322,108.23607064787718,0.4453455186923681,0.6220774906837329,1.48171310449356,-127.6517523562908,78.64889374859543,-17.11334746197878,1.138613368761352,0.2639794242771483,0.1038912822127154,-165.06260902114886,42.14029934216085,64.96280808562867,1.3744184952313905,0.4294216552308129,2.210587015865018,-144.4798550075174,12.831022330520344,78.9844830031509,0.8192782815179765,0.909258376618572,1.1394566125047112
2.4,-96.28247215206513,82.78171823292976,109.25651064592768,0.7163767446481546,0.3024542271364577,1.9031688563319245,-127.65526688170372,78.59945734853946,-17.182295742176176,0.7210559414806864,0.2225255770737058,0.713688938461746,-165.3902953661016,42.47830256242461,67.06000035961615,1.268043584344765,0.2874613355105635,2.005509369073104,-144.14613677612027,12.692566740320204,79.3819848843731,0.7193297363574135,1.167712064250208,0.7590001725541708
2.41,-96.34234604733614,82.84998387348762,110.2990603246405,0.9096910601706728,0.3512303469238911,2.408155891163972,-127.8230994637658,78.20727443288904,-17.121901898652354,0.6357515053952565,0.2249381009114406,1.2484981523054723,-165.25804946707115,43.15768828316864,69.34969804000347,1.02247586437905,0.6043851765654139,2.123223780672929,-144.50509154332144,12.37903285222304,79.49406380593815,0.6393885814922864,1.4893641075742812,0.6154693794776588
2.42,-96.3066800770392,82.7291069520996,110.35060559171066,0.6347436451339574,0.0884246555229962,1.229403847064495,-127.91597554857108,77.64990464013827,-17.611305640539058,1.2929673808706996,0.6265014913292909,0.6566521594305177,-163.94595952834624,44.55390774468808,72.39356497118605,1.9820419964271028,2.428494394514728,1.009083332318527,-144.03861410446797,12.636337118584157,80.48284071481942,0.6382408743763691,0.8613571328292355,0.9030071121936196
2.43,-96.73468631291084,82.54346595250856,111.54729511170302,0.5541175907482331,-0.0587347834034951,1.088967336308197,-127.4957607515896,77.80068908949465,-18.35800392944008,0.3324133243437211,0.4560538312011361,0.1734634565631856,-163.40415107997876,45.135647419620746,75.20767832485109,0.2110661097404929,1.4687833600737534,2.3299720141496465,-143.90700003168988,12.600233072794127,81.14787315373893,0.1410989949103088,0.0333725447875806,1.4820631459043454
2.44,-96.67202152210004,82.52951185215674,112.0750983425039,0.4575899773317543,0.2812221356978195,0.9017108592238784,-127.67735582604104,77.48206600016499,-18.71065564047319,0.5344613057062352,0.2128786679922904,0.442952381808767,-163.6594588530216,45.23341007350432,75.98100075518164,0.5471660935570883,1.654121989163578,2.015055882943523,-144.43183642662066,12.53625919571053,81.41507854932006,0.3149321050711066,1.108161431356775,1.7708024217233016
2.45,-96.85984867925546,82.2047718425004,112.84618375697346,0.6376028796977137,0.4220951487131251,0.8318994075946291,-127.54397712677684,77.01782318942024,-19.01359731241643,0.083673754837262,0.0048410456178963,1.11912718628128,-163.7410480549568,44.986709515257125,77.16904736021802,0.9608751664911348,1.5449813045728982,1.7925270415319607,-144.35389913619397,12.280943934711033,81.95365300928111,0.2263592096106516,1.853576237440269,1.4650960903593373
2.46,-97.24636586504278,82.54079042162552,114.06281502512728,-0.2657963423516301,0.653648105272149,0.6689904978413859,-127.56552755603428,76.70374432462403,-19.252744526938617,0.4896537409184622,0.2820092067369183,0.4038790346109225,-163.9065219950278,45.34279993516216,81.151167799337,2.570076341675456,1.7304739379648033,3.1896643014197887,-144.37257889547024,11.923563993111172,82.78241276723645,0.3295233373447728,0.1579285778320366,0.609543978961941
2.47,-96.74577367877755,82.4430136448118,115.39746917878692,0.2073003113145327,0.4256733644366691,0.3245940735479423,-127.24149237129949,76.60058724921463,-19.20181630742209,1.7834744104740792,-0.2107260247328413,0.3630025479201038,-163.19139704451794,45.61447139662241,84.20175135370059,2.2434566773157782,2.2145250926509545,0.2194310614987825,-144.30848700675634,12.243410688335985,83.38733622398858,0.4707060216775922,0.8434203488825452,1.1916124343527943
2.48,-96.67683655032802,82.01104100254594,117.05652041063894,0.0781082055175688,0.1653105809205268,-0.0238918047817948,-127.33241549447315,76.63601915815548,-19.395429775905907,1.8675362464776215,0.3902022498434918,1.409292512433885,-161.47691811235865,46.945398100793454,85.98888608224019,0.9867852728214492,2.667925373307948,1.5452283551885426,-144.10176098889974,12.036944789909278,84.30241026172276,0.5203669461832903,0.7384521341427557,1.3931678091632151
2.49,-96.44863905530346,81.9009523237344,121.54980466358973,1.7014698181443746,0.7625166596311742,0.658317336649693,-127.48761285205792,76.28672570023309,-20.22062793763372,1.5451428534043836,0.3431903493125844,0.52157096801774,-161.0669659279963,46.89360796942404,88.47454965607486,0.9665293025206896,1.514746502097115,0.7522821909331161,-144.05406128226244,11.81889026233044,84.64994259934852,0.5521453070979188,1.867064185077625,0.5567725949290532
2.5,-96.03297619638867,81.74356579535271,125.09242064792645,2.2431449175654192,1.1992318270008562,-0.0662003004756491,-127.20541488138971,75.96440609800271,-20.749036985723144,1.5157225202148483,0.1918295392457846,0.4307725122196004,-160.35024379039842,46.89418931502408,90.82106594395388,1.8286434624990748,0.6323577233526854,0.5588426891014087,-144.17996793360757,11.442104012828064,85.55697364437863,0.528481312233229,0.7805023791777814,0.2022516710267229
2.51,-95.96283121180116,82.20330053745585,125.33010223187344,1.1312486604349463,0.1995373530500983,0.2409536091227918,-127.25494198727006,76.02232319502843,-21.406878698188866,1.88026217076326,0.3949496940286331,0.539404126742614,-160.49978274044776,45.890918238278026,93.00780696454343,1.193142081802704,0.954568963451055,0.5123351619631445,-144.30385161968127,11.136013697056557,85.87592488639964,0.4999985415861402,0.5516753242108499,0.8050326169906518
2.52,-95.86745455731192,82.19080090505447,125.28548033723536,1.238000501163999,0.1654401484937972,0.3266497541024966,-127.28039773734208,76.04487247564339,-21.432669815122598,1.2112126758701214,1.0726382019848817,1.3571017252678563,-159.98432848994034,45.44374356810089,96.75006132484094,0.779342203196731,0.6348534117335136,0.9120486468891028,-144.3863713305215,11.14798662468415,86.765566536478,0.7006371107641101,0.2493483758870818,1.1284526704482156
2.53,-95.7320144510158,82.23841260824167,124.89868997258834,1.1774749535991642,0.3888381565144664,0.4901139079071118,-126.96191485782714,75.91961445278484,-21.845378767828645,0.4345050781683146,1.5882948309392997,1.7595304748240332,-159.40546016022606,45.245477693610766,100.60188767722296,0.5789525283773459,0.3663937830202753,0.8905307439743989,-144.3680874087962,11.168949701284072,87.01752556928626,1.1690592619324731,0.1328035758752858,0.735131415487196
2.54,-95.68303655747236,82.31036967655858,128.11867593418245,2.5347917410982284,0.1569598000952079,0.1477386707109448,-127.22381906838216,75.55038265362852,-22.36590470022465,0.3118805243648979,1.0257536539119918,0.5185693460268832,-158.21581250888332,45.366267750417705,101.92489302013824,2.640028219966478,1.867561728900879,1.063263379792594,-144.6975456819947,10.7596152665341,87.3294269940578,1.310889205980812,0.631736105992791,0.2494896210768121
2.55,-95.97342709354162,82.27421955547818,131.6821093037898,1.571249083038757,0.2504307171330512,0.2802282391795345,-126.91883681894257,75.89378583386043,-22.43951137574376,-0.059212924917655,0.3008211626837097,1.0518971109517654,-158.06032871449446,44.72244235443183,103.20259359496004,1.1621734245030702,1.4262264569925616,0.4930566047200519,-144.7691031561409,10.543188126372556,88.11750813935933,1.7720022929301869,0.5424542416852619,1.0477941770374226
2.56,-95.67215155624037,82.20957995470039,132.2139708188784,0.8255537622305769,0.607445735876308,0.282570378508949,-126.60012050927774,76.17654096117396,-22.489060676661808,0.6462910349945109,0.1542916082572358,0.915866989011308,-158.74070326384455,44.67638703042452,104.034024969753,0.8563635086556292,1.4756985258073858,0.5530925433819691,-144.34323591984918,10.631039419952796,89.08101815948564,0.311605307294198,0.453107433254957,0.9827572450630296
2.57,-95.47964284296935,82.40719622149473,132.3910171317605,0.1608284940836291,0.2656146327464357,0.5585186570133815,-126.74374719916204,76.35929347893507,-22.55164583319477,1.1446376353792114,0.1161276269958258,0.244008213466159,-158.06319260405485,44.92278207218668,104.98623626544352,1.5772951081380446,-0.0559247794575616,0.7118227831350389,-143.77226318405602,10.812978732582122,89.80288083840313,1.7571871888979729,1.1044347620397597,0.6919061981044535
2.58,-95.66202010577244,82.41206247161298,132.84171475286905,0.267418932698523,0.921785787291188,0.4358444147889762,-126.60044234639844,76.78497929935092,-23.050365326149134,1.9052645884406103,0.0052045900215717,-0.159863534960752,-156.86200556284024,45.32828112747416,105.62809910163028,0.1790039007194834,2.028304172118261,1.6911113840550585,-143.96543294566007,10.867374489507265,90.46334001801829,0.0058761577726573,0.4089641534247465,1.169633380781088
2.59,-95.42253700170922,82.27271474739749,133.7770253840081,1.0852034192678697,0.8826558744942822,0.4347090360850453,-126.41493028027108,77.74078728537773,-23.54544616617353,0.5536281696821866,1.1257525205915262,0.3528576521625494,-156.69542891476016,45.462509310315006,106.8302823807901,2.317939482016817,4.523610013370108,1.6161436530964517,-143.5150026212994,10.812723188503806,91.0457233865179,0.0128268387371668,0.8641859779381272,0.7278418068721381
2.6,-95.24195182402836,82.10452533206383,134.65041673840994,1.4853983989433337,0.1833956603342397,0.2877770761262476,-126.66088320755436,78.23666541544704,-24.257846921279825,1.8735232039263137,1.1282769667379466,1.1563005988500257,-155.61736851433682,46.058180362039984,107.71017814274028,0.6278582333573369,1.6654192251393622,2.708061510591529,-142.59568877242216,11.33555240406106,91.84256870188956,0.314552043870191,0.5991854038402821,1.4412984326413418
2.61,-95.25971634483648,82.29532661601,135.6767035022424,1.6643748945373598,0.3405689042350705,0.3140348042918065,-126.58967878184308,78.43408269849016,-24.778020721935093,1.3567031632615416,0.5284538811890007,0.730387197609338,-154.2404177766821,46.27072899799748,108.1511079338008,1.393513073190379,2.493100919514459,1.9143941611558328,-141.81474285332143,11.762963599459722,92.2954864344914,0.2336046996975994,0.2789673008677582,0.5640310983127725
2.62,-95.1102221380719,82.13748244451494,136.35111982938784,1.4441012846062582,-0.1409809795084751,0.5006801546363697,-126.79384681846454,78.8908469969484,-25.52513309222062,1.0579437324557708,0.1280460915679688,0.3701998821252682,-153.74466445965564,46.66321266740752,108.5840731514941,1.7116990303983883,2.680668469550888,1.126542043093037,-141.69066165195753,11.523884543416337,92.60729130605546,0.0219711672344199,0.0806372265440358,0.0988275192940028
2.63,-95.18770414387572,81.72372535477008,138.04657683614545,1.828732188501036,0.4084513677489737,0.5623357559250863,-126.7963658817518,79.64879411928955,-26.294068190963237,0.0085363338751871,0.5937581720854416,1.0390479411456437,-153.26733819117263,46.0465306797568,108.87013363605976,0.3028545855906874,1.7567618452188352,0.1784985925960244,-140.53567688358325,12.26099830664717,93.26357945112566,-0.1245261821887454,-0.0347102799439727,-0.0769116259542268
2.64,-95.23034359091194,81.54591069404779,138.61335837502594,1.722286146155705,0.1937979333927864,0.4892549886206267,-126.6589094438208,80.01675336472135,-26.31048755525392,0.3629194207259068,0.7420541557143305,2.180820878737974,-154.0700063054298,45.60976784916035,109.3593004347451,0.7408516586937575,0.7592107849985845,2.233997459172004,-139.91789897465216,12.70201441471031,93.92785215795392,0.0223353123711051,-0.0616483448504761,0.0311877499238193
