0.02,-89.89026916789658,80.82803691321357,134.5248899132949,-137.38012618734714,87.05644793575347,2.96770241783914,-168.86150168337258,1.6891910926880482,4.189740444078875,-155.29397752735636,13.93266057702292,7.010201283714971
0.03,-90.162984043156,80.76884967030702,135.45884048313252,-137.6077803641614,86.79191777458503,3.103441404475379,-169.02379396247343,1.7039595301760198,4.127234642624426,-155.37103256822078,14.070550831808092,6.887865728468563
0.04,-90.2722579223034,80.51557137061924,136.0431224518674,-137.6495545670738,86.60756414338402,2.824525854698225,-168.82369311257946,1.7161383466535352,4.267413478400617,-154.9920882357053,13.856402204888996,6.654246249836876
0.05,-90.61283047121157,80.24225401397139,136.92682087016513,-137.634948969836,86.23966198192053,3.184011593432898,-168.79755166106412,1.682014184721174,4.299710479000924,-155.35071338306292,13.989113677515508,6.607589079781966
0.06,-90.76468554000768,80.11962683095197,137.55389954443646,-137.3868958265892,85.38842064759179,3.6022612272306493,-168.9849942661854,2.153867327751971,4.11090409178145,-155.46128196170798,13.9371564007021,6.753963716138038
0.07,-91.04754604292734,79.96274053088092,138.96329733785046,-138.23757651813634,85.00671084127394,3.7805516195215407,-168.94254165187493,1.878838948251764,3.81326040934618,-155.1728205596634,13.931726704127511,6.591613267564798
0.08,-91.39051832743036,79.82110630819689,139.945248363184,-137.83119785304112,84.5326327003392,3.673543677311082,-168.61974514386,1.956053222914224,4.294894979209679,-155.3949438671208,13.764011849148204,6.476361732396535
0.09,-91.89145528903408,79.42027458308964,140.65493156867169,-138.15441885801394,83.6752409575696,3.663736553738393,-168.81667642455508,1.9677868412370307,4.157244357280114,-155.50715051976175,13.998514691103605,6.561334226842787
0.1,-92.24655971732616,79.01153498725283,141.55499569734866,-138.18993542695117,82.44335343031817,3.772555422516634,-168.529666701181,2.049051741966136,3.844096581815891,-155.7601360638657,13.827590957417758,6.62393742089879
0.11,-92.89510511191652,78.85105573937923,141.79210143563216,-138.69569047043927,81.4683892415205,4.051660579300015,-168.5452131858358,2.476483899104277,3.849543896582887,-155.6999267167499,13.77786157532375,6.186430884735425
0.12,-93.13115762975754,78.56626630419673,142.29670500397322,-138.730145500028,80.52818814985685,3.834120526342362,-168.2586950786155,2.3191384478756083,3.937954132160187,-155.90174260476746,13.943539440796195,6.22873541965277
0.13,-93.0923437044208,78.06871361096806,142.63607334475668,-138.80943596115316,79.56589850767693,3.969401617147636,-168.04345566660348,2.416776422566964,4.009300585052066,-156.35142931000908,13.875699045472754,6.320744757482852
0.14,-93.81820975431756,78.01182956854765,143.42893073565088,-139.28189054182457,78.1105783806528,6.043875695441933,-168.11560432046494,2.348587454205633,3.97016230151316,-156.01294442034592,13.907519180596324,6.32607004758377
0.15,-93.86538295629028,77.36010997353715,143.90527534488203,-139.36453262011418,76.22542740079057,7.820231068147211,-167.78409700054124,2.559827471213739,3.658260616628812,-156.16540916176712,14.03619555536118,6.485396194472733
0.16,-94.52842071659006,76.70664661946114,145.2571900590014,-139.75895949968307,73.77399211740808,9.563904172288176,-167.70109920704553,2.695380111901533,3.65689662918484,-156.38802016669703,13.839444340361291,6.655379395049918
0.17,-94.82348691756968,76.42722270201253,145.5158460713198,-139.8477507576954,72.88945565198925,10.111861579890446,-167.63137029018688,2.9426851599259,3.79707125543706,-156.01998141634644,14.017536635679887,6.419570507880405
0.18,-95.31088693982754,75.96539193775236,146.05090174650485,-140.00277187730796,72.24913836456169,10.087729241533616,-167.6668083461727,3.066358690903057,3.764273531094691,-156.21253777766037,14.09437197592412,6.3672218172948885
0.19,-95.95476767325196,75.16621433454043,147.13280394696346,-140.14266027509717,71.13655188288867,10.513406823816483,-167.33096605565007,3.0836208132568097,3.604623856810629,-156.01199015735082,14.040390321235035,6.351114041990767
0.2,-96.52908371705922,74.36533738925559,148.35715199796962,-139.8422966757827,69.6743246213469,11.004253972591725,-167.309932822297,3.1312194234454607,3.89366994947179,-155.95375748756626,14.072844772257458,6.017644466842153
0.21,-97.4472485055604,73.33725929786819,149.81546711318992,-140.07546224008578,68.4402562887128,11.6952839821005,-166.94954272870098,3.335089659698129,3.649690366230278,-155.80880035938128,14.011494337206395,6.015725127592016
0.22,-98.01323683798049,72.18904345935213,151.27870110430206,-140.1928908244687,66.99167745232332,12.340845274449013,-166.57297127319927,3.469311266386651,3.740602548392285,-155.88310850005962,13.930209923102945,6.02937387194784
0.23,-98.25805440961994,71.49520471090858,152.13323733368173,-139.8785764151753,65.39349423904913,12.973301768065284,-166.15208946211862,3.466534965791502,3.472287065504851,-155.45440925191812,14.27420020215689,5.998136890111175
0.24,-98.58750310555207,71.07773563949317,152.60922594053974,-139.92514954883916,64.78876303064153,13.137382340912108,-166.22640523677765,3.531975036333564,3.771871814320059,-155.37837961746098,14.28396337346045,6.252129810614605
0.25,-98.90942675009184,70.64235987476037,153.40701459855413,-139.96524853742034,64.16919692585603,13.33739500379452,-166.18200776528653,3.7001896558483054,3.657213148196348,-155.34937992931373,14.338769218355974,6.238194112198868
0.26,-99.00992520311335,69.70073246484618,154.44638721550226,-139.90619970288415,63.11859804786701,13.457923286910544,-165.7340093548554,3.803210348726945,3.777558788390356,-155.17387335621316,14.29388399058011,6.054832159302615
0.27,-98.72658932696928,69.28109505955457,155.46436938981194,-139.62949438562308,61.968145027091765,13.704027564430968,-165.31634654940407,3.663772486757154,3.2259154423117207,-154.7540438942863,14.310800654164426,5.906957605350333
0.28,-98.43295682874624,68.75076933904074,156.5090546642736,-139.57829512433105,60.676683367611176,13.394655588838884,-165.31230742718623,3.471554404184991,3.080119702805905,-154.25894762375654,14.254884162226636,5.795675832143765
0.29,-98.75847705071251,68.07628978636147,157.6765558956599,-139.5696921818457,59.44043904280486,13.383771045562902,-165.22124830197,3.680427473668702,2.7860946126959534,-154.28612308173257,14.355892929403865,5.675825797616176
0.3,-98.78989193635496,67.20764121722891,158.33287336979714,-139.68632348295893,58.8031582005729,13.44655489878815,-164.73866883575226,3.817820872469419,2.543228671808002,-153.94756741713448,14.50863882278352,5.494928141887371
0.31,-98.97148002231238,66.60747078809625,158.84750038055395,-140.2498311985961,58.06503962931055,13.613774287734802,-164.6285222725065,3.822479317777766,2.199104807153597,-153.7200825653669,14.795303377907285,5.70070695060349
0.32,-98.77656477219526,66.39917624918344,159.63398345612998,-140.70469609920812,56.96044314547939,13.305514001745038,-164.1872417775986,3.848819717167456,1.7925084690514996,-153.53051107165328,14.733961649588696,5.942058497000811
0.33,-98.69688834044752,65.90450384428455,160.90517110043268,-140.8376755026299,55.73684711694687,13.5609895400719,-164.94510133916592,4.106499044541795,1.924808475449104,-153.26977127992598,14.501638436095408,5.767738236903899
0.34,-98.68965340431218,65.40585864753619,161.29334804024384,-141.17406213143954,55.28847216249548,13.50685641874413,-164.98246495292685,3.9528638255801463,1.7772992619131067,-153.10362576898706,14.69559543155436,5.692089011559773
0.35,-98.54613946115894,65.24422069967021,161.7382924591209,-141.26792368781378,55.05706550981439,13.339793360111964,-165.13689604414523,4.1599055528442594,1.7523216012625868,-153.12405979989254,15.100661421812008,5.6501207707281775
0.36,-98.65723232604098,65.16776306378911,161.7906170334544,-141.21829994055284,54.55639138119132,13.441070884424178,-164.86539107872616,4.3033113437752375,1.965235842900032,-152.8185701740535,14.789207726820258,5.908596976010973
0.37,-99.23776136239717,64.70052023887942,162.0914273315715,-141.1413115158262,53.96793426655479,13.406840606107624,-165.1006612628585,4.177612200474004,2.0234767844639587,-152.89461482424116,14.873152754936545,6.065343342287784
0.38,-99.66152577178296,63.42840929028599,162.26670062026955,-140.99903471691417,53.03435516728226,13.539620733113988,-164.57116297510825,4.3739924828373535,2.192269427357168,-152.58910234165864,14.718206328387629,5.6221706043358495
0.39,-100.703858021247,63.28954257913646,162.0315554560703,-140.97821261871874,51.87207092242709,13.613604973073976,-164.7887994942846,4.316552376174764,2.229018082893212,-152.69865441630813,14.547654330649522,5.60555701584624
0.4,-100.85689038375396,62.55440273842507,162.3545619155536,-141.1204691041995,51.12981848852392,13.56375078908512,-164.84166046746134,4.276558770861499,2.5422091315265454,-152.30228367646595,14.80116263123682,5.822984787817892
0.41,-101.4267732084718,61.767841753656,162.47084446616904,-141.6485726511633,49.586151634518025,13.2123521336192,-164.69759491442525,4.519691219191137,2.736288954703115,-152.3757593622516,14.703675381549688,6.0506588680444215
0.42,-101.43540626316452,61.30325827635452,162.37703079399444,-141.299288557163,47.99433323751749,13.163598480335166,-164.8686070675423,4.6501622493498,2.685442477505761,-152.2158771670143,14.68068638447144,5.7349781865393945
0.43,-101.75655715631024,60.91312782396825,163.04641770424087,-141.22518884016142,47.36779093753073,13.400441877239718,-164.22562056967104,4.509967722131829,2.4537805258866,-152.14969995507786,14.532722166444534,5.762952609733223
0.44,-101.39417156248837,60.66566471334345,163.4308761053118,-141.0865090461241,46.44364122359521,13.26674245632166,-163.86446141617347,4.817187389377033,2.753017409331012,-152.1286996549989,14.383371606008872,5.693114963922854
0.45,-101.71593350891338,60.21930029420975,163.23072656605558,-140.62326266919914,46.232543071139744,13.205194324373634,-163.733864947033,4.843369397310183,3.0944226335604954,-152.1971820908991,14.63957372653718,5.424560859930632
0.46,-101.52714175214648,59.92264809010375,163.76092639419593,-140.0880992631291,44.4815713868632,14.182642103420632,-163.43681476672734,4.927816869982188,2.976595073718517,-151.92318823338408,14.45457394805646,5.413808730624406
0.47,-101.19599070987744,60.23081896743725,164.11381925159185,-139.55446693516043,42.77484336721974,13.430806874766404,-163.12998617636018,5.007141003320923,3.232511403323624,-151.70060812199924,14.618333647324798,5.637257545855289
0.48,-100.93897621964324,59.68089868648288,164.5539539736592,-139.67325385084885,42.25077480480319,13.311768627616056,-163.0257594051693,4.784671632355274,2.975814500128126,-151.58801389211408,14.24643769491392,5.6440845359695855
0.49,-101.11708914777994,59.39446650810071,164.91310664864895,-139.57629927878207,41.73596103901385,13.192095553503908,-162.77757910816422,4.669270791147006,2.971609805285941,-151.9397530800255,14.173226672758087,5.341725554812016
0.5,-101.30245495206744,58.66504650486271,165.13484161534294,-139.52562122858856,41.684645532562,13.380084973421251,-162.65704671608566,4.920367524925572,3.1421319067393974,-151.72672868513217,14.621234742586806,5.532144092007226
0.51,-100.25534376521954,58.53518908390328,165.68525208659494,-139.16151364490693,40.68137848996804,13.435682684680277,-162.49629073062866,4.791077069523437,3.352635578239094,-151.86390050579337,14.47478011469422,5.4148807983894525
0.52,-99.19126439030435,58.93543843305271,166.28505846733222,-139.1304433761556,39.9727237514194,13.139428467291204,-162.386011099344,4.932413012365296,3.734671856950661,-151.9826362567418,14.444535663377728,5.752729923202598
0.53,-98.37915281874768,59.46088895045803,166.88644968904336,-139.03154342127462,39.48753860272279,13.197219740238864,-162.71786604353397,4.969407574508896,3.60907858311227,-151.9252814552996,14.482833629668145,5.376237421659389
0.54,-97.5151974815316,59.21244601909842,168.02537861985363,-139.07463118383595,38.91635069617862,13.172625487222916,-162.5621671204599,5.051246296987409,4.031819701147998,-151.6714091100339,14.424406097621286,5.325971108108035
0.55,-96.92505505946266,58.241429588213805,168.36610690828354,-139.20525315076117,38.39583051685581,13.654854938153743,-162.3297664191371,4.478318433519484,3.772569750141193,-151.78948003012238,14.39769751866292,5.27867477588099
0.56,-96.20287797126986,57.88557722480773,169.4294382122108,-138.96948912587783,37.84990598084497,13.549751841254697,-161.99862493561898,4.407057483002881,3.7227675732844783,-151.8120023403195,14.63225683586926,5.286788214765989
0.57,-95.42644534120213,58.121137601293206,170.15326829514314,-138.72311988758463,37.81450110462252,13.49495050492216,-161.45543372550017,4.578178290842725,3.8264491146751594,-151.82557986336332,14.57895366615118,4.880963898193188
0.58,-95.0497652560269,58.11722159886954,170.81315272347555,-138.49127921132722,37.12748538842703,13.43252082654184,-160.9430337531969,4.413237558023497,3.6598436416976976,-151.91133400249373,14.325530175152904,5.178450642690044
0.59,-94.5508846622259,58.48314554700509,170.87723300458092,-138.57399204238789,36.3039737169966,13.605174460400711,-160.60538711020965,4.593584924848769,3.854861085640252,-151.26299746018893,14.283008632451876,4.969116108904271
0.6,-94.40009995890588,58.30723777022091,171.31019766188817,-138.63549638671833,36.30490593122612,13.44486314505207,-160.30885145534313,4.593183216201921,3.8450521587552857,-151.34633509004925,14.314939756608185,5.150204501530524
0.61,-93.79173051115332,58.54489854474142,171.28129643724668,-138.50785895717192,35.78230533512521,13.586360502725125,-160.36198870932063,4.479943126257555,3.78417938159238,-151.35287963614425,14.537634929550125,5.151097049430066
0.62,-92.88972424961317,58.35906985771447,172.3850838072493,-138.2086746136545,35.29296643439914,13.53476323968787,-160.1518446681095,4.423975634002112,3.9045131041312113,-151.20208073681383,14.456543054050108,5.055158615196931
0.63,-92.25819848397916,59.00674133793802,173.07587839542902,-138.7886389953379,34.58363943101197,13.64421075499884,-159.96468067500302,4.499377301351469,4.210389306569936,-150.94880961123746,14.695293798743284,5.011258459175817
0.64,-92.00772568137158,59.19333195635103,173.40763257559306,-138.6919344101861,33.6527998715993,13.40966487827939,-159.3878457709573,4.458454553450594,3.962942504928443,-151.1713942696894,14.462409662435624,4.766414618492978
0.65,-91.37873004495349,59.40088752140114,173.68569233971954,-138.9552868017211,33.125247440394915,13.727402631595808,-159.46877908875825,4.534034512778206,4.223926639671312,-150.9872288143758,14.583602447454568,5.118569414051695
0.66,-91.23198670079891,59.70502621659538,173.67802217232,-139.01440569658337,32.828924745379375,13.957996431732424,-159.38594615195635,4.32464322325211,4.043689728474196,-150.80444399634544,15.325965916286409,5.085532015540431
0.67,-90.63724634479485,59.35250985888774,174.3525235483347,-139.44025994860542,32.12121684496489,13.486443468468114,-158.90982077274452,4.705534660928514,4.07145104253386,-150.54898825249094,14.947623410086589,5.644278766770632
0.68,-90.99520269608962,59.48451474841887,174.0911730223441,-139.4957887085767,31.57561632495337,13.469680845590917,-158.41610476101243,5.131567945753796,3.94302901317695,-150.49505973781925,15.214218093383806,5.536604778043602
0.69,-90.50721332406977,59.41658569434746,174.38562712533488,-139.65391424609643,31.491064256325483,13.391028526014958,-158.01382141316915,5.065728211817257,4.210405282560637,-150.3201852763154,15.27914420077466,5.681298268533682
0.7,-90.09988335158884,59.360893447302814,174.61288243977782,-139.5358601874965,31.15872912444506,13.25617454187435,-157.7677262469663,5.171781943045369,3.954937600240039,-150.21184431255284,15.65873292094448,5.769874491941719
0.71,-89.69127959217737,59.20449411953526,174.9601851376011,-139.5159290199853,30.568146842094365,13.093113489955716,-157.02379129870366,5.140856183650282,4.240026788921356,-149.74602631907317,15.65373610471994,6.031583615303798
0.72,-89.64628731269828,59.0500036677348,175.07615113758862,-139.67278243391513,30.776595638048075,13.258566412935338,-156.7589996119967,4.960246003644621,3.717559619251737,-149.7335133945619,15.845525039385942,5.817462147035638
0.73,-89.47391099351795,58.48739822430022,175.05249629869485,-139.38760818278203,30.650499343323705,13.024788828422446,-156.5462152866433,5.2013776795805695,3.8468556653904327,-149.6386328167563,15.74051097647856,6.17723064914592
0.74,-89.67059657650363,58.4301209934981,175.08916707728483,-138.89150263642492,31.225454980583383,13.241687118120977,-155.87127129664216,4.935402743771268,3.736701701907744,-149.55130180877663,16.11613389388329,6.366803464077823
0.75,-89.07475939221537,58.84517372468666,175.6154643396136,-138.94437355438214,32.4581223853077,13.888042182222083,-156.1155983848684,5.367989321956494,3.15088455875873,-149.42952160545602,16.45704690785615,6.351646113433561
0.76,-88.89053488889284,59.63364134335452,175.38015673732744,-138.7917394640373,33.0180130764533,13.588964924308586,-155.87434058987373,5.420872560637177,2.5452270995290074,-149.5854951368515,16.305673579189516,6.938927545341517
0.77,-87.68682541314992,61.047138140459325,176.2064698450614,-138.90380702503072,34.308205328877,13.839757319860944,-155.60882122587117,5.409974484273003,2.540024154353544,-149.24562341094418,16.634622438349304,7.129198206818905
0.78,-87.03597221730523,61.71795885191765,176.93510682653272,-138.9096898634806,34.470297929231464,13.529035849488348,-155.50214833098184,5.2268940291840265,1.974406655983076,-149.03964341952025,16.843862720128364,7.203587457647925
0.79,-86.58294660906977,62.97659770936264,177.99104545994103,-138.80641898648108,35.326777154479146,12.70986076613896,-154.31981137611095,4.936041415884178,1.6830731892826882,-148.83612298735397,16.949752776008552,7.652576382114413
0.8,-86.70008195662061,63.87205956836487,178.40323250770123,-138.7024624113006,35.838798968603605,12.734603430159533,-153.43334317873166,5.354253179341662,0.8212347618849709,-148.85324455018616,16.833422180501046,7.614940314063726
0.81,-86.0380081957111,64.6967735132233,178.90979953005754,-139.18388209027694,36.35007566342595,12.67600548067884,-152.83664230128696,5.405924978019158,0.7469172191541557,-148.80319865151557,16.77000400780704,7.978537604744357
0.82,-85.57715702394209,65.33671441047193,179.50368201040686,-139.02167706622407,37.32419312793523,12.59385290745724,-152.67466474397645,5.526218869791881,0.722210258038872,-148.3628528124938,16.869760024798836,8.259345041508153
0.83,-85.97317631723837,65.78554301674728,179.69604867752233,-139.2622360255284,38.202181988102765,12.211302140552151,-152.4991410686529,5.80532803488821,0.2216739473552584,-148.4895366938781,17.30238034783646,8.688933893009471
0.84,-86.13285630497339,66.245803892952,179.5681226860417,-139.24696912373963,38.422895886783785,12.42833460776801,-152.76487010316407,5.7896766282019225,0.293865801451647,-148.53144894079992,17.266926684257744,8.864295286074642
0.85,-86.37605758185946,66.39547552457988,179.59245228677247,-139.22539832683168,38.71912009066512,12.4844298195685,-152.85435791180709,6.0907233211964265,0.1849977338368311,-148.11875720421284,17.23404478900499,9.05096880281176
0.86,-86.65542778207163,67.07861430728835,179.28223154958036,-139.09358770485733,39.05296014428385,12.944620334944863,-153.5890572863639,6.2370675304469145,0.2888125035314874,-148.15658095508962,17.439031493796207,9.510135175806363
0.87,-86.94513681603298,67.69157854171178,179.21282884205354,-139.0840972491448,38.63512712898685,13.05714128849644,-154.12726643004785,6.647095748544071,0.3494318788148457,-148.0957413081248,17.129178130824222,9.472258866918695
0.88,-86.62847974844212,67.8401227697307,179.22506519919148,-138.9297479319048,38.75920438772687,13.290873314576666,-154.86579435130025,6.9525055125205135,0.4891269655152981,-148.01045671531364,17.26982806021915,9.634400942483746
0.89,-86.9780227726082,68.26095000663005,179.0781434518382,-138.90264048242696,38.86212042500373,13.691213880257695,-155.05450601916678,7.003867914742764,0.0533208270174754,-147.66003024299965,17.61857454956121,10.20205620354997
0.9,-87.40685805974118,68.53620563673257,178.66642223780354,-139.19874457071202,39.60252727155481,13.49973727733468,-155.19069659690567,6.79730081939063,0.1972199895476928,-147.34022585427283,18.015446311302984,10.66565021195393
0.91,-87.54458778488464,69.40001657175054,178.43663226531726,-139.3801152131636,39.94913965237336,13.02709437732617,-154.90139533115857,6.993647533708514,-0.0586761963190602,-147.5590928253554,18.01269830805017,10.392057501650948
0.92,-87.74613403083436,69.50333430931192,178.10029277266307,-139.17562616713738,40.305943755211466,12.933720880273452,-154.71325366286638,7.230833781991889,0.1415834381522426,-147.92125773535915,18.13500855420584,11.309904852450194
0.93,-87.96161027757883,69.91055068618807,178.08736443405277,-139.49194997807697,40.51849900215175,12.950528434888264,-153.62309995183787,7.397620680017595,-0.0326371283311761,-148.00596652670802,17.821917823474415,11.63531722883499
0.94,-88.18971288879017,70.1254697719854,177.5368670603435,-138.98294642252722,40.94928725709913,12.384333434433287,-152.8394034744632,7.036860419241812,0.2764432189374827,-147.89828435377072,17.98810853772393,12.139379831198683
0.95,-88.3723793585927,70.62257027172977,177.22879185064656,-139.2478135653331,41.63908330897311,12.063717306455064,-152.3759281179719,7.142113546912038,0.2585371694847357,-147.00420529821065,18.3588351180776,11.996887425027207
0.96,-88.51711862334699,70.4910707032746,177.12168767728105,-139.44163022262157,41.74423340483049,11.784012839717516,-152.01534664272225,7.125983524128883,0.2047430598509129,-146.86310752639693,18.445750808909605,12.167707215050832
0.97,-88.58505560405301,70.74651767859848,176.93762882864075,-139.10717806072984,42.07222370524213,11.84550900290261,-151.7721313478726,7.186919662549178,0.3083539900453712,-146.83030762155067,18.37421917335305,12.346472709472954
0.98,-88.32301143596567,71.32955265086348,177.02018989231468,-138.9554464928499,43.07264061356493,11.476776209886149,-151.94072094620665,7.26634188185183,0.3875574965564872,-146.65628406266214,18.565658605666357,13.041448747872616
0.99,-88.61690463371981,71.71981328374936,176.8686249291316,-138.76794925349805,43.97747736695288,10.863969725118077,-151.77338221860046,7.285257958047634,0.8925512922067972,-146.12939199433555,18.665469979877923,12.966208870320418
1.0,-88.88976989346949,71.9872337405736,176.90498815178398,-138.87269641069304,45.06471293832429,10.111085411018683,-150.98587160709602,7.111660529883363,1.3153659369020403,-145.60188705158347,18.81188122182701,13.28683686351016
1.01,-89.01150561948342,72.68817334446148,176.58200324621774,-137.1663602619875,46.28050264908171,9.312653934229116,-150.63841335505148,6.777209618253763,1.6601210327002618,-145.55624845976195,18.63080700989909,13.98005149682783
1.02,-89.14077951910338,73.62188479200856,176.21865135679047,-135.35008158140778,46.86240371789727,8.291122822829726,-150.5728564612296,6.934782923347337,2.0412202073996286,-145.35633573973035,18.9149346583355,14.221487992019089
1.03,-89.53261410622503,73.91752793017622,175.6895606870601,-133.57206263731698,48.17795411342712,7.13302269298956,-150.43163630901788,6.987253115521231,2.4655744288170243,-144.95758043735347,19.125215596470508,14.976310131317248
1.04,-89.1968198456636,74.74829984335683,175.96837837267907,-132.4130550874615,48.75833949845186,6.395884110046103,-150.8325144108319,7.093449971372323,2.9030080207707347,-145.10434024095235,19.089916123429568,14.927417375251029
1.05,-89.10909731030264,74.79045319850071,175.75814359609447,-131.6729405147061,49.246574901071774,5.864781918214322,-150.94437267255512,6.976146366657387,3.098564619183862,-144.95524293915082,18.895460608817988,15.099409888642452
1.06,-89.04285845011555,75.54064079951989,176.30908537765515,-130.30780148721848,50.13394854729965,4.260333994324631,-151.31964456942586,6.810272306362064,3.265138401350532,-144.77664251024552,19.215111818541057,15.303989407369178
1.07,-88.68398341170783,75.88068355185544,176.19226538351649,-128.99081208617798,51.37747485878376,3.426541087134916,-151.51645631559805,6.604309446061446,3.6871361460278704,-144.5567160171466,19.213703257242518,15.633015280474144
1.08,-88.52349693101786,75.99127243702843,176.46148877524237,-128.62548735451412,51.91492264589613,3.188720766801634,-151.68666073515143,6.902525263430436,4.149631143249368,-144.56914042349428,18.83730636262672,15.80971856784917
1.09,-88.47343536341292,76.12706292656938,176.87562743004682,-128.43357002852468,52.230229905217335,2.7064036189975997,-151.75026463000904,6.990504156421105,4.422132791875907,-144.63533454556327,19.04338841230041,16.246419301692356
1.1,-87.95532099418422,76.41566338403122,176.86979697847917,-127.23079613008952,53.34229107317686,1.7246060826035938,-151.40236326012635,6.734935335418317,4.300672647026045,-144.4116566392485,18.879994966701755,16.51002409100593
1.11,-87.96915422537192,77.10068481813158,177.71280387451557,-126.89056332378948,54.37617333405522,1.069736911783859,-151.3362611021844,6.976216190040808,4.779823325078207,-143.7757724334093,18.991997411378584,16.510855313964168
1.12,-87.67416064731837,77.91041146999788,178.5896474532318,-126.27477049319964,54.53774092024731,0.2725825323975919,-150.70819247541218,6.719804292696155,5.135388491225456,-143.40057970613267,18.87130443193941,16.61804300268693
1.13,-87.4981081555544,78.1146358227466,179.10692087577132,-125.75838091664836,55.14175225132728,-0.1754289594667328,-151.18572902591396,6.29390050356477,5.620533343739153,-143.66086285505924,18.8013473826387,16.88609108530052
1.14,-87.32064319989996,78.73115760696726,179.23912336363975,-125.18258428031362,55.56334224155793,-0.9523306534652016,-151.58626691362167,6.345370859018344,5.854035637352129,-143.41951368200205,18.68106860627824,16.86753898325497
1.15,-87.01880167003407,78.99100022351692,179.49979994152386,-125.23136575321352,55.64823234878397,-1.1354465086064849,-152.17400778055838,6.185138788044876,6.66161701773928,-143.61342060602462,18.534917433085504,16.966045917806195
1.16,-87.23610529465934,79.44873474969339,179.15483217632786,-125.05614681819765,55.90392086571735,-1.3374273594626402,-153.05833003295172,6.039735827048058,6.776712533056396,-143.6243832491032,18.55874520840776,16.887499810683003
1.17,-87.13457176428643,79.70149302760834,178.77064113164175,-124.693867877539,56.05482223431808,-1.8262278708219613,-153.2846640742446,5.982911631151267,6.830361434192211,-143.95170999936573,18.009072057246307,17.202385190663858
1.18,-87.06044971657657,80.06404879019999,178.07859600100196,-124.46253313670884,56.44916356660468,-1.917753785064032,-153.7500098317957,5.635404506345569,7.410815666125295,-144.56183021644267,18.023567501039302,17.50589776432613
1.19,-87.15702778432977,79.85250803004246,177.97349039872032,-124.13715226056344,56.37585525834961,-2.43724500729095,-153.8592187298514,5.133924597954891,7.218130962250108,-144.26873563765002,18.10765634589956,18.054575472479023
1.2,-87.51478773452516,79.78390418037431,178.17985279782826,-124.15003437673352,56.73399936609021,-2.5401409838644167,-153.86276106185483,5.338886905503319,7.3612056208387715,-144.4171839191014,17.911504901274302,18.47209615524886
1.21,-87.64507047662687,79.7071785934507,178.14452797295968,-123.96299098432488,56.87727430665327,-2.575816351057463,-153.77271703875974,5.306265480486642,7.45522228214964,-144.5135697658012,17.895883486177482,18.60099464814028
1.22,-87.48639175799705,79.34998089910798,178.38318087862143,-123.71735165358436,56.5718162845992,-3.0515690438073686,-153.8889735319418,5.176397060355801,7.587589496366414,-144.26169324454418,17.672648802783314,18.684552519616105
1.23,-87.83839872639187,79.48319154546158,178.71571934850348,-123.77602796544272,57.04848993526307,-2.764049696548636,-153.46003475699496,5.073223196055313,7.308366686670248,-143.8733083071999,17.872971806988094,18.695263590477133
1.24,-87.83924148831906,78.73832350784035,179.0339937866985,-123.35209606933113,56.33320746810163,-3.4106050770198912,-153.75273815202863,4.9992169229564976,7.394365402264555,-143.66904518348582,17.80184946674117,18.720077522063523
1.25,-87.85037496110705,78.88964213404931,179.2171377290309,-122.95806639196462,56.49914352878248,-3.616164471961517,-153.72816155681022,4.602231303633142,7.503959365598696,-143.61062906236853,18.05144812018196,19.812645375493094
1.26,-88.14720205683867,78.12512581247903,179.26170758802718,-122.92192471556584,56.59680039306684,-3.911624520322975,-154.19338268853178,4.467687765515271,7.641812620798545,-144.02168304624,17.520332454557714,20.61135148689312
1.27,-88.10673268180709,77.97777292732785,179.8413556021287,-122.15443342281496,56.4176028233385,-3.895058198104409,-154.45255572049842,4.436494254391239,7.777766274269884,-144.44922956741908,17.458700802705284,21.67444996161877
1.28,-88.12224794411487,77.25469160920056,179.7132465959192,-121.7832599825507,56.207154670534365,-4.47680447571666,-154.488399286996,3.693423971537132,7.391743912434383,-144.9894623021154,17.017112162914426,22.24834687093761
1.29,-88.19596557000126,76.85276216113921,180.00271896759403,-121.4555834409354,56.07841629563029,-4.270291941084492,-154.06111996136016,3.3520709523325607,7.17004704583865,-145.04857008614405,16.987974182968422,23.300589013117385
1.3,-88.3825997508462,76.17659473869026,179.8717650562088,-121.48614477589804,55.70950055453251,-4.449990282277623,-154.20087177894675,2.992740448165682,6.274482621249461,-144.65685139479243,16.814072783961315,23.94428673807363
1.31,-88.65757264263864,75.3140236278535,179.5972969174952,-121.09160898286513,55.80380240745444,-4.819096320816522,-154.43146819317187,2.296859716192185,5.870169437363327,-144.92775797829808,16.86212076415623,24.87674384940979
1.32,-88.70475313905935,75.3440871968003,179.38399287291196,-120.76975030748652,55.88694142008839,-4.564849640312602,-154.99040344621767,2.215130388979864,5.825909150111392,-144.27230523742983,16.78077265011105,25.43434137059536
1.33,-88.89007902771868,74.91586585430775,179.16491546166378,-120.98384870337728,55.75126848941947,-4.617084416433585,-155.4932823372886,2.298713566950281,5.565996414289768,-143.9628764972971,16.64050813606055,25.71235608727202
1.34,-88.80631939472369,74.20370741773785,178.61488534291823,-120.69130658959668,55.24415442489447,-4.163496305580135,-156.477525823201,2.0010647375716744,5.420752085800658,-142.8322023706915,17.18568321853833,26.28230859907293
1.35,-88.766554890186,74.05076137649729,178.40721324225584,-120.64569421561832,55.162816532219296,-4.122324845330784,-157.37153159533256,1.9470275506974783,5.388331061576961,-141.9950380708292,17.70209438318692,26.547853561867136
1.36,-89.09001438551458,73.18867951456916,178.3226442848203,-120.9532766414758,54.63807911311262,-3.81522071710162,-157.41767766383452,1.8602476120148077,4.658854451389385,-141.5933929529841,17.983104248387928,27.133391402416887
1.37,-88.847936915177,72.46518175212768,178.62166767098003,-121.1231628929707,54.85885566585852,-3.8750235836098135,-157.40324638956338,1.7361415728948322,4.354331991356532,-141.68886341253025,18.047413947930064,28.153614788003825
1.38,-89.06561030603004,72.23552503854778,178.36189053977003,-121.42746500984298,54.9455988410635,-3.535699122297605,-156.9968436913138,1.7981291938825326,3.8102206059761694,-141.9015097487531,17.687461499650233,29.13592900391383
1.39,-89.01119070602222,72.06650649519787,178.101848042796,-121.61092058749374,54.71592819389504,-3.936518078400226,-156.6738478812165,1.764611176996682,3.79473769323118,-141.88372578372864,17.71385037398622,29.35988027915781
1.4,-88.6797271669748,71.62100127611942,177.9558447499412,-121.41132395406248,54.88632909755077,-3.566661176553025,-156.7135645098891,1.5904943586354976,3.6125071807238687,-141.94693574032223,18.119123347315067,29.43383449621698
1.41,-89.44283278205563,71.23364556953969,177.77633189295986,-121.54367860112444,54.89523380572236,-3.153861816793889,-156.22501382058434,1.7294459004665277,3.0120045954006254,-141.83699418024176,17.689857460822374,30.09807567867879
1.42,-89.39677435401549,70.74945905552282,177.67079107040408,-122.07791222029016,54.830047534841626,-3.1951259770152927,-155.99006230204293,1.9049388352252223,2.667474212054961,-141.79621141335824,17.79888954773796,30.81161361954864
1.43,-89.11857096549481,70.81942171763771,177.44088746086186,-122.63697329838956,55.12022427537179,-2.7433237593717776,-156.21320108943289,1.5537113717518516,2.537949310396197,-142.08595068453934,17.559708728752955,31.01963554699497
1.44,-89.41364798446938,70.48197919625579,177.35817138155167,-122.77479622420675,54.944513161363474,-2.3524508895391523,-156.1148980788867,1.4823495077369917,2.4421636579658217,-142.0466243678341,17.651312166300897,31.280666070419333
1.45,-89.23953954512659,70.16092693131523,177.50843062476548,-122.58300157418884,54.7078231005509,-2.17875431738738,-156.06727102476722,1.764381621391219,2.605994559068943,-142.0056282433693,17.482429164221767,31.917567977877443
1.46,-89.33116462613569,70.10369539160736,177.1233173962225,-122.93505080671063,54.60831335547981,-2.223213578998156,-155.94339769036,1.4824549547814034,2.250503227827597,-141.52698286744626,17.30717089090665,31.68231057260205
1.47,-89.03386625330376,70.02118470072321,177.5439264873073,-122.35817403653982,54.36837254066023,-1.9972145189319783,-155.52826531977394,1.1702382207212645,2.107297553772051,-141.21713798230292,17.3749359823636,31.751044848705604
1.48,-89.01053579811665,69.83318628301699,177.76001015037684,-122.2065905351586,53.9848249666202,-2.0319889581334394,-155.98413589641402,1.206831936376329,1.7637897428746356,-140.72897372812193,16.969677570097197,32.65389224979818
1.49,-89.10244024715712,69.85066705922263,177.7184339580779,-122.26678808532012,53.34226562069981,-2.0607581614501806,-155.87172218444755,0.4923593705804852,1.490109708062755,-141.1173700640786,16.81145858823726,32.660467568417424
1.5,-89.26279402988906,69.66561377799005,177.81127666695528,-121.8870461791766,52.84919754217976,-1.7514398031272398,-156.3109369479934,0.5046340361196101,1.44690639883566,-141.0740707258946,16.430242761440233,33.35840917436854
1.51,-88.77474572723189,69.40128356288963,177.89945428832877,-121.73569517455395,51.96874854305824,-1.6942843956734668,-156.487466406036,0.4940522348725905,0.7163091135356949,-141.0010875435702,16.49285638570863,33.61443582871354
1.52,-88.75737464165165,69.04258568997813,178.18674080716406,-121.18937345000582,50.86495296353378,-0.7137150061714844,-156.505328002035,0.2812460437555578,0.7088103273205444,-141.07955466355713,15.794008326585985,33.688740884710164
1.53,-88.40886543358255,68.25620041503186,178.45117138703972,-120.85396101806158,48.97967235413999,-0.2902557066051185,-156.69721885851249,0.3154418681892167,0.3699063587021751,-140.8691988903254,15.512441595998991,34.19484725106408
1.54,-88.40653589913651,67.75163897312463,178.46852488102087,-121.06391674375192,47.54824019352736,0.4625821849269937,-156.79023784307944,0.4963184265421859,0.2620694096648281,-141.6626011297824,15.090430921518276,34.599409497227875
1.55,-88.06949857991995,66.59026614493443,178.54139776379353,-122.07969919175002,45.70418550432963,1.5382800935418754,-156.95084775614663,0.9338256548723392,0.2803564534737172,-141.79647363669545,14.878344973374672,35.48668536391104
1.56,-88.06111897912076,66.57787878804601,178.66685635017734,-121.99023204475202,45.30133683155547,1.8508232183528843,-157.00549988426354,1.1115182501805256,0.5719184977192189,-141.90847914367208,14.699734296886987,35.71460101132549
1.57,-88.14366354779929,66.45419321681356,178.39765999318868,-122.04846826919096,44.85590767741876,2.448890975932664,-157.38793355610127,1.000375359753343,0.5322794696082955,-141.87220091958744,14.519089925827886,35.84229355404726
1.58,-87.55824648148945,66.03034981717481,178.67717487709814,-122.0146326960234,43.7162392443433,3.292173725912003,-157.72380526839638,1.4159195615926332,0.3259117733007668,-141.8183469388555,14.175414161859916,36.00070085766208
1.59,-87.29643806490421,65.03536371273405,179.36241040654667,-121.99285780599226,41.72437899425872,4.558398489178904,-159.00721582925277,1.6914397731425057,0.7437131104873047,-141.93153418812682,13.882386169444848,36.577435196841805
1.6,-86.88569897505265,64.12546360058077,179.37299030171636,-122.28759320749587,39.96995898237248,5.725035972229618,-160.58375282448782,1.8721029283053652,0.7686542078904885,-142.09075559309454,13.835083793747044,37.43310664259516
1.61,-86.1781355917809,63.149961282115314,179.78151232642227,-122.20808176993462,38.17154159892696,6.738689282029022,-161.43864139713529,2.358649990039384,0.6067583897672919,-142.2599369653983,13.438756737762304,38.04199384345452
1.62,-85.84238092423871,62.69389529880228,179.71110376325322,-122.18339391151162,35.86080044661677,7.834217449610001,-161.90817537840744,2.5891805904858667,1.340188812135385,-142.69912847507956,12.873833896863992,38.42384111887695
1.63,-85.06888880894775,61.773214737618,179.56653925243927,-122.21175188768532,33.695659222198145,8.479141760769924,-161.16326761610551,2.9916104517393656,1.7194424731876037,-142.703423138953,12.680253863256326,39.13886766124194
1.64,-84.31867955916627,61.25914314711292,179.08753575102472,-122.17992670296442,32.83704840045263,8.98138720847761,-161.66187007734231,2.803110455974517,1.5766599931815792,-143.0574741063487,12.556292576369623,39.85410371509538
1.65,-83.361433737027,60.82957641470952,178.0783563932442,-122.26013299435802,32.8328793665348,9.569555179677108,-161.4018813072427,3.036310330292846,1.9495601745969944,-143.5368614736666,11.88101924855044,40.1713400778569
1.66,-82.08800380119932,60.44328098042971,177.87710954616398,-121.94835491218184,32.18598561059839,9.91052926088406,-161.56816816184747,3.1351658646375946,1.9280544182302928,-143.75520600283176,11.945233469980836,40.55514272201104
1.67,-82.37790727264006,60.62629607262029,178.31448314730193,-121.93849191160618,32.33049818808905,9.611568999591189,-161.2936646604336,2.7408550220519965,2.015554116827997,-144.3456634666953,11.598721755995856,41.4944983684764
1.68,-82.33963425439751,60.833020837526895,178.33007591842426,-121.79496967571824,32.272248795508986,9.93192503298302,-161.78417432675928,2.714991820268993,2.069661200471375,-144.5561585228538,11.33023718016124,41.799213750950265
1.69,-82.36413108980487,60.93655028685851,178.43004717170973,-121.80812388600636,32.440416164785425,9.940080384776998,-161.54713843429158,2.663977150155812,2.250004960654284,-144.84599106749243,11.267203605399876,41.9294185635705
1.7,-83.49015461458578,61.75985146051868,179.91551707657214,-121.59958396536392,32.542997193618895,10.037758123959806,-161.44799079648027,2.1422882154182297,1.9884203270354552,-145.666645645955,10.87570476272368,43.20749066634041
1.71,-83.89332312914185,61.095980219792246,179.70524745879692,-121.77945934662532,32.835675574585586,10.00069408982499,-161.01140538925293,2.484570386944757,1.7959072411007913,-145.80835318733432,10.775032201470797,43.8657866629422
1.72,-84.04169496704306,61.03858336797121,178.85832991340175,-121.6817158115272,32.81503852297314,10.01132356231407,-160.8347321682803,2.0380087310952693,1.9291558722765223,-146.04269175838832,10.501449312536945,44.38556692987188
1.73,-85.39200459651353,60.19333179126851,177.7211271321555,-121.8108469176535,33.51844875501625,10.256456070800796,-160.80625530620338,1.571029515215069,1.8175413245153909,-146.4246503007715,9.812314639548482,45.57408758782618
1.74,-86.82509628340502,58.653673761767166,177.15598306331876,-121.53205078681476,33.68954356546009,9.931464644825356,-160.75874984622814,1.5947797909025438,1.5695442158180062,-146.73340109112158,9.402024541736262,45.85619318594311
1.75,-88.38606249904876,56.98969621515577,176.3072565680279,-121.37596531117842,34.11586534534191,9.865058053825113,-160.85283772886916,1.4314162094790512,2.020636556354202,-146.99930439622472,9.51870870139464,45.75568724763445
1.76,-90.4849011162041,53.14327648428689,175.18559559061256,-121.51888941683644,34.88905064299134,9.94231261904988,-160.57274595520582,1.235927780583607,1.6446171194065002,-147.04848442670615,9.207839609228431,46.27657408889778
1.77,-92.8220715569315,49.97008629087384,174.5520449752829,-121.4727446331448,35.397794753213574,9.873609161417074,-160.0731165412787,1.0410183192178228,1.5923531718856143,-146.98665036579325,8.891137883257125,46.43673042707289
1.78,-93.81326346754918,50.42553975387486,173.45691479423465,-121.8061190451529,36.23016503008135,10.127185603670034,-159.83950948750785,0.4239808459516686,1.7797729893690122,-147.169292894527,8.737852447187663,47.03996543973786
1.79,-94.50951149450997,50.8590356247806,172.80966514852918,-121.30963685002229,37.00654353239049,9.936353928010556,-159.77075435578666,0.2670036949127003,1.3824363452669006,-147.95131391401327,7.840058467695984,47.95997809625953
1.8,-94.69005216541936,51.41831974650151,172.25598730208935,-121.49839027640154,37.4973699320697,9.997485756002456,-159.7540648995331,-0.0903009863483776,1.301465509580944,-148.3140479434719,7.402105826405519,48.213417012602456
1.81,-95.045977691096,51.982905861680365,172.0272281978466,-121.72810314899466,37.59841668989165,10.309237332353154,-159.3898828769895,0.2254822236685055,1.4296788618030534,-148.48754046339485,7.168071543123362,48.53295372326492
1.82,-95.32686951798864,52.69122881008629,171.4178766887354,-121.78727559948275,38.76450309285227,10.61377675754919,-158.74023527075946,0.55884675000894,1.520921856556237,-149.56995064669772,6.367284221725594,49.46842356334798
1.83,-95.88934488976189,53.923316830472,170.60581783852345,-121.924383700469,39.888289309812365,10.963146333024586,-158.6680266062082,0.5712938816858414,1.7963591031728816,-150.23018820386056,5.570365510273623,50.08842923773231
1.84,-96.00742981836768,55.40838055914346,170.1484532286137,-121.862227665355,41.16331653066302,11.018645689425322,-158.5606268198744,0.6682380862619344,1.837032999745973,-150.52823787250117,5.020716527631174,51.023551362777255
1.85,-96.10683393080868,56.4754935859721,169.0606793654066,-121.9312060665155,42.58329344513365,11.31255602383836,-158.3253048631902,1.0070959143379834,2.2029321862583804,-150.90854941674291,5.141723253576863,51.56777051755854
1.86,-96.7402857415825,57.823049937697725,167.78157645692633,-121.93101644267097,43.7577479096607,11.77951931686814,-158.69183204759585,1.0467300293083102,2.3491291869910857,-150.6963815722912,5.271925788297248,52.54165401437381
1.87,-96.57448529951591,59.406215696362224,166.5822013818691,-117.21822200994166,45.14035478612856,11.83239093104106,-158.36788002237446,0.7611566484448181,2.294761536520299,-150.64302883686742,5.759327744992708,52.88565001950951
1.88,-96.8071610290862,61.01775596233198,165.24760731156812,-118.10523930530948,46.73542301865324,12.005799504793025,-158.73427232921287,1.037652685398217,2.5025245586551077,-150.15213634654174,6.433248984545645,53.32438955878721
1.89,-96.40839970212636,62.80047356618173,164.61105091498194,-119.13766562192971,48.20575877322518,11.970134287147763,-158.43563971231805,1.2443579685127788,2.4987558387272766,-150.08558399589066,6.288046217859161,53.47159155622048
1.9,-96.17951703730412,64.07150367687493,163.83726991340507,-119.6165072413732,49.755871758267546,12.39167033141858,-158.72452105987284,1.2058879029778031,2.372050358443133,-149.38502559664695,6.506172906145584,53.98244589176995
1.91,-96.00431525136143,64.83383159137529,163.46934614508044,-119.57947670853478,50.48660944987813,12.551418689338783,-158.93364853065015,0.9831344211652006,2.3373544747603363,-149.1875503607099,6.696269340517613,54.00901071184519
1.92,-95.86591435225334,65.32048718044805,163.04530218577273,-119.63444180829198,51.0106368010748,12.414675876670342,-158.90679933626137,1.0650290938840712,2.3927893266346523,-149.3717089743382,6.771015941994118,54.176216894801925
1.93,-95.88825509840288,65.39406850609944,162.5204166227243,-119.43372226038908,51.17023620960189,12.176204228103508,-158.94457545256282,1.204650640955528,2.7190210287102694,-149.004968498281,6.888769414813519,54.47304722739162
1.94,-95.70144115449132,66.87870373125048,161.12718657554473,-120.00039186224932,52.60875925235023,12.653727368529053,-159.06219601220266,1.2763133333480123,3.0170532627676505,-148.61079108183668,6.740667846369076,54.55676396473292
1.95,-95.56845205716034,68.81087721099456,159.1536292003372,-120.3786633637845,54.431923806181935,13.242932349925644,-159.510523778159,1.3840190706482205,2.8229040334910644,-148.84149241811997,7.016269449854783,54.57075368938756
1.96,-95.02822790464784,70.46545894355882,157.59555279581073,-121.18763858987614,56.66051451466304,14.15180574205019,-159.6726572295131,1.3929427391301723,3.150274886699203,-148.394288150468,6.924648218538608,54.72844361632561
1.97,-94.53510607237308,71.97979101015021,155.96493793415578,-121.7654515142142,58.535060682145584,13.684261685772046,-159.8592147743188,1.5386380016636991,3.449389012055914,-148.48925001608885,6.947714690292147,54.77567870745559
1.98,-94.75309361268135,73.04322339192028,154.34585095451914,-122.33850839923348,59.8293762200608,13.198439095196225,-159.65931429072603,1.5278282713864246,3.544981638525862,-148.5746575009156,7.014175376857051,54.831468778020735
1.99,-94.50456493883512,74.30849994708737,152.22562731011678,-122.84243897165646,61.739328903064376,12.365576511343471,-159.78990204306646,1.737455818583025,4.112726518768366,-148.85769248135725,6.700208301318962,54.75743273048052
2.0,-94.25315535570438,75.49691128549725,149.77608283876282,-123.49430965980186,63.48852531621232,11.604447242827865,-160.1905123172247,1.873511239419522,4.312673060292936,-148.98803547112823,6.921499155081821,55.46088595925076
2.01,-94.4084536326564,76.57004281244731,146.9490021011331,-123.7385232486996,65.67215995447413,11.043633716196288,-160.46226877557956,1.9512442613772247,4.300399360129029,-149.18587252237472,6.608992291640513,55.83260489263076
2.02,-94.33014876459715,77.52223958938974,144.2974905006717,-123.637911102074,67.3818246240632,10.20800229196555,-160.98590361209529,2.2193300388002912,4.324783414660361,-149.6854370267469,6.313514732339093,55.92213505695303
2.03,-94.47818717482652,78.52840431102216,141.3651571250837,-124.39378043159977,69.43015499809214,9.901110782317014,-161.42725256254775,4.971084753575945,4.279401131726443,-149.9317749055772,6.344667305271384,56.20527285460656
2.04,-94.39487650354184,78.54337291144319,139.61247114117575,-124.51097224187852,70.34403198356796,9.133135790624852,-161.0680891693897,5.204153052527359,4.219201499130824,-149.91010824696752,6.205664776226992,56.18823316251899
2.05,-94.49621115866384,78.75219159296532,137.72788815145856,-124.51130645905089,71.47907108407865,8.797653737673793,-161.3823044501681,5.413369254577999,3.818974154988556,-150.04661382220016,5.937065355820644,56.48344959489399
2.06,-94.84502553297676,79.81589546146716,133.01335718301567,-124.58578736218251,72.88901974622755,7.872527662444789,-161.62868557982824,5.739938331204534,3.091603486325223,-150.09211207656918,6.546909535120132,56.31049913394206
2.07,-94.5781646072951,80.18913110835351,133.25671049038067,-124.76143707347806,74.84397746642792,6.351992794365299,-161.9772898998612,6.538947766937756,2.538668538293386,-149.81802459868945,6.461839629685504,57.03985270692446
2.08,-94.75678249657088,80.8903984746969,133.3852678082979,-125.65013239812856,76.55620316144588,4.502242548651823,-162.71382998681412,7.495252926604688,1.4445894611543346,-150.53960705125476,6.147478895020991,57.736804188780845
2.09,-94.93994414123117,80.92637837697539,131.19504987438253,-125.50934592204696,77.56121396133632,3.800721356956793,-162.8543861602504,7.6831653719767585,0.8349497949173,-150.80545604283066,5.982515301335344,58.30933760998196
2.1,-94.70321093089302,81.4061758426686,128.81403626885088,-125.38228846230376,78.32217498252705,3.0897497451198466,-163.20944833323708,8.20737127691993,0.3655550392726318,-151.01951178346872,5.840721352442006,58.6195393442777
2.11,-94.76504385373283,81.45924989068801,124.679939232711,-125.57590278590436,79.53026067148771,0.3068349270118121,-163.1504644102671,8.925269731051726,0.3895086036949874,-151.75774836501185,5.661799994246923,59.3464746961108
2.12,-94.68461413012449,81.7672337293074,121.1167455499931,-125.7479564872866,81.58903007724788,-3.005409629249875,-163.50391839566737,10.215117317637803,2.0560183984277214,-152.58598939092067,5.564524971796465,60.69841873168544
2.13,-94.5384919367556,82.17156451290643,117.81152890127292,-125.6829084823146,82.86949465773118,-7.383904861624082,-163.95810199558213,11.989827709244734,3.539939846618485,-153.008047050999,5.635280101182871,61.63177575691241
2.14,-94.882516369591,82.50171162384741,113.33598662801892,-125.48443393111032,83.33284950709111,-7.455841259621836,-163.64106906585823,13.40178665108556,4.9302124981953614,-153.24243284697772,5.758443089788767,62.8087854873564
2.15,-95.28548797496391,82.45509115851951,110.00172189512254,-125.96385690782894,84.90856831248598,-7.40420607812464,-163.93709059020668,15.543545829171505,7.005647696788943,-153.4946102218151,6.158141493826109,63.67312323884192
2.16,-94.96339955652,82.50344024991016,109.1377096409487,-126.28043367337202,85.56529670691637,-7.43028015656206,-164.3001611679212,16.254603218444974,8.035417668742479,-153.40515114225994,6.347228901785964,64.14172804991968
2.17,-94.93140092189056,82.8926413436298,108.7991218388082,-126.17630167365002,86.12600808436164,-7.783131689090514,-164.47409555392156,16.779148436905455,8.712745314245705,-153.32685970220103,6.285109380670239,64.72903281392125
2.18,-95.1232570624914,82.54687850448391,106.75127995827472,-126.1629797989322,86.6380253210466,-7.538948320410965,-164.26518090184868,18.922429276054224,10.722732389179171,-153.38337892806783,6.628323390627554,65.47260077235792
2.19,-95.18264286575132,82.52946569782213,103.89294800857336,-126.38141169427018,87.10511798904058,-7.727807506280207,-163.46532154214265,20.209401800355916,11.854123014207948,-152.92338352988992,7.207359285037124,66.5312784304461
2.2,-95.42311792747071,82.81800782343723,101.649584365772,-126.4423598103459,87.00110623473003,-7.662744913510242,-163.60883158300888,21.82388382116028,14.23276748419232,-152.61367674480806,7.546082902652003,67.48887133910164
2.21,-95.70862911851243,82.90509544627966,102.26660286209228,-126.19172909907768,86.68399136664165,-7.699650832688797,-164.50766138404938,23.37304356654544,16.498825553475232,-152.15880647215147,7.934199536948622,68.16355466103644
2.22,-95.29123095430823,82.95700029855371,102.23851255718026,-126.06972778910291,86.09495468092717,-7.586115796264732,-164.57517383392286,24.54079543961008,19.37037246269941,-151.49713278522051,8.583187139604188,69.32362981207793
2.23,-95.74031640701466,83.09885078409873,102.66687157090058,-126.4510520718543,85.38170625603152,-7.556754821590796,-164.4253950264081,25.528934648288025,21.67743368926219,-151.21170378153164,8.653907903230596,69.7632088848392
2.24,-95.64867661944218,83.27156396382046,102.40435310552505,-126.08689370256548,84.50631286380946,-7.602138505928487,-165.4024569164876,26.811217726749955,24.83526549462224,-150.91826748104558,9.11918348961665,70.51163314059987
2.25,-95.70777259303736,83.24253885367071,102.33360901410704,-126.0348327074252,83.90781174390142,-7.5324344225299535,-166.19485046373953,28.29241935546052,28.271641465911102,-150.2480811610591,9.6755242159869,71.50789556727882
2.26,-95.74201999625878,83.53950129356593,102.56253437705584,-125.98327875322964,83.60726942997992,-7.717505992651545,-165.72958153682916,29.635605407019145,29.99228635613371,-150.02383450914564,9.470689514621167,71.52417979190969
2.27,-95.8239173408708,83.0037090075696,102.41658629623332,-125.89279780437622,83.30345712447688,-7.857790940104381,-165.64816603544614,30.35067642305768,31.224138219284026,-150.00873573775397,9.83128528925714,71.87535470954624
2.28,-95.65938963386408,82.97658061494819,102.60549660197094,-125.9744587116113,82.87709017129903,-7.650290691702633,-164.99082753942665,31.3962729296816,32.193912912661766,-149.65666243259176,10.206181087309089,72.37452121987438
2.29,-95.82008213241286,83.27650452068731,102.65903589796876,-126.13654099671284,82.98704504117035,-7.877481005409605,-164.32933728463505,32.469891829093456,33.138158773365696,-149.24150041263178,10.44592771142993,72.72860912234697
2.3,-95.71528790349286,83.3068405838803,102.56132294203388,-125.90077416084488,81.82953658093379,-9.56134454245817,-163.2613403634768,34.19147093188157,35.92492278974057,-148.63913913999343,10.7558568127068,73.15430825789969
2.31,-95.51998851203072,83.10868152717288,102.47867242179149,-126.42411296447052,81.42715729132861,-10.61045701292929,-163.4548239105961,35.572591157903425,39.32310819057614,-148.26197275904798,11.10474717315876,73.77562746219915
2.32,-95.60292645111925,82.93861783454139,102.5263228992102,-126.15431047310396,81.29751412860321,-11.632916191969503,-164.36933004980793,36.26351282109855,43.29460770595136,-147.47812326385306,11.0575611748299,74.50502947354283
2.33,-95.63016781611074,83.13249939333082,102.635912338485,-126.5245595386569,80.5676385423933,-12.4114053665934,-165.366543471595,37.0045167662959,47.77654203864668,-146.9447007278209,11.511520548593618,75.0243689321056
2.34,-95.761328895814,83.12722511545942,102.52579527626388,-126.94310826832876,80.22554797318269,-13.31699302716898,-165.88128708216362,37.537926487654026,52.22877513248383,-146.53448996627642,11.86773472102499,75.42442406822879
2.35,-95.90655207019756,83.05372873683103,102.58580151523212,-127.11680277759486,80.12157746723656,-14.05654131126363,-165.9768593508523,38.25331861987915,56.28090022168266,-145.57355923339182,11.976188178578171,76.33748593112085
2.36,-96.31140765888858,82.99526313459239,106.05577909629564,-126.96816197752808,79.83265994446883,-14.50096810931175,-165.65111860483177,39.505135904476845,56.27312600620432,-145.4710801758463,12.335663995576612,76.68942060654355
2.37,-96.11359655077284,82.79906169920433,105.89919471032836,-127.5276209237264,79.341726058312,-15.602455224762895,-165.43661322392768,40.48928612298776,56.0174592432961,-144.96991898752836,12.47963074739876,77.52036830281757
2.38,-96.13515185259524,82.95152178931485,105.62932312803736,-127.52652863304394,79.1499532313249,-16.455608491517417,-165.1356977115703,41.22866160028448,59.9977282156012,-144.79726893703938,12.968225414994038,78.50688102606938
2.39,-96.1120728796353,82.78618922988322,108.23607064787718,-127.6517523562908,78.64889374859543,-17.11334746197878,-165.06260902114886,42.14029934216085,64.96280808562867,-144.4798550075174,12.831022330520344,78.9844830031509
2.4,-96.28247215206513,82.78171823292976,109.25651064592768,-127.65526688170372,78.59945734853946,-17.182295742176176,-165.3902953661016,42.47830256242461,67.06000035961615,-144.14613677612027,12.692566740320204,79.3819848843731
2.41,-96.34234604733614,82.84998387348762,110.2990603246405,-127.8230994637658,78.20727443288904,-17.121901898652354,-165.25804946707115,43.15768828316864,69.34969804000347,-144.50509154332144,12.37903285222304,79.49406380593815
2.42,-96.3066800770392,82.7291069520996,110.35060559171066,-127.91597554857108,77.64990464013827,-17.611305640539058,-163.94595952834624,44.55390774468808,72.39356497118605,-144.03861410446797,12.636337118584157,80.48284071481942
2.43,-96.73468631291084,82.54346595250856,111.54729511170302,-127.4957607515896,77.80068908949465,-18.35800392944008,-163.40415107997876,45.135647419620746,75.20767832485109,-143.90700003168988,12.600233072794127,81.14787315373893
2.44,-96.67202152210004,82.52951185215674,112.0750983425039,-127.67735582604104,77.48206600016499,-18.71065564047319,-163.6594588530216,45.23341007350432,75.98100075518164,-144.43183642662066,12.53625919571053,81.41507854932006
2.45,-96.85984867925546,82.2047718425004,112.84618375697346,-127.54397712677684,77.01782318942024,-19.01359731241643,-163.7410480549568,44.986709515257125,77.16904736021802,-144.35389913619397,12.280943934711033,81.95365300928111
2.46,-97.24636586504278,82.54079042162552,114.06281502512728,-127.56552755603428,76.70374432462403,-19.252744526938617,-163.9065219950278,45.34279993516216,81.151167799337,-144.37257889547024,11.923563993111172,82.78241276723645
2.47,-96.74577367877755,82.4430136448118,115.39746917878692,-127.24149237129949,76.60058724921463,-19.20181630742209,-163.19139704451794,45.61447139662241,84.20175135370059,-144.30848700675634,12.243410688335985,83.38733622398858
2.48,-96.67683655032802,82.01104100254594,117.05652041063894,-127.33241549447315,76.63601915815548,-19.395429775905907,-161.47691811235865,46.945398100793454,85.98888608224019,-144.10176098889974,12.036944789909278,84.30241026172276
2.49,-96.44863905530346,81.9009523237344,121.54980466358973,-127.48761285205792,76.28672570023309,-20.22062793763372,-161.0669659279963,46.89360796942404,88.47454965607486,-144.05406128226244,11.81889026233044,84.64994259934852
2.5,-96.03297619638867,81.74356579535271,125.09242064792645,-127.20541488138971,75.96440609800271,-20.749036985723144,-160.35024379039842,46.89418931502408,90.82106594395388,-144.17996793360757,11.442104012828064,85.55697364437863
2.51,-95.96283121180116,82.20330053745585,125.33010223187344,-127.25494198727006,76.02232319502843,-21.406878698188866,-160.49978274044776,45.890918238278026,93.00780696454343,-144.30385161968127,11.136013697056557,85.87592488639964
2.52,-95.86745455731192,82.19080090505447,125.28548033723536,-127.28039773734208,76.04487247564339,-21.432669815122598,-159.98432848994034,45.44374356810089,96.75006132484094,-144.3863713305215,11.14798662468415,86.765566536478
2.53,-95.7320144510158,82.23841260824167,124.89868997258834,-126.96191485782714,75.91961445278484,-21.845378767828645,-159.40546016022606,45.245477693610766,100.60188767722296,-144.3680874087962,11.168949701284072,87.01752556928626
2.54,-95.68303655747236,82.31036967655858,128.11867593418245,-127.22381906838216,75.55038265362852,-22.36590470022465,-158.21581250888332,45.366267750417705,101.92489302013824,-144.6975456819947,10.7596152665341,87.3294269940578
2.55,-95.97342709354162,82.27421955547818,131.6821093037898,-126.91883681894257,75.89378583386043,-22.43951137574376,-158.06032871449446,44.72244235443183,103.20259359496004,-144.7691031561409,10.543188126372556,88.11750813935933
2.56,-95.67215155624037,82.20957995470039,132.2139708188784,-126.60012050927774,76.17654096117396,-22.489060676661808,-158.74070326384455,44.67638703042452,104.034024969753,-144.34323591984918,10.631039419952796,89.08101815948564
2.57,-95.47964284296935,82.40719622149473,132.3910171317605,-126.74374719916204,76.35929347893507,-22.55164583319477,-158.06319260405485,44.92278207218668,104.98623626544352,-143.77226318405602,10.812978732582122,89.80288083840313
2.58,-95.66202010577244,82.41206247161298,132.84171475286905,-126.60044234639844,76.78497929935092,-23.050365326149134,-156.86200556284024,45.32828112747416,105.62809910163028,-143.96543294566007,10.867374489507265,90.46334001801829
2.59,-95.42253700170922,82.27271474739749,133.7770253840081,-126.41493028027108,77.74078728537773,-23.54544616617353,-156.69542891476016,45.462509310315006,106.8302823807901,-143.5150026212994,10.812723188503806,91.0457233865179
2.6,-95.24195182402836,82.10452533206383,134.65041673840994,-126.66088320755436,78.23666541544704,-24.257846921279825,-155.61736851433682,46.058180362039984,107.71017814274028,-142.59568877242216,11.33555240406106,91.84256870188956
2.61,-95.25971634483648,82.29532661601,135.6767035022424,-126.58967878184308,78.43408269849016,-24.778020721935093,-154.2404177766821,46.27072899799748,108.1511079338008,-141.81474285332143,11.762963599459722,92.2954864344914
2.62,-95.1102221380719,82.13748244451494,136.35111982938784,-126.79384681846454,78.8908469969484,-25.52513309222062,-153.74466445965564,46.66321266740752,108.5840731514941,-141.69066165195753,11.523884543416337,92.60729130605546
2.63,-95.18770414387572,81.72372535477008,138.04657683614545,-126.7963658817518,79.64879411928955,-26.294068190963237,-153.26733819117263,46.0465306797568,108.87013363605976,-140.53567688358325,12.26099830664717,93.26357945112566
2.64,-95.23034359091194,81.54591069404779,138.61335837502594,-126.6589094438208,80.01675336472135,-26.31048755525392,-154.0700063054298,45.60976784916035,109.3593004347451,-139.91789897465216,12.70201441471031,93.92785215795392
2.65,-95.35709351412888,81.31020409001154,139.4700857011459,-126.49446951514548,80.42538553661176,-26.746187578660265,-154.3425492658683,45.0648009506546,109.68650725565864,-139.3338028414616,13.173516307553186,94.54574840331514
2.66,-95.6174935133043,80.53929464517489,141.1835992832435,-126.660593741452,80.70626642715173,-26.202631120559797,-154.2681913423573,45.2805639772126,110.59062146528528,-138.67523190457754,13.988816579429985,95.55299270230968
2.67,-95.2852267604471,80.12838825930531,142.39669805669837,-126.81582049478556,81.14062705248551,-26.327907599416573,-153.43381413805946,45.540439560666734,111.93301469144058,-137.4998000243715,14.489272540824176,96.48913419559308
2.68,-95.90565039952936,79.96596269153646,143.3880240079845,-126.83935910152354,81.86895217723705,-26.19211958456663,-152.37012794836062,46.516984956848425,113.78259747435725,-136.59026770533333,15.17478279059894,97.02412627980372
2.69,-95.97953583745029,79.31316429216766,144.175288503682,-126.81253349649135,82.10741109334664,-26.23125291344825,-150.57115551910277,48.49249181391384,115.56684708698982,-135.44662469402212,15.633119664099828,98.1530865198377
2.7,-96.14830343686968,79.04667610222879,144.97240954919116,-126.71757288134626,81.80053136622621,-25.6191400308513,-148.10739703673934,50.74289475829275,116.726231649139,-134.52295209879276,16.41200416802142,99.06923869913304
2.71,-96.17094238017192,79.2448867874622,145.3788783979713,-126.70845062797495,82.42977692808978,-25.024839397134333,-148.22319140160542,51.55683335835106,116.87236962621438,-133.5769849553847,17.275728624371673,99.80476606800067
2.72,-96.3261466469922,78.89617548277704,145.90462897624886,-126.82217172390736,83.18951598280734,-27.816103278845997,-149.04343128071883,50.61295037065857,116.44945822123282,-132.4210719835746,17.97187103123285,100.8637869145086
2.73,-96.50595513813263,78.64921125152517,145.54619128228782,-126.32923454038036,83.6087216736205,-27.764389283796657,-149.95703714429058,49.59333745182376,115.1830773920634,-131.58596115649058,18.707757518397848,101.8380349568429
2.74,-96.04531384197296,78.48371797901645,145.74556441677666,-125.95841654359867,83.449532242492,-27.683078917466183,-149.93323207868366,49.23030652997407,114.74043857662336,-130.60346497534644,19.34486797530073,102.767228043701
2.75,-96.09237487704875,77.99973876719649,146.09662791148807,-126.42274155908594,83.69709166888093,-27.832879858953067,-149.82825495462288,49.06393386777022,113.66689141767368,-129.59100927331815,19.923118755370524,103.8815509519882
2.76,-95.94394305360188,77.94922298729591,146.90693730436283,-126.11758874011386,84.18926022066653,-27.91477209641469,-150.06257205189766,48.51788960610632,113.89596258593778,-128.92750423382446,20.3171473719896,104.26743048763927
2.77,-95.61114063395767,77.85980112545535,147.4152816493671,-125.8814789340168,84.39229247939844,-27.999174777177146,-150.27572704970356,48.20870602803053,114.19951871158376,-128.40542970884496,20.821588748974744,104.37696854039558
2.78,-95.62700507901572,77.63897509951978,148.54206780007243,-125.83265400388018,84.97113281264271,-27.902692020225537,-149.81260902865338,48.517807315465575,114.88064436276365,-127.11467328423991,21.22801224421192,105.5657506812636
2.79,-95.22196422944327,77.34425340196734,148.98173338110396,-125.98515652126744,85.08333529277873,-28.00352010270714,-148.97558616908069,48.42981194302763,115.42186809881726,-126.8422646103458,21.45373260362211,105.92581653780894
2.8,-94.72571981854466,77.47365968653148,149.42925200138797,-125.83726475627114,85.46478489875653,-28.01742425187993,-148.66005905882108,49.1175057494432,115.88469179784926,-126.50425627660005,22.071664997148584,106.6163598476206
2.81,-94.81795896350845,77.15856294341015,150.303023256542,-126.04919694809855,85.73783015904037,-27.99183518350456,-147.23113300825423,49.76500987449926,117.32944213363172,-125.3274843651307,22.74861048915324,107.2911353877048
2.82,-94.87074840400872,77.10381948224067,150.5402852317821,-125.64997207267533,86.75402597656559,-27.740348542220055,-146.6064297019941,49.74267827039596,118.4761986119842,-124.2138527329447,23.52545092429657,108.44849798529536
2.83,-94.59427601835873,77.1429911071959,150.75394480462288,-125.76659296886962,87.41857367165416,-27.84679087447932,-145.3734042955281,49.84480040963729,120.25263226828427,-123.1315103858319,24.42407395792012,109.04801148769126
2.84,-94.8414081629983,76.81115776706416,150.92190462297262,-125.53805555045386,87.75032039229846,-27.933125548473697,-144.66936723758948,50.02094069728236,120.77540077406354,-119.68336869970317,26.145665861845043,110.56205311752764
2.85,-95.03003304661728,76.35496289709995,151.30970120241352,-125.60095661844392,88.63509401833404,-27.726386237918447,-143.52524263948624,49.92646948968827,122.16484767413284,-116.92957931614006,28.10230705802909,112.35031439167638
2.86,-95.03415178587838,76.31289692056785,150.97369614061515,-125.78294813543484,89.32606401940666,-28.047663659717603,-142.91602438455882,49.64833933113411,123.06418276184068,-113.61616814355064,30.145054752949157,114.33529670545612
2.87,-95.47880622290776,75.61034661905651,151.0251340531108,-125.80053167419112,89.30991292712194,-27.792819913773013,-141.15715049988378,50.585408821835344,124.42012492298072,-110.4041025458206,31.706585386793133,116.3519092472106
2.88,-95.66053795021192,75.66199617591246,150.50790726057096,-125.8394590950359,88.99910166041762,-27.89746304626095,-140.11023146364263,50.66662328636669,124.45612166076307,-109.52265331581192,32.32144097780542,117.49389308878963
2.89,-95.68044795922935,75.65763059384555,150.56330101684213,-125.75612560019816,88.6882327470713,-28.094143660300396,-139.18327718595162,50.82161472450875,125.22956387421613,-108.60828403504638,32.54858381825793,118.7051946534987
2.9,-96.09884959609175,75.08049169628049,150.32422751210748,-125.69773092876616,87.38372383954142,-27.879235796445236,-138.20960338037986,50.97941442866623,126.08243737613644,-105.23149421857988,34.29707179138974,120.95447933342004
2.91,-96.46952869016675,75.01673775033055,150.05689095559347,-125.2670196258816,86.67313300410144,-27.936334273322668,-137.39947952121886,50.90238686938677,126.05036126569124,-101.00603771622671,36.74329093729973,123.1946837088454
2.92,-96.63520075802631,74.49650003584503,150.87140587542802,-125.1226990168213,85.83423812841806,-27.932583770844268,-136.3997967430973,51.52243897025093,126.26908037275784,-100.7283972774505,39.029946239744426,123.32738002688424
2.93,-96.67371441760966,73.92169601493006,150.8561641911959,-124.39872103956375,84.87522526154926,-27.61780206086456,-135.0207521378315,52.13836533390423,126.38310190722493,-101.25509075609578,37.889725340839874,122.108386126319
2.94,-96.46056747081052,73.78396826947241,151.3719993917646,-123.9165095659655,84.21796311459377,-27.87048950939464,-134.56403006642287,51.87595943179119,126.86788960581175,-102.4098365849839,37.72590268609917,121.4336604144611
2.95,-96.4610108434102,73.5103214619374,151.89472199578756,-123.84354439089152,84.07091786551153,-27.813479754408323,-134.0806447857349,51.55150094847292,127.27056387665138,-103.45200525782025,37.12576247189019,120.93842018043692
2.96,-96.2519012360647,73.15433223310477,152.2270386936071,-123.88956036407194,83.55759744077713,-28.357724654059364,-133.56877961566778,51.85935385870323,127.46203205802787,-103.531536867431,36.97114621080329,119.9193660398923
2.97,-96.21080122217565,72.94105606939912,152.9296900839609,-124.02174160147212,83.13756332913938,-29.39820952618461,-133.01298203077482,51.8001113477337,127.60211813750304,-102.91297010219516,36.4490194614238,119.33371514442749
2.98,-95.925814343022,72.31282036170286,153.46011748358427,-123.89147270591616,81.85744519967132,-28.28770657429237,-131.96772275308857,52.51644258317109,128.06748340147072,-103.156823529118,35.60158420042844,117.88543900131783
2.99,-95.57598682317284,71.90063754649667,154.21835925849584,-123.76009888359364,81.09971656166654,-27.61789040518555,-130.841407330804,53.53330680586284,127.81924830221104,-103.83933053694504,35.16385221407281,116.78036819497588
3.0,-95.42555450963386,71.75114640217997,154.6551698415548,-123.508183249799,80.89210887025018,-28.01458392092738,-130.63957811708158,53.893952629145694,127.72110177848916,-104.34857065021508,35.2740214013746,116.21332275918766
3.01,-95.27161092017424,71.76088311176746,154.85392035280245,-123.34279332282674,80.76862962245208,-28.41659188753233,-130.24407071694696,54.10367234184783,127.4157160263824,-104.88509855482693,35.22481349067377,115.39118097266488
3.02,-95.750190208273,71.37452908577606,155.323942383633,-123.20875539903057,79.80880100407559,-27.73890544136084,-129.65698612672438,54.26504310958891,127.009594139297,-104.53686719161163,34.57950130958414,113.90016404536686
3.03,-96.0980467772518,70.84362238508706,156.07008802460226,-122.97375521822032,78.90157969583531,-27.73628396713468,-129.5160846772386,54.21111515370951,126.48641048593684,-103.49177141698542,32.90077139342417,111.82140954675292
3.04,-95.54113197723689,70.37805450161379,156.86988179399873,-123.122046528166,77.7837543136396,-28.041586272672035,-128.93623747660502,54.78724765479649,127.00544512740196,-105.39422796314118,32.84458293774709,112.79938351957298
3.05,-95.98099380452184,70.04123014385414,156.94021819197977,-123.58203462417735,77.62878524756368,-27.8719766331847,-127.58756564924964,55.94870229914835,127.18747812984031,-104.83439116130272,31.900512303162515,112.5432747994432
3.06,-95.81091869148476,69.9452203859089,157.4016729589575,-123.82575504813288,77.30965850205837,-27.983468871215997,-127.86786768947223,55.924426988713385,126.36169445438536,-103.2762072060982,30.204765699607755,111.25901361654536
3.07,-95.90451668273816,69.46904267020398,157.86223795450564,-124.03910953969608,76.77323667666721,-27.854375994807285,-129.4475140316712,55.02752094700588,124.39921363008553,-101.52680073224602,28.592995745643627,110.05737698477736
3.08,-96.1731128833694,68.67784863987491,158.45135748394887,-124.1674254140198,76.65369873931462,-28.001638215082306,-130.58502923003334,54.64318652713008,121.74421153860092,-101.387314994149,28.106871994618167,109.9223464831752
3.09,-96.31826794111868,67.81283549965482,159.29042778783457,-124.54169126173278,76.39543278368951,-28.89923641497229,-130.62237694670924,54.98731060730106,120.51752322749591,-101.71144399345972,28.404865583492303,109.9214847220541
3.1,-96.1601465335783,67.13759176277044,159.79658111100375,-124.9673582378203,75.7039232352981,-29.076169889063927,-130.72581350409973,55.34052751640971,120.25442720551324,-102.15299307106235,28.61971094714581,109.74203491590472
3.11,-96.26359253686734,66.58452791793718,160.1511016191332,-124.75563914830842,74.87948419642075,-29.358754832996382,-130.2246057696489,56.71400790328215,119.18647351661456,-103.69063900478343,29.797417421807232,110.26170246345194
3.12,-96.21758828950152,66.37080829763288,160.36466193679195,-125.1631117910758,74.74160858761783,-29.36226510906996,-130.31965638815248,57.20499313027857,118.45971079202933,-104.36888868288054,30.06382895021648,110.3535419188423
3.13,-96.05203563305383,66.28076624652876,160.50116536117972,-125.39817862583598,74.94211573569319,-29.377226450465177,-130.04895197446064,57.92747312925979,118.13261354979063,-105.36388718571796,30.436535092845112,110.70570877810113
3.14,-96.42302003122302,65.84746833513945,160.381935323911,-125.18951757228572,74.52553544247017,-29.44860321036013,-130.32977082211977,58.040544973086455,117.30030405017932,-104.50678191860496,30.098545855726268,110.45870484361872
3.15,-96.92670575792448,65.76136543583742,160.39765446929945,-125.31060861567065,74.12679586482317,-29.189408869436345,-130.61072214682207,58.44172417898381,116.93781452291002,-103.7048752054896,29.90992415430242,109.9873621757069
3.16,-97.01196080035336,65.27757543910579,160.42584920342497,-124.76188283096232,74.24323618835945,-29.194139451845658,-131.3597037935417,59.03247007521219,115.35706652497976,-102.23242391306027,28.582321615465187,109.30704772286911
3.17,-97.36344091178334,64.81137899000926,160.351246924769,-124.33971033484906,74.3797622717363,-28.884285113276476,-132.2072953637788,59.0917175113211,113.95563853080944,-102.29932248601024,29.16427334105637,109.31016685860422
3.18,-97.06960389657222,64.63131409693038,160.2302655770376,-124.37890460142346,74.29400530150834,-28.784201412333445,-132.5822270386948,59.72142737193051,112.52282471175934,-103.46326742303091,30.03798648748148,109.84165592061422
3.19,-96.93609721462671,64.46033463738289,160.7376154370782,-123.71595021027149,74.5724203179242,-28.73018428784812,-132.73670460913004,59.77511234377936,112.2951712493574,-106.07788284089054,31.7942164327398,110.55229457578632
3.2,-96.54056027773235,64.50257738588604,160.87244282908932,-123.32062129915062,74.7626759638505,-28.948612292157065,-133.92810407709328,58.04684146203232,112.9813938710835,-107.81967209292462,33.337426073591985,110.68425118698516
3.21,-96.15052816436628,64.29965023316522,161.10010266700706,-123.05984911860445,74.60038794496757,-28.295920609400945,-134.51650459868702,57.27451449226729,114.16936825113348,-107.5901919873933,34.18370471486806,110.57690631070425
3.22,-95.9839561900676,64.11644091117776,161.38816654917704,-122.56788305701676,75.09537163672582,-28.679113556272377,-133.60326216933387,57.71300690384626,114.87563177546627,-107.92265549299984,35.432908105385,110.2670594956754
3.23,-95.44499649087092,64.29727846631212,161.47085748883887,-122.22183499290011,75.11921959393275,-28.09895821540637,-132.16391838413983,59.349018186843885,117.3526183139828,-105.8646682666055,36.76519077720525,109.70245059118248
3.24,-95.45987589794524,64.25827669453078,161.5361802817821,-122.46675240921626,75.09361994871983,-28.230812290446924,-130.93051115810974,60.53852593110665,118.69776374152318,-104.6127806178872,37.84242780080191,109.48121258586129
3.25,-95.46055076449564,64.27374664557561,161.57574737056487,-122.60303521959425,75.3065927194863,-28.433174932867807,-130.1263808196657,61.13939064285831,119.97198718014076,-103.09847883750518,38.67686221924805,109.26325978212918
3.26,-95.38140327417064,64.16597141494114,162.06048583953103,-122.8649056701548,75.32718448275222,-29.077358634030016,-129.1566695173461,62.46471072116294,121.7453625457177,-100.46377910341408,39.82099313918397,110.09505980729284
3.27,-95.41652256515816,64.28225967696173,161.6148690837203,-123.2869171957858,75.32901128951052,-30.065068455366774,-128.48430867471194,63.658245850879815,123.3824932128786,-97.64633528009112,40.86084390797981,111.22609128448926
3.28,-95.4824128837823,64.4590087384145,161.59781850186306,-123.85184015820734,75.63150581801273,-30.07352790912456,-128.57796730705405,64.13266190316587,124.5130995642738,-94.84505961948628,42.2284487600883,111.97860241966218
3.29,-95.74262528013202,64.43270869049844,161.2297392874907,-124.15578037490712,74.7070995224576,-31.01073383482075,-128.55409545619509,64.14298841386545,125.8751386632576,-95.0807349151459,43.50217476522772,112.05736259347869
3.3,-96.53722957792982,64.09058572602113,161.0849763025743,-125.35433193415,74.67153490061077,-31.96479845868772,-128.10207603245996,64.37489100069526,127.2508583469904,-95.14310885948524,43.57077610704305,111.38120205270468
3.31,-96.34063301839603,64.37892599255537,160.77047051886248,-125.75019802818188,74.63780110414673,-32.75848818627225,-127.771877276605,64.31960210868701,128.23338163591598,-96.28158842125374,43.63331561196489,110.53051798285456
3.32,-96.59070846443056,64.11933476174133,160.8764868665514,-125.93362114144604,74.5353388685204,-33.19398623167025,-127.59089129439158,64.66359536303331,128.9360441617267,-96.61988638379756,43.49165379304768,110.17384828351378
3.33,-97.97968050529091,63.70470196655769,160.02019237952572,-126.92249846190296,74.55759249264231,-34.06770500426602,-126.12243885583725,65.15735729234102,131.28613063505614,-98.5383290630974,43.38055229303479,108.31969725480003
3.34,-99.61640454204355,63.36411986161763,158.77203115183752,-126.96998664586978,74.57651645090107,-34.5478076171373,-125.39688940400735,65.81494237998315,133.35391461417632,-98.7892790620222,43.77207319275233,108.11062806771734
3.35,-100.80475940275907,63.21654289996849,157.48724617188827,-127.14145249295022,74.6542474373155,-35.48923500628726,-124.16645748144845,66.16662382911736,136.21913967191165,-97.15082053375646,44.81865922932327,109.52851156034627
3.36,-101.21702329647692,63.079142473954256,157.0419163915051,-127.36199623531228,74.47172068303203,-36.22239354428258,-123.63660352216608,66.46915910113987,137.45839990180298,-96.24908044446929,45.17708773765847,110.14954227827248
3.37,-101.81151171493867,63.11080880081193,156.51102464791532,-127.70095828585356,74.55843476967188,-36.81132299163831,-123.25540487025413,66.94098290185771,138.5948306555187,-95.31488377009032,46.09957448907223,110.7583132023109
3.38,-102.47761727600444,62.47126854258435,156.54988566018798,-128.51529079336214,74.79787364350042,-37.7032133266013,-121.70326840636324,67.38661445852912,141.25884449872294,-94.31514528464346,46.56744947106452,111.65396046274962
3.39,-102.83106513146588,62.33142256039929,156.1989784950547,-128.7660065897701,74.6537665059855,-37.91899076707639,-120.69946253510524,68.0148353422876,144.18240900774458,-94.5942853251127,46.98581463896097,111.76551090879428
3.4,-103.51867505007289,62.07755501879037,156.45925098174328,-129.54416538007544,74.24956391343848,-38.68740001609443,-120.12567088186256,67.6140245361806,145.49032108075306,-95.13216047400115,47.652698955979474,111.3053705770851
3.41,-104.1964521095105,61.47554045831871,156.1589128455569,-128.98163355881843,74.7866707034794,-38.85155869778994,-118.24155681309044,68.23499067804649,148.53581264432268,-94.91940518169726,47.85993386683375,111.5895013071202
3.42,-105.43001271454328,61.470056408531015,155.69221538708285,-129.53682737012713,74.96258267734142,-39.6087036140492,-116.05996214034136,68.58277572755598,152.06167967655617,-94.36945325169376,47.95593742341487,112.03581578581448
3.43,-105.8935590845192,61.37023942002705,155.43410736213647,-129.83375115915987,74.58124271300224,-39.92061996702533,-115.24376501571932,68.39380993787074,153.3889001554328,-93.7819848099381,48.24064672413469,112.93208272364475
3.44,-106.190558631747,61.173678667587225,155.1338194760445,-129.84817753400648,74.49334974695995,-39.45626501804108,-115.51399877557748,68.52740653511349,153.0405589815825,-92.95618339681933,48.40011511800539,114.53098383183348
3.45,-106.83748758901608,61.05451259067943,154.6084464369404,-129.80922191828233,74.46346224969166,-39.39111475252119,-115.33852150270616,68.71341887587448,152.6223998996836,-92.590947556985,48.74883695910408,115.72853610174242
3.46,-107.24431574920588,61.08394670849447,154.66140430084909,-129.64797246408594,74.64595621581105,-39.65380329232854,-115.2562713100158,68.62886945723695,152.5155564037249,-92.4714198014089,48.72893066368743,116.98812796313966
3.47,-107.92948037363432,60.78879978686219,154.5391161598679,-129.4026863308195,75.00387298061719,-40.07177588109922,-114.86576832277704,69.00372782890254,152.74821469657874,-92.95151291787444,48.67620745246434,121.00888940323236
3.48,-107.79742208970444,60.93019270094456,154.61596211712146,-129.3768426491823,75.08876137886041,-40.29022050646491,-114.8896744963939,69.17616328981919,152.57515261620992,-92.9895034478948,48.6426663196433,121.7363789080403
3.49,-107.59947520710996,60.91893195101371,154.5043694918356,-129.4769790500833,75.07848659953598,-40.526929378686674,-115.0415582801055,68.99874083396983,152.51765308564367,-93.2551108278712,48.43812527477017,122.976778622897
3.5,-107.94850831483816,60.86866921985308,154.56896285395484,-129.27634375076065,75.74374290363859,-40.97218548392504,-114.77514727773811,68.97195705245596,152.32936577667505,-93.62117118941472,48.57374047776577,124.73202777796112
3.51,-107.70522436282444,61.048564245004336,154.44951641179665,-129.2746667277453,76.12551265946121,-41.229983781739605,-115.334906236602,68.83052349641865,151.26591569377695,-93.7150445173829,48.6041604074446,124.88795523836608
3.52,-108.55225157389386,61.21128309300095,154.02854184400783,-129.17890431477298,76.15532317945286,-42.02712295977181,-116.11681137800998,68.69464572902278,149.82781661624566,-93.30381393538246,48.42356703858096,125.90291543392466
3.53,-108.29848546413218,61.56684964340377,153.46699802517236,-129.1582736088697,76.25701818360727,-42.30613212089485,-115.86543531738768,68.5382339669657,149.95756735635354,-92.38641963293134,48.72185075170957,127.51703685258984
3.54,-108.3853847407212,61.73789035194213,153.4127059316563,-129.19309129119387,76.360889085598,-43.03219267726283,-115.41881130543666,68.85830177245472,150.26736185800232,-92.37847421125068,48.63548104240322,128.1401708146213
3.55,-108.22914087134929,62.02147658343616,153.15947239424187,-129.04637523162512,76.19081935282442,-43.31314496811113,-115.37672844499453,69.29670992226187,150.309267472699,-92.57359302603766,48.4540832377675,128.708174122773
3.56,-108.27203182736294,62.196648698447824,153.17082172644368,-129.24097760344074,76.70922962897889,-44.12361676134759,-115.65852143484184,68.71906966653233,148.95189904232805,-93.06525210867528,48.27915392755502,128.24694720891654
3.57,-108.24098433687254,62.0625485996994,152.88838882858587,-129.64120003863908,76.40916201951613,-44.73984681009315,-115.79850677093025,69.08869451758699,148.17227937289908,-93.26748405855732,48.42301851850105,128.1391094047242
