time,shoulder_flex_angle_filt,shoulder_add_angle_filt,elbow_flex_angle_filt,lumbar_angle_filt,shoulder_flex_vel_filt,shoulder_add_vel_filt,elbow_flex_vel_filt,lumbar_vel_filt,shoulder_flex_acc_filt,shoulder_add_acc_filt,elbow_flex_acc_filt,lumbar_acc_filt
0.02,-0.23223133943825075,-0.05550197207714577,0.4655064178945235,-0.004463145513392552,0.007247826710695463,0.0017980672351074083,-0.015929594999986675,0.00018673342661423346,-0.038175573123121816,0.009011284325751621,0.1436078717577149,-0.03349518445896319
0.03,-0.23700515107994927,-0.05641604016374817,0.47600995316987277,-0.0037693783413593543,-0.05376224868531536,-0.0026472036166055386,0.1299131209258734,0.0010864996634549393,-0.5666321430649227,-0.024672237583627098,1.4415047207839746,-0.0779957852342217
0.04,-0.2419919069472694,-0.057358736651966336,0.4870069705442173,-0.003165401539170907,-0.11221490721470963,-0.006898486114887024,0.26982341792470416,0.0016265917725712831,-1.040750307835863,-0.05689402369892119,2.602719838473618,-0.11676862575380449
0.05,-0.2468449823349462,-0.05822894634261898,0.4977888916133617,-0.0026774465120099336,-0.16508384646745983,-0.010651591889772771,0.39673849558802354,0.0016093050453314319,-1.4159179194460612,-0.08562993979020556,3.5167950126486667,-0.1465147845960364
0.06,-0.2512690063473789,-0.058943604715466134,0.5077463411121166,-0.002323229665569953,-0.2098559107174712,-0.013683118541737602,0.5047326441894581,0.0009229336552374055,-1.656921466634784,-0.10920700072054698,4.096443388576634,-0.16445852602223693
0.07,-0.2550541816496756,-0.05944764563685056,0.5164397012263523,-0.002111112811483417,-0.2447205629901688,-0.015875554028764522,0.5894508172727148,-0.00043895513647889284,-1.741111289235674,-0.1264226434320637,4.285502777615665,-0.16859729008201926
0.08,-0.25809508726007435,-0.059719240189128504,0.523638587964673,-0.0020399176694547434,-0.26867116384859424,-0.017224732389167066,0.6483513611867715,-0.0023733383308911777,-1.6601701057875082,-0.1365972722371185,4.063495350153318,-0.15792336820473463
0.09,-0.2603930194934374,-0.05977003623681234,0.529328106725904,-0.0020993902787842596,-0.2815129543335346,-0.017829395264085855,0.6807456837000317,-0.004679248813168323,-1.420348044960417,-0.13955944408531207,3.446431360251027,-0.1325945437102081
0.1,-0.26204328465361665,-0.059640820148884034,0.5336844540102187,-0.0022712404191566273,-0.28378606097774345,-0.01786560277506429,0.6876513577972867,-0.007083315496220512,-1.0412209109323098,-0.13557376939098842,2.483960700205544,-0.09403050064368092
0.11,-0.2632106314450027,-0.05939357323317041,0.5370260644130438,-0.0025306431706097563,-0.2766225418887594,-0.01755104610542427,0.6714981016137661,-0.009275767334076748,-0.5531960186067958,-0.1252294814863077,1.2533836727169287,-0.04491443028631343
0.12,-0.26409715181334203,-0.059101258441960826,0.5397489414604135,-0.002848086159861805,-0.2615631162967081,-0.01710560961323577,0.6357403850951721,-0.010952034602034793,0.005886823881770509,-0.10931165998380785,-0.1486628418722588,0.0109147358351206
0.13,-0.2649075370701245,-0.058836848525621994,0.5422561191674725,-0.003191464204045037,-0.24036127464167265,-0.016714690213403684,0.5844350677470433,-0.01185448908177373,0.5946418500485938,-0.08867709830444752,-1.6158480878332195,0.06868496450531952
0.14,-0.2658165893086777,-0.05866310024780958,0.5448914006952845,-0.003528344799486715,-0.21480024141452558,-0.016500881813452203,0.5218380973608445,-0.011808993669885453,1.1720786964161527,-0.06415329944590888,-3.042072173742543,0.12302281408195924
0.15,-0.26694336060143115,-0.058624397510263826,0.5478865617356965,-0.0038283340672138977,-0.18654265938060063,-0.01650790895516813,0.4520628084026162,-0.010751706438630089,1.7011993321951644,-0.03647307666803363,-4.330691279693024,0.16837605656780186
0.16,-0.2683352461803808,-0.05874164809621778,0.5513290861670561,-0.004065447725961207,-0.15702517327835744,-0.016698488642796577,0.3788264766567923,-0.008742864733584646,2.151923325462307,-0.0062499934993943225,-5.402220452876596,0.19949729085915663
0.17,-0.2699638840353532,-0.05901076356041121,0.5551543940358385,-0.004220333800601678,-0.12740175435255896,-0.016965497807434258,0.3052945428075874,-0.005965880057266667,2.5031120703679814,0.026007313049858125,-6.1999141071767605,0.21194882722446343
0.18,-0.2717329803259048,-0.0594047378345402,0.5591628090763028,-0.004282124830111818,-0.09853198237897626,-0.017153791970578827,0.23401615758104802,-0.0027118039290604246,2.743572822053305,0.05984991715331117,-6.692880623837173,0.20258273730944756
0.19,-0.27349641197001934,-0.05987883501020977,0.5630577249557925,-0.004249656096618612,-0.07100467227341964,-0.01708855206478711,0.1669326840423349,0.0006491188685973439,2.8720333709290227,0.09482459210398833,-6.876647714021415,0.16994799497340585
0.2,-0.27508341757203625,-0.060377969339646585,0.5664981675579946,-0.0041318067360600706,-0.04518387392032129,-0.01660531462688316,0.10543391670524858,0.0037056857182582023,2.896177344830995,0.1304048989212777,-6.771334532383889,0.11457961847899269
0.21,-0.27632665305077936,-0.060845077550782944,0.5691568104633186,-0.0039468118675868675,-0.02126359613002189,-0.015576920921240108,0.050435458286031215,0.006049615389965736,2.8309105745235232,0.16593080626248644,-6.417786037814321,0.03913264417614174
0.22,-0.2770885839639182,-0.061229200238709015,0.5707739362525407,-0.0037205375209014625,0.0006806327684658993,-0.013933431862772998,0.0024544030997937223,0.0073203811939101015,2.6960857832290426,0.20056791301614763,-5.872172583954535,-0.05166396732420751
0.23,-0.27728217989224563,-0.061492123479132,0.571198958803913,-0.003483869965714264,0.02065166546296523,-0.011672420835585576,-0.03833209077318053,0.007246274260790734,2.513944012967362,0.23329370357000156,-5.1996474850003285,-0.15124285519200537
0.24,-0.276883021941804,-0.061612743831542395,0.5704135987438363,-0.003269508317968425,0.03870582816047959,-0.008858727036016104,-0.07205139814240895,0.005677430832251092,2.306537107553786,0.2629140547408872,-4.467687320088266,-0.25161524386145223
0.25,-0.2759314508653347,-0.061588726756352075,0.5685340254240319,-0.00310853585702472,0.05494232648406465,-0.005614450000416563,-0.09911992628129232,0.002607437915800249,2.093378601540826,0.28810911650083454,-3.7397184834096957,-0.34394398927455017
0.26,-0.27452499196979535,-0.061435448511293324,0.5657926533676193,-0.0030271701648416508,0.06950229588407696,-0.0021014280984256698,-0.12023676444564119,-0.0018186735462152946,1.8895342323244715,0.307504252744234,-3.0695666029638433,-0.4192314899264949
0.27,-0.2728027671368633,-0.061182589264086214,0.5625033427565048,-0.0030440586056316946,0.0825705105612781,0.0015005405834259931,-0.13637143306997435,-0.007310864487042142,1.704312512031958,0.31975929337930414,-2.4971625141597653,-0.46906870418757296
0.28,-0.27092472565493625,-0.060869039821329886,0.5590160641940115,-0.0031684050853031352,0.09437227423853393,0.005016036988443857,-0.14873028735576196,-0.013454360770776833,1.540655223312,0.3236680243451554,-2.045809957913144,-0.486383476351123
0.29,-0.2690490957609248,-0.06053695848368412,0.5556682493727686,-0.0033991002382151897,0.10515936351280103,0.008293392252759341,-0.1586896251980533,-0.019741870596078067,1.3952622114434867,0.3182595280514532,-1.7211766915278177,-0.46612371561256977
0.3,-0.2673114010276511,-0.06022584674648339,0.5527399077091519,-0.0037248968933964602,0.11518176437693693,0.011218284404278142,-0.1676902315383427,-0.02561478116184048,1.2594191160869277,0.3028934327639508,-1.5120225317917877,-0.40581403800476124
0.31,-0.2658078061619163,-0.05996741507027634,0.5504183660569568,-0.004125547495799398,0.12464575661505292,0.013719882107763152,-0.17709670423198276,-0.030509617793285447,1.120435095099757,0.2773420151190432,-1.3925346676709618,-0.3059330743618137
0.32,-0.2645846846415658,-0.05978182459847932,0.5487766599896119,-0.004573722296921865,0.1336629207790543,0.015769196309357587,-0.1880338597669509,-0.033905671227209555,0.9635441421495223,0.2418531204310632,-1.3260113133157012,-0.17007205882535462
0.33,-0.26363536707417007,-0.05967566824648592,0.5477676452217242,-0.0050374688529052185,0.14219809327178312,0.017370630157369636,-0.20122014749483705,-0.03536970866870517,0.7740818528435353,0.1971888052138707,-1.2695274825204255,-0.004852398275315046
0.34,-0.26290417411875033,-0.05964183434126311,0.5472340830412291,-0.0054829514853694345,0.15002649046964164,0.018548826675434987,-0.2168228387078948,-0.03459405601363329,0.5397224758103457,0.14463538647093876,-1.1791383641086994,0.18040078036140741
0.35,-0.26229708876200475,-0.059661195950423074,0.5469333266518326,-0.005877212140030061,0.15671067493094076,0.019333632842999753,-0.2343607573208401,-0.03142501382589043,0.25255112792918144,0.08598127308589018,-1.0151321273085534,0.37421224367094946
0.36,-0.26169774773021637,-0.05970588965670537,0.5465737299174735,-0.006190713216819022,0.16160653430181685,0.019746223502538598,-0.25267702810769876,-0.025879465780441254,-0.08924541026108347,0.023459751349000038,-0.7468388903700403,0.5637018044124078
0.37,-0.26098682302436643,-0.05974378532784954,0.5458585231532441,-0.006399458234217296,0.16390408869377374,0.019789133202067346,-0.2699969505692622,-0.018148559477282163,-0.48025857233306357,-0.04034493619528522,-0.35653770323433626,0.7354692886786982
0.38,-0.2600623811273902,-0.05974360775310841,0.5445318121761976,-0.0064865399423494645,0.16270414136346953,0.019442184057231363,-0.2840755240667857,-0.008588387638649775,-0.9074527383519423,-0.10262808438347319,0.1579223327443844,0.8765554556089725
0.39,-0.25885854526039176,-0.059680065373485136,0.5424207837848086,-0.006443033641573251,0.15712619731627162,0.018665199898509992,-0.2924267500900173,0.0023014175823609087,-1.3505587452506924,-0.16052886606081956,0.7820613884104476,0.9754077969759679
0.4,-0.257359818677364,-0.05953828854006203,0.5394682968011534,-0.006268223305703543,0.14643751179903305,0.017407140206199028,-0.29261436083161113,0.013909417416340095,-1.7832787416721616,-0.21132239823517654,1.4854062592858743,1.0227784084839266
0.41,-0.25560878573544127,-0.05931690038739412,0.5357508495037492,-0.005969207228929068,0.13018845703614335,0.015620075425480228,-0.28257290958685033,0.025552010157697872,-2.175237982753135,-0.2526294084329295,2.223808965073777,1.0124849721489735
0.42,-0.25370560611694837,-0.0590291622298215,0.5314784580629794,-0.005559976960101736,0.10833639263313383,0.013275456357677407,-0.2609208847617647,0.03651813266637184,-2.4945431368028896,-0.2826291746012237,2.9432708297919983,0.9419749951580902
0.43,-0.25179875197597695,-0.05870187278584093,0.5269752520152587,-0.005060105541444511,0.08133947780354522,0.010379567062322974,-0.22722494334064788,0.046115955796200675,-2.7107387354479107,-0.3002576037825177,3.5849469166914254,0.8126470997199917
0.44,-0.25006772102256136,-0.05837204792994688,0.5226424104314987,-0.004493219118601358,0.05020366747098331,0.006984995175041187,-0.18217716556637592,0.05371851162929125,-2.797900600440063,-0.30536959788739193,4.090880431327061,0.6299003126039044
0.45,-0.24869976840244984,-0.058081805955309034,0.5189079334781096,-0.003885444896009764,0.01647043999658462,0.0031954309238855978,-0.12765535474444167,0.058805377193258505,-2.7375736680516387,-0.29884393093505934,4.409928796428427,0.40290168905890855
0.46,-0.24786374208932735,-0.05787223420809086,0.5161700020857097,-0.003264008636490937,-0.01786079165950406,-0.0008379406063623607,-0.06664905062520422,0.06099787541632005,-2.5212562923576565,-0.2826103171004126,4.503303085378898,0.1440828136586618
0.47,-0.2476846572349364,-0.05777722250757144,0.5147418167044384,-0.0026560913114022817,-0.05047384897854807,-0.004928892606453872,-0.003049642999461144,0.06008570157925618,-2.152156316424027,-0.259582536088754,4.349156865868253,-0.13160469448220818
0.48,-0.2482226368090749,-0.05781826809918683,0.5148056804923057,-0.0020879631674259906,-0.07893058342109646,-0.008876442811409962,0.058680163245042584,0.05604340745191701,-1.645995744283586,-0.23348842716449322,3.945730674623541,-0.40762696404434967
0.49,-0.24945933393026887,-0.058001092705173805,0.5163828558476816,-0.0015843231234973828,-0.10090175299793588,-0.012490575025497738,0.113926427852313,0.04903574668845685,-1.030717613113371,-0.2085969068759902,3.3126801488590982,-0.6669368856040583
0.5,-0.25129403833915753,-0.05831461173944645,0.5193236534663638,-0.0011677110278447284,-0.11441049879999954,-0.015619894838251666,0.15838976032362342,0.0394114819853512,-0.34504473073322495,-0.1893531603407215,2.4903795841715963,-0.8931021870692625
0.51,-0.25355046693924804,-0.05873242327942551,0.5233196048462666,-0.0008578496513963307,-0.11806152445540283,-0.01817708015206616,0.18854511884963523,0.027685861005188838,0.364053008303241,-0.17994471669482498,1.537183843670988,-1.0714152306365374
0.52,-0.2559938674670425,-0.059216602415565846,0.5279367111522577,-0.0006708157319313032,-0.11122876049149591,-0.02015793346791918,0.20204214647495028,0.014512571309000603,1.0448179766838248,-0.18383192912080842,0.5248320322157795,-1.1899073502227016
0.53,-0.25835666682409036,-0.059723246676001686,0.5326659456850311,-0.0006180193831382884,-0.09417727061601419,-0.021650411739697176,0.19799728063396033,0.0006465711501188033,1.6448277721875204,-0.20328503925625824,-0.46763369629490614,-1.2401960667704828
0.54,-0.2603696354749352,-0.06020895996031601,0.5369847214593477,-0.0007050614614296474,-0.06810121621689072,-0.022831149505676326,0.17713968762154683,-0.01310025455101166,2.1154404586037634,-0.23897520734126598,-1.360901024483689,-1.2181040746461744
0.55,-0.2617945974954863,-0.0606373152565696,0.5404212513021387,-0.0009306135644692216,-0.03506822940578907,-0.023948566388474958,0.14178880846138014,-0.025908169599893203,2.416171416066042,-0.2896675960211229,-2.0827264607026987,-1.124003826580198
0.56,-0.26245427947202077,-0.060984321835531624,0.5426129753109514,-0.0012855107697618809,0.0021293857731115285,-0.025293458874076764,0.0956601281222675,-0.03700054558350344,2.5185970079406883,-0.3520601980427628,-2.574882755454824,-0.9628598980001171
0.57,-0.26225512175515686,-0.06124205398723855,0.5433508169384013,-0.0017522590109678236,0.0402057569817771,-0.02715977724825553,0.04351545102032414,-0.045693579786225555,2.409404420367202,-0.4208025296085493,-2.799032411928211,-0.7439618792050762
0.58,-0.26119983060080176,-0.061419871930719225,0.542603059879144,-0.002305137922298159,0.07567439229664426,-0.029799834238171605,-0.009307893424014302,-0.051441536352951615,2.0922687229570713,-0.488714102140999,-2.740928069128052,-0.4803619460405225
0.59,-0.25938799070973306,-0.061543044225998565,0.5405158222877867,-0.0029110282559243637,0.10517493037497355,-0.03337926286083614,-0.05744008365593138,-0.05387436584680625,1.588332879917288,-0.5472048458249431,-2.412484778160657,-0.1880520272850551
0.6,-0.2570048429978451,-0.0616489906641476,0.5373907394332686,-0.003531015803656419,0.12580100489862958,-0.03793747628286355,-0.09603632128981618,-0.05282487549704175,0.9351860652383759,-0.5868799890426986,-1.8514615016723326,0.11506584409439782
0.61,-0.2542999598979552,-0.061781718444003174,0.5336437241159165,-0.00412273206654313,0.13539542423214243,-0.04335910214992866,-0.12128870988029848,-0.048343173853020525,0.18436939608513334,-0.5982922352236821,-1.1187113171806342,0.4103471969841069
0.62,-0.25155874283537,-0.061985259787525844,0.5297509849607424,-0.0046432999175055,0.13278146492333195,-0.04936088019052965,-0.1308368531384589,-0.04069688509420938,-0.6024264330488197,-0.5727864924506801,-0.29319025026335466,0.67963140682741
0.63,-0.24907033549513094,-0.06229701358560914,0.5261896625260121,-0.0050526703272758405,0.11790512795160452,-0.055496928518801496,-0.12403229128502648,-0.03035658098246929,-1.3581831565761937,-0.5033688762280647,0.5348692430399371,0.9064420725727772
0.64,-0.24709572221941986,-0.06274185481804985,0.5233805558756883,-0.005317066342270286,0.09187205055360344,-0.06118328252379257,-0.10202764925798415,-0.01796694917076314,-2.016007691293655,-0.38552387528221804,1.2720337753994322,1.077077794667125
0.65,-0.24583953024015762,-0.06332772687806082,0.5216396115579259,-0.0054121935397963275,0.05687342509425043,-0.06574042669509562,-0.06768025076487372,-0.004305321733021347,-2.5147598993831433,-0.21790257759177886,1.8302804447577206,1.1815165311863762
0.66,-0.2454284610539061,-0.0640432089014513,0.5211433437689701,-0.005325840647511978,0.016006570409878417,-0.06845043473028502,-0.025279759737679573,0.009769769326039894,-2.8043732689852976,-0.002811167749709619,2.135370643923069,1.2140692368931714
0.67,-0.24589844527468147,-0.06485729745808194,0.5219114251694887,-0.005059499447156577,-0.02699350823798147,-0.06862355880337352,0.019872108754694626,0.023376462122868067,-2.8504035859206867,0.2535577426423195,2.134224487056711,1.1737358700436527
0.68,-0.24719165749369634,-0.0657214017224658,0.5238076244443508,-0.004628701616881929,-0.06808629966805214,-0.06566787714697991,0.061986651352620575,0.03566968643825042,-2.637400189088629,0.5411890038520218,1.8006168366528263,1.064237888758751
0.69,-0.24916352803262481,-0.06657334572408954,0.526558289362788,-0.004061911144773028,-0.1032901936115433,-0.059155066805223734,0.0953646947432658,0.045899062715654124,-2.1707910213831894,0.8466183113491689,1.138661516956372,0.8937245475814466
0.7,-0.25159889195500423,-0.06734299609773944,0.5297857881827891,-0.003398010321727699,-0.12904466498027473,-0.04887557967232278,0.11496700803734371,0.053460174700390835,-1.4770975965966242,1.1536033174658837,0.18374453041050412,0.6741739379244305
0.71,-0.2542354506276608,-0.06795897320525507,0.5330527704390047,-0.0026826398123435506,-0.14253639711880592,-0.034877439775869795,0.11692297699839964,0.05793526021564641,-0.6024377206313029,1.4440547950959184,-0.9992087677892157,0.42053201225087755
0.72,-0.25679185041021174,-0.0683557568996199,0.5359118787869309,-0.001963852597269787,-0.1419595030514653,-0.01748443867684374,0.09892955429480048,0.059120160773925616,0.3905806657846929,1.6991668176990344,-2.320014791235569,0.14965207609481226
0.73,-0.2589970448910248,-0.06848039499746048,0.5379548406748619,-0.0012876693506388784,-0.126686866902457,0.0027084954593756877,0.0605047854148322,0.05703544874283891,1.4273350438267969,1.9006663083060178,-3.6697235628924534,-0.12088808463658256
0.74,-0.260617400003907,-0.06829801402278639,0.5388549737788018,-0.0006941375336087783,-0.09733854497295481,0.024862767268806353,0.003075591437391312,0.05192091538603276,2.4266792682601537,2.0320901994846157,-4.928796646105234,-0.37400532744686726
0.75,-0.26147838946577995,-0.06779546079158394,0.5383982502184813,-0.00021437961979164506,-0.055743139277821756,0.047944253241815234,-0.07010383536030668,0.04421394021001567,3.3070129264181625,2.079993972222512,-5.97630840558925,-0.594277946102584
0.76,-0.26147870368177506,-0.06698266757879494,0.5365000769866424,0.00013110851133947657,-0.004798021678159322,0.07078802605452,-0.15419053676961614,0.034513551237737417,3.992447512654523,2.0349989172893914,-6.699429645670723,-0.7689757963597162
0.77,-0.26059591469148674,-0.06589167352793254,0.5332073689908431,0.00033291021400066296,0.051756763509546375,0.09217412562962166,-0.24312177978877586,0.02353311319515415,4.418584748622129,1.8925967486480693,-7.002439461041403,-0.8888800828883971
0.78,-0.25888412445366527,-0.06457356308340226,0.5286876367921322,0.0003921062767594409,0.10962899872860782,0.1109079815262918,-0.33007768840862106,0.012045450278485371,4.5374600980799675,1.6536481524094024,-6.814561749827595,-0.9488354082443475
0.79,-0.25646496254311646,-0.06309382700688539,0.5232081887296072,0.0003189790705500216,0.16430263473914442,0.1258988942332193,-0.4079945522884114,0.000824753101505916,4.321278631340921,1.3245348498092753,-6.0960303492462495,-0.9479972999927158
0.8,-0.2535137788087582,-0.06152678097475884,0.5171090567979075,0.00013131737507616524,0.2113755245512681,0.13623043091193707,-0.47008431534332423,-0.009410201553683164,3.7646733540101667,0.9169507511618282,-4.841939424214735,-0.8897617700730738
0.81,-0.25024296486352166,-0.059949696885133345,0.5107731129399025,-0.00014744149447963196,0.2468789481718108,0.1412175978815056,-0.51031854700512,-0.018047178409743823,2.885338097264951,0.4473445390798288,-3.0836184174180694,-0.7813876774025243
0.82,-0.24688418683959507,-0.058437243798702077,0.504596362596037,-0.0004900954465836682,0.26755462107184835,0.14044707450824312,-0.5238416289524588,-0.02462214867435859,1.7230169627771623,-0.0639486821805591,-0.8874666268903636,-0.6333458439319591
0.83,-0.2436710604067707,-0.05705673456953281,0.49896082517013757,-0.0008675325393725621,0.27107009991197517,0.13379845185311579,-0.5072869204517485,-0.02884849934017153,0.3369588229601124,-0.5938272041954905,1.6486256921605262,-0.45844918457751704
0.84,-0.24082352408749638,-0.0558645498546079,0.4942118322681176,-0.001250545823831533,0.2561599750184348,0.12144612293855937,-0.45898008977895277,-0.030631825229942036,-1.1979419483461735,-1.1177177839775512,4.400970404038168,-0.2708339582514728
0.85,-0.23853488343320464,-0.05490396184571251,0.49064098503073644,-0.001611599244711964,0.22268723483921984,0.10384304009391226,-0.3790243928448319,-0.030069501953380443,-2.796007179628474,-1.6109591865865296,7.227449171711061,-0.08487240522548765
0.86,-0.23696219681894848,-0.05420440324966148,0.4884753895091371,-0.0019265097804646266,0.1716259882581555,0.08168884137445656,-0.26927234533853456,-0.02743543432701943,-4.366266292154034,-2.050183563627568,9.976016960123271,0.0858992499836821
0.87,-0.23622035083369214,-0.05378204062628053,0.48787315561316036,-0.0021759764542644898,0.10497271692479065,0.055885753134642016,-0.1331961165627195,-0.023151516941600832,-5.818175339169885,-2.4146078210451396,12.493749196891288,0.22975640478894077
0.88,-0.23637984174715262,-0.05364135149779126,0.4889245562924581,-0.0023468604787591245,0.02559793487114003,0.02748615574853917,0.024325464965569473,-0.01774834710963045,-7.067164891682535,-2.6871559811859425,14.635833339607204,0.337593565485436
0.89,-0.23746795970053755,-0.05377730531759814,0.49165775238668,-0.0024331110393932026,-0.06294672357527034,-0.0023642338102607447,0.19728235159698723,-0.011818522601623834,-8.039651335002288,-2.8553474358730444,16.27394144378939,0.4035067847294458
0.9,-0.2394727844765211,-0.05417772350318093,0.4960476245290225,-0.00243623942675106,-0.15664946833956636,-0.03248389495845432,0.3788495364199212,-0.005966380357333504,-8.677204862361057,-2.911903591475897,17.30349256512845,0.42511313148608343
0.91,-0.24234916241178106,-0.05482543654894817,0.5020260233914797,-0.0023652679195041828,-0.2512709007379854,-0.06171062809332745,0.5617237808667945,-0.0007582499278313781,-8.939644982584797,-2.855045229410856,17.649413698214104,0.40359088213470856
0.92,-0.24602565922128064,-0.055699947286478854,0.5094916530166291,-0.0022361138805815513,-0.3425730242970628,-0.08895183443763818,0.738463094089664,0.0033228092054218904,-8.806923098671245,-2.688473423712932,17.270125479052744,0.34344650963903717
0.93,-0.25041139699442383,-0.056778425532144086,0.5183178534052345,-0.002070407697481518,-0.4265319068429812,-0.11322823312427542,0.9018145743452648,0.005914236581486416,-8.279743766955397,-2.421046643285172,16.15960388917495,0.25203586625430335
0.94,-0.25540172252860815,-0.05803598134731204,0.5283567957106469,-0.001893782388939269,-0.4995240525784177,-0.1337099499958724,1.045019597628594,0.006800318748722997,-7.378964134695041,-2.0661844835467806,14.347492215086676,0.13888547299639228
0.95,-0.26088186847488914,-0.059445282225730346,0.5394391340019877,-0.001733715561309065,-0.5584795975634465,-0.14974443224119127,1.1620882472016723,0.0059257409061525095,-6.143888330455289,-1.6410433409282916,11.897350448950881,0.014874081688871488
0.96,-0.2667282083063915,-0.06097569461556884,0.5513690728202354,-0.0016170550291368946,-0.600998356110213,-0.16087599955956056,1.2480369993351361,0.003395513888253167,-4.629635292063939,-1.16552057502753,8.903225932339117,-0.10865641188734036
0.97,-0.2728073740493377,-0.06259224430541115,0.5639161229162382,-0.0015674159065020414,-0.6254272851991306,-0.1668570433869292,1.2990849245121434,-0.0005383986887715534,-2.9038014824034915,-0.661150903191567,5.484805192499115,-0.22078864955622216
0.98,-0.27897428239390903,-0.06425478886761347,0.5768062936264723,-0.0016026887030819925,-0.6308999714489133,-0.16765097029039938,1.3128041616404833,-0.005502306967731585,-1.0426628584270932,-0.14996182297206836,1.7814605264647063,-0.3118470686583429
0.99,-0.2850707326177881,-0.06591783975830383,0.5897165752732783,-0.0017329299414583872,-0.617340256227618,-0.16342701480122937,1.2882204860827593,-0.011035437875538495,0.8728361865879816,0.34664611650463184,-2.054464228113045,-0.37408431863996616
1.0,-0.29092639368344114,-0.06753141670410812,0.6022766912723301,-0.001958906662649439,-0.5854331589147924,-0.15454708889093569,1.225859834020186,-0.016630786824533027,2.761073335905763,0.8089330482689546,-5.86477474062314,-0.40218966496693004
1.01,-0.2963635345859171,-0.06904314369394728,0.6140809475806852,-0.002271528187453667,-0.5365669480880556,-0.14154495046700213,1.1277370885617872,-0.021778492857124732,4.543513113325815,1.2197142740745794,-9.492609252453597,-0.39358879988646733
1.02,-0.3012058756435613,-0.07040153017391365,0.6247107959772389,-0.0026523225893949273,-0.4727506726669353,-0.12509820102843472,0.9972846143453801,-0.026007914831585113,6.148079184563356,1.565072763336817,-12.7893634528011,-0.34852285686309875
1.03,-0.30529075931658234,-0.07156008671288823,0.6337660926468978,-0.0030750033871333477,-0.39651180745844156,-0.10599397185715888,0.8392201207077784,-0.028924804473676353,7.512011627588135,1.834859367817581,-15.621073227722297,-0.2699129211759429
1.04,-0.3084828270027478,-0.0724816790863801,0.6409007345589881,-0.0035080277551587844,-0.31077895304884073,-0.08508960365960759,0.6593564024879385,-0.030240525644504457,8.58413199646777,2.0229640873260015,-17.87401552269922,-0.1630333207426352
1.05,-0.31068682243196916,-0.07314239239892914,0.6458569850044217,-0.003917884185954435,-0.2187547659842332,-0.06327011018936222,0.46435910146419834,-0.029791103101187717,9.326481681991945,2.1273557639807716,-19.45933611689501,-0.0350310410988221
1.06,-0.31185713845943397,-0.07353419144169418,0.6484926377001621,-0.004272695248108522,-0.12378443883991543,-0.04140466397602201,0.2614624243359915,-0.027544913186456705,9.715335833460031,2.1499012480711217,-20.31656295625239,0.10566136774711415
1.07,-0.31200226207407217,-0.07366582968354327,0.6487962337473279,-0.004545623124332831,-0.029225027355077607,-0.020304665709606314,0.05815621951679267,-0.0235989462848927,9.74162372666177,2.0959875980516087,-20.415912322371994,0.24996672290469366
1.08,-0.3111832384750764,-0.07356175494419287,0.6468876518963609,-0.004717561558321244,0.061679343167758915,-0.0006860799230198667,-0.13813957238293678,-0.018164659291506235,9.41080582166983,1.9739815324657997,-19.759340674826785,0.3888049429782666
1.09,-0.30950644358895174,-0.07325912675286021,0.6430040884949961,-0.004778706288909943,0.14591191701286524,0.016861416470267745,-0.3203957487103145,-0.01154538166075433,8.742267846843802,1.7945685143488903,-18.380336339748588,0.5136868564073414
1.1,-0.3071120016815059,-0.07280340688597946,0.6374740266626425,-0.004728804403760997,0.22078376542232336,0.03189633925231742,-0.48227280624155583,-0.004107943368183923,7.768294103168012,1.5700190239271425,-16.34248185353182,0.6172196359131897
1.11,-0.304159832398116,-0.07224322143428039,0.6306836081177606,-0.004576143983987995,0.2840177102022939,0.044136890710815654,-0.6183826209879766,0.003748411829736272,6.532677697820843,1.313431445187816,-13.736849863404398,0.6934946166896591
1.12,-0.3008154835740069,-0.07162527667343492,0.6230405972499478,-0.004335585139676951,0.3338143429238646,0.05346144015346531,-0.7245004841445034,0.011622711707648059,5.089017093754887,1.0379994535003272,-10.678323724197472,0.7383411037942418
1.13,-0.2972377153285263,-0.07099005173263273,0.6149409968120545,-0.004026079647970639,0.3688998961351291,0.059898352443090164,-0.7977190724992473,0.01913970538389184,3.4987390216241323,0.7563469844353392,-7.3009593866185325,0.7494428889015952
1.14,-0.2935693865371983,-0.07036882324107444,0.6067425773361598,-0.0036681442584443977,0.3885566275446027,0.06360647709835535,-0.8365402144783697,0.025971814457200926,1.8288802416102956,0.47996617883262543,-3.7525291125973386,0.7263262551327516
1.15,-0.2899326034261175,-0.06978233468685055,0.5987482351279096,-0.003281661394036403,0.39263692001748574,0.06484843468188586,-0.840904367211311,0.03185410413819135,0.14965731374240354,0.21878376403861563,-0.1884112003622806,0.6702381168415434
1.16,-0.28642831823422354,-0.06924113943641833,0.5912002548436586,-0.002884235135757298,0.3815624008260779,0.06395943405567299,-0.8121610533648065,0.036591686456758005,-1.468143773403577,-0.01913002691140601,3.234985827272932,0.5839397864468873
1.17,-0.28313968435945625,-0.0687473661366653,0.5842844408727313,-0.00249018628829,0.3563090492782563,0.061314652584731975,-0.7529857918326884,0.040059864423458394,-2.9559166706256113,-0.22770771399690262,6.367050876054587,0.47144522917960746
1.18,-0.2801376770721528,-0.068297433109012,0.5781411537210507,-0.0021101619642185537,0.3183785917733456,0.05729817953097193,-0.6672501853425082,0.04219812246527632,-4.2500646770551285,-0.40289498183984795,9.06981032097773,0.33773251882048533
1.19,-0.27748701172057827,-0.06788511880170132,0.5728790642621867,-0.001751269823969398,0.26975565892126563,0.052276171448588024,-0.5598519225864159,0.04299967723976833,-5.294832227590185,-0.5425439426518169,11.224516123313535,0.18845390414484434
1.2,-0.27525037793362367,-0.06750439423753032,0.568587229432215,-0.0014176148791262356,0.21284943625770977,0.046576248063407974,-0.4365108320789809,0.04249866256669004,-6.045033680794091,-0.6462152968243668,12.737696191222664,0.029664142420062066
1.21,-0.2734894419014166,-0.06715152733784202,0.5653418618216799,-0.0011111039246273554,0.15041812703484148,0.04047435006543122,-0.303536236323732,0.04075710285777314,-6.468550775675047,-0.7149197975750894,13.546366330187308,-0.13242049111977686
1.22,-0.2722618298188397,-0.06682615150397984,0.56320565872118,-0.0008323812732117858,0.08547467730747324,0.034189387657388416,-0.1675701779468913,0.03785363476804833,-6.548449783848463,-0.7508304833060517,13.622099060138545,-0.2916277648268138
1.23,-0.27161427011692557,-0.06653122487391558,0.5622195099121516,-0.0005817683906859742,0.021173026434955198,0.027885136547297656,-0.03531103759641452,0.03387550213709398,-6.2845571843625185,-0.7569949199819562,12.973655595944342,-0.44200185311363127
1.24,-0.2715731094838328,-0.06627205684230911,0.562388541756452,-0.0003600998108914382,-0.03932433502885674,0.021678083389063536,0.08677710295951402,0.028914736293443467,-5.694332383972163,-0.7370715662611247,11.64791748790736,-0.5779500932176884
1.25,-0.27213430938345234,-0.06605478816809245,0.5636663255933589,-0.00016937520786555478,-0.09299459542721203,0.015649362426355385,0.19276222938520313,0.023068722702666185,-4.812890589979639,-0.6951070218399161,9.728907023896607,-0.6943747763358341
1.26,-0.2732554829595332,-0.06588481650577895,0.5659420825546938,-1.3175448749464576e-05,-0.13711323213286492,0.009858608918719876,0.27753964260978675,0.016444635238745738,-3.692060204084169,-0.6353622778248398,7.334762221608952,-0.7868009783966966
1.27,-0.2748523327047632,-0.06576562541847003,0.5690354211134104,0.00010318760149537875,-0.16941502720763618,0.004357502290409442,0.3371121239331685,0.009166579883999047,-2.398407260312664,-0.5621872400185635,4.612632712319387,-0.8515091309391747
1.28,-0.2768009984037605,-0.06569831477147933,0.5727015513217226,0.0001728019589287846,-0.1882472525801468,-0.0007990266361961305,0.36883968613476065,0.0013838090896292586,-1.0102228859829543,-0.479934855511042,1.7315841226389557,-0.885676444293675
1.29,-0.2789465400377953,-0.06568189243197033,0.5766474630537533,0.00018756612234060286,-0.19270319913467518,-0.005545528589468056,0.3716415281596274,-0.006721893388211068,0.3864549478049187,-0.39290015643143955,-1.126264980429995,-0.8875251385550637
1.3,-0.28111640615440203,-0.06571413566257409,0.5805569114488001,0.00013885881643172778,-0.18272361889190938,-0.009803724612164437,0.34613202003734617,-0.014931564109643145,1.7026322256229192,-0.3052662390589488,-3.776006294558377,-0.856468669580451
1.31,-0.28313665209068234,-0.06579263573546545,0.5841199591344434,1.84262113218906e-05,-0.15915424217232524,-0.01348547515339769,0.2946734363072327,-0.02298880013735928,2.8517272379170877,-0.22103909615794265,-6.041098601076282,-0.7932408388071659
1.32,-0.2848481897249767,-0.06591556672253597,0.587061905313459,-0.000180570588646907,-0.12374940694142592,-0.016500631323867664,0.22133097000720753,-0.030605046305213757,3.755207296050621,-0.14395639677111544,-7.764788770370151,-0.6999879179097545
1.33,-0.2861206099432646,-0.06608180633780271,0.5891669757738727,-0.0004624143283397644,-0.07911493942014701,-0.018768687996181085,0.13172031806833018,-0.037470906462803634,4.348125971886208,-0.0773614205361218,-8.821074051523626,-0.5803016251550078
1.34,-0.28686199765087406,-0.06629026648401695,0.5902939306113104,-0.0008276764701303164,-0.02858756285376456,-0.020232585889460957,0.03274463438666155,-0.04327316001539725,4.584157315314083,-0.024041660214636374,-9.124431212913375,-0.4391716109266425
1.35,-0.2870243000017064,-0.06653858840424785,0.5903830624255539,-0.0012721555122354284,0.023947019362598892,-0.020872609067642173,-0.0677744998154243,-0.047716345923458206,4.439716916294875,0.013958970972530687,-8.637539182386405,-0.2828403288192795
1.36,-0.28660477751689917,-0.0668216129728062,0.5894560185094863,-0.0017860533336083884,0.07429000673374034,-0.020718146585099212,-0.16155879832108738,-0.05054703121851636,3.9167864002722994,0.035536152392616996,-7.376283018424153,-0.11855064601528839
1.37,-0.2856445563752886,-0.06713015436169917,0.5876108304737723,-0.002353560403203895,0.11820686955800877,-0.01985516761069246,-0.24040564296153147,-0.051578304644590435,3.044119566594424,0.04070354015193269,-5.411451448950189,0.04581328924364082
1.38,-0.2842252580058883,-0.06745054711595579,0.5850143469009814,-0.0029530144148911786,0.15172913758555084,-0.018427612228371845,-0.2967609417661932,-0.05071170923176401,1.8766034586249465,0.030722854438738144,-2.8667256916115664,0.2021795155887444
1.39,-0.282464304063751,-0.06776523916330267,0.5818933386343618,-0.0035577501014265288,0.17145992866584642,-0.01663151272981344,-0.3242955657922554,-0.04795380790954279,0.49267153989423573,0.008154077149685173,0.08720410612179656,0.342811300386411
1.4,-0.2805090710059964,-0.06805444974262448,0.5785245059902631,-0.004137677537655691,0.1748602623539557,-0.014701489819221912,-0.31844381988281,-0.04342488953252272,-1.0101889148520478,-0.023202231371659172,3.2422803951314183,0.4608636085767539
1.41,-0.27852979639886605,-0.0682986780590523,0.5752229094447389,-0.0046615251618275805,0.1604925708151021,-0.012890240865521634,-0.27686050143179664,-0.03735795800401378,-2.5216375775077258,-0.05849024565867149,6.3660646977687305,0.5509278837911873
1.42,-0.2767110390585026,-0.06848167008097054,0.5723280424753034,-0.005099573791204726,0.12819902629800106,-0.011442651412653814,-0.19975443399895623,-0.03008705545052787,-3.926038672001569,-0.09211915452636521,9.217359847330554,0.6095147775697368
1.43,-0.27524149664433456,-0.06859333182090442,0.5701867296428396,-0.0054266006656542316,0.07919542622131974,-0.010567094976273983,-0.09006123338683404,-0.022025067264281797,-5.110885825960785,-0.11821020950429227,11.563490540312124,0.6354239255665105
1.44,-0.27430208278127266,-0.06863202966507985,0.5691322434996998,-0.005624665496898037,0.01606634848751891,-0.010407210801531078,0.04657346962404592,-0.01363232997849229,-5.975495047569885,-0.13114525607404176,13.198050134886437,0.6299546011055338
1.45,-0.27405245821717483,-0.0686057733863549,0.569459671891003,-0.00568532874941534,-0.057346106108822764,-0.011017844530396703,0.20201729758558143,-0.00537848331938253,-6.439298061215327,-0.1261747558004075,13.95778448051836,0.5969211024398463
1.46,-0.2746167558856884,-0.0685319557533949,0.5713987399498396,-0.005610919730478086,-0.13615980254770857,-0.012348808609037684,0.36608319993826405,0.002299056316644525,-6.449050016295138,-0.10002910628818186,13.73724329845006,0.5424515082060474
1.47,-0.2760699064844812,-0.06843559551932697,0.5750867254439819,-0.00541457581194747,-0.2147675013918877,-0.014239616327227906,0.5271560896165302,0.009035991229209174,-5.984303701918355,-0.051467437205648794,12.49989904002429,0.4745668753266167
1.48,-0.27842645741572164,-0.06834632039319166,0.5805451946513747,-0.0051189380325163845,-0.2872317280196438,-0.016427369451742734,0.6729825020964105,0.014577159138787963,-5.0605982675957275,0.018305232148908553,10.284616532859504,0.40255849607125616
1.49,-0.2816337964262211,-0.06829454677000879,0.5876644606749347,-0.004753581713999308,-0.3477339864188696,-0.018568600131488196,0.7915751103474329,0.01880363203757532,-3.7299604571963383,0.10541732666791093,7.206648655679811,0.336201582132689
1.5,-0.28557115095695834,-0.06830741157716291,0.5961987482548239,-0.004351451910937245,-0.39104600020366315,-0.020274209344903406,0.8721695229809654,0.02174751528660502,-2.0785117772647417,0.2033591050174679,3.4527181476727336,0.28486264938155653
1.51,-0.29005479034929194,-0.06840498897349277,0.6057733303597268,-0.003944734668535828,-0.41298602966261494,-0.02115488386264438,0.906160155631596,0.023592123835321714,-0.22120234503491892,0.3032927610763149,-0.7298018798913718,0.2565729237628443
1.52,-0.29484883522717825,-0.06859722490704497,0.6159029938504785,-0.0035607023456496172,-0.4108213831932619,-0.020872722337927863,0.8879364980545317,0.024656577627326284,1.7060660312693314,0.3946506977867988,-5.049109742267458,0.2571495092078422
1.53,-0.2996803276406939,-0.0688819072630253,0.626019763284178,-0.0032181078760411368,-0.3835794581746478,-0.019193479596001078,0.815541898646973,0.02536539705267679,3.55642878952711,0.4659981520785982,-9.189619524907346,0.2894485221321581
1.54,-0.30425696067377717,-0.06924390148524301,0.6355072900336818,-0.002924659821335021,-0.33223422317213763,-0.01603305032719357,0.6910847027960353,0.02620523531392549,5.1834513684972645,0.5061048885762,-12.835615513150898,0.35282916646993673
1.55,-0.308286102732318,-0.0696558201699657,0.6437396670817431,-0.002675982352322788,-0.25974292726465664,-0.011491718557150836,0.5208462934856767,0.027672295187863228,6.453055215289796,0.5051413951315629,-15.696161251590928,0.44289475717918214
1.56,-0.31149426152820753,-0.07008022433351319,0.6501231980669443,-0.0024562539206069755,-0.17091862844165565,-0.005870387880337342,0.3150517287843965,0.03021509234509322,7.255008807421906,0.45589137424558196,-17.52929134326003,0.5515566940722221
1.57,-0.31364660827172275,-0.07047333944346268,0.6541402261389426,-0.0022404500031350033,-0.07213720306699718,0.00033551728281098266,0.08729501657513893,0.03417792445910861,7.512995526826992,0.35485753642253814,-18.163452545260668,0.6674417434288059
1.58,-0.314566368405566,-0.07079010403964868,0.6553940797715417,-0.0019978459454949742,0.029108114928298973,0.006466620441620857,-0.146359259716212,0.03975060521106888,7.19233501065106,0.2031343221912131,-17.51427049438318,0.7766337112336797
1.59,-0.31415364553094305,-0.07099016654950645,0.6536533763800015,-0.0016962379803479627,0.12477708665944998,0.011754098739409625,-0.36854565882858975,0.04692969554239877,6.304583884504908,0.006930773696109119,-15.59500162948832,0.8637101448385727
1.6,-0.31240256944410444,-0.07104422357086056,0.6488924339648391,-0.0013062651740505373,0.2069367803021801,0.015394682427591662,-0.5619579070686305,0.05549563393429965,4.908467661384436,-0.2223503490157591,-12.519473077162091,0.9130057732034429
1.61,-0.3094146930110751,-0.07093987755116761,0.6413227021057694,-0.0008052672916207372,0.26844809020120014,0.016639884724798028,-0.7107942499205536,0.06500890436073302,3.106882680268295,-0.4685360575541208,-8.496887427166767,0.9100096831399269
1.62,-0.3054056589848557,-0.07068604328922931,0.6314085862117796,-0.0001802573379118014,0.3036256955447514,0.014890816488137323,-0.8021667756234211,0.07482679580344606,1.0400333054065616,-0.7116233582399137,-3.8185315135781335,0.842785176776411
1.63,-0.30070181386522293,-0.0703149375538381,0.6198606956629428,0.0005702283732670755,0.30881052563229633,0.009788325629300114,-0.8273469063886076,0.08414053920047439,-1.124891718469239,-0.9291997177650042,1.1628752745942317,0.703291831147137
1.64,-0.2957240637728981,-0.06988090937058161,0.607601116426943,0.0014354574805321956,0.28279716635898644,0.001287623215331097,-0.782724333720216,0.09203080832493658,-3.206778573498513,-1.0982554995862557,6.059787384401131,0.4884897758773459
1.65,-0.2909579010173412,-0.06945580381475398,0.5956988593355275,0.002392904607507129,0.22706774636688967,-0.010292814333656846,-0.6703738887305558,0.09753789201176409,-5.025384160340179,-1.1972524192497989,10.480406049385728,0.201117092780755
1.66,-0.28691083827437464,-0.06912111593968626,0.5852784731591487,0.00340951158766183,0.14579832218664154,-0.024256405564306496,-0.49815359737203835,0.09974142552821819,-6.416669787510456,-1.2082737607704994,14.060793466783718,-0.14994789681643686
1.67,-0.28406091627760144,-0.06895776185999725,0.5774098152220273,0.004443525754952088,0.04562268852944089,-0.0395530162103184,-0.2792956205364821,0.09784352559461917,-7.247371329104225,-1.1190578850825932,16.495858097997573,-0.5497981630398796
1.68,-0.2828019668994127,-0.06903475699593775,0.5729910439136986,0.005446654809354733,-0.06483963453874227,-0.05484433889325123,-0.031496868865992976,0.09124859417427984,-7.427512422797516,-0.9247100725303615,17.566520739961874,-0.9781059448917117
1.69,-0.2833925290879904,-0.06939836529361267,0.572639244555076,0.006366376083823365,-0.1756616986177995,-0.06860713624630577,0.22443621965999447,0.0796329945307467,-6.919690924337365,-0.6289010445988346,17.160588352490713,-1.410209945868242
1.7,-0.2859155100241399,-0.07006332116409858,0.5766033173808364,0.007148379942285803,-0.2764426549928241,-0.0792669458663818,0.4662885990786563,0.06299827711057958,-5.7442024719588,-0.24439379114246185,15.285309291094306,-1.818624094499302
1.71,-0.2902547953273874,-0.07100751392050371,0.5847118041453555,0.007739240337042974,-0.357227506797053,-0.08535087651102204,0.6723442949742297,0.04170262389121453,-3.9793925284884013,0.20720825936747364,12.070229657991359,-2.174872611572729
1.72,-0.2960931366797397,-0.07217108504658541,0.5963644817420133,0.008089429937591599,-0.4094317737154074,-0.08564511073507199,0.8233344038697595,0.016466633318342295,-1.7570240731509634,0.6965329705758445,7.759766091392314,-2.4515246239744988
1.73,-0.3029330392551698,-0.07346028652633772,0.6105713422626334,0.008156717207231939,-0.42668473965405335,-0.07934107609021625,0.9042462996619752,-0.01164860494894289,0.747120886837834,1.188297876598243,2.6957894525657324,-2.6242790597474714
1.74,-0.3101394235633223,-0.0747557863316859,0.6260367424603674,0.007909828653191788,-0.4055081927076312,-0.06615422880536408,0.9058192732501151,-0.04129111533400024,3.3267594411183357,1.6438454468657517,-2.7086001008372573,-2.673939293671418
1.75,-0.3170000044926491,-0.07592450444560866,0.6412808757459492,0.007332088631770766,-0.3457592111939069,-0.04640111252204362,0.8255736757778217,-0.07089310239180903,5.761712408065157,2.024174345435356,-8.002113701208193,-2.5881183678831103
1.76,-0.3227970487590984,-0.07683362312237901,0.6547860898377756,0.006424622626447945,-0.25078485996808836,-0.021023720551961708,0.6682586417069856,-0.09876712496203745,7.836254396637997,2.29322732551114,-12.732474930324889,-2.362529958631678
1.77,-0.32688274278666235,-0.07736519251976395,0.665152522191278,0.005208666814297942,-0.12726204327483123,0.008445075729072845,0.4456545083065078,-0.12321712029774663,9.357669856209258,2.4211570365779806,-16.484680299344795,-2.001746893988608
1.78,-0.32874992313690865,-0.07742973621286944,0.671246292467922,0.0037265677678722416,0.01527510113831854,0.03997561103218213,0.17572547518034057,-0.14265650995283316,10.173408765602986,2.387275660393146,-18.917035436587007,-1.5193461929716356
1.79,-0.32809032063737753,-0.07697739583458361,0.6723240237450662,0.0020411555149406277,0.16518780015175327,0.07118958221198535,-0.11881986087584523,-0.1557246529072945,10.18531056483686,2.1824057200411464,-19.791789674836426,-0.9374046022441035
1.8,-0.3248336437147671,-0.07600539113137167,0.6681196292417237,0.00023330926573621974,0.3097047669655515,0.09955108051394937,-0.41244391585540213,-0.161392603161979,9.359579291537333,1.8103879201642712,-18.997585456533326,-0.28535802180088976
1.81,-0.31916272424217856,-0.07456090008696135,0.6588830243072765,-0.0016022940179855202,0.43603036626495706,0.12258443179181402,-0.6790063398463062,-0.1590495451759058,7.7315311625737,1.2885651420567112,-16.561592085944433,0.4017118660659238
1.82,-0.3115025027480003,-0.0727388963761668,0.6453655621629522,-0.0033630509276277843,0.5324898035746085,0.13809933036596886,-0.894101772650728,-0.14856242867083025,5.404570597875234,0.6471448894074683,-12.650052909867547,1.0852540772649566
1.83,-0.3024836164528933,-0.07067501095829033,0.628753083330817,-0.004945503630815369,0.5896060262055636,0.14440214100858897,-1.037294338511409,-0.13030314740568674,2.543344785164971,-0.07256141857523647,-7.556967516335495,1.7257392802917837
1.84,-0.29288434831596183,-0.0685340512170741,0.6105536445330527,-0.0062530050837455884,0.6010068363591724,0.14047269365847823,-1.0940391669342413,-0.10513998284170495,-0.6384632271034969,-0.8209233841424012,-1.6816684396267902,2.2852884247266747
1.85,-0.2835571838728189,-0.06649531193465179,0.5924522001720672,-0.007203264241253578,0.5640744755052283,0.12608842346726676,-1.0571068032802216,-0.07439278375531364,-3.8947632645935544,-1.543606176141985,4.502958510212826,2.730247411001808
1.86,-0.27534780034788864,-0.06473615096178556,0.5761479021951951,-0.007735054098043339,0.4802724615962679,0.1018821160691145,-0.9273702394803528,-0.03975425313844304,-6.96676370592733,-2.185738308747808,10.489010823941697,3.0335161663198686
1.87,-0.26901481993959064,-0.06341543789207636,0.5631909030693494,-0.007813445160851333,0.3551136564437514,0.0693254083354518,-0.713872357328702,-0.0031825153393575654,-9.604116545034747,-2.69629657265138,15.775631932973647,3.1764556221196996
1.88,-0.2651581747496652,-0.06265843955237899,0.5548347257054751,-0.007433059142844477,0.19776661921407182,0.030637013082320873,-0.4331582611139533,0.03322741165958102,-11.585712567348205,-3.032340641614057,19.911017341278512,3.1502254058975394
1.89,-0.26416267848324326,-0.06254453482686687,0.5519178594286376,-0.006619006136503939,0.02033105699464658,-0.01137827651209213,-0.10792579957741823,0.06738374038131399,-12.738342462896787,-3.1627305683576212,22.53074522235467,2.9564464273443507
1.9,-0.266161662532863,-0.06309889577402121,0.5547848402361825,-0.0054253739001826964,-0.16315568051399104,-0.053547086350739,0.23488819083282847,0.09733902391862728,-12.951603193826488,-3.0709940257907515,23.389098178296447,2.6071327880146344
1.91,-0.27102358242186514,-0.06428894815933814,0.5632532180902249,-0.003931371519356414,-0.3378936463357746,-0.09258317626350189,0.566415039586227,0.12142140878208228,-12.187737872225155,-2.7570745445103544,22.380627981658336,2.1238926297260385
1.92,-0.2783625236634569,-0.06602603300356227,0.5766288450441213,-0.0022354559699331723,-0.4895721574240046,-0.12535915936678232,0.858346657816248,0.1383458732063767,-10.485525334351259,-2.2377820306794423,19.550049045858124,1.5364532603122345
1.93,-0.28757160522396513,-0.06817223738049004,0.5937679416323409,-0.0004479449857200495,-0.6055862878524975,-0.14917014486180807,1.0853875421397066,0.14729685216284835,-7.957844932200966,-1.5458749180620703,15.089555223783414,0.8806176701790313
1.94,-0.297876393898891,-0.07055187224849918,0.6131804275782718,0.0013172751641799072,-0.6761089158834379,-0.1619656083044196,1.227444530225486,0.1479759536979843,-4.783087514126613,-0.7278200009757378,9.323747963085053,0.19580318495889656
1.95,-0.30840364059864295,-0.07296659456103553,0.6331651785988575,0.002951286607160905,-0.6949225968555263,-0.16252841609757407,1.2713572420004249,0.1406113201499916,-1.1911163241893334,0.15960905569524703,2.683443405258834,-0.47765505825007826
1.96,-0.31825908727809615,-0.0752127651890252,0.6519645918424587,0.004358235699271939,-0.6599378069504962,-0.15058455402023763,1.2120153498194013,0.12592833018023739,2.5550461866473837,1.0536306899122359,-4.329405653802848,-1.1012354680749097
1.97,-0.326607030565359,-0.07709937176538478,0.6679236733355474,0.0054622936288931155,-0.5733531159760232,-0.12683329948892702,1.0527661921868876,0.10508449249683419,6.180260233200037,1.890306714169836,-11.182667113090483,-1.6407939043706148
1.98,-0.3327440084377544,-0.07846477376440943,0.679638272610039,0.006212816875942074,-0.4414457787803097,-0.09289474728797964,0.8050821583015629,0.07957426727641466,9.4192602824155,2.6095483924661047,-17.357357826710256,-2.0687717546375275
1.99,-0.33615950339076467,-0.07919065316154704,0.6860782218946546,0.006587150341066868,-0.2740149102197324,-0.05117906737418765,0.4875253329055516,0.05111191050607314,12.037740260809562,3.1598615372195225,-22.389643445910338,-2.365888399324665
2.0,-0.33657786120716565,-0.07921184985370697,0.6866737719813223,0.00659073646711618,-0.08353061833103775,-0.004688932854967592,0.1241105819174247,0.021502065147489088,13.850761961295982,3.5024325070689373,-25.907946901367435,-2.5221992092119683
2.01,-0.3339775288139602,-0.07852118437650106,0.6813574482118399,0.0062545219929407295,0.11593171152946084,0.04322745865040407,-0.2577784227403552,-0.007491412047689891,14.736956284199925,3.6142093309302967,-27.662052068170002,-2.5374501244739247
2.02,-0.32858600485174283,-0.07716887724592217,0.670557867319815,0.0056300314246889235,0.30987471938657574,0.08915099301112493,-0.6297276923022319,-0.03426804749096351,14.647359097859026,3.489714813574181,-27.541809155943973,-2.4207147003886917
2.03,-0.3208513641258906,-0.07525671701691602,0.6551468084673486,0.004782808180485787,0.4845739414123167,0.12986977155620216,-0.9646739238723835,-0.057495454551832,13.608193732446225,3.1414342878262937,-25.58397212811996,-2.189354856725143
2.04,-0.31139365112305634,-0.07292765590402385,0.6363455785293525,0.003785121955449819,0.6281794178279603,0.16263655588874154,-1.2391166127914446,-0.07618860734762288,11.71743790967199,2.5987404978772224,-21.966741447614126,-1.8673980333011528
2.05,-0.30094159602230613,-0.07035196958653903,0.6156010242056779,0.0027088624570592236,0.7316299961626455,0.18538341315565868,-1.4349699996703678,-0.08975849860785326,9.135547215546708,1.9054415250284449,-16.992653342244097,-1.4834670004892234
2.06,-0.29026170041126637,-0.06771145309495723,0.5944448549248442,0.0016194034688887088,0.7893054189574013,0.1968755259587774,-1.5409008468703032,-0.09802768662092118,6.071202803872867,1.1161540063126092,-11.061454228961756,-1.068430862375194
2.07,-0.28008747549887253,-0.06518328534121094,0.5743516331884105,0.0005709841838069908,0.7993667319099687,0.19679177645535906,-1.5530484720681557,-0.10121301641009516,2.7633647251577798,0.29180311482554266,-4.635438286772248,-0.6529644368363758
2.08,-0.27105630316028917,-0.06292514751850549,0.5566104335243537,-0.0003961203875404568,0.7637647439170918,0.185726380617885,-1.4750819393369212,-0.09987842498189241,-0.538791114690958,-0.5053756190940997,1.7996646429741008,-0.2652069428975745
2.09,-0.2636600549584843,-0.06106293559298124,0.5422227666744129,-0.0012566321896031528,0.6879263773494148,0.16511290578680554,-1.3176100956504764,-0.09486299489341728,-3.5963191084836152,-1.2169157748187034,7.774834827391903,0.07130028302686259
2.1,-0.2582135052313326,-0.059682023535337476,0.531835384274455,-0.001999716963353619,0.5801569476520676,0.1370788019828605,-1.0970175005305833,-0.08719113803216287,-6.199597376783022,-1.7928573695626961,12.875501818882217,0.3392423578420027
2.11,-0.2548421134725967,-0.058822594061715104,0.5257117868596135,-0.002627205436082378,0.4508201827700552,0.10424450614807874,-0.8338480321370891,-0.07797286602223824,-8.184480337432781,-2.1957476675890795,16.773713578345717,0.5286077023314198
2.12,-0.25348835349726845,-0.05847912798768254,0.5237414739021191,-0.003151015473493501,0.3113751375174068,0.06948572707435885,-0.5508938959967097,-0.06830249292104576,-9.44420467102331,-2.4035730729555027,19.25211968284514,0.6371404277928805
2.13,-0.2539338009590134,-0.058603774317293085,0.5254819215679505,-0.0035901853654612273,0.173358770221711,0.03568031699563237,-0.2711681272427606,-0.05916383887327139,-9.936132880462784,-2.411379207799804,20.217917399536034,0.6701457072937675
2.14,-0.25583292542479097,-0.05911303354021239,0.5302255085469949,-0.003967849160801117,0.04740430208515915,0.0054619832648848225,-0.015942258731690993,-0.05134913138716512,-9.682880133807197,-2.2314456387353183,19.705819248303975,0.6396767388875344
2.15,-0.25875408504815084,-0.059896991369067835,0.5370824275231529,-0.004308380801056927,-0.05762116938839076,-0.018998028799033468,0.1969819685592082,-0.04539744443350572,-8.767861629146175,-1.8920017356543444,17.870072625014057,0.5631800776378822
2.16,-0.26222349445045257,-0.06083024196644208,0.5450709063103096,-0.004634843769073565,-0.13529001414515512,-0.036163086166584237,0.35462526188119775,-0.04155680975590874,-7.3257761339354905,-1.434590890760167,14.96650947967018,0.4617176451209036
2.17,-0.2657686251393862,-0.06178361621527905,0.5532072628018851,-0.0049668260532542315,-0.18204775186156197,-0.04524339275414676,0.4497048752911185,-0.039772224834823525,-5.5289655517252925,-0.9103019530133962,11.326444547880634,0.35791554537990294
2.18,-0.2689582254203347,-0.06263584143689695,0.5605896846945145,-0.005318711380776394,-0.19737916662704622,-0.04624003642360481,0.4809733028755811,-0.03969981060390417,-3.5709249217776566,-0.37518031067809365,7.324903259463187,0.27380964125731366
2.19,-0.27143666146203294,-0.06328427409325878,0.5664706345098404,-0.0056984222659875105,-0.18370305923201238,-0.039918672598027484,0.45301378619386334,-0.04074546994128511,-1.6484552934167507,0.11480074970579092,3.3460916183077063,0.2287643312458514
2.2,-0.2729505651892152,-0.06365386827971227,0.5703133756808229,-0.006106657035183801,-0.14601521230531353,-0.02771674459180075,0.37553246605269675,-0.04212467754802624,0.05596277421199285,0.5087901580937036,-0.2508119006717467,0.23763378921623837
2.21,-0.2733660047636492,-0.0637036017714397,0.5718286368245047,-0.006536624139736934,-0.09131982091129542,-0.011593723680316874,0.26222908417397306,-0.04293858425527016,1.3900492055835387,0.7657080629758926,-3.162566219423517,0.30931478293996706
2.22,-0.2726748173764685,-0.06342972095786542,0.5709883678118686,-0.006974247242967116,-0.02790601701593181,0.006161528134142134,0.12936130487902123,-0.04226051366374176,2.244513692197681,0.8581001828142542,-5.166862807684573,0.4458087183803118
2.23,-0.2709895371405491,-0.0628654165996709,0.5680152438158272,-0.007398775588330291,0.03546296355913825,0.02314887324836905,-0.005860442448605851,-0.03922621564760377,2.561703311455862,0.774863974212982,-6.139367830997699,0.6418702273672867
2.24,-0.26852749226337014,-0.062076897936638877,0.5633490109260293,-0.007783703277663338,0.09037559225613913,0.03708135271324725,-0.12690152189127055,-0.03312095068770585,2.339435079444337,0.5225993584782975,-6.0615143178908735,0.8852735156506524
2.25,-0.26558589477599637,-0.06115624072359627,0.5575934710932292,-0.008097906029960737,0.12954181265398365,0.04599675027541651,-0.21941261713467083,-0.023456625629872507,1.629768139409734,0.1254427687016715,-5.018583841166327,1.1576793035226076
2.26,-0.26251077003443907,-0.06021176453827046,0.5514502037514757,-0.008306959436152513,0.14744286384677457,0.048438542783549136,-0.27249333347119054,-0.010032783646750197,0.5329117011626779,-0.37663878127575745,-3.188474504311792,1.4360381536460591
2.27,-0.25966313132638746,-0.05935697303220545,0.5456464908814499,-0.008374689366928327,0.14080931797548865,0.04359143073374391,-0.27960854806011126,0.007023749571093712,-0.8131179628922112,-0.9309955899634336,-0.8223559523472104,1.6944238049697846
2.28,-0.25738583318746516,-0.058699226155200575,0.5408651468140039,-0.008265076483082346,0.10889126704720645,0.03136067557857345,-0.23908916228805588,0.027244382527665176,-2.2461199007775616,-1.4766710791235902,1.780905039536355,1.906155963609686
2.29,-0.2559741048715069,-0.05832929646761495,0.5376831172384894,-0.007944647492901602,0.05350268656059071,0.012389244491533077,-0.15418623844581805,0.04983155760917805,-3.5953684470544967,-1.9496889547616354,4.304158811194689,2.046048393006432
2.3,-0.25565200348337164,-0.058312806037116936,0.5365240280654094,-0.007385415246437963,-0.021159103230653804,-0.011988137512265644,-0.03268592860190494,0.0736990185415668,-4.697908003239773,-2.28885341276901,6.442547392155395,2.0926068695557682
2.31,-0.2565560929350953,-0.05868427654810193,0.5376276685950432,-0.00656828719430453,-0.10889974950393966,-0.03984992276639867,0.11387102377186388,0.0975376688154449,-5.414039967962713,-2.441609073147065,7.932506187610063,2.0300034905122306
2.32,-0.25872672323992896,-0.0594441969981829,0.5410370951300885,-0.005486680063816368,-0.20208465309465973,-0.06884303183295881,0.27128991377,0.11990309061829495,-5.640641984505781,-2.36948334449994,8.576641733392615,1.8496688279283515
2.33,-0.2621065176081035,-0.06055917188697293,0.5466020544192224,-0.004149904234277374,-0.292317928294852,-0.09637614269234504,0.42404314734718573,0.13931890132330163,-5.321156791598864,-2.0526434292094655,8.262332394815198,1.5513704351235384
2.34,-0.26654519095734414,-0.061964908615445326,0.5539960774225569,-0.002585762337943572,-0.3711862540045492,-0.11983593128064148,0.5566963855881779,0.1543885556504444,-4.45138170202879,-1.4931436979843322,6.97247473829939,1.1436832559314403
2.35,-0.2718096729427789,-0.06357157937321273,0.5627440567637423,-0.0008417808277613503,-0.43100590376485576,-0.13680970130781397,0.6553182742217352,0.16390711381222278,-3.0805547767028587,-0.7165152402007302,4.78750019289443,0.6438018367887516
2.36,-0.27759865657569305,-0.06527097754709249,0.5722573715629525,0.0010154213731281548,-0.46551156582117686,-0.14529754038640189,0.7087558289175164,0.1669640250324936,-1.3076392795869571,0.22854534298946294,1.8785531488793126,0.07669262510628075
2.37,-0.28356099955171726,-0.0669448759641963,0.5818743859126643,0.002902932406045521,-0.4704305219033195,-0.14389800201695144,0.7096701912121777,0.16302821763307762,0.7268798269783849,1.272501597052677,-1.5075128123373958,-0.5263665185998102
2.38,-0.2893176351943695,-0.0684740357933361,0.5909049161095022,0.004726551640485122,-0.44389492520935386,-0.1319532129894844,0.6552480056956914,0.1520077808040287,2.8529888491073825,2.329284683978495,-5.069963688626151,-1.1297667630797028
2.39,-0.29448657651825344,-0.06974734395021988,0.5986775196246836,0.006387726997138697,-0.38665761862610265,-0.10964206219005589,0.5475304044854844,0.13427823984672907,4.885903658753258,3.3023949506382735,-8.48090506957844,-1.6959366581569235
2.4,-0.2987101512701838,-0.07067053680869673,0.6045880051021703,0.007791848802560401,-0.3020922546519992,-0.07801352516242567,0.3933324595251995,0.11067576251876839,6.6423294198912055,4.092455633587515,-11.414552847716866,-2.1879364727624204
2.41,-0.30168294064301593,-0.07117392038312012,0.6081466538005904,0.008857063820546393,-0.1959753367963276,-0.03895599200577184,0.20375868282101864,0.08245441443454256,7.956823701044855,4.605733736202262,-13.576509498008514,-2.5720981744251064
2.42,-0.3031782940745182,-0.07121848264945198,0.6090208031833093,0.009522605332398711,-0.07606500128996249,0.004897527646146074,-0.0066476700118353015,0.05120957291431696,8.696847650571593,4.763022200100428,-14.730513372733013,-2.8205249839680637
2.43,-0.30307099826580614,-0.0707998642562464,0.6070691079544516,0.009755603598708307,0.04849234807809534,0.05032445351335894,-0.22105445199044665,0.018772540186081623,8.775191299843025,4.508189378039328,-14.72035504622754,-2.913271703502094
2.44,-0.3013537520032897,-0.06994981218688867,0.6023640493333884,0.00955546606442438,0.1678822702747863,0.0937202620581372,-0.42169835857152993,-0.01291601267378887,8.158671344558911,3.8156564206017336,-13.485074528047837,-2.8400465963751977
2.45,-0.29814542638081243,-0.0687349395059194,0.5951998749917256,0.008955176354123838,0.2724131701500666,0.13134755021112343,-0.5913419311735034,-0.04194415037557794,6.872306148910006,2.6960688842104963,-11.066129539808665,-2.601305953386032
2.46,-0.2936895411194119,-0.06725279966848634,0.5860838710690437,0.008019203579561018,0.35331485283507913,0.1596123919635489,-0.7147121728323289,-0.06656752654348759,4.998548687075391,1.1994916429089535,-7.605908741429468,-2.2086513534835928
2.47,-0.2883419773590386,-0.06562544593291347,0.5757097363611023,0.006838093282117238,0.4034798133407117,0.17535141667735712,-0.7798032006668407,-0.08533794721640665,2.671573275545031,-0.5844211987749779,-3.337696954248043,-1.684484257860315
2.48,-0.28254781857255484,-0.06399082003256287,0.5649131386718059,0.005520206391922214,0.41808550037938547,0.17611128295827805,-0.7789347585783671,-0.09721134667520762,0.06703233127028486,-2.529648502646911,1.4320795619580917,-1.060919940881527
2.49,-0.2768084274517955,-0.06249252864665838,0.5546114472800501,0.004181458498265689,0.3950440259219301,0.16040123806590453,-0.7094766188647902,-0.1016265313705011,-2.611909774580124,-4.480549679903748,6.34785119173148,-0.3780098245478027
2.5,-0.2716412459844923,-0.06126879751942016,0.54573188542903,0.0029342290214044646,0.33523860109370224,0.12789934408443504,-0.5741747010025635,-0.0985484557806102,-5.151130291849053,-6.261995468044181,11.033147835922536,0.318634773603726
2.51,-0.2675359888679515,-0.06044156997891467,0.5391343361977942,0.0018767739462940522,0.24252248746008914,0.07959382940793835,-0.3810462669745092,-0.08847271947713672,-7.3433159476977785,-7.692438736244525,15.120735901664846,0.9806860641129626
2.52,-0.26491156756662554,-0.060106766685892966,0.5355362056220753,0.0010844244982433334,0.12347523545110332,0.017843000443990915,-0.14284641239107718,-0.07239113089368614,-9.005446356231584,-8.599176538324302,18.282145539407686,1.5602479932647828
2.53,-0.2640780998051817,-0.06032661116245907,0.535446832694343,0.0006035837691503405,-0.013069050158731502,-0.053659673886005364,0.12385651471090664,-0.05172126754450386,-9.994493312085018,-8.834769065584045,20.25414222595365,2.0131246270677616
2.54,-0.2652077687414464,-0.061124660891572966,0.539117969132382,0.000449096432833086,-0.1566873621563633,-0.1300242420560554,0.3999259056379417,-0.028205691077029228,-10.219962513730861,-8.29334271657545,20.85996040162376,2.302011397808075
2.55,-0.26831724193146234,-0.06248381689553486,0.5465150607112655,0.0006050497486798434,-0.2961762931043513,-0.20540991587398652,0.6651238354442168,-0.00378861592604379,-9.652149682862445,-6.9253407220810415,20.02356321969945,2.39940898968842
2.56,-0.27326304148626585,-0.06434719791343305,0.5573117895860483,0.0010285664406964367,-0.42043913407413286,-0.2733739403905959,0.8996814525210765,0.019520774886963847,-8.325329637835665,-4.7492212299317185,17.775783184963167,2.2900664447790424
2.57,-0.2797499057027638,-0.06662145355057605,0.5709079877195774,0.0016557673673770741,-0.5193792042146933,-0.3273119935785186,1.085843939691577,0.03978859268603743,-6.3355177356210355,-1.8586604603231194,14.251882918403705,1.9727762745035406
2.58,-0.2873510379592779,-0.06918193258344807,0.586469012698969,0.0024088887366487026,-0.5847248663075721,-0.3609698104534744,1.209261651035259,0.05529052290545902,-3.8329044062580584,1.575988841235999,9.680794894242675,1.461369532421078
2.59,-0.2955383881531045,-0.07187915111906612,0.602983303428574,0.003203568909733813,-0.6107158116868364,-0.3689969721734903,1.260110596578556,0.06463146405121219,-1.009527137864341,5.3129020952610695,4.366992203024406,0.7847924659127025
2.6,-0.30372079736322044,-0.07454618807442227,0.6193341777178659,0.003955547443056717,-0.5945904731998153,-0.3475055854548842,1.2338473729741497,0.06684330461570748,1.9168291927269654,9.05110724937006,-1.333450002444842,-0.01381198642404469
2.61,-0.3112877853967788,-0.07700687510535723,0.63438171262697,0.004586354100059376,-0.5368301453038679,-0.29458972619658685,1.131534235879121,0.061455392465126116,4.721160793685032,12.449814187842195,-7.040572434751483,-0.8790455390644639
2.62,-0.3176566473436998,-0.07908481862409102,0.647050213282339,0.0050278865988033,-0.44113535283138505,-0.2107569519206021,0.959706749640992,0.048534168907143974,7.190614381344135,15.153989021206266,-12.379705750854258,-1.746190796013121
2.63,-0.32232007839661253,-0.08061330010813936,0.6564158690395716,0.005225985697429465,-0.314132596095215,-0.09922183655262777,0.7297961553118384,0.028690323002159117,9.142996022712367,16.824740432891755,-17.009685458111605,-2.5450534043876822
2.64,-0.32489075994557287,-0.08144593356322553,0.6617877260233336,0.00514317932175909,-0.16483290268082165,0.033985797790964625,0.4571577112572015,0.0030535357862693214,10.442749596261137,17.17244286085928,-20.64780789253654,-3.204556543248091
2.65,-0.32513851124283144,-0.08146767723516728,0.6627736296891195,0.004760705548097866,-0.0038855978052124724,0.1801378282091726,0.15979116193319126,-0.02678365247421933,11.01291441957436,15.98997280130624,-23.089538989278424,-3.6578685839876246
2.66,-0.32301520436050607,-0.08060549977396023,0.6593221785458898,0.004079790553841876,0.15731062399940995,0.32817732129774335,-0.14313315701794613,-0.05885013069523509,10.84188828720599,13.183044855757107,-24.22146596775274,-3.8477817427667333
2.67,-0.3186630988357462,-0.07883778957103842,0.6517328056689186,0.003122017135218236,0.30756364001080605,0.46535045337850495,-0.4328119793426714,-0.09090499994464162,9.98425380701592,8.794463499605538,-24.026583802596253,-3.7320036022632377
2.68,-0.3124038184132105,-0.07620154323943544,0.6406292972063293,0.001928538796385815,0.4368279841002345,0.5780889321316434,-0.6922749013635839,-0.12056643248610358,8.555439391305176,3.0192039049459987,-22.581679205302738,-3.287979869339635
2.69,-0.3047077508513172,-0.07279649070871184,0.6268970931918117,0.0005579265443665697,0.5370462467527103,0.6531060397296647,-0.907650342473876,-0.14545552615224946,6.720540021305013,-3.7923682030562635,-20.0472548243834,-2.516841587578761
2.7,-0.2961466848728613,-0.06878555077721417,0.6115905461518195,-0.0009174086788705307,0.6028163872741202,0.678643111610527,-1.0691234688542823,-0.16334941795795088,4.678170151302941,-11.145123893284946,-16.65106523227957,-1.4460692794920011
2.71,-0.2873352494878605,-0.0643912553300368,0.59582145902048,-0.002416044811921452,0.6318238473046587,0.6457778997228506,-1.1715078829584233,-0.17233720432312777,2.640713458285597,-18.424640884612487,-12.666858959536782,-0.130495679829263
2.72,-0.2788685090176742,-0.059887944615492836,0.5806433936281111,-0.0038532383852696566,0.6249973506768116,0.549684520878888,-1.2143902051523352,-0.17097140852404522,0.8127255900628975,-24.937283313944196,-8.390292514273703,1.3486678924162585
2.73,-0.27126354007356174,-0.05558960605658427,0.5669467967256966,-0.00514695146575882,0.5863712667682202,0.3907194158338257,-1.2018475953636885,-0.15840686397115036,-0.6305029696271375,-29.963274081067702,-4.114172369343628,2.8869966821087725
2.74,-0.2649120015092681,-0.05183326873393823,0.555378024062651,-0.006223660615694226,0.5226633092380867,0.17520171642658433,-1.141778661125027,-0.13451803210377697,-1.5621358514080605,-32.81970775681017,-0.10517560411649135,4.362288750504407
2.75,-0.2600488981536569,-0.048957973263552564,0.5462914580575983,-0.007023439025724337,0.44260185859965956,-0.08423797895334936,-1.0449239999208932,-0.09998509666041022,-1.9187490217892575,-32.929094795334755,3.4159964589701506,5.642184667330678
2.76,-0.256740342837755,-0.0472795947639659,0.5397389467356938,-0.007503898457309262,0.3560600835381448,-0.36884751852346853,-0.923680250722729,-0.056338876593241057,-1.7093689867869182,-29.887886601331527,6.289443012540353,6.593692051326917
2.77,-0.2548905550875524,-0.047062242434971355,0.535495600261998,-0.00764270981532563,0.2730722777092397,-0.6545560560532935,-0.7908282967927025,-0.005954917997003458,-1.017367739267941,-23.528644059974834,8.424776616957722,7.094133735995498
2.78,-0.2542659631706473,-0.048487578400747314,0.5331163203749985,-0.007438586969750066,0.20281982681488459,-0.9134179984515701,-0.6583006677221076,0.04801169213737009,0.005400808358045412,-13.969203858160556,9.803216453492006,7.042839616167278
2.79,-0.2545323816912194,-0.051624128499776135,0.5320138775262322,-0.006910804302430795,0.15267892097892838,-1.1156689402208626,-0.5361050660538692,0.10175698393320293,1.1521334733678221,-1.6424640258376195,10.473166107176517,6.372725900766409
2.8,-0.2553000137061859,-0.05639940071536324,0.5315472552631958,-0.006097491391312066,0.12741909197658938,-1.232299793393309,-0.4315014527329275,0.15102693799763622,2.18144541639767,12.698691589361706,10.539964442632629,5.060771656761196
2.81,-0.256170590094105,-0.06257826791554329,0.5311085412772674,-0.005053066476332538,0.1286310728717108,-1.2379883200138775,-0.34850159240706685,0.1913824500636394,2.843018153836947,28.0052769305138,10.151002371337439,3.136331236184065
2.82,-0.256781338109348,-0.06975148973617824,0.5301978735771222,-0.003845202676892303,0.15444512172661343,-1.114164276236282,-0.28772558659472663,0.21852249771023588,2.906344045253352,42.98672996035232,9.477778200260655,0.6862304686992399
2.83,-0.2568415527925712,-0.07733831355083624,0.5284785879631039,-0.0025516602121049537,0.199578091387061,-0.851932439981387,-0.24661340821732342,0.2286508560949949,2.189909065950657,56.195342548795814,8.696688268033666,-2.144301758893791
2.84,-0.2561590440001867,-0.0846066681898844,0.5258081640624703,-0.0012571826714060032,0.2557208181547763,-0.45454411656467325,-0.21995456912102182,0.21886463415097776,0.587891970227305,66.13699828936433,7.970401462592713,-5.155609164932401
2.85,-0.2546552805431012,-0.09071343294855735,0.5222440779538134,-5.048067171106101e-05,0.3122487564635612,0.06090108573317029,-0.20066924486073523,0.18753613949520645,-1.9085537049598398,71.40171079129328,7.431546149024939,-8.102926471774968
2.86,-0.2523693658393696,-0.09476559207662945,0.5180266508993506,0.0009788500330577808,0.3572102517484665,0.6628201054141817,-0.1807522086503554,0.1346539330264102,-5.198105219613095,70.80475208798545,7.170162182210362,-10.711077746745856
2.87,-0.249451936369039,-0.09590084221585392,0.5135431708949476,0.0017437726362788154,0.3785204857992822,1.3058202919653228,-0.1522786145141218,0.062085283332724055,-9.06629597095084,63.52694543807498,7.225969239759488,-12.694122988279224
2.88,-0.24615067187629802,-0.09338357826445705,0.5092789206974253,0.002163989793888805,0.36526693044177355,1.9328367526626051,-0.10836877300041221,-0.02627855269436177,-13.19410357604446,49.241238042528984,7.586016701180872,-13.779012427485764
2.89,-0.24278938023228733,-0.08670939047806472,0.5057613214511262,0.0021712097596382294,0.3090159130396142,2.4787694618512437,-0.044017253158739535,-0.12452995662333546,-17.178452460301628,28.212199663283382,8.187757381048035,-13.731798883931225
2.9,-0.23974261835382832,-0.0757085676776783,0.5035032845047172,0.001715688113631593,0.20500117605278306,2.875514717744535,0.043291386350011556,-0.22493422288215742,-20.563861322343037,1.3557822770038739,8.927077237189065,-12.384495413674045
2.91,-0.23740760329178337,-0.060636960211628135,0.5029511909101823,0.0007739341755767096,0.053075300442263613,3.058130608913327,0.15323427767512296,-0.31831788148127754,-22.8833050502314,-29.75139381941318,9.670362625694645,-9.660298179709901
2.92,-0.23617484771904246,-0.04224126508392655,0.5044418490939652,-0.000642937741690023,-0.14168568016096075,2.9717213173633583,0.2825956465714456,-0.39465802006765693,-23.705264090113698,-62.9208136259847,10.269335632025436,-5.594672037719702
2.93,-0.23639862459550862,-0.021785687421711393,0.5081714693356213,-0.002481174468721462,-0.36881499135212975,2.5784858126489114,0.42550328967076206,-0.44385572303494947,-22.68301052037046,-95.4622594066907,10.577165806588143,-0.3497624522529806
2.94,-0.23836812099061278,-0.001028281100162056,0.5141782759947378,-0.004638011045313393,-0.612787213059399,1.8642691718580433,0.5739260756877965,-0.45665576275486836,-19.601533535589663,-124.35372855426226,10.46428968708594,5.780214589799087
2.95,-0.2422800512821736,0.0178617521938459,0.5223389887150103,-0.006958536133908441,-0.8538751559333136,0.8438951601338166,0.718379039984246,-0.4256532516150554,-14.41722792894494,-146.46387205314,9.832440199552536,12.374524687612592
2.96,-0.24821360328417222,0.032449895417438236,0.5323781797205158,-0.009237397784078555,-1.069513927269454,-0.43543974551632225,0.8487652265018045,-0.34630817558216126,-7.285623757264856,-158.8142197356171,8.62559504481262,18.90366133170868
2.97,-0.25610888701169315,0.04024323700933329,0.5438885799639942,-0.011226730015593513,-1.2361079174267733,-1.8933586552323958,0.9552732589811382,-0.21787288630829568,1.4269428290253743,-158.86341249514928,6.836872933139029,24.75965385859552
2.98,-0.2657504980664802,0.038949156245230813,0.556359836352142,-0.012651197217709565,-1.3311694348646088,-3.4185843968931366,1.0292472439661395,-0.044128055896320274,11.150734826964964,-144.79160736591365,4.510805870232732,29.29824872253344
2.99,-0.2767582978760894,0.026768584877889454,0.5692130102508147,-0.013230315549782995,-1.3356343311973733,-4.874591699994333,1.0639508460186,0.166178595611235,21.14061921754472,-115.76063303058378,1.7408552888516358,31.891117171636047
3.0,-0.288587909969036,0.0026989589832092384,0.58183817407944,-0.012707259602980941,-1.2361644767816011,-6.108638090252986,1.0551593976766067,0.3992876707184946,30.524384757417046,-72.12474193030907,-1.3375219864780141,31.985068872575084
3.01,-0.3005435774038072,-0.033184674994940606,0.5936326969548976,-0.010882283744518328,-1.0272236859590576,-6.963860651577775,1.0015313382507467,0.6368546867730026,38.36909488665729,-15.568193696978948,-4.557555194988657,29.16416483211734
3.02,-0.3118057869892521,-0.07950660158617794,0.6040381280037377,-0.007647808684749164,-0.7127065835191848,-7.293789530474014,0.9047313508114228,0.8568943558921462,43.76119428526552,50.850489414694884,-7.734565237830706,23.209733762460253
3.03,-0.32147535671155136,-0.1334634002769061,0.6125739425312496,-0.003021296048791622,-0.3069120502803838,-6.978306376124214,0.7693002982314816,1.0352485444609034,45.8942614777065,122.7620245323997,-10.680853388615402,14.152712005334134
3.04,-0.3286344580590125,-0.19082899757175797,0.6188667321583731,0.0028285994139211432,0.16531391407144344,-5.939800076613874,0.6022894114967039,1.1475358497740595,44.156847092975624,194.664497547564,-13.220733291929541,2.312545055877402
3.05,-0.3324232867464374,-0.246121705516263,0.6226735263296594,0.009567338460227164,0.6693867435883957,-4.158076305769167,0.41269623905437225,1.1714884282604443,38.2119417882769,260.2140876817953,-15.204391313887779,-11.682816248436584
3.06,-0.33212887649942524,-0.29295249297614956,0.623897707439441,0.01669575691588395,1.1627906248497988,-1.6824911857096863,0.2107559726832289,1.0895294272139382,28.059432239441936,312.6167628436587,-16.519402159285924,-26.90047592884019
3.07,-0.32728013616602303,-0.3245588465722135,0.6225955981998716,0.02357100053673258,1.5978434946696534,1.3601745092593935,0.0071526588031148135,0.8913970437401834,14.073531247861187,345.09981212286715,-17.098968380680333,-42.13301966343654
3.08,-0.3177410325966774,-0.33451024521155986,0.6189717518945302,0.029449564734648773,1.9252816151566465,4.763393200700153,-0.18778030222463618,0.5765840822448013,-2.9913534491188485,351.4334885648141,-16.926268468606533,-55.95729396092283
3.09,-0.3037924095292873,-0.3175508072807582,0.6133617439305952,0.033553076455178577,2.0984283164338793,8.24507735695748,-0.3648023272471829,0.1563399583757198,-22.030557400116834,326.466180302444,-16.034657385808984,-66.82080497938213
3.1,-0.286192502527027,-0.27052379934831405,0.6062028966459695,0.03515525176516468,2.077623544183142,11.458766495092647,-0.5163897754896171,-0.3450202146432319,-41.65617251536875,266.63214636531734,-14.50383180081112,-73.15252800232533
3.11,-0.26620678772788026,-0.1933034401485951,0.597995377472871,0.03368597961234401,1.8345224875744301,14.011738600244247,-0.6371937937000566,-0.8897343159754902,-60.298941139478515,170.389519557734,-12.45241655489474,-73.49236217337524
3.12,-0.2455992303300693,-0.08964399548453923,0.5892577550337885,0.028845886382181912,1.3558326406429002,15.489344721226153,-0.7243000353004835,-1.427329651682441,-76.33916815585498,38.54834225281985,-10.027719309930184,-66.63103747017367
3.13,-0.226579152171183,0.03215320841778948,0.5804818596373198,0.020722234552528675,0.6460575246029733,15.484234438254584,-0.7772771165605449,-1.8965982651076374,-88.25724189275435,-125.54606162664626,-7.393613267914187,-51.750208411156606
3.14,-0.2117008380785591,0.15885541131421385,0.5720916585852439,0.009894860527489835,-0.2711422863584614,13.628562773340866,-0.7980199289745488,-2.2288421442768778,-94.7912900015365,-316.0002860575264,-4.7176277592538725,-28.55097810354815
3.15,-0.20371673901070927,0.2722885443721897,0.5644101959970406,-0.0024806379195513274,-1.353272136326067,9.626806482898427,-0.7904119332151397,-2.352312922386631,-95.08726960379126,-524.545001541798,-2.1583469018589208,2.641605974537646
3.16,-0.20538965669293707,0.3497741423838689,0.5576378209126264,-0.014625783064030659,-2.5411802023218812,3.2865250763305247,-0.7598456674327396,-2.197655018116802,-88.82572028536177,-740.8930015793147,0.14585974715787742,40.81028930261673
3.17,-0.21927427243055123,0.36505486525811204,0.5518439787261875,-0.024140762070124624,-3.7630908918757147,-5.455676354626579,-0.7126515712899076,-1.7040451465113804,-76.3097393189144,-953.2696746780316,2.0859121875071476,84.22446785668538
3.18,-0.24748324678968245,0.28971015745674933,0.5469735784431148,-0.028065027654541205,-4.9403059446306985,-16.515561971459576,-0.6554909576740633,-0.8256148057413562,-58.50061054868412,-1149.0882616923386,3.5882665715658923,130.47463946770586
3.19,-0.29145727051001014,0.0950155731589148,0.5428672747130021,-0.023003536009556735,-5.994185734422709,-29.65222609394106,-0.5947691856841307,0.4623437720964686,-36.99093958141173,-1315.7294811094903,4.617970806375073,176.56747040664993
3.2,-0.35176140710647075,-0.2458533311656253,0.5392931066006554,-0.005319780636152651,-6.853836915914711,-44.47012801628167,-0.5361199914008612,2.157943510073689,-13.909977949317856,-1441.3748549991128,5.178454910932654,219.0821600660575
3.21,-0.42793145400341,-0.7554247891411525,0.5359851990490775,0.028610075454032838,-7.463780015660652,-60.432901033818055,-0.48400224039856315,4.228612188699292,8.23823481277238,-1515.836308146321,5.30826076254722,254.3838086947797
3.22,-0.5183934786922957,-1.4495427221633126,0.532684062534771,0.08209550292779037,-7.790772876639414,-76.88868602024863,-0.44143724778615734,6.608888901842418,26.796654105305198,-1531.3220484819008,5.075161283164733,278.8842084791818
3.23,-0.6204766939228955,-2.335222995413345,0.5291727523552783,0.15780387974976498,-7.828941362144944,-93.10574917344621,-0.4098997481504076,9.200571910488122,39.22292211245264,-1483.08074573329,4.568311473997106,289.3352878367341
3.24,-0.730533905828666,-3.4090051547780105,0.5253039579410268,0.25743529057796166,-7.602430655092304,-108.3162035306667,-0.38936021016315914,11.875555059776001,43.38269057451561,-1369.872611427034,3.889199376034523,283.1357866802826
3.25,-0.8441744953251242,-4.656036873466761,0.5210148876005267,0.3814331746903339,-7.164944830319596,-121.76485683921682,-0.37846205746309747,14.48151737079096,37.84318564170274,-1194.2267661750386,3.142217243285375,258.62808176030046
3.26,-0.9566022411717064,-6.0500813773277615,0.5163291328464802,0.5287655579101769,-6.595786134845337,-132.75963769888477,-0.37480584140873263,16.850421018313686,22.138286393120435,-962.4585170146494,2.4256522379649486,215.35984525622467
3.27,-1.0630349008591908,-7.554558781147014,0.5113468835511998,0.6968089685534028,-5.992325645649043,-140.71977245842888,-0.37530451660217834,18.809538792312804,-3.024655729901395,-684.436810955213,1.8238086166010619,154.28477066870778
3.28,-1.1591658655580555,-9.124626098267116,0.5062264118666142,0.8813602856555333,-5.459210789926258,-145.2179355460826,-0.37657024811842543,20.194488819186777,-35.644410952568506,-373.1099140580953,1.4008319621374719,77.87819814058724
3.29,-1.2416128495262513,-10.710177610268596,0.5011604819987812,1.076791116450073,-5.095010835471956,-146.0129821441915,-0.37529369300288834,20.863519839177957,-72.41559257748857,-43.81490910555584,1.1966267485626734,-9.852761229402317
3.3,-1.3082876463608732,-12.259521994950173,0.4963513772521719,1.2763459244641404,-4.9773804472923,-143.07056668570186,-0.368581046661341,20.71208421632122,-108.84504306682271,286.58746460918434,1.2250597484866248,-103.47910874522358
3.31,-1.3586179973354842,-13.723384843020751,0.4919877655088178,1.4725707680876767,-5.148141891659117,-136.5698935446372,-0.35422154049551685,19.686577804108346,-139.50185820193983,600.6980391168289,1.474442114279617,-196.3865601730558
3.32,-1.3935606946173094,-15.05881727607898,0.48822584368451355,1.657846295056863,-5.59990719389495,-126.8959508516438,-0.3308674671513964,17.796034291121575,-158.3966782067526,881.6207406190554,1.910099491462262,-281.1362887851693
3.33,-1.4153658397807969,-16.23258188190621,0.48517627549427145,1.824988500411895,-6.265946357270577,-114.61774030354395,-0.29811901586028694,15.120552500939523,-159.47358378429496,1113.9920422103949,2.4786864182450046,-349.9370304375681
3.34,-1.4270847149279728,-17.22364322565914,0.48289750377711194,1.96787477096271,-7.014930021059775,-100.45412462827241,-0.2565160649047314,11.81531996124132,-137.18570516926627,1284.9303129630744,3.1137886880436314,-395.2053820312967
3.35,-1.4318537674302734,-18.024503257007908,0.48139519230319916,2.0820508540108014,-7.6519215684012,-85.22986560712845,-0.20744759482575698,8.109281008452413,-87.11458870244991,1384.8422268091183,3.7422909041060985,-410.18137000388873
3.36,-1.4320278782761084,-18.64127029899277,0.4806269141320525,2.16527569492695,-7.926567997931444,-69.82513270615424,-0.15299580095676396,4.297782167053974,-6.58457918213674,1408.0330182773805,4.2909671211115095,-389.5581111639264
3.37,-1.428269696421624,-19.092506857333753,0.4805107937162497,2.217964455963417,-7.548862036975282,-55.12216635146797,-0.09573585897741183,0.7289033273305353,104.78201621411067,1353.0806503217282,4.692777017776573,-330.0784737824529
3.38,-1.4187221043206013,-19.407042174560175,0.48093662271661775,2.2434946668998825,-6.212158782690042,-41.95285524186263,-0.03851352939914353,-2.2163660116856003,244.62459432280517,1222.9498603727893,4.892411813342362,-231.0488128931838
3.39,-1.3983944279056753,-19.621043937909686,0.4817779674107193,2.248346087459964,-3.622382830659732,-31.050743882813812,0.015778413059763862,-4.1494449861015195,407.5710935552082,1024.8393758657003,4.850724069043503,-94.72066860003463
3.4,-1.3588795513565408,-19.77471082172533,0.4829039207274064,2.242051434574333,0.46837790795608153,-23.01046773114861,0.06440710338511116,-4.703794126110269,585.1762500458166,769.7730773471586,4.5477833038270115,73.50389043358466
3.41,-1.2884908996634512,-19.908968745829334,0.48418938292903285,2.2369423610173316,6.226355962072048,-18.256888200069977,0.10497652640219175,-3.567183165111648,766.1028370431887,471.9623114839191,3.984414602262783,265.0787865882763
3.42,-1.1728691459536436,-20.06252609645176,0.48552305144099805,2.2476822489572936,13.701639817768804,-17.025354034130412,0.13556621757033296,-0.5144775632679215,936.5608334104168,147.98082384124336,3.182190600460668,468.5552871651578
3.43,-0.9960630823280427,-20.269567630599536,0.4868126373820876,2.2905837555507063,22.798030997766922,-19.353640041340014,0.1548284393321577,4.561502843299179,1080.9999626293154,-184.19499697474453,2.18195056168722,670.065523851953
3.44,-0.7420421686191956,-20.558252080780868,0.48798717613336184,2.382714644917459,33.250524247908835,-25.085293292721843,0.16204480211040528,11.623681373409823,1183.0300403921178,-506.220328842946,1.0410079841592264,854.0377094025209
3.45,-0.3965543498053743,-20.950043090216905,0.48899662943185673,2.5408015796389973,44.613450812951974,-33.88341881882287,0.15714640133499105,20.471603820399945,1226.5226951469683,-800.4268287218897,-0.1707231088906705,1004.113837534328
3.46,0.05079467420844282,-21.459771996110028,0.48980925864385644,2.77995053574935,56.261764990763055,-45.2534064590837,0.14070326741605232,30.73191237741411,1196.8290287128957,-1050.8150742478622,-1.375404636804371,1104.2223700435388
3.47,0.6043935239157913,-22.09622846555761,0.49040746647616906,3.1122167067407327,67.40711811554394,-58.572756366961755,0.11388927248748362,41.860392586725474,1082.0323864796376,-1243.9358282769829,-2.4924464986229693,1139.7421022578785
3.48,1.2605815842359283,-22.863018413724546,0.49078294793667115,3.5450775778218926,77.12930078732667,-73.12599578146218,0.0784278105136217,53.15692170907772,874.1451586250685,-1369.609350623803,-3.443856354613434,1098.6805380447838
3.49,2.0058947216570835,-23.75942538839467,0.4909320485378727,4.079890010071555,84.42241700943838,-88.14266626019311,0.036521934742018286,63.793806949766164,570.1546675259586,-1421.4427637981323,-4.159454189455711,972.7820339465745
3.5,2.815788635676313,-24.78105897963961,0.4908521837863505,4.710443266026161,88.25387603633463,-102.83645746385078,-0.009229329920558752,72.85701810093066,172.82650111411158,-1397.1183758441623,-4.581656406432646,758.4787495302223
3.51,3.654021665306457,-25.92016031835494,0.4905400222737001,5.4217502033562255,87.63305490649128,-116.44372512600684,-0.05592858066476246,79.39875640816547,-308.81562201625684,-1298.440058686373,-4.669562388889119,457.601740853718
3.52,4.472858994081235,-27.165542495559773,0.48999188326912446,6.18924165408829,81.68540650790248,-128.25981567425774,-0.10049279212787865,82.49874047181963,-859.3965644549057,-1131.1394315212094,-4.402113295015673,77.78055168629203
3.53,5.2142226365770314,-28.50225171219122,0.48920646872020496,6.978536605427167,69.72696854890508,-137.67179825658977,-0.13978269576024763,81.33062141306348,-1457.5222239350487,-904.4578755250723,-3.780137112728932,-367.5229451224214
3.54,5.811852678933958,-29.91112223044987,0.4881896688242548,7.7459460190728855,51.33375643606075,-144.18636285858705,-0.1707493079653498,75.22915670459975,-2076.5483096309727,-630.5335254366552,-2.8271449928525336,-859.3778117395677
3.55,6.194464156847873,-31.36844728323498,0.4869607931560591,8.439826103335104,26.40046175063012,-147.45178406402084,-0.19059606904686122,63.75326235613238,-2685.764753235481,-323.63363765807696,-1.5888011533124937,-1374.1487859871945
3.56,6.289784712469675,-32.845988649350026,0.4855592429052184,9.00282704125976,-4.816740053411459,-147.27299179935187,-0.19695208813974793,46.73989885885908,-3251.943399990729,0.7184853739066214,-0.1310516575218675,-1884.6376308332017
3.57,6.029250695094405,-34.31149934621521,0.48405041349569256,9.37499089133339,-41.67764826771467,-143.61896041421724,-0.18804851781414364,24.343976044320495,-3741.166995420265,326.6670171423695,1.4630349029345333,-2361.5468839798323
3.58,5.35303876100672,-35.72984705500757,0.482529545474871,9.49754887874384,-83.1589200658249,-136.62185497579466,-0.16288663597676623,-2.9398964075812075,-4120.832291699392,638.9400703558487,3.09759115772627,-2775.184661776276
3.59,4.215034000451899,-37.064718377155366,0.48112234525954434,9.317169027141572,-127.88000105503968,-126.56768203765084,-0.12138338457985648,-34.276950394600945,-4361.701508904469,923.7025855956871,4.669244731730194,-3097.306515888688
3.6,2.5873005955666155,-38.28077673788284,0.47998147242323325,8.790326467749717,-174.15398205740271,-113.8785916680114,-0.06447847916761501,-68.5148553116142,-4439.866146555025,1169.2936207398895,6.073120586881289,-3302.974221237764
3.61,0.4636376428250723,-39.346059038698606,0.47927841519756476,7.887424429852159,-220.06143935160193,-99.08746042117669,0.0058127655461247445,-104.22950635909052,-4338.486417731828,1366.8038198348174,7.20923176289664,-3372.3034353189946
3.62,-2.1381278056795763,-40.234342350054916,0.4791908161972935,6.596291395179543,-263.54355900542896,-82.80592344721497,0.08641475261835915,-139.7923877241062,-4049.1788448130264,1510.4595582716925,7.988893085733544,-3291.973486365572
3.63,-5.17534574466657,-40.927199365577216,0.4798859195225797,4.9247190479545475,-302.50929578640216,-65.6875718481614,0.17328489351146298,-173.45614599613785,-3572.9435269475425,1597.7932923569806,8.340765666313127,-3056.3835011793435
3.64,-8.581343354827178,-41.41548973577293,0.4815014296504896,2.901779443653193,-334.9501016616427,-48.38852895585713,0.26158884195729426,-203.45341794827152,-2920.550215818955,1629.5941943220585,8.216136184218986,-2668.3592899502014
3.65,-12.267774837133503,-41.7000965583187,0.48412563180498436,0.5777569093757705,-359.05498186749827,-31.52800076893803,0.3459544028121765,-228.10266455188287,-2112.3368626928277,1609.6482809205663,7.593057151857595,-2139.343712097369
3.66,-16.12834793178169,-41.79180126097501,0.48777904285577167,-1.9773619317799005,-373.318368348748,-15.651599041489172,0.420792917592315,-245.91389502713844,-1177.41338007747,1544.2918931149422,6.479023843564929,-1489.0377906344347
3.67,-20.04365547322169,-41.7102828288201,0.4924000585182635,-4.6767889295375955,-376.6335721139594,-1.2002110895445857,0.48066914817908424,-255.68681594957513,-152.304225042585,1441.815469350141,4.91193935798515,-744.4981726113017
3.68,-23.886777908125936,-41.4823184171238,0.4978369695381931,-7.421075343133264,-368.36537698131593,11.513089684720375,0.5206939575973643,-256.59416584826926,920.8969318142733,1311.7650377532373,2.9592179349005563,61.2642067893589
3.69,-27.529297385192304,-41.139345208382025,0.5038483058374961,-10.103255808116076,-348.39661576012713,22.31613466290254,0.5369092870674547,-248.24380332819857,1996.7517197955628,1164.1958353454615,0.7149923971845429,891.1022487539522
3.7,-30.847370788756194,-40.71461257546663,0.5101127445756348,-12.614687192727159,-317.14523809234896,31.17955656546163,0.5266327639936176,-230.71446483161395,3028.943494708247,1008.9352770058641,-1.7044833229542762,1705.8535307785603
3.71,-33.72753767975478,-40.24020245857486,0.516248829868941,-14.851219532309088,-275.5503194513089,38.20722488214584,0.4887302065697634,-204.5619069728154,3972.8290851275697,854.9107846705099,-4.167020318132373,2466.625466218115
3.72,-36.07197702591305,-39.74421713400112,0.5218435694853237,-16.71929838321529,-225.02753519580017,43.615965165615876,0.42378845206331395,-170.7942661476191,4787.910788511138,709.5917568687609,-6.531937442983972,3137.0919151942667
3.73,-37.802964580484606,-39.24842333039253,0.5264877020353771,-18.141579261999663,-167.3966839428872,47.70630190032124,0.33416809959853117,-130.81774100053644,5440.066765982999,578.5846151604184,-8.65833165126522,3685.64511981535
3.74,-38.86631884735305,-38.76660124934471,0.5298142171047038,-19.061640869440687,-104.78574319139837,50.826837029308386,0.22392534010252202,-86.35594869673568,5903.392874838931,465.40620068639987,-10.413676949261987,4087.2552755530855
3.75,-39.23366218268583,-38.303781009135456,0.5315357611932192,-19.447421798447934,-39.517540381627754,53.33552776692378,0.09860315736138296,-39.34833778204423,6161.534630426428,371.44494518417093,-11.682216011057927,4324.909729174207
3.76,-38.903370994818,-37.856462239092,0.5314761211301464,-19.293080616240044,26.013691803965504,55.56147832654131,-0.03509627494537144,8.165314368274945,6208.422662058245,296.1025957377789,-12.372607908501692,4390.533329057225
3.77,-37.90014919773257,-37.41381015431308,0.5295913015845285,-18.619091234901244,89.46792368089727,57.770859985306224,-0.16973539169439922,54.16617736417593,6048.366265449247,237.0933564965904,-12.424331550210042,4285.328636584738
3.78,-36.27323225441441,-36.95971127862502,0.525976959611327,-17.470526957412158,148.67901954670063,60.14020821914494,-0.2976297295249931,96.77479380307922,5695.504464570715,190.86364259189605,-11.812414624380384,4019.516673599823
3.79,-34.093312210658766,-36.47546647839102,0.5208610000041958,-15.913644016511306,201.76087047997095,62.73963995085411,-0.4113635578367599,134.35823427945147,5172.6590718201605,153.08558201308088,-10.550156695024473,3611.502344604043
3.8,-31.44836143650304,-35.9428140551618,0.51458248390368,-14.031031426105795,247.1933093739056,65.5275523206163,-0.5042925093052372,165.61843629446213,4509.676205740502,119.17200571960696,-8.689635063414064,3086.5301986455893
3.81,-28.43861644363454,-35.34692678925305,0.5075600067409007,-11.915729681156277,283.882605047598,68.3572037052887,-0.5709942206332138,189.65566486019785,3741.3784144687625,84.76056037983747,-6.31991418514597,2474.9324915005723
3.82,-25.171053287419582,-34.679024230250185,0.5002538900874358,-9.664818517363521,311.1931618367007,70.994357916067,-0.6076327158734919,206.0030013004735,2905.276229561282,46.11986974140712,-3.5630145041911088,1810.0997038477408
3.83,-21.753732472187853,-33.93828708698052,0.4931268069216412,-7.373020021875093,328.9491228396718,73.14402376027,-0.61221001149031,214.63005674937645,2039.2035709738352,0.44091101532350785,-0.567825679469488,1126.3215664207669
3.84,-18.290405901606967,-33.13284780982453,0.486607007479612,-5.126851455299271,337.40673800053963,74.4833704562959,-0.5846883295547755,215.91652459976626,1179.044705522122,-54.00902591355032,2.4977352454006447,456.6529004356398
3.85,-14.875757484095942,-32.27974762705077,0.4810574127602633,-2.9997943060012604,337.2004521374802,74.697252225861,-0.5269773015612369,210.59852649855975,356.71113526831476,-117.87571668802535,5.455923880249686,-169.0471606092959
3.86,-11.591593773910608,-31.403878788180005,0.4767527454140607,-1.0488322341462784,329.2675351255338,73.51250914392668,-0.44279148529412016,199.69277131236305,-401.4944569762574,-190.83919891347207,8.129256461805163,-725.7710989029335
3.87,-8.504217329266606,-30.53605327202974,0.4738657592119912,0.6874338471654083,314.7575736446303,70.72736196945446,-0.3373933199960688,184.40516282002298,-1076.0216306049126,-271.8390423866424,10.35096641394822,-1194.609483069832
3.88,-5.6631126411054735,-29.710438481997887,0.4724626325995322,2.1890419640898773,294.93415426403357,66.23277681177737,-0.21724441773486045,166.0315276081074,-1654.6568207081914,-359.36283613520885,11.975285076597455,-1563.5176094892925
3.89,-3.1009638668798196,-28.961664044076283,0.4725067829830213,3.453395661005821,271.0765100986361,60.02358642398639,-0.08959322134449581,145.85851029508393,-2132.527227863958,-451.74868157116964,12.886999510278928,-1827.5705730137222
3.9,-0.8349164984453599,-28.32192701071922,0.4738697729741768,4.492689406418015,244.3887399232359,52.19832381706408,0.03797071938288955,125.07237876158976,-2511.5475243898586,-547.4500847542242,13.00975780665306,-1988.7147599749703
3.91,1.1310992555100887,-27.8184079309124,0.47634762594808444,5.330358365500747,215.92344869538624,42.948025405754926,0.15796621166008676,104.68253803515292,-2799.376159018413,-645.215793986268,12.312627977213047,-2055.0612793493533
3.92,2.8032411431954802,-27.47126296646445,0.4796807302761995,5.996937111499439,186.52535862063235,32.535552272707804,0.26344702459737984,85.46506438239582,-3007.985528595482,-744.1477140183648,10.814468886992367,-2039.7991204507634
3.93,4.194135086987102,-27.29238271936907,0.4835755532120278,6.525731405726452,156.7987008800549,21.268114350451633,0.34838386095022617,67.92968383621348,-3151.9790346096243,-843.6161843428579,8.585740565765235,-1959.8303506587483
3.94,5.319105096369479,-27.2850116795811,0.4877265542656624,6.948689513247337,127.10015742776403,9.466531634458482,0.40798572605975675,52.31150721216787,-3246.805740472681,-943.0320777506219,5.747467427967482,-1834.2447051017555
3.95,6.192601855985278,-27.44421163759088,0.49183692443898297,7.292810080905953,97.55694381229051,-2.56477518866593,0.43895066184592657,38.58668808609254,-3307.0285637533225,-1041.497223717389,2.467173173874402,-1682.7556320137023
3.96,6.825160788710716,-27.758042982307135,0.4956370298366596,7.57735056728805,68.10748539897804,-14.563070047101982,0.4396411083983184,26.509181094174227,-3344.794259261386,-1137.3760764924382,-1.0482676565404523,-1524.2143578996408
3.97,7.221175922190684,-28.209249534236566,0.4988996767200303,7.8120134932984575,38.56021768735991,-26.324339884271765,0.4101832029392131,15.664116494709509,-3368.6335151084963,-1227.8496863780485,-4.562768148394006,-1375.3038603846576
3.98,7.37770510335086,-28.777184145293415,0.5014515426401879,7.996197317362676,8.664498442317427,-37.7094773078364,0.3524917703406295,5.532110678369823,-3382.6889528196416,-1308.5254012421433,-7.8238942411645045,-1249.4926146871533
3.99,7.284428128525097,-29.43971335480796,0.503180367109944,8.119312699071845,-21.81341204222758,-48.638274752253544,0.27022354074162563,-4.44180677977306,-3386.430243581863,-1373.1802664076781,-10.578005426215235,-1156.3010410688296
4.0,6.924769734433972,-30.174885904272482,0.5040378038702039,8.162088637768287,-53.01677385052303,-59.07141388125812,0.1686604914754414,-14.781011859092418,-3374.872163953101,-1413.7114438417775,-12.58702064915157,-1100.9044987416296
4.01,6.278085771479382,-30.962225199621656,0.5040382035274328,8.098728960314899,-84.93444577632094,-68.98223780553684,0.0545236686565248,-25.91767634527634,-3339.26687942712,-1420.3526778876765,-13.645960691409122,-1084.0682806435354
4.02,5.322706688400456,-31.78358644371263,0.5032539486142418,7.899728270002761,-117.3530167626118,-78.32161437262667,-0.06428388015858903,-38.14550912410492,-3268.1998487014175,-1382.1924655633236,-13.600235975326589,-1102.3849728951861
4.03,4.039549479155299,-32.62358336483171,0.5018081972976085,7.535117086220933,-149.82996355373453,-86.98046371666278,-0.17900750839997978,-51.588188499105954,-3148.983073980891,-1287.9987720343381,-12.361501669446753,-1148.7648800800096
4.04,2.4159548911512188,-33.46962466606085,0.49986594399907647,6.977878005560467,-181.69092863170783,-94.75537411856887,-0.28044676934392465,-66.18514395802096,-2969.213067601547,-1127.3194681690286,-9.92081141664099,-1213.1174239155105
4.05,0.44938345919063394,-34.31160658827555,0.49762419233967936,6.20725902271505,-212.05203594363255,-101.32303877716791,-0.3594361499550168,-81.69459435547482,-2718.3461734860384,-891.7905427315575,-6.35778831289958,-1283.156123969116
4.06,-1.849389256399439,-35.14129612542512,0.49530182742319145,5.211708917372281,-239.86587362321094,-106.22892828256136,-0.40739520493519005,-97.71210464062571,-2389.1421030685788,-576.5494376569632,-1.844615846253562,-1345.2617339537744
4.07,-4.453903808504856,-35.95142563860464,0.4931295447570616,3.9911760180090967,-263.98757220423,-108.89464090734194,-0.4169348848823676,-113.70154896347532,-1978.8379411862018,-181.62258327169445,3.3561539425376115,-1385.3463008175045
4.08,-7.320742083673164,-36.73451964016257,0.4913399963691241,2.5585486636037187,-283.25548963844665,-108.64677983142484,-0.382496968464062,-129.03439937974323,-1489.9385290490059,286.8618927068741,8.900667082929512,-1389.6736375972798
4.09,-10.389535975192086,-37.48149894427973,0.4901581813863547,0.940074898356039,-296.5795560843371,-104.76809343576437,-0.30099225138437036,-143.03278888455404,-930.5430443070182,815.7901963572023,14.379978827948289,-1345.6068064999351
4.1,-13.584353200880608,-38.18015823592997,0.48979204673932863,-0.8253203773727368,-303.02947070925967,-96.56914519685621,-0.17239177560617291,-155.01186464030545,-314.1688624418253,1384.6512446275287,19.34316196698548,-1242.2683631293928
4.11,-16.81644416161261,-38.813682681845805,0.4904232607275207,-2.687804198241486,-301.914768637333,-83.47617102365191,-0.00021549277049934934,-164.31753316351003,340.92118373826185,1965.7148732178703,23.32648221500644,-1071.1120866398387
4.12,-19.98821457927095,-39.35944197261442,0.49219814706580906,-4.589364915615225,-292.8493185743518,-65.12829080904154,0.2081438763269646,-170.35672692031628,1012.8371793254997,2524.8763586628916,25.88720343207416,-826.4138657561496
4.13,-22.998168190941296,-39.788357068122295,0.4952187822201803,-6.467268612043984,-275.7940369814517,-41.47514264490736,0.44132562753713744,-172.61866243852546,1677.5344771757527,3023.1903770113818,26.64000467529152,-505.6930975055162
4.14,-25.746453971741655,-40.06515775342267,0.49953423792917534,-8.257915129032908,-251.073417095475,-12.864570700447999,0.6841933784476695,-170.6870451827406,2310.5154766757732,3419.0557950789716,25.29349374104974,-110.07394077768518
4.15,-28.14056770716877,-40.14982400465808,0.5051318923066376,-9.900701757609685,-219.36371932361672,19.89054595006409,0.918361152327432,-164.24461511700034,2888.614204434555,3670.9477899038466,21.683946217682788,355.41153006324146
4.16,-30.100712350553838,-40.00042353156158,0.5119286625178064,-11.341481066814772,-181.65315903647374,55.47671726637096,1.123078849552607,-153.0726265986033,3391.7078632328976,3740.5316884399667,15.803239006778892,881.5875496583128
4.17,-31.564325721026474,-39.57742122366773,0.5197619788072299,-12.53523003998463,-139.17693734874163,92.0842518068966,1.2764745074853927,-137.04864553857087,3804.204130627945,3595.939832822535,7.818026089535488,1454.9889312247985
4.18,-32.489341323673926,-38.84935034937198,0.5283803963721064,-13.447633094866932,-93.33226189394347,127.45761269824622,1.3571164482551628,-116.14629707281867,4116.171150873764,3214.9545804882086,-1.9224511793152539,2057.8410609668967
4.19,-32.85585459838203,-37.7995146136578,0.5374340312036539,-14.055415977320528,-45.58038358790825,158.9939487049725,1.3458204851048863,-90.44024128019436,4324.007386138429,2587.8221639401218,-12.891911516530037,2668.2113080384415
4.2,-32.666012610301344,-36.43315700214776,0.5464656422319772,-14.345437221395667,2.6560481079529565,183.8876077869014,1.2275891799954328,-60.118700089929256,4430.588193712646,1719.4269738232692,-24.40706457696592,3260.3820774922815
4.21,-31.9421152707516,-34.78431580025235,0.5549042823609975,-14.312728146976513,50.09146301668415,199.31370586568082,0.9935357917270796,-25.50439213083997,4444.871717090576,630.5853479047192,-35.66217948798924,3805.4928174281054
4.22,-30.72309262331145,-32.92142598641035,0.5620649647157258,-13.957845446807156,95.66308054272282,202.63922825487066,0.642619456462538,12.917084283604748,4380.9943866051035,-641.7286336673938,-45.77704061723778,4272.486741255482
4.23,-29.059686288932138,-30.950652717127003,0.5671593607620167,-13.284034858212651,138.59628392419629,191.64617445458606,0.18300464717158466,54.464323416561676,4256.931766441767,-2045.33862855948,-53.85589527072005,4629.37768708411
4.24,-27.00879583735133,-29.01599588888992,0.5693234474542048,-12.294775691200263,178.4438241096138,164.74839452285661,-0.3671391906125491,98.22735178041582,4092.839567802991,-3515.0263228416466,-59.05382092036411,4844.82440319824
4.25,-24.627538300518044,-27.295402423784907,0.5676675003464411,-10.992266961462311,215.09530644370167,121.18241521539814,-0.9795601300425609,143.04115046277175,3909.218814417558,-4975.8218653783315,-60.64594425322977,4889.96575908887
4.26,-21.96760205973305,-25.992469569517468,0.561351518262154,-9.377319955261497,248.75605197239523,61.15300451738931,-1.6166889793405228,187.47232616375666,3725.0656990735165,-6347.251429829541,-58.09424042641286,4740.434074489231
4.27,-19.070451073986817,-25.323798951586824,0.5496852549413871,-7.450944356195393,279.89717749341986,-14.083402752735108,-2.233307293198877,229.82570690933426,3556.1690252395983,-7548.2792040322665,-51.10632240203362,4378.428802686595
4.28,-15.963852916888309,-25.502624075027622,0.532247148549392,-5.2176719196456,309.1813537817014,-102.21006966461933,-2.7791022403643244,268.17660611657084,3413.7059719559006,-8502.608592661114,-39.680764691735206,3794.7034177967553
4.29,-12.660070284618847,-26.71991888202303,0.5090113960789572,-2.690379231452157,337.37093910854196,-199.9229628369473,-3.2020064860234805,300.43253155492647,3303.26124838336,-9143.9594422843,-24.13412510435739,2990.2986566275163
4.3,-9.155882250506107,-29.124722536552156,0.48046804741611654,0.10391647152316673,365.2268373468745,-303.08534338113645,-3.4521329927627984,324.4253394380396,3224.3577427640444,-9420.920129338974,-5.105921662525045,1977.8487943256794
4.31,-5.434406785399522,-32.80580066004613,0.44771804765320644,3.1180674418695014,393.4073409851352,-406.9565005861901,-3.4860329617742947,338.03148817468065,3170.5417833136694,-9300.98835901013,16.460666119781127,782.2969003011824
4.32,-1.4685035612144606,-37.77692497673904,0.412524253405598,6.279567980413651,422.3763005784764,-506.4800401264478,-3.2709395089631124,339.31446633249635,3130.0171283749314,-8773.462582709051,39.362771859206234,-559.1188640677633
4.33,2.774628338706476,-43.96792699121452,0.3773010129343792,9.487110986232526,452.32920018275644,-596.6109779812646,-2.788619122574687,326.6800533491173,3086.7731895019756,-7850.924117472319,62.204882212081806,-1997.70342333075
4.34,7.328155776731129,-51.223231335000854,0.34502910964462474,12.609876480200256,483.144176424405,-672.6563985029893,-2.0384449402089877,299.03223798107206,3022.109149805599,-6569.152562621099,83.48530655139724,-3475.0065120432796
4.35,12.220161901307172,-59.30880791887656,0.31908962035014454,15.490277367228055,514.3628312479369,-730.6021502208283,-1.0393352421733375,255.9157583801332,2916.4205399979555,-4985.435787596124,101.69658250537289,-4925.360470362414
4.36,17.468553146028736,-67.92746157480143,0.3030191236170937,17.950525863951654,545.2030480100984,-767.398303932,0.16973141025899172,197.63065122474066,2751.091660749092,-3175.3607497236267,115.43281002412277,-6279.155293383544
4.37,23.076740204500982,-76.74123132058031,0.30019898219009405,19.80291626564576,574.6031618755796,-781.1789524948468,1.530809059081566,125.30509648578254,2510.3280941583766,-1228.2920244461864,123.49589708354506,-7466.682212800565
4.38,29.030379992114774,-85.39859075045007,0.3135020792026926,20.86320220579482,601.2940134887722,-771.3971802943445,2.9697372096602117,40.915257119811635,2182.769248820105,758.1492984440619,124.9923170926061,-8422.315236828535
4.39,35.29534096530072,-93.56335300056722,0.3449300994153506,20.965952405952223,623.8928829430916,-738.863198675701,4.400455083257648,-52.75539120115771,1762.7408873735437,2684.2121118031746,119.41229365302844,-9088.752622344537
4.4,41.816972922893115,-100.94188133947588,0.39528171162966086,19.980375080150917,641.0112884907429,-685.6820412245584,5.730624381716049,-152.2198611466146,1251.0400288975284,4454.302818892745,106.68435395721517,-9421.012642986962
4.41,48.520735146013294,-107.305468733558,0.46389528447054235,17.824872159541172,651.3673264935768,-615.0960071562587,6.868165453516549,-253.4516692500769,655.1864878570462,5982.975404477598,87.19987383712035,-9389.87419050472
4.42,55.31423754344993,-112.50550590902414,0.5485077262675874,14.478561571724118,653.8927503991404,-531.2453510019051,7.728197514585596,-352.10049264607164,-10.877277280416795,7200.188772810785,61.804457498644304,-8984.47467601904
4.43,62.09073185980077,-116.48012459918912,0.6452629132801041,9.988205576981672,647.8253891520435,-438.8677120348299,8.239801529016038,-443.745692482601,-727.6077705490496,8055.454634362157,31.755579705766902,-8213.825087472376
4.44,68.73401530752889,-119.25216335856322,0.7488890852837635,4.469400544392312,632.7787630035655,-342.96177203455784,8.352005152991085,-524.1697379886916,-1471.1280574574462,8520.587997495279,-1.351347720130497,-7107.072258873369
4.45,75.12456629207189,-120.91936741603097,0.8530457056093209,-1.8985089656719847,608.7827625481436,-248.44316000915916,8.038428386153232,-589.63085317471,-2214.8281550748297,8590.883524862842,-35.68367792905314,-5712.426550210156
4.46,81.14654174613987,-121.63856453546249,0.9508186652634736,-8.883587559179825,576.2918392334802,-159.82049093924766,7.300125755862268,-637.1133055841507,-2931.158188680654,8284.664944518625,-69.2918749493319,-4094.7725033392685
4.47,86.69507219271782,-121.60607507067911,1.0353210186770718,-16.217550990300456,536.1600793260493,-80.91671986656742,6.166309009080849,-664.5348134757727,-3593.4607537430447,7641.280661237858,-100.2406058922326,-2332.082604931564
4.48,91.68314801552617,-121.03678885707026,1.1003376896336214,-23.61541223501362,489.5855273185705,-14.65606548423778,4.692820360352232,-670.8935145761412,-4177.689758826609,6717.7359950088,-126.74062637439796,-510.85142004641665
4.49,96.04734502373377,-120.14419546711765,1.140940018222648,-30.796392777243042,438.0289045735049,37.069821743495496,2.958432400969986,-656.3415696132774,-4663.877933746086,5584.251368406337,-147.27127896433026,1279.1494101187302
4.5,99.75171214187466,-119.12324976644041,1.1539927971217807,-37.50384964719999,383.11416391134725,73.45028830378064,1.0592558259764056,-622.1783495747051,-5037.242508153994,4319.108417260776,-160.68406240042066,2950.433014345461
4.51,102.78933086004824,-118.13738180134283,1.138484885750118,-43.52222676975306,326.51990142567143,94.72022277279325,-0.8982815212432297,-570.7627331438189,-5288.855445259193,3003.1870851728745,-166.2791894412789,4423.279204756076
4.52,105.18132169680598,-117.31032003501913,1.0956349335235007,-48.68957871827656,269.8713497060774,102.04932728384838,-2.805281037520768,-505.35070838485535,-5415.8472894786555,1714.6039027759714,-163.84921362585942,5630.7361770863645
4.53,106.97337302528251,-116.722784059422,1.0287537182375524,-52.90488521765256,214.64242399023433,97.37058223447981,-4.558360430990932,-429.8706156061805,-5421.157856356049,523.8355352984001,-153.68648340591625,6522.770272885221
4.54,108.23015900611027,-116.41358958733923,0.942878984965767,-56.13002935476786,162.0761033219729,83.16651503724381,-6.067082925967949,-348.653431257031,-5312.88825470212,-510.3441108977343,-136.55414001356584,7069.251038761823
4.55,109.02825928541709,-116.38433754770584,0.8442309366415965,-58.38685324669559,113.12941926199102,62.23403946754518,-7.260185965933676,-266.13903414134495,-5103.343020894203,-1343.8643654969608,-113.623349780503,7261.543898163823
4.56,109.44836437745926,-116.60664394058391,0.7395606275438815,-59.7500887220216,68.44670025587452,37.448743105879366,-8.090086621680596,-186.5811265819595,-4807.875151283987,-1949.142239541888,-86.38218718352863,7112.587376271525
4.57,109.56762720148878,-117.03079847185552,0.6354754720041257,-60.33718575843319,28.36175440199877,11.54771726537829,-8.535311740149778,-113.77329026470078,-4443.658317297763,-2315.5994413617386,-56.52381996367506,6655.447667256613
4.58,109.45299453908467,-117.59479445176814,0.537824744603761,-60.296150258637155,-7.073318212001787,-13.053327480171413,-8.600704101805663,-50.81660212852209,-4028.5086324750223,-2448.9607828227263,-25.823197354813445,5940.461040468661
4.59,109.15622637116643,-118.23281976261855,0.45121475523054005,-59.79248675270873,-38.03768844105679,-34.397383585944105,-8.315469494171182,0.05445534162828946,-3579.863515147854,-2369.472715320359,3.9878228309788466,5031.184534465824
4.6,108.71110188407934,-118.88250678114228,0.3787015739978459,-58.99625204436584,-64.87684820140615,-51.071689107482335,-7.729330873719943,37.57602517534557,-3113.9993168681312,-2109.2534589323213,31.33710517025344,3999.46853997639
4.61,108.1330433249818,-119.49047717677462,0.3216828455999346,-58.07008901103557,-88.03154620156073,-62.24039126278079,-6.907223792834387,61.48288232539804,-2645.535491773517,-1709.036762353515,54.91179367252017,2920.033515272813
4.62,107.42109438890823,-120.01595813385755,0.27998346632047455,-57.15894563954298,-107.96933081338614,-67.62792006288036,-5.923085417027652,72.46057584412951,-2187.235040049991,-1214.5970756780196,73.73366634988274,1864.9714872355446
4.63,106.56190376599389,-120.43246733657645,0.25210622041771885,-56.382006488252216,-125.12674492916915,-67.46051975543811,-4.853347240589089,72.02781791752348,-1750.073082450477,-673.1445216796006,87.20542276017028,898.5979127633526
4.64,105.53512201506193,-120.72774839001842,0.23560054200623343,-55.82718038170886,-139.86861709263283,-62.376135694322244,-3.770735596909684,62.36053919166412,-1343.5120055745506,-129.95543643531897,95.12564521031285,73.0503897739267
4.65,104.31945103932155,-120.90227565535481,0.2274921159854082,-55.548304325180446,-152.4685500641677,-53.31435301722815,-2.7389179989918775,46.07330129379979,-975.8964716876094,374.53776455520216,97.67287611413882,-575.0301256219864
4.66,102.89851055800234,-120.96673293183551,0.2247138911457068,-55.56504385462732,-163.1118899008412,-41.39832624030818,-1.8084173828241712,25.976695375422512,-654.8676292500021,807.0298320250854,95.36180658923391,-1026.487671423575
4.67,101.2657139562386,-120.93890433884906,0.2244851268469053,-55.86530039169406,-171.91949024424596,-27.819744579424846,-1.0140655062242603,4.830777225187092,-387.6947884713425,1142.8958164043245,88.97675146201634,-1280.168874391324
4.68,99.42747434034786,-120.84040282642361,0.22459806856723458,-56.40978525480042,-178.98781323182925,-13.736064883166796,-0.3740990193618483,-14.885567293827366,-181.43491967499833,1366.977126400562,79.48921325514443,-1351.948277495781
4.69,97.40427775548402,-120.69361014140793,0.2235892773077746,-57.13829812427581,-184.43865735466767,-0.1867981856260107,0.10916431386598535,-31.17111264256923,-42.85440285467818,1473.6259132961043,67.96729101923884,-1272.360377201522
4.7,95.22944134532449,-120.51912231420584,0.2207912305991009,-57.9771643392585,-188.47034492150271,11.96712565638365,0.4472789630391894,-42.649466294829075,21.919045774272348,1466.0867337075483,55.48491555613639,-1083.0498167209366
4.71,92.94568651315764,-120.33389829096029,0.21627630233677328,-58.84724507775341,-191.40172146622692,22.079654353905617,0.6625787857706046,-48.65589719634527,8.007080482542424,1355.3355539089848,43.03840726002718,-832.3465887414867
4.72,90.59995957467933,-120.15020730947153,0.21071725540734063,-59.67193483493783,-193.7008911980936,29.73279674314805,0.7844348206972291,-49.25772348852911,-87.39375782272195,1158.5226978955657,31.476738286967652,-570.34376652371
4.73,88.237181724964,-119.97537270056631,0.20519492126176062,-60.384593309769436,-195.99219243343578,34.72991136421391,0.8452872150678383,-45.207505708266055,-264.05686949080183,897.1777340256895,21.450273027438495,-343.8954993424137
4.74,85.89376997348454,-119.8122237909933,0.20098498031249404,-60.93491360784047,-199.03734592175115,37.07367171107604,0.8768567601243769,-37.83365508114392,-517.7554892475282,595.3314168106542,13.380834224670688,-191.95949609007667
4.75,83.59181898535064,-119.66009927418511,0.1993526685644517,-61.29379778182351,-203.6897300117417,36.93393627129919,0.9068846673021231,-28.87806173980727,-839.4104117258112,277.6947404826711,7.453890487562816,-141.68038329412528
4.76,81.33476583060059,-119.51619863179354,0.20137815329245917,-61.45639089256981,-210.82402234770476,34.61073233722674,0.9566629871470528,-20.29461288433202,-1214.4921953847204,-31.989112035458803,3.631678318548582,-205.5502975119515
4.77,79.10518689921125,-119.37705492710224,0.20782764364418996,-61.443016682528125,-221.24663634863995,30.496960477790353,1.0395140625460055,-14.025693398585329,-1622.8029788936235,-312.33416866500534,1.6843335587115495,-379.8955608145857
4.78,76.86512300344201,-119.23990285463056,0.21907731270780434,-61.29786423912862,-235.59511516444502,25.044388470116502,1.1602679430072649,-11.775697397478643,-2038.7365059971019,-545.3888931575278,1.2347547562574037,-644.8301961221536
4.79,74.5590286486857,-119.1037390891648,0.23508984912157158,-61.08539803763732,-254.236612981747,18.735209800808583,1.3156834103235084,-14.80106996710425,-2432.075348638203,-717.3788789417794,1.8120505145995898,-965.6969322622755
4.8,72.1191334513247,-118.96991512541015,0.2554376612098153,-60.88460389354275,-277.17655798143034,12.060083689962049,1.4956709730315594,-23.735382916841935,-2769.3350374691295,-819.120059868909,2.908079099292319,-1295.8937836661044
4.81,69.47272621534162,-118.84216208643306,0.2793628325717739,-60.78133813711216,-303.98842035636113,5.502330704436099,1.6851119909584698,-38.46547067827361,-3015.6103768097846,-846.1292174157223,4.03176410311313,-1580.8690640999164
4.82,66.55065737138159,-118.72601745779006,0.3058619842560649,-60.859210901710306,-333.77418696490287,-0.473020591208921,1.8660309748979023,-58.07086322593861,-3136.8248637498964,-798.4735960409112,4.756509706060017,-1762.9690727421623
4.83,63.29622433936845,-118.62769957209076,0.3337840668600716,-61.1895971863502,-365.16277433374097,-5.42725134542265,2.019868861559128,-80.83390434764773,-3102.2352736623675,-680.4096238387128,4.757048939255811,-1786.7486707032108
4.84,59.673564794374606,-118.55255061286498,0.36193035135312707,-61.82151749079055,-396.3504044844623,-8.955143860338165,2.1296215738951876,-104.32237729861745,-2887.0052088577786,-499.8627037915077,3.8333171108316098,-1604.311633339501
4.85,55.674730643552145,-118.50323632748288,0.38914788492440416,-62.77224522192191,-425.18322014943095,-10.69324090422468,2.181645971542572,-125.5405867435919,-2474.637983938506,-267.7970196508156,1.920315296527492,-1180.238699692072
4.86,51.32473813086629,-118.47794346688923,0.4144098189752258,-64.01955945751322,-449.2784800832154,-10.330503015093585,2.166988282445184,-141.13911921505627,-1859.0536158476866,2.4821109996381465,-0.9157191571390634,-495.6876119668363
4.87,46.68407034198737,-118.46884632484543,0.4368779592540744,-65.49654761777482,-466.1769250089442,-7.621884339434571,2.0821513772288567,-147.66838685749227,-1046.1082823163777,296.0588807319462,-4.493308641460081,448.6906981832348
4.88,41.84833009229448,-118.46111344613583,0.45594463912637195,-67.08975649559966,-473.5156983737051,-2.4044240896838596,1.9292798719018547,-141.85698641080035,-54.38703401373195,597.1443033747573,-8.541402838642746,1631.2867896401733
4.89,36.944985523218016,-118.43268826169259,0.4712527477008868,-68.64128520597389,-469.2088519182766,5.3854438075059345,1.7157997643929126,-120.89324737821948,1084.8503428407378,889.8007260220684,-12.73156329520344,3009.67433919999
4.9,32.12739741536908,-118.35500164183249,0.482694531648157,-69.95511593136452,-451.6211941129263,15.695389973460113,1.453597084358418,-82.68736943655635,2328.6283469283203,1158.6388100458842,-16.71319337480656,4522.39043169699
4.91,27.566544541622466,-118.19466564573105,0.4903915165586466,-70.80760606903105,-419.7211808183265,28.343977630683888,1.1578543916189707,-26.09239826866906,3624.1076813166273,1389.474499441766,-20.14836622474614,6092.258214102873
4.92,23.441051154118554,-117.91606826616835,0.49465934131175604,-70.96164701811188,-373.1997232824253,43.01332072239953,0.8456831491075721,48.9350503200027,4911.245973019174,1569.9334152802192,-22.74313659880645,7631.034073490014
4.93,19.92625308245388,-117.4846555317091,0.4959622774141903,-70.18356817945572,-312.54410956576334,59.24991545125157,0.5346939629698904,141.24910492594978,6126.115151984775,1689.988298194818,-24.272806504521803,9045.056071780398
4.94,17.183105630703412,-116.87056911796016,0.49486262041674994,-68.26147646369121,-239.0595115523885,76.47531318741886,0.2416368575265946,248.5131520860117,7204.665318653538,1742.4124732104685,-24.599373853746886,10241.489438532653
4.95,15.347733723900687,-116.05222424564984,0.4919699932853792,-65.02342477988425,-154.83450799553745,94.0073784917256,-0.01877726350170095,367.2852060769373,8086.682082174102,1723.1298944478679,-23.68024266171879,11134.714925069926
4.96,14.52235695207179,-115.01938149651727,0.4878949630968437,-60.35365107055333,-62.651364021231615,111.09176981947158,-0.23479165616987682,493.1859502861846,8719.660626159095,1631.441186620728,-21.568127588779163,11652.390730269515
4.97,14.768202250505588,-113.77529841638817,0.4832103608317801,-54.205168089769344,34.153889701491636,126.94212392567734,-0.398205910244001,621.138665858732,9062.317504457258,1470.1061028479528,-18.402867089523234,11740.739702072373
