0.01,297.69,31.0,10.0,0.0,0.0,0.0,0.05,0.02,0.01,0.82,0.21,0.19,0.5
0.02,297.69,31.0,10.0,0.0,0.0,0.0,0.06,0.0,0.04,0.82,0.21,0.19,0.5
0.03,297.69,31.0,10.0,0.0,0.01,0.0,0.06,0.01,0.05,0.82,0.21,0.19,0.5
0.04,297.69,31.0,10.0,0.0,0.0,0.0,0.02,0.01,0.04,0.82,0.21,0.19,0.5
0.05,297.69,31.0,10.0,0.0,0.0,0.0,0.0549999999999999,0.005,0.04,0.8189360742063723,0.2097275311991929,0.1897534806087936,0.4993512647599831
0.06,297.69,31.0,10.0,0.0,0.0,0.0,0.09,0.0,0.04,0.82,0.21,0.19,0.5
0.07,297.69,31.0,10.0,0.0,0.0,0.0,0.09,0.0,0.04,0.82,0.21,0.19,0.5
0.08,297.69,31.0,10.0,0.005,0.0,0.0,0.065,0.005,0.04,0.8189360742063723,0.2097275311991929,0.1897534806087936,0.4993512647599831
0.09,297.69,31.0,10.0,0.01,0.0,0.0,0.04,0.01,0.04,0.82,0.21,0.19,0.5
0.1,297.69,31.0,10.0,0.0,0.01,0.0,0.04,0.0,0.0,0.82,0.21,0.19,0.5
0.11,297.69,31.0,10.0,0.0,0.0,0.0,0.05,0.0,0.04,0.82,0.21,0.19,0.5
0.12,297.69,31.0,10.0,0.0,0.0,0.0,0.04,0.0,0.04,0.82,0.21,0.19,0.5
0.13,297.69,31.0,10.0,0.0,0.01,0.0,0.05,0.0,0.04,0.82,0.21,0.19,0.5
0.14,297.69,31.0,10.0,0.0,0.0,0.0,0.05,0.0,0.05,0.82,0.21,0.19,0.5
0.15,297.69,31.0,10.0,0.0,0.0,0.0,0.09,0.01,0.05,0.82,0.21,0.19,0.5
0.16,297.69,31.0,10.0,0.0,0.005,0.0,0.075,0.005,0.045,0.8189360742063723,0.2097275311991929,0.1897534806087936,0.4993512647599831
0.17,297.69,31.0,10.0,0.0,0.01,0.0,0.06,0.0,0.04,0.82,0.21,0.19,0.5
0.18,297.69,31.0,10.0,0.0,0.0,0.0,0.06,0.0,0.01,0.82,0.21,0.19,0.5
0.19,297.69,31.0,10.0,0.0,0.0,0.0,0.06,0.0,0.03,0.82,0.21,0.19,0.5
0.2,297.69,30.94,10.0,0.0,0.01,0.0,0.05,0.01,0.02,0.82,0.21,0.19,0.5
0.21,297.69,30.94,10.0,0.0,0.0,0.0,0.05,0.01,0.06,0.82,0.21,0.19,0.5
0.22,297.69,30.94,10.0,0.0,0.0,0.0,0.04,0.01,0.0,0.82,0.21,0.19,0.5
0.23,297.69,30.94,10.0,0.0,0.0,0.0,0.03,0.01,0.0,0.82,0.21,0.19,0.5
0.24,297.69,30.94,10.0,0.0,0.0,0.0,0.06,0.01,0.04,0.82,0.21,0.19,0.5
0.25,297.69,30.94,10.0,0.0,0.01,0.0,0.04,0.0,0.02,0.82,0.21,0.19,0.5
0.26,297.69,30.94,10.0,0.0,0.005,0.0,0.04,0.005,0.03,0.8189360742063723,0.2097275311991929,0.1897534806087936,0.4993512647599831
0.27,297.69,30.94,10.0,0.0,0.0,0.0,0.04,0.01,0.04,0.82,0.21,0.19,0.5
0.28,297.69,30.94,10.0,0.0,0.0,0.0,0.07,0.02,0.02,0.82,0.21,0.19,0.5
0.29,297.69,30.94,10.0,0.0,0.0,0.0,0.06,0.01,0.06,0.82,0.21,0.19,0.5
0.3,297.69,30.94,10.0,0.0,0.0,0.0,0.07,0.01,0.03,0.82,0.21,0.19,0.5
0.31,297.69,30.94,10.0,0.0,0.0,0.0,0.05,0.0,0.04,0.82,0.21,0.19,0.5
0.32,297.69,30.94,10.0,0.0,0.0,0.0,0.05,0.0,0.03,0.82,0.21,0.19,0.5
0.33,297.69,30.94,10.0,0.0,0.0,0.0,0.04,0.02,0.04,0.82,0.21,0.19,0.5
0.34,297.69,30.94,10.0,0.0,0.0,0.0,0.05,0.0,0.03,0.82,0.21,0.19,0.5
0.35,297.69,30.94,10.0,0.0,0.0,0.0,0.05,0.0,0.04,0.82,0.21,0.19,0.5
0.36,297.69,30.94,10.0,0.0,0.0,0.0,0.05,0.0,0.02,0.82,0.21,0.19,0.5
0.37,297.69,30.94,10.0,0.0,0.0,0.0,0.05,0.01,0.01,0.82,0.21,0.19,0.5
0.38,297.69,30.94,10.0,0.0,0.0,0.0,0.06,0.01,0.04,0.82,0.21,0.19,0.5
0.39,297.69,30.94,10.0,0.0,0.0,0.0,0.06,0.0,0.07,0.82,0.21,0.19,0.5
0.4,297.69,30.94,10.0,0.0,0.0,0.0,0.03,0.01,0.02,0.82,0.21,0.19,0.5
0.41,297.69,30.94,10.0,0.0,0.0,0.0,0.03,0.03,0.02,0.82,0.21,0.19,0.5
0.42,297.69,30.94,10.0,0.0,0.01,0.0,0.04,0.0,0.02,0.82,0.21,0.19,0.5
0.43,297.69,30.94,10.0,0.0,0.01,0.0,0.09,0.0,0.02,0.82,0.21,0.19,0.5
0.44,297.69,30.94,10.0,0.0,0.0,0.0,0.07,0.01,0.04,0.82,0.21,0.19,0.5
0.45,297.69,30.94,10.0,0.0,0.0,0.0,0.06,0.01,0.02,0.82,0.21,0.19,0.5
0.46,297.69,30.94,10.0,0.0,0.0,0.0,0.05,0.0,0.06,0.82,0.21,0.19,0.5
0.47,297.69,30.94,10.0,0.0,0.0,0.0,0.04,0.005,0.045,0.8189360742063723,0.2097275311991929,0.1897534806087936,0.4993512647599831
0.48,297.69,30.94,10.0,0.0,0.0,0.0,0.03,0.01,0.03,0.82,0.21,0.19,0.5
0.49,297.69,30.94,10.0,0.0,0.0,0.0,0.03,0.0,0.04,0.82,0.21,0.19,0.5
0.5,297.69,30.94,10.0,0.0,0.01,0.0,0.05,0.0,0.04,0.82,0.21,0.19,0.5
0.51,297.69,30.94,10.0,0.0,0.01,0.0,0.06,0.01,0.05,0.82,0.21,0.19,0.5
0.52,297.69,30.94,10.0,0.0,0.01,0.0,0.07,0.02,0.04,0.82,0.21,0.19,0.5
0.53,297.69,30.94,10.0,0.0,0.0,0.0,0.09,0.0,0.04,0.82,0.21,0.19,0.5
0.54,297.69,30.94,10.0,0.0,0.01,0.0,0.06,0.01,0.04,0.82,0.21,0.19,0.5
0.55,297.69,30.94,10.0,0.0,0.0,0.0,0.05,0.01,0.03,0.82,0.21,0.19,0.5
0.56,297.69,30.94,10.0,0.0,0.0,0.0,0.07,0.0,0.04,0.82,0.21,0.19,0.5
0.57,297.69,30.94,10.0,0.0,0.0,0.0,0.05,0.01,0.02,0.82,0.21,0.19,0.5
0.58,297.69,30.94,10.0,0.01,0.01,0.0,0.04,0.0,0.07,0.82,0.21,0.19,0.5
0.59,297.69,30.94,10.0,0.0,0.0,0.0,0.05,0.0,0.02,0.82,0.21,0.19,0.5
0.6,297.69,30.94,10.0,0.0,0.01,0.0,0.05,0.0,0.0,0.82,0.21,0.19,0.5
0.61,297.69,30.94,10.0,0.0,0.01,0.0,0.02,0.0,0.02,0.82,0.21,0.19,0.5
0.62,297.69,30.94,10.0,0.0,0.0,0.0,0.03,0.01,0.04,0.82,0.21,0.19,0.5
0.63,297.69,30.94,10.0,0.0,0.01,0.0,0.08,0.01,0.03,0.82,0.21,0.19,0.5
0.64,297.69,30.94,10.0,0.0,0.0,0.0,0.05,0.01,0.03,0.82,0.21,0.19,0.5
0.65,297.69,30.94,10.0,0.0,0.0,0.0,0.06,0.0,0.06,0.82,0.21,0.19,0.5
0.66,297.69,30.94,10.0,0.0,0.0,0.0,0.09,0.01,0.07,0.82,0.21,0.19,0.5
0.67,297.69,30.94,10.0,0.0,0.0,0.0,0.07,0.0,0.03,0.82,0.21,0.19,0.5
0.68,297.69,30.94,10.0,0.0,0.0,0.0,0.05,0.0,0.04,0.82,0.21,0.19,0.5
0.69,297.69,30.94,10.0,0.0,0.0,0.0,0.045,0.0,0.035,0.8189360742063723,0.2097275311991929,0.1897534806087936,0.4993512647599831
0.7,297.69,30.94,10.0,0.0,0.0,0.0,0.04,0.0,0.03,0.82,0.21,0.19,0.5
0.71,297.69,30.94,10.0,0.0,0.0,0.0,0.05,0.02,0.03,0.82,0.21,0.19,0.5
0.72,297.69,30.94,10.0,0.0,0.01,0.0,0.06,0.02,0.01,0.82,0.21,0.19,0.5
0.73,297.69,30.94,10.0,0.0,0.0,0.0,0.03,0.01,0.03,0.82,0.21,0.19,0.5
0.74,297.69,30.94,10.0,0.0,0.0,0.0,0.04,0.02,0.04,0.82,0.21,0.19,0.5
0.75,297.69,30.94,10.0,0.0,0.0,0.0,0.09,0.01,0.01,0.82,0.21,0.19,0.5
0.76,297.69,30.94,10.0,0.0,0.01,0.0,0.06,0.01,0.07,0.82,0.21,0.19,0.5
0.77,297.69,30.94,10.0,0.0,0.01,0.0,0.05,0.0,0.08,0.82,0.21,0.19,0.5
0.78,297.69,30.94,10.0,0.0,0.0,0.0,0.05,0.01,0.03,0.82,0.21,0.19,0.5
0.79,297.69,30.94,10.0,0.0,0.005,0.0,0.055,0.01,0.025,0.8189360742063723,0.2097275311991929,0.1897534806087936,0.4993512647599831
0.8,297.69,30.94,10.0,0.0,0.01,0.0,0.06,0.01,0.02,0.82,0.21,0.19,0.5
0.81,297.69,30.94,10.0,0.0,0.0,0.0,0.03,0.01,0.04,0.82,0.21,0.19,0.5
0.82,297.69,30.94,10.0,0.0,0.01,0.0,0.05,0.0,0.01,0.82,0.21,0.19,0.5
0.83,297.69,30.94,10.0,0.0,0.0,0.0,0.08,0.0,0.04,0.82,0.21,0.19,0.5
0.84,297.69,30.94,10.0,0.0,0.0,0.0,0.06,0.0,0.03,0.82,0.21,0.19,0.5
0.85,297.69,30.94,10.0,0.0,0.0,0.0,0.06,0.0,0.04,0.82,0.21,0.19,0.5
0.86,297.69,30.94,10.0,0.0,0.01,0.0,0.05,0.0,0.04,0.82,0.21,0.19,0.5
0.87,297.69,30.94,10.0,0.0,0.01,0.0,0.045,0.01,0.03,0.8189360742063723,0.2097275311991929,0.1897534806087936,0.4993512647599831
0.88,297.69,30.94,10.0,0.0,0.01,0.0,0.04,0.02,0.02,0.82,0.21,0.19,0.5
0.89,297.69,30.94,10.0,0.0,0.01,0.0,0.05,0.02,0.06,0.82,0.21,0.19,0.5
0.9,297.69,30.94,10.0,0.0,0.01,0.0,0.08,0.01,0.03,0.82,0.21,0.19,0.5
0.91,297.69,30.94,10.0,0.0,0.01,0.0,0.1,0.01,0.1,0.82,0.21,0.19,0.5
0.92,297.69,30.94,10.0,0.0,0.0,0.0,0.07,0.01,0.06,0.82,0.21,0.19,0.5
0.93,297.69,30.94,10.0,0.0,0.0,0.0,0.06,0.0,0.03,0.82,0.21,0.19,0.5
0.94,297.69,30.94,10.0,0.0,0.0,0.0,0.03,0.01,0.05,0.82,0.21,0.19,0.5
0.95,297.69,30.94,10.0,0.0,0.0,0.0,0.06,0.0,0.02,0.82,0.21,0.19,0.5
0.96,297.69,30.94,10.0,0.0,0.0,0.0,0.04,0.0,0.06,0.82,0.21,0.19,0.5
0.97,297.69,30.94,10.0,0.0,0.0,0.0,0.06,0.0,0.05,0.82,0.21,0.19,0.5
0.98,297.69,30.94,10.0,0.0,0.0,0.0,0.06,0.0,0.03,0.82,0.21,0.19,0.5
0.99,297.69,30.94,10.0,0.0,0.0,0.0,0.05,0.0,0.05,0.82,0.21,0.19,0.5
1.0,297.69,30.94,10.0,0.0,0.0,0.0,0.05,0.01,0.035,0.8189360742063723,0.2097275311991929,0.1897534806087936,0.4993512647599831
1.01,297.69,30.94,10.0,0.0,0.0,0.0,0.05,0.02,0.02,0.82,0.21,0.19,0.5
1.02,297.69,30.94,10.0,0.01,0.0,0.0,0.05,0.02,0.04,0.82,0.21,0.19,0.5
1.03,297.69,31.0,10.0,0.0,0.01,0.0,0.08,0.0,0.06,0.82,0.21,0.19,0.5
1.04,297.69,31.0,10.0,0.0,0.01,0.0,0.08,0.0,0.03,0.82,0.21,0.19,0.5
1.05,297.69,31.0,10.0,0.0,0.0,0.0,0.07,0.0,0.05,0.82,0.21,0.19,0.5
1.06,297.69,31.0,10.0,0.0,0.01,0.0,0.07,0.01,0.04,0.82,0.21,0.19,0.5
1.07,297.69,31.0,10.0,0.0,0.0,0.0,0.09,0.0,0.04,0.82,0.21,0.19,0.5
1.08,297.69,31.0,10.0,0.0,0.0,0.0,0.07,0.0,0.01,0.82,0.21,0.19,0.5
1.09,297.69,31.0,10.0,0.0,0.0,0.0,0.07,0.0,0.03,0.82,0.21,0.19,0.5
1.1,297.69,31.0,10.0,0.0,0.0,0.0,0.08,0.005,0.045,0.8189360742063723,0.2097275311991929,0.1897534806087936,0.4993512647599831
1.11,297.69,31.0,10.0,0.0,0.0,0.0,0.09,0.01,0.06,0.82,0.21,0.19,0.5
1.12,297.69,31.0,10.0,0.01,0.01,0.0,0.06,0.02,0.07,0.82,0.21,0.19,0.5
1.13,297.69,31.0,10.0,0.0,0.01,0.0,0.07,0.01,0.06,0.82,0.21,0.19,0.5
1.14,297.69,31.0,10.0,0.01,0.0,0.0,0.07,0.0,0.06,0.82,0.21,0.19,0.5
1.15,297.69,31.0,10.0,0.0,0.01,0.0,0.07,0.0,0.02,0.82,0.21,0.19,0.5
1.16,297.69,31.0,10.0,0.0,0.0,0.0,0.07,0.0,0.07,0.82,0.21,0.19,0.5
1.17,297.69,31.0,10.0,0.0,0.01,0.0,0.09,0.01,0.07,0.82,0.21,0.19,0.5
1.18,297.69,31.0,10.0,0.0,0.01,0.0,0.09,0.01,0.07,0.82,0.21,0.19,0.5
1.19,297.69,31.0,10.0,0.0,0.0,0.0,0.06,0.0,0.03,0.82,0.21,0.19,0.5
1.2,297.69,31.0,10.0,0.005,0.005,0.0,0.065,0.0,0.035,0.8189360742063723,0.2097275311991929,0.1897534806087936,0.4993512647599831
1.21,297.69,31.0,10.0,0.01,0.01,0.0,0.07,0.0,0.04,0.82,0.21,0.19,0.5
1.22,297.69,31.0,10.0,0.01,0.0,0.0,0.1,0.0,0.04,0.82,0.21,0.19,0.5
1.23,297.69,31.0,10.0,0.01,0.01,0.0,0.11,0.02,0.07,0.82,0.21,0.19,0.5
1.24,297.69,31.0,10.0,0.0,0.01,0.0,0.08,0.0,0.07,0.82,0.21,0.19,0.5
1.25,297.69,31.0,10.0,0.0,0.0,0.0,0.1,0.01,0.08,0.82,0.21,0.19,0.5
1.26,297.69,31.0,10.0,0.0,0.0,0.0,0.07,0.0,0.07,0.82,0.21,0.19,0.5
1.27,297.69,31.0,10.0,0.0,0.0,0.0,0.07,0.05,0.05,0.82,0.21,0.19,0.5
1.28,297.69,31.0,10.0,0.0,0.01,0.0,0.11,0.01,0.08,0.82,0.21,0.19,0.5
1.29,297.69,31.0,10.0,0.0,0.01,0.0,0.08,0.0,0.08,0.82,0.21,0.19,0.5
1.3,297.69,31.0,10.0,0.0,0.0,0.0,0.1,0.0,0.05,0.82,0.21,0.19,0.5
1.31,297.69,31.0,10.0,0.0,0.02,0.0,0.11,0.01,0.09,0.82,0.21,0.19,0.5
1.32,297.69,30.94,10.0,0.01,0.01,0.0,0.1,0.02,0.1,0.82,0.21,0.19,0.5
1.33,297.69,30.94,10.0,0.0,0.01,0.0,0.08,0.01,0.01,0.82,0.21,0.19,0.5
1.34,297.69,30.94,10.0,0.0,0.02,0.0,0.11,0.01,0.04,0.82,0.2,0.19,0.5
1.35,297.69,30.94,10.0,0.0,0.01,0.0,0.11,0.01,0.1,0.82,0.2,0.19,0.5
1.36,297.69,30.88,10.0,0.0,0.02,0.0,0.09,0.01,0.03,0.82,0.2,0.19,0.5
1.37,297.69,30.88,10.0,0.0,0.02,0.0,0.1,0.01,0.09,0.82,0.2,0.19,0.5
1.38,297.69,30.845,10.0,0.0,0.015,0.0,0.1,0.01,0.065,0.8206156927409805,0.2001501689612147,0.190142660513154,0.5003754224030369
1.39,297.69,30.81,10.0,0.0,0.01,0.0,0.1,0.01,0.04,0.82,0.2,0.19,0.5
1.4,297.69,30.81,10.0,0.0,0.02,0.0,0.12,0.01,0.05,0.82,0.2,0.19,0.5
1.41,297.69,30.78,9.97,0.0,0.02,0.0,0.1,0.01,0.055,0.8206156927409805,0.2001501689612147,0.190142660513154,0.5003754224030369
1.42,297.69,30.75,9.94,0.0,0.02,0.0,0.08,0.01,0.06,0.82,0.2,0.19,0.5
1.43,297.69,30.75,9.94,0.0,0.01,0.0,0.13,0.03,0.08,0.82,0.2,0.19,0.5
1.44,297.69,30.75,9.94,0.0,0.02,0.0,0.12,0.01,0.07,0.82,0.2,0.19,0.5
1.45,297.69,30.75,9.94,0.0,0.02,0.0,0.1,0.0,0.08,0.82,0.2,0.19,0.5
1.46,297.69,30.69,9.94,0.0,0.02,0.0,0.1,0.0,0.1,0.82,0.2,0.19,0.5
1.47,297.69,30.69,9.94,0.0,0.02,0.0,0.14,0.01,0.06,0.82,0.2,0.19,0.5
1.48,297.69,30.69,9.94,0.01,0.02,0.0,0.1,0.02,0.07,0.82,0.2,0.19,0.5
1.49,297.69,30.655,9.94,0.005,0.02,0.0,0.11,0.01,0.065,0.8206156927409805,0.2001501689612147,0.190142660513154,0.5003754224030369
1.5,297.69,30.62,9.94,0.0,0.02,0.0,0.12,0.0,0.06,0.82,0.2,0.19,0.5
1.51,297.69,30.56,9.94,0.0,0.01,0.0,0.09,0.01,0.08,0.82,0.2,0.19,0.5
1.52,297.69,30.56,9.94,0.0,0.02,0.0,0.1,0.0,0.08,0.82,0.2,0.19,0.5
1.53,297.69,30.56,9.94,0.0,0.02,0.0,0.12,0.03,0.03,0.82,0.2,0.19,0.5
1.54,297.69,30.56,9.94,0.0,0.02,0.0,0.12,0.0,0.08,0.82,0.2,0.19,0.5
1.55,297.69,30.5,9.94,0.0,0.02,0.0,0.12,0.01,0.07,0.82,0.2,0.19,0.5
1.56,297.69,30.5,9.94,0.0,0.02,0.0,0.16,0.01,0.1,0.82,0.2,0.19,0.5
1.57,297.63,30.5,9.94,0.0,0.02,0.0,0.12,0.0,0.05,0.82,0.2,0.19,0.5
1.58,297.63,30.5,9.94,0.0,0.02,0.0,0.09,0.0,0.08,0.82,0.2,0.19,0.5
1.59,297.63,30.47,9.94,0.0,0.015,0.0,0.11,0.005,0.055,0.8206156927409805,0.2001501689612147,0.190142660513154,0.5003754224030369
1.6,297.63,30.44,9.94,0.0,0.01,0.0,0.13,0.01,0.03,0.82,0.2,0.19,0.5
1.61,297.63,30.44,9.94,0.0,0.01,0.0,0.15,0.03,0.09,0.82,0.2,0.19,0.5
1.62,297.63,30.44,9.94,0.0,0.01,0.0,0.12,0.01,0.07,0.82,0.2,0.19,0.5
1.63,297.63,30.44,9.94,0.0,0.01,0.0,0.12,0.0,0.1,0.82,0.2,0.19,0.5
1.64,297.63,30.44,9.94,0.0,0.01,0.0,0.12,0.0,0.11,0.82,0.2,0.19,0.5
1.65,297.63,30.44,9.94,0.0,0.01,0.0,0.06,0.04,0.05,0.82,0.2,0.19,0.5
1.66,297.63,30.37,9.94,0.0,0.0,0.0,0.14,0.05,0.07,0.82,0.2,0.19,0.5
1.67,297.63,30.37,9.94,0.01,0.01,0.0,0.14,0.01,0.08,0.82,0.2,0.19,0.5
1.68,297.63,30.37,9.94,0.0,0.01,0.0,0.11,0.01,0.1,0.82,0.2,0.19,0.5
1.69,297.63,30.37,9.94,0.0,0.005,0.0,0.135,0.01,0.085,0.8206156927409805,0.2001501689612147,0.190142660513154,0.5003754224030369
1.7,297.63,30.37,9.94,0.0,0.0,0.0,0.16,0.01,0.07,0.82,0.2,0.19,0.5
1.71,297.63,30.37,9.94,0.0,0.01,0.0,0.14,0.02,0.1,0.82,0.2,0.19,0.5
1.72,297.63,30.37,9.94,0.0,0.01,0.0,0.12,0.0,0.08,0.82,0.2,0.19,0.5
1.73,297.63,30.37,9.94,0.0,0.0,0.0,0.13,0.0,0.05,0.82,0.2,0.19,0.5
1.74,297.63,30.37,9.94,0.0,0.01,0.0,0.15,0.01,0.08,0.82,0.2,0.19,0.5
1.75,297.63,30.37,9.94,0.0,0.0,0.0,0.14,0.01,0.06,0.82,0.2,0.19,0.5
1.76,297.63,30.37,9.94,0.0,0.0,0.0,0.11,0.01,0.09,0.82,0.2,0.19,0.5
1.77,297.63,30.37,9.94,0.0,0.01,0.0,0.14,0.0,0.07,0.82,0.2,0.19,0.5
1.78,297.63,30.37,9.94,0.0,0.01,0.0,0.12,0.0,0.08,0.82,0.2,0.18,0.5
1.79,297.63,30.37,9.94,0.0,0.01,0.0,0.12,0.02,0.09,0.82,0.2,0.18,0.5
1.8,297.63,30.37,9.94,0.0,0.01,0.0,0.11,0.02,0.07,0.82,0.2,0.18,0.5
1.81,297.63,30.37,9.94,0.0,0.01,0.0,0.13,0.01,0.09,0.82,0.2,0.18,0.5
1.82,297.63,30.37,9.94,0.0,0.005,0.0,0.135,0.01,0.08,0.8221403509955111,0.2005220368281734,0.180469833145356,0.5013050920704336
1.83,297.63,30.37,9.94,0.0,0.0,0.0,0.14,0.01,0.07,0.82,0.2,0.18,0.5
1.84,297.63,30.37,9.94,0.0,0.0,0.0,0.17,0.02,0.07,0.82,0.2,0.18,0.5
1.85,297.63,30.37,9.94,0.0,0.01,0.0,0.16,0.01,0.08,0.82,0.2,0.18,0.5
1.86,297.63,30.37,9.94,0.0,0.01,0.0,0.15,0.01,0.09,0.82,0.2,0.18,0.5
1.87,297.63,30.31,9.94,0.0,0.01,0.0,0.11,0.01,0.08,0.82,0.2,0.18,0.5
1.88,297.63,30.31,9.94,0.0,0.01,0.0,0.14,0.0,0.08,0.82,0.2,0.18,0.5
1.89,297.63,30.31,9.94,0.0,0.01,0.0,0.14,0.02,0.07,0.82,0.2,0.18,0.5
1.9,297.63,30.31,9.94,0.0,0.005,0.0,0.145,0.02,0.08,0.8221403509955111,0.2005220368281734,0.180469833145356,0.5013050920704336
1.91,297.63,30.31,9.94,0.0,0.0,0.0,0.15,0.02,0.09,0.82,0.2,0.18,0.5
1.92,297.63,30.31,9.94,0.0,0.01,0.0,0.15,0.01,0.09,0.82,0.2,0.18,0.5
1.93,297.63,30.31,9.94,0.0,0.01,0.0,0.17,0.02,0.06,0.82,0.2,0.18,0.5
1.94,297.63,30.31,9.94,0.0,0.01,0.0,0.16,0.01,0.11,0.82,0.2,0.18,0.5
1.95,297.63,30.31,9.94,0.0,0.01,0.0,0.14,0.0,0.09,0.82,0.2,0.18,0.5
1.96,297.63,30.31,9.94,0.0,0.01,0.0,0.12,0.0,0.1,0.82,0.2,0.18,0.5
1.97,297.63,30.31,9.94,0.0,0.0,0.0,0.11,0.01,0.1,0.82,0.2,0.18,0.5
1.98,297.63,30.31,9.94,0.0,0.0,0.0,0.15,0.02,0.07,0.82,0.2,0.18,0.5
1.99,297.63,30.31,9.94,0.0,0.0,0.0,0.16,0.02,0.07,0.82,0.2,0.18,0.5
2.0,297.63,30.31,9.94,0.0,0.0,0.0,0.16,0.01,0.06,0.82,0.2,0.18,0.5
2.01,297.63,30.31,9.94,0.0,0.01,0.0,0.15,0.0,0.14,0.82,0.2,0.18,0.5
2.02,297.63,30.31,9.94,0.01,0.01,0.0,0.14,0.0,0.09,0.82,0.2,0.18,0.5
2.03,297.63,30.31,9.94,0.0,0.0,0.0,0.1,0.01,0.07,0.82,0.2,0.18,0.5
2.04,297.63,30.31,9.94,0.0,0.0,0.0,0.14,0.01,0.1,0.82,0.2,0.18,0.5
2.05,297.63,30.31,9.94,0.0,0.0,0.0,0.14,0.01,0.05,0.82,0.2,0.18,0.5
2.06,297.63,30.31,9.94,0.0,0.0,0.0,0.13,0.01,0.11,0.82,0.2,0.18,0.5
2.07,297.63,30.31,9.94,0.0,0.0,0.01,0.15,0.02,0.09,0.82,0.2,0.18,0.5
2.08,297.63,30.31,9.94,0.0,0.0,0.0,0.17,0.0,0.11,0.82,0.2,0.18,0.5
2.09,297.63,30.31,9.94,0.0,0.0,0.0,0.16,0.0,0.1,0.82,0.2,0.18,0.5
2.1,297.63,30.31,9.94,0.0,0.0,0.0,0.155,0.0,0.095,0.8221403509955111,0.2005220368281734,0.180469833145356,0.5013050920704336
2.11,297.63,30.31,9.94,0.0,0.0,0.0,0.15,0.0,0.09,0.82,0.2,0.18,0.5
2.12,297.63,30.31,9.94,0.0,0.0,0.0,0.14,0.02,0.07,0.82,0.2,0.18,0.5
2.13,297.63,30.31,9.94,0.0,0.005,0.0,0.13,0.01,0.09,0.8221403509955111,0.2005220368281734,0.180469833145356,0.5013050920704336
2.14,297.63,30.31,9.94,0.0,0.01,0.0,0.12,0.0,0.11,0.82,0.2,0.18,0.5
2.15,297.63,30.31,9.94,0.0,0.0,0.0,0.12,0.01,0.06,0.82,0.2,0.18,0.5
2.16,297.63,30.31,9.94,0.0,0.0,0.0,0.13,0.01,0.1,0.82,0.2,0.18,0.5
2.17,297.63,30.31,9.94,0.0,0.0,0.0,0.15,0.01,0.09,0.82,0.2,0.18,0.5
2.18,297.63,30.31,9.94,0.0,0.0,0.0,0.14,0.01,0.05,0.82,0.2,0.18,0.5
2.19,297.63,30.31,9.94,0.0,0.0,0.0,0.15,0.02,0.08,0.82,0.2,0.18,0.5
2.2,297.63,30.31,9.94,0.01,0.0,0.0,0.16,0.02,0.1,0.82,0.2,0.18,0.5
2.21,297.63,30.31,9.94,0.005,0.0,0.0,0.16,0.015,0.1,0.8221403509955111,0.2005220368281734,0.180469833145356,0.5013050920704336
2.22,297.63,30.31,9.94,0.0,0.0,0.0,0.16,0.01,0.1,0.82,0.2,0.18,0.5
2.23,297.63,30.31,9.94,0.0,0.01,0.0,0.14,0.0,0.1,0.82,0.2,0.18,0.5
2.24,297.63,30.31,9.94,0.0,0.0,0.0,0.14,0.01,0.1,0.82,0.2,0.18,0.5
2.25,297.63,30.31,9.94,0.0,0.0,0.0,0.15,0.01,0.1,0.82,0.2,0.18,0.5
2.26,297.63,30.31,9.94,0.0,0.0,0.0,0.14,0.02,0.06,0.82,0.2,0.18,0.5
2.27,297.63,30.31,9.94,0.0,0.0,0.0,0.13,0.01,0.09,0.82,0.2,0.18,0.5
2.28,297.63,30.31,9.94,0.0,0.0,0.0,0.13,0.02,0.06,0.82,0.2,0.18,0.5
2.29,297.63,30.31,9.94,0.0,0.0,0.0,0.14,0.01,0.09,0.82,0.2,0.18,0.5
2.3,297.63,30.31,9.94,0.0,0.0,0.0,0.15,0.0,0.1,0.82,0.2,0.18,0.5
2.31,297.63,30.31,9.94,0.0,0.0,0.0,0.15,0.0,0.1,0.8221403509955111,0.2005220368281734,0.180469833145356,0.5013050920704336
2.32,297.63,30.31,9.94,0.0,0.0,0.0,0.15,0.0,0.1,0.82,0.2,0.18,0.5
2.33,297.63,30.31,9.94,0.0,0.0,0.0,0.17,0.01,0.07,0.82,0.2,0.18,0.5
2.34,297.63,30.31,9.94,0.0,0.0,0.0,0.16,0.02,0.1,0.82,0.2,0.18,0.5
2.35,297.63,30.31,9.94,0.0,0.01,0.0,0.13,0.0,0.07,0.82,0.2,0.18,0.5
2.36,297.63,30.31,9.94,0.0,0.0,0.0,0.12,0.0,0.1,0.82,0.2,0.18,0.5
2.37,297.63,30.31,9.94,0.0,0.01,0.0,0.13,0.0,0.06,0.82,0.2,0.18,0.5
2.38,297.63,30.31,9.94,0.0,0.0,0.0,0.17,0.01,0.09,0.82,0.2,0.18,0.5
2.39,297.63,30.31,9.94,0.0,0.01,0.0,0.15,0.03,0.09,0.82,0.2,0.18,0.5
2.4,297.63,30.31,9.94,0.0,0.0,0.0,0.15,0.01,0.11,0.82,0.2,0.18,0.5
2.41,297.63,30.31,9.94,0.0,0.0,0.0,0.14,0.01,0.11,0.82,0.2,0.18,0.5
2.42,297.63,30.31,9.94,0.0,0.0,0.0,0.14,0.02,0.09,0.82,0.2,0.18,0.5
2.43,297.63,30.31,9.94,0.0,0.0,0.0,0.13,0.02,0.09,0.82,0.2,0.18,0.5
2.44,297.63,30.31,9.94,0.01,0.01,0.0,0.13,0.03,0.08,0.82,0.2,0.18,0.5
2.45,297.63,30.31,9.94,0.01,0.01,0.01,0.14,0.05,0.08,0.82,0.2,0.18,0.5
2.46,297.63,30.31,9.88,0.01,0.0,0.0,0.15,0.03,0.09,0.82,0.2,0.18,0.5
2.47,297.63,30.31,9.88,0.0,0.0,0.0,0.15,0.01,0.06,0.82,0.2,0.18,0.5
2.48,297.63,30.31,9.88,0.0,0.0,0.0,0.15,0.02,0.1,0.82,0.2,0.18,0.5
2.49,297.63,30.37,9.88,0.01,0.0,0.0,0.16,0.01,0.11,0.82,0.2,0.18,0.5
2.5,297.63,30.37,9.88,0.0,0.01,0.0,0.12,0.07,0.08,0.82,0.2,0.18,0.5
2.51,297.63,30.37,9.88,0.0,0.0,0.0,0.13,0.05,0.1,0.82,0.2,0.19,0.5
2.52,297.63,30.37,9.88,0.0,0.0,0.0,0.11,0.06,0.05,0.82,0.2,0.19,0.5
2.53,297.63,30.37,9.88,0.0,0.01,0.0,0.12,0.04,0.05,0.82,0.2,0.19,0.5
2.54,297.63,30.37,9.88,0.01,0.0,0.0,0.11,0.0,0.08,0.82,0.2,0.19,0.5
2.55,297.63,30.37,9.88,0.01,0.0,0.0,0.12,0.02,0.06,0.82,0.2,0.19,0.5
2.56,297.63,30.37,9.88,0.01,0.0,0.01,0.15,0.03,0.1,0.82,0.2,0.19,0.5
2.57,297.63,30.37,9.88,0.01,0.0,0.0,0.14,0.03,0.11,0.82,0.2,0.19,0.5
2.58,297.63,30.44,9.94,0.01,0.0,0.0,0.11,0.01,0.07,0.82,0.2,0.19,0.5
2.59,297.63,30.44,9.94,0.01,0.0,0.0,0.1,0.02,0.06,0.82,0.2,0.19,0.5
2.6,297.63,30.44,9.94,0.0,0.0,0.0,0.13,0.03,0.04,0.82,0.2,0.19,0.5
2.61,297.63,30.44,9.94,0.0,0.0,0.0,0.15,0.02,0.11,0.82,0.2,0.19,0.5
2.62,297.63,30.44,9.94,0.0,0.0,0.0,0.12,0.03,0.08,0.82,0.2,0.19,0.5
2.63,297.63,30.44,9.94,0.0,0.0,0.0,0.12,0.03,0.07,0.82,0.2,0.19,0.5
2.64,297.63,30.44,9.94,0.0,0.0,0.0,0.11,0.01,0.07,0.82,0.2,0.19,0.5
2.65,297.63,30.5,9.94,0.0,0.01,0.0,0.12,0.0,0.07,0.82,0.2,0.19,0.5
2.66,297.63,30.5,9.94,0.0,0.0,0.0,0.11,0.01,0.04,0.82,0.2,0.19,0.5
2.67,297.63,30.5,9.94,0.0,0.01,0.0,0.09,0.0,0.06,0.82,0.2,0.19,0.5
2.68,297.63,30.5,9.94,0.0,0.01,0.0,0.09,0.02,0.06,0.82,0.2,0.19,0.5
2.69,297.63,30.5,9.94,0.0,0.005,0.0,0.12,0.025,0.055,0.8206156927409805,0.2001501689612147,0.190142660513154,0.5003754224030369
2.7,297.63,30.5,9.94,0.0,0.0,0.0,0.15,0.03,0.05,0.82,0.2,0.19,0.5
2.71,297.63,30.5,9.94,0.0,0.0,0.0,0.1,0.01,0.08,0.82,0.2,0.19,0.5
2.72,297.63,30.5,9.94,0.0,0.005,0.0,0.085,0.005,0.075,0.8206156927409805,0.2001501689612147,0.190142660513154,0.5003754224030369
2.73,297.63,30.5,9.94,0.0,0.01,0.0,0.07,0.0,0.07,0.82,0.2,0.19,0.5
2.74,297.63,30.5,9.94,0.0,0.0,0.0,0.13,0.0,0.07,0.82,0.2,0.19,0.5
2.75,297.63,30.5,9.94,0.0,0.0,0.0,0.11,0.01,0.03,0.82,0.2,0.19,0.5
2.76,297.63,30.5,9.94,0.0,0.01,0.0,0.11,0.0,0.05,0.82,0.2,0.19,0.5
2.77,297.63,30.5,9.94,0.0,0.0,0.0,0.08,0.02,0.07,0.82,0.2,0.19,0.5
2.78,297.63,30.5,9.94,0.0,0.01,0.0,0.1,0.01,0.04,0.82,0.2,0.19,0.5
2.79,297.63,30.56,9.94,0.0,0.01,0.0,0.13,0.0,0.04,0.82,0.2,0.19,0.5
2.8,297.63,30.56,9.94,0.0,0.01,0.0,0.12,0.0,0.05,0.82,0.2,0.19,0.5
2.81,297.63,30.56,9.94,0.01,0.01,0.0,0.11,0.0,0.12,0.82,0.2,0.19,0.5
2.82,297.63,30.56,9.94,0.0,0.0,0.0,0.11,0.02,0.07,0.82,0.2,0.19,0.5
2.83,297.63,30.56,9.94,0.0,0.0,0.0,0.1,0.025,0.06,0.8206156927409805,0.2001501689612147,0.190142660513154,0.5003754224030369
2.84,297.63,30.56,9.94,0.0,0.0,0.0,0.09,0.03,0.05,0.82,0.2,0.19,0.5
2.85,297.63,30.62,9.94,0.0,0.01,0.0,0.08,0.0,0.01,0.82,0.2,0.19,0.5
2.86,297.63,30.62,10.0,0.0,0.01,0.0,0.1,0.01,0.07,0.82,0.2,0.19,0.5
2.87,297.63,30.62,10.0,0.0,0.01,0.0,0.09,0.02,0.06,0.82,0.2,0.19,0.5
2.88,297.63,30.62,10.0,0.0,0.02,0.0,0.1,0.0,0.06,0.82,0.2,0.19,0.5
2.89,297.63,30.62,10.0,0.0,0.01,0.0,0.12,0.01,0.07,0.82,0.2,0.19,0.5
2.9,297.63,30.69,10.0,0.0,0.01,0.0,0.11,0.0,0.08,0.82,0.2,0.19,0.5
2.91,297.63,30.69,10.0,0.0,0.01,0.0,0.09,0.01,0.05,0.82,0.2,0.19,0.5
2.92,297.63,30.69,10.0,0.0,0.01,0.0,0.07,0.005,0.045,0.8206156927409805,0.2001501689612147,0.190142660513154,0.5003754224030369
2.93,297.63,30.69,10.0,0.0,0.01,0.0,0.05,0.0,0.04,0.82,0.2,0.19,0.5
2.94,297.63,30.69,10.0,0.0,0.0,0.0,0.06,0.0,0.06,0.82,0.2,0.19,0.5
2.95,297.63,30.69,10.0,0.0,0.01,0.0,0.09,0.0,0.065,0.8206156927409805,0.2001501689612147,0.190142660513154,0.5003754224030369
2.96,297.63,30.69,10.0,0.0,0.02,0.0,0.12,0.0,0.07,0.82,0.2,0.19,0.5
2.97,297.63,30.75,10.0,0.0,0.0,0.0,0.11,0.0,0.04,0.82,0.2,0.19,0.5
2.98,297.63,30.75,10.0,0.0,0.0,0.0,0.09,0.01,0.05,0.82,0.2,0.19,0.5
2.99,297.63,30.75,10.0,0.01,0.01,0.0,0.1,0.01,0.07,0.82,0.2,0.19,0.5
3.0,297.63,30.75,10.0,0.01,0.01,0.0,0.1,0.0,0.07,0.82,0.2,0.19,0.5
3.01,297.63,30.75,10.0,0.01,0.0,0.0,0.06,0.01,0.06,0.82,0.2,0.19,0.5
3.02,297.63,30.75,10.0,0.01,0.01,0.0,0.1,0.01,0.02,0.82,0.2,0.19,0.5
3.03,297.63,30.75,10.0,0.01,0.01,0.0,0.13,0.0,0.11,0.82,0.2,0.19,0.5
3.04,297.63,30.75,10.0,0.0,0.0,0.0,0.11,0.0,0.07,0.82,0.2,0.19,0.5
3.05,297.63,30.75,10.0,0.0,0.0,0.0,0.09,0.0,0.07,0.82,0.2,0.19,0.5
3.06,297.63,30.75,10.0,0.01,0.0,0.0,0.04,0.0,0.02,0.82,0.2,0.19,0.5
3.07,297.63,30.75,10.0,0.01,0.02,0.0,0.1,0.0,0.01,0.82,0.2,0.19,0.5
3.08,297.63,30.75,10.0,0.01,0.0,0.0,0.13,0.02,0.15,0.82,0.2,0.19,0.5
3.09,297.63,30.75,10.0,0.01,0.0,0.0,0.07,0.02,0.04,0.82,0.2,0.19,0.5
3.1,297.63,30.75,10.0,0.01,0.0,0.0,0.08,0.01,0.0,0.82,0.2,0.19,0.5
3.11,297.63,30.75,10.0,0.01,0.01,0.0,0.09,0.0,0.08,0.82,0.2,0.19,0.5
3.12,297.63,30.75,10.0,0.01,0.01,0.0,0.11,0.02,0.05,0.82,0.2,0.19,0.5
3.13,297.63,30.75,10.0,0.01,0.01,0.0,0.12,0.015,0.06,0.8206156927409805,0.2001501689612147,0.190142660513154,0.5003754224030369
3.14,297.63,30.75,10.0,0.01,0.01,0.0,0.13,0.01,0.07,0.82,0.2,0.19,0.5
3.15,297.63,30.75,10.0,0.01,0.01,0.0,0.07,0.0,0.04,0.82,0.2,0.19,0.5
3.16,297.63,30.81,10.0,0.0,0.01,0.0,0.1,0.03,0.09,0.82,0.2,0.19,0.5
3.17,297.63,30.81,10.0,0.0,0.0,0.0,0.14,0.02,0.07,0.82,0.2,0.19,0.5
3.18,297.63,30.81,10.0,0.01,0.0,0.0,0.13,0.04,0.08,0.82,0.2,0.19,0.5
3.19,297.63,30.81,10.0,0.01,0.01,0.0,0.12,0.04,0.06,0.82,0.2,0.19,0.5
3.2,297.63,30.81,10.0,0.0,0.01,0.0,0.12,0.07,0.06,0.82,0.2,0.19,0.5
3.21,297.63,30.75,10.0,0.0,0.02,0.0,0.09,0.03,0.08,0.82,0.2,0.19,0.5
3.22,297.63,30.75,10.0,0.0,0.01,0.0,0.1,0.01,0.03,0.82,0.2,0.19,0.5
3.23,297.63,30.75,10.0,0.0,0.01,0.0,0.115,0.015,0.05,0.8206156927409805,0.2001501689612147,0.190142660513154,0.5003754224030369
3.24,297.63,30.75,10.0,0.0,0.01,0.0,0.13,0.02,0.07,0.82,0.2,0.19,0.5
3.25,297.63,30.75,10.0,0.0,0.0,0.0,0.08,0.01,0.04,0.82,0.2,0.19,0.5
3.26,297.63,30.75,10.0,0.0,0.0,0.0,0.08,0.015,0.03,0.8206156927409805,0.2001501689612147,0.190142660513154,0.5003754224030369
3.27,297.63,30.75,10.0,0.0,0.0,0.0,0.08,0.02,0.02,0.82,0.2,0.19,0.5
3.28,297.63,30.75,10.0,0.0,0.01,0.0,0.08,0.03,0.04,0.82,0.2,0.19,0.5
3.29,297.63,30.75,10.0,0.0,0.0,0.0,0.1,0.03,0.08,0.82,0.2,0.19,0.5
3.3,297.63,30.75,10.0,0.0,0.0,0.0,0.11,0.01,0.05,0.82,0.2,0.19,0.5
3.31,297.63,30.75,10.0,0.0,0.0,0.0,0.12,0.0,0.1,0.82,0.2,0.19,0.5
3.32,297.63,30.75,10.0,0.01,0.0,0.0,0.1,0.0,0.05,0.82,0.2,0.19,0.5
3.33,297.63,30.75,10.0,0.0,0.01,0.0,0.11,0.01,0.05,0.82,0.2,0.19,0.5
3.34,297.63,30.75,10.0,0.0,0.03,0.0,0.06,0.02,0.08,0.82,0.2,0.19,0.5
3.35,297.63,30.69,10.0,0.0,0.01,0.0,0.07,0.01,0.01,0.82,0.2,0.19,0.5
3.36,297.63,30.69,10.0,0.01,0.02,0.0,0.12,0.04,0.04,0.82,0.2,0.19,0.5
3.37,297.63,30.69,10.0,0.01,0.01,0.0,0.13,0.04,0.04,0.82,0.2,0.19,0.5
3.38,297.63,30.69,10.0,0.0,0.01,0.0,0.06,0.03,0.07,0.82,0.2,0.19,0.5
3.39,297.63,30.69,10.0,0.0,0.0,0.0,0.06,0.03,0.07,0.82,0.2,0.19,0.5
3.4,297.63,30.69,10.0,0.0,0.0,0.0,0.15,0.04,0.1,0.82,0.2,0.19,0.5
3.41,297.63,30.69,10.0,0.0,0.0,0.0,0.14,0.05,0.09,0.82,0.2,0.19,0.5
3.42,297.63,30.69,10.0,0.0,0.0,0.0,0.05,0.04,0.04,0.82,0.2,0.19,0.5
3.43,297.63,30.69,10.0,0.0,0.01,0.0,0.07,0.02,0.04,0.82,0.2,0.19,0.5
3.44,297.63,30.69,10.0,0.0,0.01,0.0,0.09,0.015,0.04,0.8206156927409805,0.2001501689612147,0.190142660513154,0.5003754224030369
3.45,297.63,30.69,10.0,0.0,0.01,0.0,0.11,0.01,0.04,0.82,0.2,0.19,0.5
3.46,297.63,30.69,10.0,0.0,0.0,0.0,0.1,0.0,0.03,0.82,0.2,0.19,0.5
3.47,297.63,30.69,10.0,0.01,0.0,0.0,0.1,0.0,0.04,0.82,0.2,0.19,0.5
3.48,297.63,30.69,10.0,0.0,0.0,0.0,0.11,0.02,0.09,0.82,0.2,0.19,0.5
3.49,297.63,30.69,10.0,0.01,0.01,0.0,0.1,0.02,0.08,0.82,0.2,0.19,0.5
3.5,297.63,30.69,10.0,0.01,0.0,0.0,0.08,0.02,0.08,0.82,0.2,0.19,0.5
3.51,297.63,30.69,10.0,0.0,0.0,0.0,0.09,0.01,0.03,0.82,0.2,0.19,0.5
3.52,297.63,30.69,10.0,0.01,0.0,0.0,0.09,0.03,0.08,0.82,0.2,0.19,0.5
3.53,297.63,30.69,10.0,0.01,0.0,0.0,0.11,0.04,0.04,0.82,0.2,0.19,0.5
3.54,297.63,30.69,10.0,0.0,0.0,0.0,0.11,0.03,0.03,0.82,0.2,0.19,0.5
3.55,297.63,30.69,10.0,0.01,0.0,0.0,0.08,0.03,0.05,0.82,0.2,0.19,0.5
3.56,297.63,30.69,10.0,0.01,0.005,0.0,0.09,0.045,0.075,0.8206156927409805,0.2001501689612147,0.190142660513154,0.5003754224030369
3.57,297.63,30.69,10.0,0.01,0.01,0.0,0.1,0.06,0.1,0.82,0.2,0.19,0.5
3.58,297.63,30.69,10.0,0.0,0.01,0.0,0.08,0.05,0.05,0.82,0.2,0.19,0.5
3.59,297.63,30.69,10.0,0.01,0.01,0.0,0.08,0.06,0.05,0.82,0.2,0.19,0.5
3.6,297.63,30.69,10.0,0.0,0.0,0.0,0.1,0.03,0.05,0.82,0.2,0.19,0.5
3.61,297.63,30.69,10.0,0.0,0.01,0.0,0.11,0.02,0.06,0.82,0.2,0.19,0.5
3.62,297.63,30.69,10.0,0.01,0.01,0.0,0.08,0.02,0.07,0.82,0.2,0.19,0.5
3.63,297.63,30.69,10.0,0.01,0.0,0.0,0.09,0.0,0.08,0.82,0.2,0.19,0.5
3.64,297.63,30.69,10.0,0.01,0.005,0.0,0.1,0.0,0.075,0.8206156927409805,0.2001501689612147,0.190142660513154,0.5003754224030369
3.65,297.63,30.69,10.0,0.01,0.01,0.0,0.11,0.0,0.07,0.82,0.2,0.19,0.5
3.66,297.63,30.69,10.0,0.01,0.0,0.0,0.08,0.02,0.03,0.82,0.2,0.19,0.5
3.67,297.63,30.69,10.0,0.0,0.0,0.0,0.1,0.02,0.06,0.82,0.2,0.19,0.5
3.68,297.63,30.69,10.0,0.01,0.0,0.0,0.12,0.05,0.07,0.82,0.2,0.19,0.5
3.69,297.63,30.69,10.0,0.0,0.01,0.0,0.12,0.06,0.03,0.82,0.2,0.19,0.5
3.7,297.63,30.69,10.0,0.0,0.01,0.0,0.1,0.04,0.08,0.82,0.2,0.19,0.5
3.71,297.63,30.69,10.0,0.0,0.01,0.0,0.09,0.03,0.11,0.82,0.2,0.19,0.5
3.72,297.63,30.69,10.0,0.0,0.01,0.0,0.05,0.0,0.07,0.82,0.2,0.19,0.5
3.73,297.63,30.69,10.0,0.0,0.0,0.0,0.06,0.0,0.02,0.82,0.2,0.19,0.5
3.74,297.63,30.69,10.0,0.0,0.005,0.0,0.07,0.025,0.025,0.8206156927409805,0.2001501689612147,0.190142660513154,0.5003754224030369
3.75,297.63,30.69,10.0,0.0,0.01,0.0,0.08,0.05,0.03,0.82,0.2,0.19,0.5
3.76,297.63,30.69,10.0,0.01,0.0,0.0,0.07,0.05,0.07,0.82,0.2,0.19,0.5
3.77,297.63,30.69,10.0,0.015,0.005,0.0,0.085,0.025,0.09,0.8206156927409805,0.2001501689612147,0.190142660513154,0.5003754224030369
3.78,297.63,30.69,10.0,0.02,0.01,0.0,0.1,0.0,0.11,0.82,0.2,0.19,0.5
3.79,297.63,30.69,10.06,0.02,0.01,0.01,0.1,0.0,0.14,0.82,0.2,0.19,0.5
3.8,297.63,30.69,10.06,0.01,0.01,0.0,0.14,0.03,0.06,0.82,0.2,0.19,0.5
3.81,297.63,30.69,10.06,0.01,0.0,0.01,0.14,0.08,0.02,0.82,0.2,0.19,0.5
3.82,297.63,30.69,10.06,0.01,0.0,0.0,0.05,0.05,0.07,0.82,0.2,0.19,0.5
3.83,297.63,30.69,10.06,0.02,0.01,0.0,0.09,0.0,0.07,0.82,0.2,0.19,0.5
3.84,297.56,30.69,10.06,0.02,0.0,0.0,0.08,0.02,0.05,0.82,0.2,0.19,0.5
3.85,297.56,30.69,10.095,0.015,0.0,0.0,0.1,0.02,0.06,0.8197848347176243,0.2049462086794061,0.1899501446296934,0.4998688016570879
3.86,297.56,30.69,10.13,0.01,0.0,0.0,0.12,0.02,0.07,0.82,0.21,0.19,0.5
3.87,297.56,30.69,10.13,0.01,0.0,0.0,0.11,0.04,0.12,0.82,0.21,0.19,0.5
3.88,297.56,30.69,10.13,0.01,0.0,0.0,0.12,0.0,0.04,0.82,0.21,0.19,0.5
3.89,297.56,30.69,10.13,0.01,0.01,0.01,0.11,0.01,0.09,0.82,0.21,0.19,0.5
3.9,297.56,30.69,10.19,0.01,0.0,0.01,0.09,0.02,0.07,0.82,0.21,0.19,0.5
3.91,297.56,30.69,10.19,0.0,0.01,0.01,0.1,0.02,0.06,0.82,0.21,0.19,0.5
3.92,297.56,30.69,10.19,0.0,0.0,0.01,0.12,0.05,0.07,0.82,0.21,0.19,0.5
3.93,297.56,30.69,10.19,0.01,0.01,0.0,0.09,0.03,0.07,0.82,0.21,0.19,0.5
3.94,297.56,30.69,10.19,0.01,0.02,0.01,0.08,0.06,0.08,0.82,0.21,0.19,0.5
3.95,297.56,30.655,10.19,0.005,0.02,0.005,0.07,0.04,0.0849999999999999,0.8189360742063723,0.2097275311991929,0.1897534806087936,0.4993512647599831
3.96,297.56,30.62,10.19,0.0,0.02,0.0,0.06,0.02,0.09,0.82,0.21,0.19,0.5
3.97,297.56,30.62,10.13,0.01,0.03,0.0,0.04,0.02,0.02,0.82,0.21,0.19,0.5
3.98,297.56,30.56,10.13,0.01,0.01,0.0,0.07,0.0,0.01,0.82,0.21,0.19,0.5
3.99,297.56,30.56,10.13,0.01,0.0,0.0,0.06,0.0,0.08,0.82,0.21,0.19,0.5
4.0,297.56,30.56,10.19,0.01,0.01,0.0,0.07,0.01,0.03,0.82,0.21,0.19,0.5
4.01,297.56,30.56,10.19,0.01,0.0,0.0,0.09,0.02,0.11,0.82,0.21,0.19,0.5
4.02,297.56,30.56,10.19,0.02,0.01,0.0,0.08,0.03,0.07,0.82,0.21,0.19,0.5
4.03,297.56,30.56,10.19,0.01,0.0,0.0,0.11,0.06,0.0,0.82,0.21,0.19,0.5
4.04,297.56,30.56,10.19,0.01,0.0,0.0,0.13,0.06,0.1,0.82,0.21,0.19,0.5
4.05,297.56,30.56,10.19,0.0,0.01,0.0,0.11,0.06,0.07,0.82,0.21,0.19,0.5
4.06,297.56,30.62,10.19,0.0,0.0,0.0,0.09,0.06,0.09,0.82,0.21,0.19,0.5
4.07,297.56,30.62,10.19,0.0,0.0,0.0,0.07,0.04,0.05,0.82,0.21,0.19,0.5
4.08,297.56,30.62,10.19,0.0,0.0,0.0,0.08,0.05,0.06,0.8189360742063723,0.2097275311991929,0.1897534806087936,0.4993512647599831
4.09,297.56,30.62,10.19,0.0,0.0,0.0,0.09,0.06,0.07,0.82,0.21,0.19,0.5
4.1,297.56,30.62,10.19,0.01,0.01,0.0,0.11,0.03,0.07,0.82,0.21,0.19,0.5
4.11,297.56,30.56,10.19,0.0,0.01,0.01,0.07,0.02,0.07,0.82,0.21,0.19,0.5
4.12,297.56,30.56,10.19,0.0,0.01,0.01,0.1,0.04,0.06,0.82,0.21,0.19,0.5
4.13,297.56,30.56,10.19,0.01,0.0,0.0,0.09,0.01,0.07,0.82,0.21,0.19,0.5
4.14,297.56,30.56,10.19,0.0,0.0,0.0,0.08,0.0,0.06,0.82,0.21,0.19,0.5
4.15,297.56,30.56,10.19,0.0,0.01,0.0,0.09,0.02,0.05,0.82,0.21,0.19,0.5
4.16,297.56,30.56,10.19,0.005,0.015,0.0,0.075,0.0399999999999999,0.09,0.8189360742063723,0.2097275311991929,0.1897534806087936,0.4993512647599831
4.17,297.56,30.56,10.19,0.01,0.02,0.0,0.06,0.06,0.13,0.82,0.21,0.19,0.5
4.18,297.56,30.56,10.19,0.01,0.03,0.0,0.05,0.07,0.04,0.82,0.21,0.19,0.5
4.19,297.56,30.56,10.19,0.0,0.03,0.0,0.06,0.06,0.02,0.82,0.21,0.19,0.5
4.2,297.56,30.5,10.19,0.0,0.0,0.0,0.07,0.0,0.01,0.82,0.2,0.18,0.5
4.21,297.56,30.5,10.19,0.0,0.02,0.01,0.11,0.04,0.07,0.82,0.2,0.18,0.5
4.22,297.56,30.56,10.19,0.0,0.01,0.01,0.1,0.09,0.1,0.82,0.21,0.19,0.5
4.23,297.56,30.56,10.19,0.0,0.01,0.01,0.14,0.06,0.05,0.82,0.21,0.19,0.5
4.24,297.56,30.56,10.19,0.01,0.01,0.0,0.13,0.04,0.03,0.82,0.21,0.19,0.5
4.25,297.56,30.56,10.19,0.01,0.01,0.01,0.07,0.12,0.08,0.82,0.21,0.19,0.5
4.26,297.5,30.56,10.19,0.01,0.01,0.01,0.03,0.07,0.0,0.82,0.21,0.19,0.5
4.27,297.5,30.56,10.19,0.01,0.07,0.0,0.02,0.03,0.0,0.82,0.21,0.19,0.5
4.28,297.56,30.69,10.19,0.0,0.08,0.01,0.08,0.14,0.0,0.82,0.21,0.19,0.5
4.29,297.56,30.75,10.19,0.01,0.04,0.0,0.11,0.09,0.09,0.82,0.21,0.19,0.5
4.3,297.56,30.81,10.25,0.02,0.05,0.01,0.16,0.08,0.09,0.82,0.21,0.19,0.5
4.31,297.56,30.88,10.25,0.02,0.06,0.0,0.14,0.05,0.02,0.82,0.21,0.19,0.5
4.32,297.56,30.88,10.25,0.01,0.01,0.01,0.03,0.03,0.15,0.82,0.21,0.19,0.5
4.33,297.56,30.88,10.25,0.01,0.0,0.01,0.03,0.1,0.12,0.82,0.21,0.19,0.5
4.34,297.56,30.91,10.28,0.01,0.015,0.01,0.125,0.08,0.065,0.8189360742063723,0.2097275311991929,0.1897534806087936,0.4993512647599831
4.35,297.56,30.94,10.31,0.01,0.03,0.01,0.22,0.06,0.01,0.82,0.21,0.19,0.5
4.36,297.56,30.94,10.31,0.0,0.01,0.01,0.14,0.13,0.05,0.82,0.21,0.19,0.5
4.37,297.56,30.94,10.31,0.0,0.015,0.01,0.1,0.1,0.055,0.8189360742063723,0.2097275311991929,0.1897534806087936,0.4993512647599831
4.38,297.56,30.94,10.31,0.0,0.02,0.01,0.06,0.07,0.06,0.82,0.21,0.19,0.5
4.39,297.56,31.0,10.31,0.0,0.02,0.01,0.05,0.03,0.02,0.82,0.21,0.19,0.5
4.4,297.56,31.0,10.31,0.02,0.03,0.0,0.14,0.07,0.07,0.82,0.21,0.19,0.5
4.41,297.56,31.06,10.25,0.01,0.02,0.01,0.11,0.08,0.1,0.82,0.21,0.19,0.5
4.42,297.56,31.06,10.25,0.01,0.01,0.01,0.05,0.09,0.02,0.82,0.21,0.19,0.5
4.43,297.56,31.06,10.25,0.0,0.03,0.0,0.12,0.04,0.1,0.82,0.21,0.19,0.5
4.44,297.56,31.12,10.25,0.02,0.02,0.0,0.1,0.03,0.06,0.82,0.21,0.19,0.5
4.45,297.56,31.12,10.25,0.01,0.0,0.0,0.11,0.05,0.0,0.82,0.21,0.19,0.5
4.46,297.56,31.12,10.31,0.01,0.01,0.0,0.11,0.07,0.08,0.82,0.21,0.19,0.5
4.47,297.56,31.12,10.31,0.005,0.01,0.005,0.1,0.055,0.06,0.8189360742063723,0.2097275311991929,0.1897534806087936,0.4993512647599831
4.48,297.56,31.12,10.31,0.0,0.01,0.01,0.09,0.04,0.04,0.82,0.21,0.19,0.5
4.49,297.56,31.12,10.31,0.01,0.01,0.0,0.04,0.02,0.06,0.82,0.21,0.19,0.5
4.5,297.56,31.12,10.31,0.02,0.01,0.0,0.13,0.05,0.11,0.82,0.21,0.19,0.5
4.51,297.56,31.12,10.31,0.02,0.01,0.0,0.1,0.0,0.03,0.82,0.21,0.19,0.5
4.52,297.56,31.12,10.31,0.01,0.0,0.01,0.12,0.04,0.1,0.82,0.21,0.19,0.5
4.53,297.56,31.12,10.31,0.01,0.01,0.01,0.12,0.04,0.13,0.82,0.21,0.19,0.5
4.54,297.56,31.12,10.38,0.01,0.01,0.01,0.15,0.03,0.09,0.82,0.21,0.19,0.5
4.55,297.56,31.12,10.38,0.02,0.02,0.01,0.06,0.01,0.0,0.82,0.21,0.19,0.5
4.56,297.56,31.19,10.38,0.01,0.03,0.01,0.11,0.02,0.09,0.82,0.21,0.19,0.5
4.57,297.56,31.19,10.44,0.01,0.03,0.01,0.14,0.0,0.09,0.82,0.21,0.19,0.5
4.58,297.56,31.25,10.44,0.01,0.03,0.01,0.1,0.03,0.03,0.82,0.21,0.19,0.5
4.59,297.56,31.25,10.44,0.0,0.02,0.01,0.1,0.02,0.13,0.82,0.21,0.19,0.5
4.6,297.56,31.25,10.44,0.01,0.02,0.01,0.04,0.04,0.01,0.82,0.21,0.19,0.5
4.61,297.56,31.31,10.44,0.0,0.01,0.01,0.08,0.03,0.11,0.82,0.21,0.19,0.5
4.62,297.56,31.31,10.44,0.0,0.01,0.005,0.075,0.07,0.07,0.8189360742063723,0.2097275311991929,0.1897534806087936,0.4993512647599831
4.63,297.56,31.31,10.44,0.0,0.01,0.0,0.07,0.11,0.03,0.82,0.21,0.19,0.5
4.64,297.56,31.31,10.44,0.0,0.0,0.0,0.06,0.05,0.08,0.82,0.21,0.19,0.5
4.65,297.56,31.31,10.44,0.0,0.01,0.0,0.09,0.06,0.04,0.82,0.21,0.19,0.5
4.66,297.56,31.31,10.44,0.0,0.0,0.0,0.11,0.05,0.08,0.82,0.21,0.19,0.5
4.67,297.56,31.31,10.44,0.01,0.01,0.0,0.12,0.02,0.07,0.82,0.21,0.19,0.5
4.68,297.56,31.31,10.44,0.0,0.01,0.0,0.14,0.03,0.07,0.82,0.21,0.19,0.5
4.69,297.56,31.31,10.44,0.0,0.02,0.0,0.1,0.02,0.1,0.82,0.21,0.19,0.5
4.7,297.56,31.25,10.44,0.0,0.02,0.0,0.11,0.03,0.06,0.82,0.21,0.19,0.5
4.71,297.56,31.25,10.44,0.0,0.02,0.0,0.08,0.01,0.06,0.82,0.21,0.19,0.5
4.72,297.56,31.19,10.44,0.01,0.02,0.0,0.08,0.02,0.02,0.82,0.21,0.19,0.5
4.73,297.56,31.19,10.44,0.01,0.02,0.0,0.1,0.03,0.04,0.82,0.21,0.19,0.5
4.74,297.56,31.19,10.44,0.01,0.02,0.0,0.1,0.04,0.04,0.82,0.21,0.19,0.5
4.75,297.56,31.19,10.44,0.01,0.01,0.0,0.08,0.02,0.02,0.82,0.21,0.19,0.5
4.76,297.56,31.19,10.44,0.0,0.01,0.0,0.09,0.02,0.09,0.82,0.21,0.19,0.5
4.77,297.56,31.19,10.44,0.0,0.0,0.0,0.09,0.0,0.04,0.82,0.21,0.19,0.5
4.78,297.56,31.19,10.44,0.0,0.0,0.01,0.12,0.0,0.07,0.82,0.21,0.19,0.5
4.79,297.56,31.19,10.44,0.0,0.01,0.0,0.09,0.02,0.05,0.82,0.21,0.19,0.5
4.8,297.56,31.19,10.44,0.0,0.0,0.0,0.1,0.04,0.07,0.82,0.21,0.19,0.5
4.81,297.56,31.19,10.44,0.0,0.0,0.0,0.1,0.01,0.07,0.82,0.21,0.19,0.5
4.82,297.56,31.19,10.44,0.0,0.01,0.0,0.09,0.03,0.06,0.82,0.21,0.19,0.5
4.83,297.56,31.19,10.44,0.0,0.01,0.0,0.11,0.02,0.11,0.82,0.21,0.19,0.5
4.84,297.56,31.12,10.44,0.01,0.01,0.0,0.06,0.03,0.04,0.82,0.21,0.19,0.5
4.85,297.56,31.12,10.44,0.0,0.01,0.0,0.09,0.0,0.02,0.82,0.21,0.19,0.5
4.86,297.56,31.12,10.44,0.0,0.01,0.0,0.06,0.02,0.05,0.82,0.21,0.19,0.5
4.87,297.56,31.12,10.44,0.0,0.01,0.0,0.07,0.0,0.02,0.82,0.21,0.19,0.5
4.88,297.56,31.12,10.44,0.01,0.0,0.0,0.06,0.0,0.03,0.82,0.21,0.19,0.5
4.89,297.56,31.12,10.44,0.01,0.01,0.0,0.1,0.02,0.01,0.82,0.21,0.19,0.5
4.9,297.56,31.12,10.44,0.01,0.01,0.0,0.105,0.035,0.06,0.8189360742063723,0.2097275311991929,0.1897534806087936,0.4993512647599831
4.91,297.56,31.12,10.44,0.01,0.01,0.0,0.11,0.05,0.11,0.82,0.21,0.19,0.5
4.92,297.56,31.12,10.44,0.01,0.01,0.0,0.13,0.03,0.11,0.82,0.21,0.19,0.5
4.93,297.56,31.12,10.44,0.0,0.0,0.0,0.09,0.02,0.09,0.82,0.21,0.19,0.5
4.94,297.56,31.12,10.44,0.0,0.02,0.0,0.09,0.06,0.06,0.82,0.21,0.19,0.5
4.95,297.56,31.12,10.44,0.0,0.02,0.0,0.07,0.03,0.06,0.82,0.21,0.19,0.5
4.96,297.56,31.06,10.44,0.0,0.01,0.0,0.06,0.01,0.06,0.82,0.21,0.19,0.5
4.97,297.56,31.06,10.44,0.0,0.0,0.0,0.06,0.0,0.02,0.82,0.21,0.19,0.5
4.98,297.56,31.06,10.44,0.0,0.0,0.0,0.075,0.0,0.0399999999999999,0.8189360742063723,0.2097275311991929,0.1897534806087936,0.4993512647599831
4.99,297.56,31.06,10.44,0.0,0.0,0.0,0.09,0.0,0.06,0.82,0.21,0.19,0.5
5.0,297.56,31.06,10.44,0.0,0.0,0.0,0.11,0.01,0.05,0.82,0.21,0.19,0.5
5.01,297.56,31.06,10.44,0.01,0.01,0.0,0.12,0.01,0.09,0.82,0.21,0.19,0.5
5.02,297.56,31.06,10.44,0.0,0.01,0.0,0.1,0.0,0.1,0.82,0.21,0.19,0.5
5.03,297.56,31.06,10.44,0.0,0.0,0.0,0.09,0.03,0.07,0.82,0.21,0.19,0.5
5.04,297.56,31.06,10.44,0.0,0.01,0.0,0.06,0.02,0.1,0.82,0.21,0.19,0.5
5.05,297.56,31.06,10.44,0.0,0.0,0.0,0.06,0.04,0.02,0.82,0.21,0.19,0.5
5.06,297.56,31.06,10.44,0.0,0.0,0.0,0.11,0.01,0.04,0.82,0.21,0.19,0.5
5.07,297.56,31.06,10.44,0.0,0.0,0.0,0.09,0.01,0.07,0.82,0.21,0.19,0.5
5.08,297.56,31.06,10.44,0.0,0.0,0.0,0.095,0.005,0.065,0.8189360742063723,0.2097275311991929,0.1897534806087936,0.4993512647599831
5.09,297.56,31.06,10.44,0.0,0.0,0.0,0.1,0.0,0.06,0.82,0.21,0.19,0.5
5.1,297.56,31.06,10.44,0.0,0.01,0.0,0.1,0.0,0.07,0.82,0.21,0.19,0.5
5.11,297.56,31.06,10.44,0.0,0.01,0.0,0.09,0.01,0.06,0.82,0.21,0.19,0.5
5.12,297.56,31.06,10.44,0.0,0.0,0.0,0.1,0.03,0.06,0.82,0.21,0.19,0.5
5.13,297.56,31.06,10.44,0.0,0.01,0.0,0.08,0.06,0.03,0.82,0.21,0.19,0.5
5.14,297.56,31.06,10.44,0.01,0.0,0.0,0.11,0.04,0.07,0.82,0.21,0.19,0.5
5.15,297.56,31.06,10.44,0.01,0.01,0.01,0.08,0.06,0.05,0.82,0.21,0.19,0.5
5.16,297.56,31.06,10.44,0.01,0.0,0.01,0.08,0.04,0.07,0.82,0.21,0.19,0.5
5.17,297.56,31.06,10.44,0.01,0.01,0.0,0.1,0.0,0.04,0.82,0.21,0.19,0.5
5.18,297.56,31.06,10.38,0.01,0.0,0.01,0.1,0.0,0.08,0.82,0.21,0.19,0.5
5.19,297.56,31.06,10.38,0.01,0.01,0.0,0.07,0.03,0.03,0.82,0.21,0.19,0.5
5.2,297.56,31.06,10.38,0.01,0.0,0.0,0.08,0.05,0.04,0.82,0.21,0.19,0.5
5.21,297.56,31.06,10.38,0.01,0.01,0.0,0.11,0.02,0.05,0.82,0.21,0.19,0.5
5.22,297.56,31.06,10.38,0.0,0.01,0.0,0.11,0.0,0.05,0.82,0.21,0.19,0.5
5.23,297.56,31.06,10.38,0.0,0.01,0.0,0.1,0.01,0.08,0.82,0.21,0.19,0.5
5.24,297.56,31.12,10.38,0.0,0.01,0.0,0.11,0.0,0.07,0.82,0.21,0.19,0.5
5.25,297.56,31.12,10.38,0.0,0.01,0.0,0.11,0.04,0.07,0.82,0.21,0.19,0.5
5.26,297.56,31.12,10.38,0.0,0.0,0.0,0.1,0.02,0.08,0.82,0.21,0.19,0.5
5.27,297.56,31.12,10.38,0.0,0.01,0.0,0.06,0.01,0.04,0.82,0.21,0.19,0.5
5.28,297.56,31.12,10.38,0.0,0.01,0.0,0.075,0.01,0.065,0.8189360742063723,0.2097275311991929,0.1897534806087936,0.4993512647599831
5.29,297.56,31.12,10.38,0.0,0.01,0.0,0.09,0.01,0.09,0.82,0.21,0.19,0.5
5.3,297.56,31.12,10.38,0.0,0.0,0.0,0.1,0.0,0.08,0.82,0.21,0.19,0.5
5.31,297.56,31.12,10.38,0.0,0.005,0.0,0.105,0.03,0.065,0.8189360742063723,0.2097275311991929,0.1897534806087936,0.4993512647599831
5.32,297.56,31.12,10.38,0.0,0.01,0.0,0.11,0.06,0.05,0.82,0.21,0.19,0.5
5.33,297.56,31.12,10.38,0.0,0.0,0.0,0.12,0.03,0.05,0.82,0.21,0.19,0.5
5.34,297.56,31.12,10.38,0.0,0.01,0.0,0.08,0.01,0.06,0.82,0.21,0.19,0.5
5.35,297.56,31.12,10.38,0.0,0.0,0.0,0.06,0.01,0.03,0.82,0.21,0.19,0.5
5.36,297.56,31.12,10.38,0.0,0.0,0.0,0.1,0.01,0.06,0.82,0.21,0.19,0.5
5.37,297.56,31.12,10.38,0.0,0.0,0.0,0.11,0.01,0.04,0.82,0.21,0.19,0.5
5.38,297.56,31.12,10.38,0.0,0.0,0.0,0.07,0.0,0.04,0.82,0.21,0.19,0.5
5.39,297.56,31.12,10.38,0.0,0.01,0.0,0.09,0.0,0.06,0.82,0.21,0.19,0.5
5.4,297.56,31.12,10.38,0.0,0.01,0.0,0.13,0.0,0.08,0.82,0.21,0.19,0.5
5.41,297.56,31.12,10.38,0.0,0.0,0.0,0.11,0.0,0.09,0.82,0.21,0.19,0.5
5.42,297.56,31.12,10.38,0.0,0.01,0.0,0.09,0.04,0.06,0.82,0.21,0.19,0.5
5.43,297.56,31.12,10.38,0.0,0.0,0.0,0.1,0.0,0.05,0.82,0.21,0.19,0.5
5.44,297.56,31.12,10.38,0.0,0.0,0.0,0.05,0.01,0.01,0.82,0.21,0.19,0.5
5.45,297.56,31.12,10.38,0.0,0.0,0.0,0.05,0.01,0.03,0.82,0.21,0.19,0.5
5.46,297.56,31.12,10.38,0.0,0.01,0.0,0.09,0.0,0.06,0.82,0.21,0.19,0.5
5.47,297.56,31.12,10.38,0.0,0.0,0.0,0.08,0.01,0.04,0.82,0.21,0.19,0.5
5.48,297.56,31.12,10.38,0.0,0.02,0.0,0.13,0.0,0.05,0.82,0.21,0.19,0.5
5.49,297.56,31.12,10.38,0.0,0.03,0.0,0.13,0.02,0.09,0.82,0.21,0.19,0.5
5.5,297.56,31.19,10.38,0.01,0.01,0.0,0.1,0.0,0.08,0.82,0.21,0.19,0.5
5.51,297.56,31.19,10.38,0.005,0.005,0.0,0.08,0.005,0.05,0.8189360742063723,0.2097275311991929,0.1897534806087936,0.4993512647599831
5.52,297.56,31.19,10.38,0.0,0.0,0.0,0.06,0.01,0.02,0.82,0.21,0.19,0.5
5.53,297.56,31.19,10.38,0.0,0.01,0.0,0.1,0.01,0.02,0.82,0.21,0.19,0.5
5.54,297.56,31.19,10.38,0.0,0.0,0.0,0.09,0.03,0.05,0.82,0.21,0.19,0.5
5.55,297.56,31.19,10.38,0.01,0.01,0.0,0.09,0.0,0.06,0.82,0.21,0.19,0.5
5.56,297.56,31.19,10.38,0.01,0.01,0.0,0.12,0.01,0.06,0.82,0.21,0.19,0.5
5.57,297.56,31.19,10.38,0.0,0.01,0.0,0.14,0.02,0.06,0.82,0.21,0.19,0.5
5.58,297.56,31.19,10.38,0.0,0.0,0.0,0.1,0.01,0.09,0.82,0.21,0.19,0.5
5.59,297.56,31.19,10.38,0.005,0.0,0.0,0.09,0.005,0.06,0.8189360742063723,0.2097275311991929,0.1897534806087936,0.4993512647599831
5.6,297.56,31.19,10.38,0.01,0.0,0.0,0.08,0.0,0.03,0.82,0.21,0.19,0.5
5.61,297.56,31.19,10.38,0.0,0.0,0.0,0.09,0.0,0.05,0.82,0.21,0.19,0.5
5.62,297.56,31.19,10.38,0.0,0.0,0.0,0.05,0.0,0.03,0.82,0.21,0.19,0.5
5.63,297.56,31.19,10.38,0.0,0.0,0.0,0.09,0.01,0.05,0.82,0.21,0.19,0.5
5.64,297.56,31.19,10.38,0.0,0.01,0.0,0.12,0.02,0.07,0.82,0.21,0.19,0.5
5.65,297.56,31.19,10.38,0.0,0.0,0.0,0.11,0.03,0.06,0.82,0.21,0.19,0.5
5.66,297.56,31.19,10.38,0.0,0.01,0.0,0.08,0.02,0.08,0.82,0.21,0.19,0.5
5.67,297.56,31.19,10.38,0.0,0.0,0.0,0.13,0.02,0.05,0.82,0.21,0.19,0.5
5.68,297.56,31.19,10.38,0.0,0.01,0.0,0.11,0.0,0.08,0.82,0.21,0.19,0.5
5.69,297.56,31.19,10.38,0.0,0.01,0.0,0.11,0.005,0.08,0.8189360742063723,0.2097275311991929,0.1897534806087936,0.4993512647599831
5.7,297.56,31.19,10.38,0.0,0.01,0.0,0.11,0.01,0.08,0.82,0.21,0.19,0.5
5.71,297.56,31.19,10.38,0.0,0.01,0.0,0.13,0.0,0.07,0.82,0.21,0.19,0.5
5.72,297.56,31.19,10.38,0.0,0.005,0.0,0.12,0.0,0.07,0.8189360742063723,0.2097275311991929,0.1897534806087936,0.4993512647599831
5.73,297.56,31.19,10.38,0.0,0.0,0.0,0.11,0.0,0.07,0.82,0.21,0.19,0.5
5.74,297.56,31.19,10.38,0.0,0.0,0.0,0.1,0.0,0.08,0.82,0.21,0.19,0.5
5.75,297.56,31.19,10.38,0.0,0.01,0.0,0.08,0.01,0.08,0.82,0.21,0.19,0.5
5.76,297.56,31.19,10.38,0.0,0.01,0.0,0.1,0.04,0.07,0.82,0.21,0.19,0.5
5.77,297.56,31.19,10.38,0.0,0.0,0.0,0.12,0.0,0.06,0.82,0.21,0.19,0.5
5.78,297.56,31.19,10.38,0.0,0.0,0.0,0.09,0.01,0.08,0.82,0.21,0.19,0.5
5.79,297.56,31.19,10.38,0.0,0.0,0.0,0.07,0.02,0.08,0.82,0.21,0.19,0.5
5.8,297.56,31.19,10.38,0.0,0.0,0.0,0.09,0.01,0.05,0.82,0.21,0.19,0.5
5.81,297.56,31.19,10.38,0.0,0.0,0.0,0.11,0.01,0.07,0.82,0.21,0.19,0.5
5.82,297.56,31.19,10.38,0.0,0.01,0.0,0.1,0.0,0.06,0.82,0.21,0.19,0.5
5.83,297.56,31.19,10.38,0.0,0.0,0.0,0.1,0.01,0.05,0.82,0.21,0.19,0.5
5.84,297.56,31.19,10.38,0.0,0.0,0.0,0.12,0.0,0.07,0.82,0.21,0.19,0.5
5.85,297.56,31.19,10.38,0.01,0.0,0.0,0.12,0.0,0.07,0.82,0.21,0.19,0.5
5.86,297.56,31.19,10.38,0.0,0.0,0.0,0.11,0.01,0.06,0.82,0.21,0.19,0.5
5.87,297.56,31.19,10.38,0.0,0.0,0.0,0.09,0.0,0.07,0.82,0.21,0.19,0.5
5.88,297.56,31.19,10.38,0.0,0.0,0.0,0.06,0.01,0.04,0.82,0.21,0.19,0.5
5.89,297.56,31.19,10.38,0.0,0.0,0.0,0.14,0.0,0.08,0.82,0.21,0.19,0.5
5.9,297.56,31.19,10.38,0.0,0.0,0.0,0.12,0.0,0.08,0.82,0.21,0.19,0.5
5.91,297.56,31.19,10.38,0.0,0.01,0.0,0.08,0.0,0.08,0.82,0.21,0.19,0.5
5.92,297.56,31.19,10.38,0.0,0.01,0.0,0.0849999999999999,0.0,0.07,0.8189360742063723,0.2097275311991929,0.1897534806087936,0.4993512647599831
5.93,297.56,31.19,10.38,0.0,0.01,0.0,0.09,0.0,0.06,0.82,0.21,0.19,0.5
5.94,297.56,31.19,10.38,0.0,0.01,0.0,0.08,0.0,0.05,0.82,0.21,0.19,0.5
5.95,297.56,31.19,10.38,0.0,0.01,0.0,0.07,0.02,0.04,0.82,0.21,0.19,0.5
5.96,297.56,31.19,10.38,0.0,0.0,0.0,0.12,0.01,0.05,0.82,0.21,0.19,0.5
5.97,297.56,31.19,10.38,0.0,0.0,0.0,0.11,0.0,0.05,0.82,0.21,0.19,0.5
5.98,297.56,31.19,10.38,0.0,0.0,0.0,0.12,0.01,0.06,0.82,0.21,0.19,0.5
5.99,297.56,31.19,10.38,0.01,0.0,0.0,0.11,0.02,0.09,0.82,0.21,0.19,0.5
6.0,297.56,31.19,10.38,0.01,0.01,0.0,0.09,0.04,0.08,0.82,0.21,0.19,0.5
6.01,297.56,31.19,10.38,0.0,0.0,0.0,0.03,0.02,0.05,0.82,0.21,0.19,0.5
6.02,297.56,31.19,10.38,0.0,0.0,0.0,0.06,0.0,0.05,0.82,0.21,0.19,0.5
6.03,297.56,31.19,10.38,0.0,0.0,0.0,0.09,0.0,0.04,0.82,0.21,0.19,0.5
6.04,297.56,31.19,10.38,0.0,0.0,0.0,0.11,0.01,0.04,0.82,0.21,0.19,0.5
6.05,297.56,31.19,10.38,0.0,0.01,0.0,0.12,0.01,0.07,0.82,0.21,0.19,0.5
6.06,297.56,31.19,10.38,0.0,0.0,0.0,0.1,0.0,0.08,0.82,0.21,0.19,0.5
6.07,297.56,31.19,10.38,0.0,0.01,0.0,0.06,0.0,0.08,0.82,0.21,0.19,0.5
6.08,297.56,31.19,10.38,0.0,0.005,0.0,0.07,0.0,0.045,0.8189360742063723,0.2097275311991929,0.1897534806087936,0.4993512647599831
6.09,297.56,31.19,10.38,0.0,0.0,0.0,0.08,0.0,0.01,0.82,0.21,0.19,0.5
6.1,297.56,31.19,10.38,0.01,0.0,0.0,0.06,0.01,0.02,0.82,0.21,0.19,0.5
6.11,297.56,31.19,10.38,0.005,0.005,0.005,0.105,0.005,0.045,0.8189360742063723,0.2097275311991929,0.1897534806087936,0.4993512647599831
6.12,297.56,31.19,10.38,0.0,0.01,0.01,0.15,0.0,0.07,0.82,0.21,0.19,0.5
6.13,297.56,31.19,10.44,0.01,0.0,0.0,0.08,0.01,0.07,0.82,0.21,0.19,0.5
6.14,297.56,31.19,10.44,0.01,0.0,0.0,0.08,0.0,0.08,0.82,0.21,0.19,0.5
6.15,297.56,31.19,10.44,0.02,0.0,0.0,0.09,0.01,0.03,0.82,0.21,0.19,0.5
6.16,297.56,31.19,10.44,0.01,0.0,0.0,0.1,0.03,0.06,0.82,0.21,0.19,0.5
6.17,297.56,31.19,10.44,0.01,0.0,0.0,0.07,0.01,0.03,0.82,0.21,0.19,0.5
6.18,297.56,31.19,10.44,0.01,0.01,0.0,0.06,0.0,0.02,0.82,0.21,0.19,0.5
6.19,297.56,31.22,10.44,0.01,0.015,0.0,0.0849999999999999,0.005,0.025,0.8189360742063723,0.2097275311991929,0.1897534806087936,0.4993512647599831
6.2,297.56,31.25,10.44,0.01,0.02,0.0,0.11,0.01,0.03,0.82,0.21,0.19,0.5
6.21,297.56,31.25,10.44,0.0,0.02,0.0,0.11,0.04,0.06,0.82,0.21,0.19,0.5
6.22,297.56,31.28,10.44,0.0,0.02,0.005,0.11,0.03,0.07,0.8189360742063723,0.2097275311991929,0.1897534806087936,0.4993512647599831
6.23,297.56,31.31,10.44,0.0,0.02,0.01,0.11,0.02,0.08,0.82,0.21,0.19,0.5
6.24,297.56,31.37,10.44,0.0,0.03,0.0,0.1,0.01,0.02,0.82,0.21,0.19,0.5
6.25,297.56,31.37,10.44,0.0,0.02,0.0,0.04,0.01,0.06,0.82,0.21,0.19,0.5
6.26,297.56,31.37,10.44,0.0,0.01,0.0,0.05,0.02,0.04,0.82,0.21,0.19,0.5
6.27,297.56,31.37,10.44,0.01,0.02,0.0,0.09,0.03,0.05,0.82,0.21,0.19,0.5
6.28,297.56,31.44,10.5,0.0,0.03,0.01,0.06,0.02,0.05,0.82,0.21,0.19,0.5
6.29,297.56,31.44,10.5,0.0,0.04,0.01,0.09,0.0,0.03,0.82,0.21,0.19,0.5
6.3,297.56,31.5,10.5,0.0,0.04,0.01,0.06,0.01,0.05,0.82,0.21,0.19,0.5
6.31,297.56,31.5,10.5,0.01,0.01,0.0,0.07,0.0,0.05,0.82,0.21,0.19,0.5
6.32,297.56,31.5,10.5,0.01,0.01,0.0,0.12,0.01,0.08,0.82,0.21,0.19,0.5
6.33,297.56,31.5,10.5,0.01,0.0,0.0,0.12,0.03,0.03,0.82,0.21,0.19,0.5
6.34,297.56,31.5,10.5,0.01,0.01,0.0,0.08,0.0,0.03,0.82,0.21,0.19,0.5
6.35,297.56,31.5,10.5,0.01,0.01,0.0,0.06,0.0,0.03,0.82,0.21,0.19,0.5
6.36,297.56,31.5,10.5,0.0,0.02,0.01,0.05,0.0,0.06,0.82,0.21,0.19,0.5
6.37,297.56,31.56,10.5,0.0,0.02,0.01,0.07,0.04,0.03,0.82,0.21,0.19,0.5
6.38,297.56,31.56,10.5,0.0,0.01,0.0,0.05,0.06,0.08,0.82,0.21,0.19,0.5
6.39,297.56,31.56,10.5,0.01,0.01,0.0,0.08,0.08,0.0,0.82,0.21,0.19,0.5
6.4,297.56,31.56,10.5,0.0,0.01,0.0,0.06,0.05,0.07,0.82,0.21,0.19,0.5
6.41,297.56,31.59,10.5,0.0,0.015,0.005,0.09,0.025,0.07,0.8189360742063723,0.2097275311991929,0.1897534806087936,0.4993512647599831
6.42,297.56,31.62,10.5,0.0,0.02,0.01,0.12,0.0,0.07,0.82,0.21,0.19,0.5
6.43,297.56,31.62,10.5,0.0,0.01,0.0,0.13,0.01,0.08,0.82,0.21,0.19,0.5
6.44,297.595,31.62,10.5,0.005,0.015,0.0,0.09,0.03,0.095,0.8189360742063723,0.2097275311991929,0.1897534806087936,0.4993512647599831
6.45,297.63,31.62,10.5,0.01,0.02,0.0,0.05,0.05,0.11,0.82,0.21,0.19,0.5
6.46,297.56,31.62,10.5,0.02,0.04,0.01,0.08,0.08,0.0,0.82,0.21,0.19,0.5
6.47,297.63,31.56,10.5,0.02,0.01,0.0,0.09,0.0,0.01,0.82,0.21,0.19,0.5
6.48,297.63,31.56,10.44,0.02,0.0,0.0,0.03,0.05,0.07,0.82,0.21,0.19,0.5
6.49,297.63,31.56,10.44,0.03,0.01,0.0,0.03,0.06,0.01,0.82,0.21,0.19,0.5
6.5,297.63,31.56,10.44,0.01,0.02,0.01,0.07,0.02,0.04,0.82,0.21,0.19,0.5
6.51,297.63,31.62,10.44,0.0,0.02,0.01,0.16,0.08,0.09,0.82,0.21,0.19,0.5
6.52,297.63,31.59,10.44,0.005,0.02,0.01,0.125,0.055,0.08,0.8189360742063723,0.2097275311991929,0.1897534806087936,0.4993512647599831
6.53,297.63,31.56,10.44,0.01,0.02,0.01,0.09,0.03,0.07,0.82,0.21,0.19,0.5
6.54,297.63,31.56,10.44,0.02,0.02,0.01,0.06,0.02,0.09,0.82,0.21,0.19,0.5
6.55,297.63,31.56,10.44,0.0,0.02,0.0,0.03,0.01,0.02,0.82,0.21,0.19,0.5
6.56,297.63,31.5,10.44,0.02,0.02,0.0,0.08,0.04,0.02,0.82,0.21,0.19,0.5
6.57,297.63,31.5,10.44,0.05,0.0,0.0,0.02,0.01,0.0,0.82,0.21,0.19,0.5
6.58,297.63,31.5,10.5,0.05,0.01,0.0,0.05,0.05,0.03,0.82,0.21,0.19,0.5
6.59,297.63,31.56,10.56,0.03,0.02,0.03,0.02,0.09,0.05,0.82,0.21,0.19,0.5
6.6,297.63,31.56,10.63,0.07,0.01,0.04,0.03,0.08,0.05,0.82,0.21,0.19,0.5
6.61,297.63,31.56,10.75,0.09,0.01,0.02,0.0,0.19,0.18,0.82,0.21,0.19,0.5
6.62,297.63,31.56,10.78,0.055,0.01,0.01,0.08,0.145,0.15,0.8189360742063723,0.2097275311991929,0.1897534806087936,0.4993512647599831
6.63,297.63,31.56,10.81,0.02,0.01,0.0,0.16,0.1,0.12,0.82,0.21,0.19,0.5
6.64,297.63,31.56,10.75,0.02,0.0,0.0,0.19,0.02,0.09,0.82,0.21,0.19,0.5
6.65,297.63,31.56,10.75,0.0,0.0,0.01,0.14,0.04,0.03,0.82,0.21,0.19,0.5
6.66,297.63,31.56,10.75,0.03,0.03,0.03,0.01,0.05,0.15,0.82,0.21,0.19,0.5
6.67,297.69,31.5,10.81,0.01,0.0,0.02,0.03,0.13,0.21,0.82,0.21,0.19,0.5
6.68,297.69,31.5,10.81,0.03,0.02,0.01,0.17,0.13,0.05,0.82,0.21,0.19,0.5
6.69,297.69,31.56,10.81,0.04,0.06,0.02,0.11,0.12,0.05,0.82,0.21,0.19,0.5
6.7,297.75,31.44,10.75,0.03,0.09,0.03,0.02,0.0,0.02,0.82,0.21,0.19,0.5
6.71,297.75,31.37,10.75,0.03,0.07,0.03,0.0,0.1,0.02,0.82,0.21,0.19,0.5
6.72,297.81,31.31,10.75,0.01,0.06,0.03,0.02,0.15,0.01,0.82,0.21,0.19,0.5
6.73,297.81,31.25,10.75,0.01,0.05,0.02,0.05,0.12,0.01,0.82,0.21,0.19,0.49
6.74,297.81,31.22,10.72,0.01,0.04,0.015,0.04,0.0849999999999999,0.005,0.8209754879321857,0.2102498200801939,0.190226027691604,0.4955888616175999
6.75,297.81,31.19,10.69,0.01,0.03,0.01,0.03,0.05,0.0,0.82,0.21,0.19,0.5
6.76,297.81,31.12,10.69,0.01,0.05,0.01,0.02,0.0,0.03,0.82,0.21,0.19,0.5
6.77,297.81,31.06,10.63,0.02,0.03,0.01,0.04,0.02,0.04,0.82,0.21,0.19,0.5
6.78,297.81,31.06,10.63,0.01,0.02,0.0,0.05,0.01,0.02,0.82,0.21,0.19,0.5
6.79,297.81,31.0,10.63,0.01,0.04,0.0,0.01,0.05,0.07,0.82,0.21,0.19,0.5
6.8,297.81,30.94,10.63,0.01,0.03,0.01,0.04,0.06,0.03,0.82,0.21,0.19,0.5
6.81,297.81,30.94,10.63,0.0,0.0,0.0,0.11,0.09,0.02,0.82,0.21,0.19,0.5
6.82,297.81,30.91,10.66,0.01,0.02,0.005,0.09,0.045,0.03,0.8189360742063723,0.2097275311991929,0.1897534806087936,0.4993512647599831
6.83,297.81,30.88,10.69,0.02,0.04,0.01,0.07,0.0,0.04,0.82,0.21,0.19,0.5
6.84,297.81,30.88,10.69,0.02,0.01,0.01,0.01,0.02,0.0,0.82,0.21,0.19,0.5
6.85,297.81,30.91,10.625,0.03,0.0199999999999999,0.015,0.045,0.015,0.03,0.8189360742063723,0.2097275311991929,0.1897534806087936,0.4993512647599831
6.86,297.81,30.94,10.56,0.04,0.03,0.02,0.08,0.01,0.06,0.82,0.21,0.19,0.5
6.87,297.81,31.0,10.56,0.04,0.03,0.01,0.08,0.02,0.03,0.82,0.21,0.19,0.5
6.88,297.81,31.0,10.5,0.03,0.02,0.01,0.07,0.04,0.02,0.82,0.21,0.19,0.5
6.89,297.81,31.0,10.44,0.04,0.0,0.0,0.02,0.02,0.03,0.82,0.21,0.19,0.5
6.9,297.88,31.0,10.44,0.02,0.0,0.0,0.02,0.03,0.02,0.82,0.21,0.19,0.5
6.91,297.88,31.0,10.38,0.01,0.03,0.01,0.02,0.07,0.02,0.82,0.21,0.19,0.5
6.92,297.88,31.06,10.38,0.0,0.04,0.02,0.01,0.09,0.02,0.82,0.21,0.19,0.5
6.93,297.81,31.12,10.38,0.0,0.03,0.02,0.01,0.12,0.04,0.82,0.21,0.19,0.5
6.94,297.81,31.12,10.38,0.01,0.03,0.03,0.01,0.07,0.02,0.82,0.21,0.19,0.5
6.95,297.78,31.155,10.345,0.01,0.03,0.03,0.0349999999999999,0.055,0.015,0.8189360742063723,0.2097275311991929,0.1897534806087936,0.4993512647599831
6.96,297.75,31.19,10.31,0.01,0.03,0.03,0.06,0.04,0.01,0.82,0.21,0.19,0.5
