0.02,-360.76297913806025,71.80353421630763,159.7133054786805,0.1918365983325,0.0969536624358797,-0.049827822057025,-176.1579776845836,85.24599041163465,4.321513722392173,0.2813568562290589,1.0069376206603793,0.1163273521828765,-187.79415796349824,0.4857954030084048,8.500660779255696,-0.0309078402679095,0.175572909205913,-0.1290420602446787,-149.86354876255652,18.48844320085428,17.997107525087124,0.0956614261808194,0.178853652188968,0.8444872147171824
0.03,-360.9994446811797,71.6070359664669,159.667235548047,0.083326748949097,0.1016535705815353,-0.0620504458253309,-176.3276432326658,84.4587316429153,4.596234422619946,-0.0209748856140964,1.0221060871962515,0.0314792473372133,-187.5409497744278,0.4363247162632354,8.616153325151492,0.1938014899863588,-0.0986715214571629,-0.1152808985821227,-149.2612420861176,18.588284524497794,17.768323519982573,0.0465125960795576,0.2016983699642567,0.7976857850413742
0.04,-360.9831774717156,71.31547141394287,159.8023046753559,0.3048535583040157,0.337412739373336,-0.0073907759482254,-176.35489121262995,83.7689494437478,4.4341984875876586,-0.0118967681432098,1.2306683208596982,0.0652989971820059,-187.66266301925864,0.4205626451455092,8.450036208136346,-0.2003923701653858,-0.1863867097791243,0.019192826744761,-148.81526289734936,19.35706002890754,17.837831802098304,-0.1040320340449934,0.3180145221364835,0.5618694363351534
0.05,-361.50283685596617,71.48001900049469,159.78051389832868,-0.1580859312693694,0.0083798093513265,0.3671567654062105,-176.11845849851633,82.61058383669135,4.183415226818503,-0.0468655084309284,1.530279048638034,0.0216667498356844,-187.73377970018012,0.4885980918793648,8.346050736591355,-0.0673620551779278,-0.3202649858840937,-0.1057436174819059,-148.4263636899923,19.314837400620696,17.843013622551695,0.1786150235793628,0.0451123130580305,0.6988378087963544
0.06,-361.5115544720285,70.93876093799072,160.80652815480346,-0.0553353187069012,0.2860610861304472,0.1688106382149175,-176.2205338529682,81.1346199376634,4.355704883585815,-0.0372936793068897,1.6322567773500452,0.0067734818232715,-187.4567255477056,0.3413214840241983,8.32485391660964,0.0924528776044479,0.0285565467488661,0.0762746204966575,-147.97668483992646,19.576720475814568,17.64733699953759,-0.1859146159122429,0.4036017552413475,0.6559194943121976
0.07,-361.41746460629696,70.27138055423679,161.6405881803165,0.2148338497170974,0.9025167146607462,-0.0257713706369751,-176.23301978428265,80.15865423567257,7.05494465502056,0.5373831768524432,1.9007025867205176,0.1285028991370567,-187.4297072332029,0.5110705371836016,8.40430505490736,-0.2259991821381768,-0.0939176440959697,0.1000627844994993,-147.6968223747938,20.35221204144417,17.50777432402185,0.0163258084190138,-0.011672520030925,0.3264895070367004
0.08,-362.0392785317771,69.33428419022555,162.2093784292172,0.1740639718599371,1.3364016242788652,-0.0411829772177321,-176.3130324499783,77.96321644908184,11.733433589208095,0.164618977590102,1.7979962146290802,0.0938540728085943,-187.69343182354567,0.3157765203167328,8.414129500002998,0.0325948479995367,0.2820630307191598,-0.2972962977101561,-146.78919540220838,20.740968740094942,16.93401426664746,0.0182713174107021,0.0936198793118936,0.4812899824778637
0.09,-363.2774804325126,67.28319783245269,162.7704324141592,0.0827420017909864,1.8742357802152612,0.0691120028261863,-176.3572055282339,75.8147924916706,14.454405853254263,0.1130482702307635,1.7237521563362068,-0.0204164740853938,-187.8868367696161,0.5158308633900918,8.489952082356782,-0.142891214416927,0.0148957141842111,0.1212174796971451,-146.5069383880175,20.7539854388752,17.262866080637934,0.1983935921582671,0.0713741508380672,0.6305470637744286
0.1,-365.3044963673423,63.00527816134112,163.8783240846412,0.1260093857044871,1.892839699432238,0.2847868538690049,-176.0154717934388,71.66776265218301,18.862106077614403,0.1135736401007944,2.469352612960209,0.1868857847143603,-187.63504480213905,0.3070492827581442,8.608972142272687,0.1975328800427682,0.0976917594576677,0.1490979147648942,-145.7884788332633,20.93835062655888,16.978873236000382,0.041801537110668,-0.0611429698008779,0.3768942581451187
0.11,-366.8035125779071,60.32383778385844,164.30066524311292,0.1310196148589061,2.32126255381528,0.4960535427352469,-175.18404596762016,68.67698771109819,20.357345961264325,0.2063951914672011,2.448847067457272,0.2682954870514081,-187.86180201707944,0.2104564554272804,8.865108641468048,0.2749150342731839,-0.063102886128,-0.2435883186792357,-145.64841471054515,21.166519937894964,16.934774804304794,0.0051541245828354,-0.0150803963059889,0.4294441437972291
0.12,-368.6306285128865,58.02467022299338,163.945412712573,0.6939607087522179,2.563400725580068,0.3573325845843265,-174.3294281092726,65.18754573239588,21.70565578670872,0.2632525281810616,2.6488828072828743,0.3178995732381891,-187.72468615500424,0.3447677782938375,8.485243674703758,-0.0269549563048313,-0.1002409402393089,0.2743014186545557,-144.79728442645353,20.973340924638407,16.67841384570321,0.0604082642574312,0.3625390495234996,0.2678536735424713
0.13,-370.84022510360415,54.919736213548696,163.70203430863148,0.5069314160970132,2.716589534709552,0.743598984705871,-173.71015071651868,62.984585623816606,22.29146149397953,0.1809297807783658,1.958062465622499,0.1433005418979146,-187.87008555135813,0.3099782009292041,8.615893647819084,-0.0319659349293645,-0.1809767512941761,-0.2036791542131025,-144.10700917490206,20.985555358764568,16.41019933675427,0.2142115019715247,0.1689385893056605,0.8360405750980329
0.14,-376.2737649852687,50.59280303075828,163.5574072982611,0.3944454062754983,1.950904605205116,0.3482196242990903,-174.46589659009527,58.34053538516726,24.046778808315658,0.9172526627328254,1.6211146264941634,0.2465194650759584,-187.66259376393973,0.2672103382685664,8.680843326336271,0.0233827358112805,-0.0105784156580635,0.0488308072471614,-142.43601727287745,21.201316520741567,16.10155642032685,-0.0109787710076085,0.3630019526845299,1.0038037908190245
0.15,-379.1043649019532,48.012265671119486,163.08479005337017,0.4339356155392524,1.8317637210394655,0.203612198543692,-175.2581830720829,56.138100033515954,24.54069531798189,0.5460961842793128,1.8637554964627945,0.5519903873133112,-187.85863200071975,0.2406274565376529,8.925730637320118,-0.1261056040412773,-0.0427452514509953,0.1418213913290328,-140.90575394388304,20.98626794334212,15.616713867905805,0.0738673872177329,0.5407574044560131,0.9762745173922064
0.16,-382.3941517423938,45.8664956870276,163.25338433374665,0.4256904839628453,2.9317447837730555,-0.0029681221766452,-175.3500222373606,53.1963037299662,25.603399394294023,0.5791637041775453,2.660503198265688,0.5672186733896345,-187.8851575426785,0.2940511043629915,8.711469237585836,0.0417325764008075,-0.0915394941495337,0.0232695504353063,-139.92862096693295,21.015102932454926,15.524359788717607,0.1578954312874887,0.3396547944252956,0.9059159888195298
0.17,-382.3111778458495,42.8423038141318,163.66681239260643,0.3637353976819839,2.5558917576041047,-0.0620345974944396,-175.42832853233284,52.081919398762345,25.68421283080348,0.0906905313582719,2.5516467292735667,0.261563831749891,-187.7813489375215,0.329124969372861,8.289493717324797,-0.0888775717624811,0.1170782628151115,-0.1557402694660532,-138.7570372513891,21.17746904972729,14.97627340053554,0.0770344372971846,0.0967883657254853,1.1923986791563117
0.18,-382.6943155122176,38.02751064273157,164.75104332051637,0.4015810517574589,7.220842981381528,0.4978492593102641,-174.6771907584125,46.9188476309556,27.012555472988808,0.0487684561736426,1.786052346122681,0.1131823849775994,-188.0621835822734,0.0472738116743527,8.729892572609232,-0.0698024480205667,0.1545356793593278,0.0582469060160558,-136.95347328923296,21.065726961109423,14.52334737019491,0.1901078124131167,0.0623182347399559,0.5859136492959686
0.19,-394.30317142358126,44.31345686536624,165.06890426268356,0.3115709554888052,4.909105440085183,0.703302040452813,-174.35706106556114,45.30763769810146,26.8681794459354,-0.0499018690700636,1.758127094887809,0.0780923202859058,-188.03929292129465,0.7776516114789241,8.658031091749908,0.1321023125538731,0.0513774903953245,-0.1466501305942467,-136.58280349273733,21.23106536412964,14.362925955886274,0.0090259573319442,-0.1580821232985114,0.2521215003175449
0.2,-405.9990009983137,50.45062465491852,165.33204079588896,0.5913615798310268,2.28710092339278,1.3328349274698863,-174.37649800746763,42.99900075210843,27.34330747187524,0.0056593227365546,2.0178362312488045,-0.0898292271703123,-187.5336280912335,0.4643653475340715,8.647962751369695,-0.1208804096712781,0.1486084116101799,0.2512932998436952,-136.29198462416753,21.191491670351645,14.10283960560945,-0.1130555688775568,0.295229842173804,0.3138750248937029
0.21,-402.4814975131736,52.97798768543253,167.01163199422365,0.8401790052669018,1.6370909947249477,0.8959202638558632,-174.25557827432257,41.138118940797625,27.63562550162822,0.0597650704481989,1.5889888104190637,0.0386941017406402,-187.91923599735617,0.4453315437508569,8.409667927910803,0.0866134603734447,0.0497379801833501,0.2419771535797496,-135.77481602332813,21.376796241749133,14.164710891992344,0.0649081233704735,0.128179492871949,0.3269787701673499
0.22,-398.5555845016742,55.25186695826964,169.15841731848445,0.7381354129750441,2.173058327031883,0.4853346015394797,-174.61279943555448,40.17106188330092,27.58869098810128,-0.0125929870500475,1.0864898848721012,0.1083626136549276,-187.78814162931764,0.4252076397632111,8.347330347486828,0.1130082123068851,0.0826279472641173,0.0317924033752932,-135.12845311344796,21.949592186712053,14.135118747738376,-0.064155374301828,0.1002320537421379,0.4354610090651019
0.23,-396.5115361974735,57.59150690672006,169.57675767906085,0.7888507256716404,3.4858380354118936,0.1987387252306548,-174.4449646935592,38.43427896553359,27.78620048501048,-0.006968562317636,1.268226399201526,-0.0811293831275251,-187.67711307687875,0.3044744221800646,8.54678824689143,-0.2356411662508556,0.1103590192645919,0.0697996058362481,-134.77238699523735,21.91990022562756,13.590037428076164,0.0877043639913765,0.2316899938207466,0.5946359378851692
0.24,-393.9954162950054,60.832082651327696,170.678051511815,0.7799495420220933,1.5267271947265444,0.3856556976741607,-174.22532577020553,36.68164244662301,27.87099844383877,-0.1537140685213362,1.6971377130126235,0.025862506552533,-187.76241109606087,0.3396479052861213,8.528273335234337,0.1178182955162528,0.1120977318040443,-0.1760270857760011,-133.82695752306023,22.44339013302116,13.431537200087265,0.3149461111053845,0.4153439159595721,0.524327348045685
0.25,-392.5738764978834,62.33328752562053,171.30009163142205,0.3555781886468889,1.5631890902847143,0.2924224063725007,-174.15822235543092,35.44278562607932,27.994652664397915,0.2335927030787508,1.3458547755987114,0.2384485802873319,-188.0596790924016,0.2630693103005043,8.179137545435712,0.0260117907655153,0.2181549737244767,-0.0641617199692944,-132.98356827142277,22.78209222219765,13.644375888608357,0.1107447190929424,0.2881387519828922,0.3917499864722872
0.26,-392.4937416736074,64.16602342250923,172.3338668785778,0.550656049571457,2.376185255891625,0.6318436174898026,-173.6474105179867,34.090815587935026,27.691448288077314,0.426810367775347,0.8897748878021651,0.1214710761128129,-187.65776582698783,0.3254121976630779,8.657414308541474,-0.002029199459799,0.1008915601047595,-0.0002490123900958,-132.94853591603032,23.41042031949502,13.526219982213544,0.0297472196112858,0.2667782677497536,0.073086107507047
0.27,-390.7008315889992,67.59216856009989,178.97725217791674,0.3624702251239992,0.3044154891676243,0.6564055709968586,-173.22113182745215,30.051979562083773,28.09867856441021,0.0717291527100725,0.9794305320395452,0.0390482461312611,-187.6204622299493,0.2370607774205508,8.542906642110577,0.0450577677368321,-0.1066958756438888,-0.0290694557581232,-132.58198643082625,24.10345894248526,14.219924129187657,0.2224968519941962,0.150154691404417,0.027771281429528
0.28,-388.572667633613,68.31183660316228,178.22991715690128,0.6867028771585153,0.6905883165571839,0.3984332232508043,-173.41518856919666,28.99567483387141,28.36815773602311,-0.2344423440332974,0.8869768631915322,0.0322236965446616,-187.86874333043883,0.331134977032588,8.425550698096176,-0.0203629772770711,-0.2879147623656638,0.0471875932988745,-132.6276341703239,24.327342893459296,14.27685682131807,0.3179762734612437,0.0830486559924829,0.2018254974305128
0.29,-386.74690551390336,68.71202327153593,176.47763799039663,0.5680195467760798,0.71521846620991,0.4737901838808392,-173.1342201558613,28.06877488536718,28.140023336237647,0.5118053693064859,0.4691067533196494,0.1788967530210699,-187.78659359565327,0.2887936838348468,8.471397135772872,0.0309544389872196,0.1227184924170077,-0.1901281051386191,-132.2465040089479,24.69786029407041,14.60733472571367,0.2128635184266989,0.1531580229834416,0.1191915422905629
0.3,-385.33691952988886,70.07800820894802,172.69332475151117,0.3808674498035508,0.7112653768351356,0.6703775666084267,-172.5764411899325,26.420157129165887,28.03162464727368,0.3984608344161927,1.317805741232294,0.0639125605685881,-187.8154901333125,0.2650314456563893,8.360316150153121,0.1602039304753152,-0.0219339724412154,0.0850538986500204,-132.16355181703543,24.93881599568126,14.956160976614992,0.0868788273357925,0.4087274687009851,0.5725169656367697
0.31,-383.782363546849,69.47352840512296,170.9479205027787,0.2123533655700541,0.6615292621405726,0.7079814973039426,-172.4564894582856,25.35664415474516,27.93474227334022,-0.0317900365738424,1.270402135659493,-0.0506731000413265,-187.9189650166064,0.2225150802353137,8.329343868504035,-0.1845486235435007,0.0298951821029394,-0.2447084219911953,-131.96694659094845,25.151586772811196,14.960624578437002,0.1213778555009951,0.2428441242782439,0.0666875798327094
0.32,-383.7017804845723,69.08625724713379,171.0089263643083,0.0172519844744231,0.1774700060786228,0.0220991577758994,-172.11652997216683,24.3517318784817,28.01677460781608,-0.024109611635587,0.5285150226522107,0.1462361108946056,-187.6375803510348,0.3237955224732184,8.275062242330907,0.1115068009792461,-0.0156986827924107,-0.1576508914851311,-132.08209923224257,25.70612220645036,15.401369838235066,0.0361219481793782,-0.0693681521019857,0.2709600494690169
0.33,-383.1737056757488,69.04017596369232,170.31302525020692,-0.0202999613849833,0.5344313220061343,0.3964490870515514,-172.1877274703793,24.14232727585675,27.589938837609697,0.7395602790036301,0.3614847432593675,0.2885527303994546,-187.774657089197,0.2291315191987184,8.155325034659382,0.1493028131346125,-0.3075678967942783,-0.0548798578713289,-131.77060149741268,25.82915911299424,15.310927405470332,0.2533084589785428,0.2471133651462549,0.2282943412404292
0.34,-382.8834181387405,69.71994032376176,170.0696964087178,0.439079912313629,0.4973735727870307,0.2178185548275033,-172.0981162089037,23.701221994113524,27.62677038942736,0.1442383317820927,0.713660222707159,-0.124934808126734,-187.79616150984955,0.1878707471013469,8.205092028267554,0.0553612304729438,-0.1989988075852985,-0.0310945983850687,-131.11901691160946,26.039195055907427,15.165785915150202,0.1383107169649974,0.069150927464043,0.4565265341142468
0.35,-382.8073041207613,70.14175192375605,170.78396495787422,-0.0571080454865173,0.2974993472001748,0.5029501444577198,-171.89943316918146,22.06197447191407,27.791766073287995,-0.0809979251013695,0.783149998492435,-0.1480539110828386,-187.65683990240416,0.2536699246103903,8.433399146290919,-0.08884515001979,0.1058217691868713,0.3338879210215548,-130.04831486536887,26.90313528135568,14.64468645692238,0.5525018491347897,0.2392102810425529,0.4160133224060251
0.36,-382.517620132197,70.69360735391712,170.2387774497502,0.1809386943647864,0.8218240588891299,-0.0622201218660712,-171.97161567315734,21.290134302468555,28.13573586697372,0.0723905922520043,0.1946133084792909,-0.2006786981944959,-187.7426090512068,0.2041597097806193,8.233443964658159,0.0636074329566678,0.1715541400546426,-0.0247659562544854,-129.4387689487692,26.94094923663494,14.699610638101817,0.3764417282086825,0.1300167574621567,0.5703498392483951
0.37,-382.0374318483925,71.10980619141988,169.5744712266697,0.3689229858488652,0.2043998054271548,0.2395145623197511,-171.78881051495438,20.461713462475803,28.247492935689834,0.3084696895967208,0.4417501661070749,0.1941087679600845,-187.66080768787185,-0.0005663185365796,8.343748776990038,-0.1424888425961856,0.1232626022782397,-0.1729835774885845,-128.83192951960908,27.349243331774066,14.636666429122153,0.203548608015211,-0.0713004486343968,0.6276024398807649
0.38,-381.5812661249567,71.5560584077787,168.76370786584556,0.3816212306216094,0.1278448920450894,0.0114990473704121,-171.7944013488707,20.119723628826254,27.72297248272509,-0.1079338225379721,0.8355913467056661,0.1812165804885966,-187.284767493527,0.4051058226751318,8.43858410483442,0.2518668175286654,0.0892072737515022,0.2239688012056204,-128.18568474005093,27.475372145455,14.19383829478025,0.0004578666396807,0.2152887477689569,0.854482795523827
0.39,-381.29668093632847,71.449808799124,169.1202705754193,0.0777435033303515,0.7445924612148871,-0.1433615677714994,-171.78058113643633,18.955319608896584,27.93467928926148,-0.0911485603374944,0.0881247794678311,0.0226729304203246,-187.1432165645845,0.5316170980516969,8.223174437653292,0.0224068030654735,0.3961145180456282,0.4562444666951578,-127.64325121287492,27.6980904087374,14.041881210074392,0.0908815672733979,-0.0216657759412784,0.7922475760878841
0.4,-380.904546133036,72.78815904994175,167.971375978973,0.3551697093155011,0.4872779082746509,-0.052156023405565,-172.1486428903669,18.37920893062714,27.89690326414041,0.2844292327239079,0.814213148548329,0.0744442875918402,-186.4269041678031,1.0972156557157875,7.911245420681908,0.2677016607953017,0.2264841097463455,0.1226179007040842,-126.7809520612498,28.428833316951074,14.373369501401044,0.452112811423995,0.0457278963226667,0.5702964193569676
0.41,-380.7049350241769,72.87571534628385,167.7233803523929,0.0097959462304931,0.1833933904683942,-0.0973896466573068,-172.03305448608538,17.30095765372417,27.565067350585725,0.1580427608101026,0.8221535233699592,0.022195756741376,-186.2229549737676,1.4644038726074589,8.05641303606536,0.016330930348517,0.1092235930927208,0.0945691001190573,-126.09494718136148,28.644810758109102,14.568623190880242,0.191131720191446,-0.190530251347767,0.0328022965196799
0.42,-380.6876576770597,72.71325853043142,167.36674765893923,0.1122057241329042,0.1042323957305402,0.2959338683026762,-171.87856602920408,16.6396721831526,27.57025893476632,0.0442848790105349,0.3517914272120594,0.0529642296418336,-186.0785465703553,1.9123724911559823,8.355947018853971,-0.1661337119171657,0.4822351782527618,0.2379042736355864,-126.17061473407252,28.44581041785536,15.395683466303264,0.3160446258269886,0.0680716818892184,0.1981596954410474
0.43,-380.5887472883771,73.69331671712874,166.07409547433036,0.0930203856506918,0.4057651525394328,0.1268312548524416,-172.12586437973837,16.262274562085135,27.56526728285101,0.2323189927154079,0.4245555238589943,-0.3430118366577479,-185.31293948219343,2.4509347329105875,8.130250556887427,0.021481469922676,0.2870571608459714,0.4649824281684853,-126.80370408318495,28.575233575604656,17.269026201057088,0.8062612555388551,0.1522792252828461,0.5037502943812193
0.44,-380.9716905296793,74.01492461232831,165.62573453810174,0.1844648187408196,0.3404728165258674,0.0753149565156613,-171.83095629556465,16.10404749457144,27.91065535519146,0.1905664207965459,0.977740664352882,-0.1699677420640561,-185.10185675478425,3.0164599392110683,7.988588967034513,0.1409439765442032,0.1448430835892723,0.3172288054383225,-127.21465240674236,28.29631550031477,18.56125006466222,0.7795940791549357,-0.0273511905912336,0.3379294563031035
0.45,-380.7817014920623,74.16872445831102,165.5069878682116,0.137438793216774,0.0907713776432238,-0.0627106946545004,-172.22482659413396,14.488217319809635,27.95034752229629,0.1398463208656709,0.2434234339111359,0.1840559889963087,-184.5347631366857,3.629418823094182,8.486992854740269,0.0034491682025292,-0.0139596765734154,0.7526540366879948,-127.24470120374698,28.63796444103906,19.24517589285505,0.4310762302815064,0.1618568324325779,0.2397572812154483
0.46,-380.9040291432661,74.22630124425213,165.20787068811657,0.0761133445153487,0.1935947944752973,0.0367837501305702,-172.2388376429271,15.112504855705197,28.12644157511121,0.1669450101325275,0.6277362504144776,0.2425698201568733,-184.1147084679868,3.7858630700435176,8.507488857554504,0.1352179232516162,0.2114714486232111,0.688910592880171,-127.596315141405,28.73839189117447,19.983428429330115,0.5912394271119257,0.1250940546243732,0.201339892691411
0.47,-381.433232801154,74.61131560752672,165.09515035327914,0.2221541431091982,0.0388474346679358,0.0273626938854594,-172.29891831655502,15.8684979151874,28.196263195005518,0.0579337517328725,0.0016714560313902,-0.0171901776545377,-183.19506906783036,4.222987305259255,8.897601387680309,0.1371276515541001,0.4089864999896134,0.7283348254101922,-127.44064023792588,28.711894276324397,20.22448067375991,0.1957469626873686,0.2414084772274973,0.2498790504255693
0.48,-381.8444345880165,74.88963099852478,164.7887316782347,0.0688388736284501,0.1937829362818704,0.2848232895876307,-172.32341259696432,15.763923331772418,28.40832022099745,0.1596892623769114,0.224975880465525,-0.1608859626021592,-183.46173343385803,10.30554351491039,8.72378494723381,0.010652706608447,0.079905369783451,0.4465563663040689,-127.82744111079766,28.18418483194143,20.99973489216783,0.5186560273207301,0.2317793910502995,0.5251383499252846
0.49,-381.7417107158461,74.51804056953934,164.27596839157343,0.287893460758971,0.1574453527632225,0.0663857856833154,-172.3408179436974,15.433825699112347,28.080183461900827,-0.0584710762178159,0.4048681820111038,-0.3738940312062504,-183.34393607386343,17.066385045760796,8.919328301565027,0.3175818785896699,0.0157631366951108,-0.0846165260632757,-127.89964390714611,27.98716627093517,21.47072161980703,0.1468045094633952,-0.002981768187208,0.0294904830091123
0.5,-382.218594299702,74.3470856267111,164.9063550158559,0.0994589242328085,0.0495521676095708,0.2143372496865334,-172.4789902152109,15.59839476895672,28.308506211342763,0.2287568734618482,0.8674004269213256,0.0100006501728445,-183.24091538816157,16.872149502191576,8.920854996679441,0.1994535553416025,-0.1409782339765029,-0.2084210087372521,-127.3554115504882,27.968872625155548,21.3808234645446,0.3332958847706839,0.2699149390882127,0.4898291488175292
0.51,-382.3056250004918,74.38674011461909,164.65372618434597,0.1076762447639813,0.0376406420279088,0.0247453452383157,-172.5581850041579,16.46578907461627,28.651484849559807,0.2980929644954703,0.7856014450637492,0.265578585080151,-183.3791484312262,17.04154315506779,9.050074713680988,-0.118143879907415,0.2607373141063169,-0.1642291126717824,-127.411876825589,28.01675380537415,21.624128340281946,0.3239165239436581,0.2561896647535586,0.2614989362827581
0.52,-382.2802202769021,74.23831893995379,163.57945382287028,0.3862201358593573,0.2254562649115709,0.4312023803683689,-172.912937167505,16.512116868994212,28.361082472638373,-0.163320434823892,0.1848986303744177,-0.0288748311263326,-183.13379551860388,17.215598043785757,8.631396419489878,0.2287187797396798,-0.1859173876405638,-0.1215595183587265,-127.11935498381636,27.708054942467992,21.4242938015244,-0.037835539897588,0.2536458905416768,0.6456872421533566
0.53,-381.844515901193,74.43694538124672,162.4229626401508,0.1217554757656627,-0.00835069669778,0.1467702383132535,-172.8477834553243,17.047548086891375,28.509345293103785,0.2379723544604645,0.4156868061560576,-0.1283218805234054,-183.77807076952203,17.000164998381564,8.044665789963576,0.6805205466489642,0.2461429408223422,0.2587287029477644,-126.2289436429316,27.61746473030306,21.39293898649333,0.2263831886035453,0.2070645891167971,0.1261065359406413
0.54,-381.9064581559386,74.76165156325541,162.36040985845722,-0.0135648190854964,0.1871658634497861,0.1144892311785766,-173.12005778745248,17.191819163376593,28.59389454080357,0.2551507153530619,0.2799847107032386,-0.1525827715972593,-184.09811224868557,17.207699787356173,8.403749089082508,0.7015493305436822,0.4107045383591649,0.4631180343055834,-126.8375923671636,27.371035199603163,21.75207526229076,0.4408756920341367,0.6170266733806649,0.1216846277888176
0.55,-381.87882328362303,75.11486486292787,161.3970660710939,0.216695205314534,0.5903096935927816,0.0289082797266897,-172.80668436050897,17.733004662282177,29.13730790379433,0.1299364403517448,0.0259528801479785,-0.1832073250755463,-184.63976108713692,17.662285703969257,9.205488747351977,0.3118397888587498,0.2600597829544637,-0.0518296918370533,-127.01974525832748,26.297829088149214,22.57053784333664,0.2181406241049077,0.6918046740118176,0.1423667571394561
0.56,-382.1738070196802,75.50674547783656,160.7521199418181,0.0001174043533601,0.5778868361091718,0.0366175862321179,-173.0019850275139,17.370421121418893,28.629251205668268,0.1398635831142739,0.6471024572076738,0.1187072234850265,-183.48434018366493,17.90656722406709,9.614407406856255,0.5592978914544154,-0.0241591831815037,0.2697815052860914,-126.67558431130722,25.843697138181668,22.45306336857553,-0.0126868597363439,0.3027869425948174,0.7984958379480043
0.57,-382.2633343345241,75.93265621914215,160.5603004222802,0.1539967448618996,0.3608192857965528,0.2925303957914738,-173.09315370636554,17.107549709207213,28.62022365454912,0.1079414089992867,0.0164554794252997,0.1545697446286118,-182.80492853320183,18.03845000804714,9.681438423175448,0.3988934222711557,0.1745993156080033,0.8065712475102159,-125.99656187075398,25.904787115141943,22.006383054929557,0.1979867970244843,0.5116048845753502,0.5801374249719562
0.58,-382.3723297436612,76.00456215788736,160.90945097182754,0.2040533413944002,0.1330131517104842,-0.2174522473566405,-173.09616243174523,17.069709320722826,29.15510556322676,-0.195375333038134,0.3729326044764898,0.1183483337982453,-182.16092863883853,17.912810066910527,10.308481105970811,0.1810185271484062,0.0944365256579084,0.6573598025520201,-125.43013179045784,25.570377254563343,21.404229744816963,0.1809391798502834,0.406744302129236,0.1266842025867481
0.59,-382.6977759026462,76.28791413469808,160.5700332529886,0.1999320838438255,0.1842688048306937,-0.0190017542501687,-172.7295372047645,17.33162217572258,28.846973724958293,0.2666517281467238,0.3317204997212807,0.3293757508788246,-181.82815325105275,17.757936968004426,10.138796077830502,0.5653641495122873,0.0315905300690454,-0.015018388338078,-124.51910819552752,25.297936901111665,21.22108768117574,0.0608708126237879,0.1233805011247642,0.5605542789911732
0.6,-382.7020538527415,75.57718820557798,162.20607009952863,0.1446339069582957,0.4059038218459153,0.1095904989096542,-172.64268142268298,17.405658759052503,28.70919448000525,-0.118015829793339,0.2970547477354469,0.0131993391143034,-182.2816550203751,18.215873957896665,10.48283802355398,0.0515105802921679,0.274402656262482,0.2574225666722677,-123.70223458674982,24.986289291862228,20.208406516281865,0.0211429625422725,0.5505285061980248,0.074301167149953
0.61,-382.8417767677665,75.21972225034098,162.65026136264152,0.3237902869807,0.2648744350796971,-0.067192689530821,-172.9092655170771,17.41452311537325,28.837095816770542,-0.2135194982278763,-0.1447010958939235,-0.1073587369774837,-182.1248469672566,18.243306120485958,10.036481728808749,0.3496705334099289,0.013054597640774,0.0981179956892032,-123.56281840950506,24.428171135220392,20.35825939134526,-0.1902647478600561,0.4759758644341098,0.0657452420289027
0.62,-383.4297387184952,74.64638997043822,163.3191489667558,0.2427952863506773,0.1418558233401824,0.2608044352593563,-172.9123938746056,17.307306124389708,28.922332334848694,0.0348580495787097,0.5055955602496319,0.053741865200341,-181.8399894046057,18.221255815991395,9.757999339112342,0.0922818662125016,0.0430597632049384,0.0109979088710787,-123.71438089425628,24.334342367566165,20.464850084406468,0.07989956600477,0.3176269464542999,-0.0154307805122797
0.63,-383.8151440914411,74.26882095701725,164.36084245473563,0.3042813105828547,0.3942602804041349,-0.0350927511915463,-172.85773174325752,17.371836622982336,29.05253470990973,0.1764036888212481,0.3361984566740786,-0.1830736136389651,-181.6540791422269,18.3390480736795,9.64100343551816,0.2052345773313597,0.0034727640979491,0.1106644274307399,-123.31779082595922,24.280074748090875,20.14314220365349,-0.1009554211955608,0.4159544902431408,0.4779291716013978
0.64,-384.2900828578142,74.0192213297863,165.13180518215466,0.2222863647569028,0.6964750045332725,0.1058336462223157,-172.64392407469765,17.174706512289827,28.88660713792548,0.0850181002252882,0.0799482672461648,-0.1774352154375491,-182.03190200869903,18.254342812462887,9.344958834325386,-0.0153470374338541,-0.0341454835255916,0.2893897591564089,-123.22814044277092,24.04121950932296,20.50965398893448,0.4459618244702983,0.0093783677570084,0.0305882743177113
0.65,-384.555494814201,73.20580840688933,165.96946154785064,0.4437751813973576,0.803459409790055,-0.0703773967206612,-172.96264767212529,17.2102258991984,28.66442994524854,0.1132647392249137,0.2264634011082203,-0.0126807593433006,-182.2732278158591,18.297137698926598,9.183887025093364,0.232704850899216,-0.0735571529685682,0.0829747133266814,-123.49730945198375,23.998061669150765,21.09684128174609,0.306138583844067,-0.0326902949832582,0.1691477725781958
0.66,-385.3925998134543,71.38701162942739,169.00245497930604,0.4861904605299624,0.8095957179685348,0.033815043729159,-172.8346675396716,17.414976135685308,28.52654258397119,-0.0399396031726903,-0.0228481681538301,0.1146329516110868,-182.66543597826933,18.453685847636795,8.660826998803673,-0.0281364629897118,0.1121305582488899,0.1309999313515644,-123.34429021570816,24.067441825193985,21.463043028707855,0.5413073245631954,-0.1737988431081228,0.0567598911977285
0.67,-385.8264870774362,70.84828751600226,170.54837982850643,0.0760247088791503,0.7629456311537612,0.5640638578461705,-172.66692048683004,17.88712670112834,28.825321461139755,0.3176744697991729,-0.0829890219470998,0.0931979713299938,-182.6578171998974,18.55605172385557,8.516939134869121,0.2640215734250262,0.3714851540488485,0.0283734164738764,-123.14549603049936,24.173715880455724,22.2126464724294,0.303156142385536,0.2650655017281623,0.2929726379650572
0.68,-386.651583889183,68.66311893607974,173.77470694289696,0.0165301294597995,0.6466401367182057,0.4876420818685932,-172.6109887616994,17.793576057503586,29.001060440806302,-0.2950695796096059,0.2911028404279713,0.0961818200548174,-182.7061009551149,18.596824388814746,8.061173810985306,0.2908162327082877,0.1220473641127013,0.3128436758191552,-123.30692833262536,24.534852891207315,23.016377535119094,0.3324082587567749,0.0910857334457176,0.1509446628024101
0.69,-387.52437616498673,68.22327431216272,175.27893394878447,-0.0825711228102593,0.5205780642554818,0.4963723396065648,-173.31416364423822,18.3155574856477,29.09114054994397,0.0316588559149062,0.3812441031097486,0.2073962525919775,-182.92360984545397,18.69971429329594,8.111799113060258,0.2679723329557473,0.1635993751613016,0.1866417864982193,-122.92776655937604,24.40925000038225,23.1547461794353,0.2549162169539577,0.2674450495541045,-0.0111348833184518
0.7,-388.0108033473595,67.23886640311683,176.19017323317178,0.353425976631341,0.9476730022413248,0.5534617325049688,-173.0528201271529,18.783894162626957,29.277666866685436,-0.1021154451957999,0.1776010512522267,0.2410364124531178,-183.17667399688557,18.932138258185454,7.62999009731666,0.3240476428939363,0.3216391798130789,0.2135536408260112,-122.90279277396722,24.500572776661524,23.640337783646707,0.0904625027972378,-0.128298284158403,-0.1125295884961732
0.71,-389.1419112058769,66.3680171496394,177.85575488936524,0.1833452730740805,0.973481230641111,0.5028802058258681,-173.24657051633005,19.124693322505927,28.67683514925566,0.361471564505979,0.5651381089657973,0.222407724633291,-183.52724356400716,19.13664339561718,7.885192109579194,0.5224456279995771,0.0667025287792698,0.0817983027313647,-122.77525187849348,24.48961337663283,24.017039893148425,0.2393862412810233,0.1346165636227584,-0.1606832001696195
0.72,-389.6966004695613,65.97130917351828,179.70245592544862,0.0688845834931829,0.7511117673552185,0.7254442723893906,-173.23148608594337,19.83448608640465,29.271172809520383,-0.0992384622143692,0.3942310090663652,0.0438080596144827,-183.48237579702376,19.13865587918701,8.601303294858797,0.0541108780635009,-0.0640094048727594,0.1512950059561583,-122.79968954112444,24.48981993390037,24.220174660229013,0.3218531622779878,-0.0823379793980063,-0.1242625784662696
0.73,-390.4553771624319,65.13241225727505,178.5697534085031,0.0794060752980769,1.079742416772824,0.7706503653827251,-173.4375839060958,20.541588457044156,29.02359180597626,-0.1397652968926481,0.5860435902012172,-0.1652274040445746,-183.53993460980504,19.17160259593561,9.313907554657456,0.3777419132917103,0.1026599335693123,0.4628511943335633,-122.69041644452597,24.269428814330336,24.75324344444,0.1069258494967939,0.0247599532273309,0.2605327720993744
0.74,-391.6734865614727,64.19105193480205,177.11160814340602,0.2444222185210576,0.6838939848889638,0.4447364289186346,-173.46283747350915,21.19676271614287,28.848710971685524,0.2617061276918621,0.6986565652952683,0.0333858381468087,-184.50020404141492,19.05655876205069,9.441279741889112,0.7624504029619018,0.1337249692179813,0.1831693935215567,-122.46233194073018,24.84439841700105,25.23009810187093,0.2925866802322513,0.0634056803583516,0.0993624999104547
0.75,-392.0400296024006,63.07347771025301,176.06890274727465,-0.1534300176350801,0.818939948408861,0.446660351494586,-173.3884649728867,22.052365034488385,28.76226635731375,0.0504605065277717,0.8208833967574247,0.02355150996257,-184.7869598573811,19.27545613270063,9.89157327528358,0.2845305087217018,0.0161902056470057,0.0923436793400276,-122.280063735967,24.913245845998667,25.45237746346452,0.2753368053847804,0.1035259192076539,-0.2206967801200702
0.76,-392.2605934602891,62.1332278847871,174.91073627785923,0.2070588748517473,0.8128969568362028,0.4766624557205428,-173.57402057019073,22.727074199744838,28.885372573294717,-0.0310576443851407,0.9679451811500686,0.1259855850450957,-185.0460102084008,19.588087759153375,10.236247572133449,0.626340563209698,0.1767054061273597,0.2816175998665765,-122.41323305672302,24.703250493420555,26.10027985707627,0.5649822166955466,0.1814111781053332,0.3767382940904672
0.77,-393.8380198960156,59.01798916212462,173.24530367884964,-0.0323797075118918,1.7404062247476817,0.5055653930011855,-173.48925564565428,24.72021828761466,28.34097224845952,0.2195570750806372,0.4942906386531775,0.0856258474516574,-185.7835869831166,19.67518220860029,11.38436605997391,0.6306570474047953,0.2690519799010558,0.5165702046892724,-122.21828829544906,24.97163040004097,27.43020677089489,0.6416444931295675,0.3317182581065524,0.0548949935568715
0.78,-395.755510325716,56.40217841142309,172.31615756543314,0.3105524310766731,1.9695015895159689,0.6226389221779596,-173.8707135883187,25.808153712794567,28.363396175336245,0.0193552873942018,0.6912382750106043,0.0876282342555871,-186.5883570026212,20.102833088528214,11.889386552458546,0.640965021917095,0.4398627703617513,0.5371374568221989,-122.01683521715664,25.420894597922487,28.35890316982192,0.723693690531253,0.2839307164582536,0.0021838439669014
0.79,-400.1546273107555,51.590913854259504,170.01371847851604,0.4116157520892488,0.2359647616999422,0.6900951068592096,-173.74069830750992,27.8047320687424,28.318999674659175,0.0712064458137239,0.8436899492903815,0.237241895938182,-187.9141133608007,20.33089673186002,12.903879240068282,0.6747484547981991,0.1091879937240443,0.8555595762921773,-122.06191510433732,25.673750589171743,29.54279351983527,0.6608654560616336,0.3827520409626296,-0.0236899872264518
0.8,-400.7903754203358,51.59724418590544,168.89498265290965,0.2314276470242076,0.6655202329854877,0.1270834659445325,-174.22105684551693,28.75169024388115,28.06683469637149,0.5115678438021921,1.172105204836989,0.2210883873238358,-188.81236946489568,21.00961518418015,13.093363253555312,0.6703329637426623,0.4288166666707141,0.6985642158042353,-122.00055743573937,25.928296870645585,30.35786201349265,0.5753722938026019,0.6105163281909691,-0.0656305035436338
0.81,-400.3582995212092,52.65775002687173,168.20452942276205,0.1087686908208855,1.2139025677499915,0.4525629596774962,-174.48453993417465,29.81162903406536,27.76742534961052,-0.05892919910296,1.0518584687407722,0.1380530512287635,-189.51211637398472,21.412758225664955,13.437642143911445,0.7700368439706693,0.5479934011316645,0.4164890594528893,-121.91655255061654,26.37048738390272,31.10995888130236,0.731572243843776,0.429123032677203,0.002827692990091
0.82,-400.1922674934064,53.80486585060725,168.02893724608325,0.2073534140375753,1.2676898625387996,0.548631599523388,-174.2374765155085,31.198452959116278,27.592837570736663,-0.2224495933125121,1.0582356978005143,-0.2014705810187449,-190.59359608102355,22.11681549433248,13.953226875363368,0.6479200338318332,0.3639025764319794,0.6327129022800323,-121.83252073652518,26.840707655562227,31.807641579410465,0.7828714950909205,0.6588264633231818,-0.0416428656282364
0.83,-399.7338466398045,54.62478737966411,167.21978933107494,0.2981858399227826,1.0110658541099682,0.2911335718426365,-174.25394185419975,32.29230554256206,27.484054686244203,0.115626553761405,1.1603439098159494,-0.175282073730783,-191.3039519072772,22.45494043711577,14.460235480186508,0.6261933802282839,0.4327845817312543,0.527087307256676,-121.51735418986244,27.50802845629356,32.68675934070682,0.7537445963096594,0.5418393936674623,0.1173793744304528
0.84,-399.1589168135981,55.8175131774365,166.9791761403965,0.1206870599394572,0.9773431134895024,-0.0614398684062376,-174.40282662882674,33.39028250816388,27.377616792761778,-0.0384869036121869,0.8485795889959566,0.0900933121868238,-192.4420991532139,22.72525090725807,14.547469039468846,0.4893308836561831,0.2587166647907834,0.7651171443959273,-121.79440883683682,28.7939620297708,35.28480574725553,0.8585190632130821,0.8344275861770127,0.2205168120532594
0.85,-398.0248177813368,57.71010668228489,166.41621133276632,0.1846235956975292,0.8003678040892502,-0.003240629961162,-174.55225403577683,35.64726921807364,26.869704169269813,-0.03230629572037,1.286598755359345,0.1390783045952819,-194.32085345116116,24.134782040681323,15.248749985959988,0.6908962686996236,0.5927459355280429,0.9548105572569984,-121.74978272565644,30.99297517195073,38.65945798414448,1.1407869638038557,0.9843245527736812,0.1902559500534654
0.86,-397.8936924841013,58.65013920447639,166.32141106312164,-0.0049260886071447,0.7629127353777547,0.3089888299443338,-175.04754694610477,36.59715513942804,27.18041719147156,-0.0763957533888691,1.1923046134410868,-0.0674958423645106,-195.99067372700932,24.594605793185227,14.951108003867738,0.4953403626096685,0.4997320116612949,0.9328426189996936,-121.5451168620434,31.52469015925588,39.12163810115793,0.7819774902791179,1.2573673993522632,0.237816532794862
0.87,-397.80210743541926,59.76461751823004,165.82084918560577,0.2799041209326078,0.9932365576890152,0.2108416267360372,-174.61344526770554,38.162471919107325,26.769038894912967,-0.0034298610911731,1.171264078183261,-0.1772459194855042,-197.37038572831904,25.20566952303052,15.399267576264682,0.3157725226008654,0.4886229002966554,1.3107293584776951,-121.5323248714498,32.265742384611634,40.28991428525632,0.9738200581999176,1.102092978954936,-0.1462412549916362
0.88,-397.896547259898,60.63960483821919,165.4669230726839,0.3935710042965594,1.0523991859042252,-0.0908411817546574,-175.04781853259064,39.22881082628938,26.486471489828197,0.0603229555211872,1.099042685443723,0.1527839769510387,-198.35506395296,26.056142766350387,14.985285599583952,0.638085568778685,0.3956828894986467,1.0937759860531235,-121.52230093783592,33.23084442677226,42.0473981748632,0.9629736395301024,1.0190073995926363,0.2727565812448299
0.89,-398.309738672035,61.5513440441766,164.62108211353018,0.2090746075669212,0.4297762933999387,0.2255337955255801,-175.03921158444615,40.61347225422878,26.41466544509206,0.0906786489977506,1.2094039010468232,-0.0387880550674243,-199.7489779863631,26.83456854599813,15.209586436159489,0.685285402311258,0.610151715297987,0.866585454949507,-121.44235671964384,34.138758818025345,43.87141691465938,1.122551880762178,0.8070289542471576,0.107529843925153
0.9,-398.7654069658658,61.86800817380639,164.15859293567763,0.4548592710704494,0.1453714825167739,0.1682823081420542,-175.20731873274414,42.24440702889949,25.71753638056137,0.3146839440297575,1.4853356137568268,-0.0038912760958351,-201.17975268404464,27.56711601188612,15.027127092753744,0.1970834984628789,0.7413946406604373,1.3169498561472568,-121.34106367001588,35.47224143147532,45.564843435481656,1.155877766706187,1.183689382384115,0.3503922637018711
0.91,-398.73100654728734,62.91705246923362,163.8332138547056,0.3679825137152308,0.4154866599494449,-0.1360087024252013,-175.62803394973466,43.63150551939607,25.572467991449138,0.1392942070598027,1.654098705275226,0.0627473426397713,-202.76393422458415,28.22852047547648,14.63244951295228,0.2141530625368975,0.3128430655665487,1.2281890171995886,-121.2267473551707,36.20071399055452,47.36763594471546,1.18342082965419,1.2669218287744608,0.3584242221077761
0.92,-399.3807472367593,64.25803026617851,163.00628651536994,0.0573559897556594,0.5176542563972334,-0.2011438112840951,-176.1852792884195,46.48759778160784,25.6934151927986,0.3295781615175121,1.2222609338616028,0.1958047440957389,-205.34959907914543,30.25037347238917,13.53030278805539,0.2681787078656477,0.4937672690426278,1.3153324923375542,-120.95416318832513,38.340158789217696,51.59029494842138,1.3788984408017166,1.2582321944846968,0.0494467171676784
0.93,-399.2988399532159,64.9565616256951,162.239623042449,0.2930861058982891,0.669005997267434,0.0356610603120948,-177.8988551582047,48.99642304301294,25.44006181805406,0.0142227603400574,1.1660494866906908,-0.0003142264626967,-207.6224317882067,31.145634341006645,12.768289438782272,0.1090242255097145,0.4317320933405397,1.2490009771994235,-120.68781714366696,40.1823690839308,56.73993823608077,1.3627368201616623,1.5433213601363485,-0.0731767384009434
0.94,-399.5732047565063,65.61759862463673,161.72905403403092,0.3914920904921229,0.4489460420273979,0.2616003433341988,-178.61986821857386,50.29518167742487,25.42881639203345,0.2787388694525161,1.231830846380845,0.0160121167620912,-208.8925507373933,31.790880385641813,12.173584730901196,0.0188398627401416,0.6534669879772447,1.1729516150468369,-120.82680845948592,41.121601948508456,59.42264035478548,1.4247584022270237,1.330300849332512,0.3487849904655498
0.95,-399.6413519747496,66.47732964673882,161.09722922993723,0.25891890225828,0.4720102754722755,0.1040694452229503,-178.54561117507967,51.35339523079895,24.82871915668156,0.1285721519999343,0.9481948531557258,0.1667708386692528,-210.2022645884145,32.552851293611816,11.174175488048771,0.3524349819567695,0.594031074540145,1.379276557736535,-120.35777228155416,42.091034040411664,62.203011789450855,1.9228829949042088,1.5986357517974168,0.4304334597787067
0.96,-399.1817900258293,67.31200173016076,160.90859920150805,0.079968427700663,0.6726822845523632,-0.2123360536313889,-178.947397174704,53.00571441897329,24.32003224982257,0.2527679196957334,1.3794311290156656,0.3003608952486442,-211.96344883737905,33.09733197960942,10.026897902516003,0.3354265021095388,0.5827692043485465,1.5289154812358063,-119.95206768003447,42.98990891113876,62.2101251957359,1.3374829449923016,1.6014168834284812,0.1282255739069938
0.97,-398.82528293622255,67.87731572197148,160.90904565321614,-0.1470736546048094,0.2761858008122118,-0.0445658713291275,-178.91673181824763,53.95943815563339,23.833682528741505,0.1851761659514686,1.0677240176579708,-0.1343380570916283,-213.867361467954,33.602726973051624,8.800454167816895,0.0542476626187928,0.6487081329985902,1.5989182504956374,-119.67274300009396,44.42446034508063,62.74525608150607,1.6462728321238942,1.776154161828437,0.4001585163874988
0.98,-398.74391713083,68.54608638239168,160.1460988163949,-0.1620765487548961,0.4937007260765471,-0.024980211994867,-179.424306623183,55.19958444890934,23.512261387859315,-0.1449842143908319,1.0855504652578052,-0.0404277828647948,-215.40831239963555,34.29139908975056,8.861451337941025,0.1490107132963365,0.4132402027363577,1.6380544538527713,-119.11238100327,44.93688514488144,65.40873287151895,1.599893974975266,1.5857624364886058,0.3876314425809822
0.99,-398.40589109245553,69.17529581494809,159.8113591583517,-0.0578747738864941,0.4121790678663215,0.171175967222223,-179.55221335977438,56.52157180342562,23.321386160409016,0.1891764863507032,1.285212831620247,0.3385193163590813,-216.8635545980961,34.53377704311768,8.86622139897729,0.3886712464848003,0.3639598899753369,1.4798867650870806,-119.20806270620994,46.156618099329165,69.32841866322778,1.6554561183933545,1.655217939979746,-0.039179794250556
1.0,-398.461960431463,70.07657538199669,159.38449199956077,-0.1498597959553419,0.8599378857387923,0.1588924487792271,-179.7947791737397,57.20988894268822,23.028902323014808,-0.0450659065336786,0.8748092144751716,0.3547909172300537,-218.9897305531357,35.25549738076017,10.469252622606882,0.7005988449018326,0.5413346812678005,1.7166687075772602,-119.1869734079987,46.6808510551418,73.29343552784746,1.4282898920268212,1.488378900239914,0.053211654300336
1.01,-398.1963516704004,70.41812004237984,158.68696850519007,0.1022444027919299,0.5216916439196148,0.0051946413817661,-179.6730712988115,58.49503397125633,22.14234119579066,0.1595166746882921,0.7566036902320458,0.1045337261808072,-220.7587192442,35.57058816558885,13.04475282639472,0.8572370042527061,0.4616436973663765,2.02434804980002,-119.14525846820855,47.053886583389726,77.0292486633462,1.37965667545008,1.5959315828247225,0.2435308263671263
1.02,-398.456073209901,71.54663668557434,158.1630959419672,-0.0004570903408592,0.6291632275992253,0.2046684326589886,-180.3230851927087,60.47257494381336,21.3905111724961,0.1000105933532924,1.222850046600166,0.0369089511549303,-224.08676204367995,35.95888886601687,17.98982677364912,1.0511238391361193,0.4797168704769005,1.450968284742746,-118.17749030162588,48.36105791247036,84.2818668859629,1.4210722823238915,1.5558944152034582,0.6169971389686387
1.03,-398.0482870806664,71.7087461240506,157.51189775090768,0.0335237637792499,0.6089033479713928,0.0133766345133963,-180.4145832564327,61.71932729073415,20.69594433530726,0.1492260823158105,0.9161394437381296,-0.1118665486412751,-225.32532211106275,36.10260661918907,19.826136954804884,0.8906105789563424,0.3849275047938798,1.2170227277938368,-117.57083584964252,48.886925671321215,88.0591276412096,1.4352053887957323,1.6503312279817512,0.3537364091334052
1.04,-398.0169577051844,72.65865791987613,157.10377222961537,0.0212107532412915,0.3256516969287123,0.1774165255387691,-180.48550925043705,62.768883761564375,20.131395698655886,0.240329873173725,1.2716996685952493,0.00206829374106,-226.5261996165029,36.2236044238324,21.859219037214643,1.1839186093517615,0.5165489772749102,1.3569134666741771,-117.4339392069191,48.9748695452995,90.16903761522543,1.6330273871758871,1.5157122187900207,0.3712805532253653
1.05,-398.0497292071077,73.50426309953711,156.2512752129665,-0.1172574207443887,0.4214494247567199,0.060980145579106,-180.70344681130737,64.65266230962747,18.858455670923043,0.0366711917306324,1.020765058379823,0.2020517378089686,-228.7046026794061,35.87799720891864,26.89187167612515,1.215100367795044,0.3494618433327153,1.460991553098781,-115.60481337091323,50.01937047772135,98.4486961350922,1.695222006869925,1.814748425122864,0.7175067695051849
1.06,-397.9757307380137,73.76355656298938,155.82501629782837,-0.0736929173879407,0.2881336035289491,-0.1029914507283532,-180.4723913347518,65.75464336840787,17.80706793676683,0.4015925638305273,0.8476707044154992,0.0327293265608936,-229.77038714622608,35.70571729976101,26.83106669767153,1.3718509558885046,0.3621048532715549,1.3239285163010517,-114.73885767631482,50.3651105242329,102.57847602228917,1.532059645419435,1.6162524508335838,0.6249409313019416
1.07,-398.0339235926537,74.21717148519782,155.5397730722854,0.0182476234146313,0.1710833759181237,-0.0277329338011917,-180.54631214238276,66.83743678178023,17.325245242534443,-0.2528885270508796,1.0536640157646553,-0.1286640502114237,-230.8165556691247,35.522294182008395,26.75395934153799,1.6551117467917629,0.2812382821473579,1.3250812208731308,-113.94380166787218,50.43690838771799,106.72640590579702,1.768182232011963,1.6471073173000432,0.7584631753471937
1.08,-397.25828772160776,74.58545592506698,155.8807075116892,0.0159515483790474,0.3995950091011273,0.1472303235052911,-180.3062809150144,67.20475993032801,16.588280659419553,0.1593746350465769,0.6012463639655096,-0.1625124317481499,-231.609223134345,35.482853777032574,29.307237205795275,1.5460892574978662,0.383560090283729,0.8422964775617993,-112.67871385811816,50.42114453414955,112.26397245655669,1.6324566155725395,1.87778230760104,1.012718193905379
1.09,-397.1695877039196,75.12900696084229,155.80371758807829,0.0276771022570748,0.3348568610163778,0.2773342008750606,-180.18856118021156,68.2723165783554,15.561761642462908,0.2544195406238093,0.7225614586249705,0.0879047646661619,-231.9852065347502,34.732773974553595,31.956842911535038,1.581995864720022,0.0801132089561069,0.8621011506549635,-111.0584356704188,50.12919923767586,117.89360204976984,1.590265292178913,1.5222865893657351,0.832076838877107
1.1,-396.7880592476117,75.71706715511155,155.0421519037215,0.140145661934825,0.2475595119871718,0.1375803859683262,-180.00359066065406,69.63742798556646,13.409023657471163,0.0236395563165251,0.7298994895708539,0.047017176368939,-232.45255664376936,34.09809683994395,36.73577586403695,1.4219780620813545,0.0226999242790052,0.4996934659194059,-108.46235535562732,50.08957902011415,124.32142278586628,1.3088905196395044,1.7734030191783294,0.9783083592417732
1.11,-396.4995963924256,76.05068816951714,154.67176719577844,0.12181448525611,0.2129720223559404,-0.4142483541762576,-179.728676544196,70.57678160348493,12.61372287130482,0.2075874411460265,0.702683492512552,-0.0561358379282088,-232.49859020429443,33.77755524420916,38.6114390291238,1.5145977489060485,0.435892253934129,0.6464070340775596,-107.3702732681684,48.9119227245411,127.76528861666274,1.3129341021880498,1.483015491827539,-0.0029804558110072
1.12,-396.2800781991282,76.31426748990084,154.74737226480264,0.0589645819884536,0.0056792306969486,0.3061054623158146,-179.31479826782564,71.32173046352167,11.587902281442602,0.0814204603586293,0.7043406815072518,-0.2125130237021397,-232.78325458451727,33.16976179176271,41.26473735939689,1.7595034512003962,0.2889218427652552,1.082071267325654,-107.27952789479274,47.86390865348629,130.4961276694113,1.071001699742679,1.4528049266105136,-0.0860794365868325
1.13,-395.7458024490355,76.76924802546824,154.91674091271062,0.127457626805842,0.2671062616707186,0.2510863612705483,-178.85166776009223,72.15230586097216,10.485837730138892,0.2033781611185205,0.7093284077044602,-0.0360767317170816,-233.30755050603136,32.81354028867332,44.19018269569983,1.8308530934893,0.2517372802720833,0.7406838709706304,-105.808220756921,46.99022264778277,133.6857266755644,1.3850926275965263,1.3901741793132256,0.4627522959896747
1.14,-395.3344476295608,76.92700145979134,155.01740150676187,0.2805939023276482,0.2712631817537301,-0.1474088985603766,-178.65012394477475,72.90524570967663,9.416224406060094,0.3841884416495352,0.5480064016035191,0.0114022253592497,-233.2196943944725,32.01127161257622,46.74633101730459,2.207598630560998,0.419926847417699,0.7625702490244419,-103.55565799798406,46.35596627376345,136.9675761113064,1.4355956109340704,1.1583244747835375,0.331986586185558
1.15,-394.7530679585633,77.3678269828765,154.43275417975946,0.3131520930313497,0.2056013188110171,0.0529652582055513,-178.2478520197961,73.12841805874328,8.616989943152461,0.3889532725535636,0.5058048332544246,0.0938746343862989,-232.7637595191584,31.603002037588027,49.15555901117619,1.8400145003018469,0.1806212933921364,0.5187179700248997,-101.11852851312416,45.80020913302451,140.0699184658255,1.3956438670094908,1.426473170977928,0.3057386362118166
1.16,-394.90927915711273,77.31416066549421,153.94100003531923,0.2648838283359275,0.0472687973387673,-0.0206393025934623,-178.39436166515745,73.8743884244154,7.622768432458585,0.3834162141554091,0.5332808136616695,0.0584196996089277,-232.52306876223776,31.274012848917685,51.54339971290444,2.00039242012151,0.4380779500081627,0.4640536571633264,-100.23574586435166,44.564812719997605,142.16209366074145,1.4945157175338548,1.249020335040547,0.225571289391578
1.17,-394.70733054944793,77.56709634043703,153.675546792243,0.0267373267408825,-0.0490044555696382,0.0551537739867628,-177.99378377232102,74.66709892484796,6.130886585576781,0.4296266879272501,0.363263447685223,-0.0399804029456046,-232.71937812003267,30.411085549487527,54.20591217058483,2.1634406555069967,0.2888808261784388,0.7265977572080441,-99.19091351019,44.01179371133152,143.981338096947,1.118945855900371,0.8924327910724517,0.54352744191368
1.18,-393.7027259138391,77.7003484725831,154.05780284239313,-0.2796747183669911,-0.0678271352566601,0.1081906806508465,-177.29832583807587,75.74741580861429,4.044094524653797,0.0288791923987306,0.5828589190908782,0.0145575464793401,-232.35766085759693,29.37972973693157,61.38186149890623,1.579465362532341,0.115276843394603,0.1602510740624888,-95.90323757682796,41.08841413935862,149.62041693203895,0.9984332580345096,0.7638608109450279,0.347424473207853
1.19,-393.3066371526187,77.60196934877133,154.01947813254557,0.1513799295426631,-0.1115361770147855,0.0118094767836981,-177.0609713857492,76.44174147137872,2.9656761411119072,0.4082504531633168,0.2068543237852198,0.3214528942343064,-231.44291529389983,29.773795614609853,63.23482611870913,1.904937295877592,0.2924350354671409,0.1621654697421891,-95.2748417345932,39.754780795054224,150.60460979620422,0.645543445421373,0.962861723320912,0.3226658850359027
1.2,-393.2924491469308,77.86150196238407,154.3425710957844,0.0355394310377073,0.0671204179929734,0.2299485932329618,-177.14172669559753,76.7178880434204,2.409766507646216,0.2629925353825456,0.0975273396896825,0.1252770100501888,-230.36528588090383,29.32575837425265,65.12031850854478,2.06013700448038,0.1911812699908192,0.0410605011504149,-95.10444270780212,39.14179827325044,151.66563556051042,0.5610323310909546,0.7647954996555969,0.4022126693210023
1.21,-393.2713642590923,77.91989642840554,154.78477760069546,0.2215028196110104,0.1916652465093954,0.009209367092582,-176.67053182339052,77.14914697279362,1.8131337435667632,0.4546644262596165,0.02863205983538,0.1258908625325437,-229.97557478000545,29.494791230054943,67.51099094017609,2.081198281742684,0.1137004615245267,0.0047542937841154,-95.33704765373112,38.77349476356001,152.71420096774676,0.6062981572187206,0.5202158513393217,0.3273788075057767
1.22,-393.307184659079,77.72322955790156,154.82769682592118,-0.064068112670307,0.0880487651560833,-0.044375826435467,-176.72765625737165,77.23267416462264,1.5093151522299053,0.0944682662996352,0.3320829890810372,-0.1654516918711964,-229.8926952615527,29.249430904097025,69.6887287311033,1.8439701921025369,0.4806583132108197,0.7779090403659337,-95.7702323441433,38.45671274023993,153.8528638425352,0.8360341156272618,0.3461930989967985,0.2630687120463133
1.23,-392.98108848088486,77.8080004464453,155.58121954434648,0.3105644239287135,0.0735234279674577,-0.2125881763146063,-176.59916470745338,77.70792358562714,1.0734545530860946,0.0376394749676158,0.4481981241632448,0.2065530492336925,-229.5513485785903,28.619771897928437,72.03481086553356,1.8009021966448715,-0.0518826057417654,0.3158930605525321,-95.02603765763556,37.69704544316286,154.60548805504527,0.7081863995775309,0.4132775062320523,0.3341577923365512
1.24,-392.5668624979791,77.42940598376212,155.0876836568015,0.3368327304348786,-0.0712588296117679,0.3563675541568978,-176.7155744800525,78.1918432314318,0.4437690413817034,0.1341246622672805,0.1046390607663047,0.2652571631943898,-228.6508313098093,28.75188807854587,74.09918900810564,1.85330043104718,0.2168632830206227,0.6276520783478562,-94.4934776216058,36.68267985391088,154.87228049177205,0.4465857837769197,0.6476310329334884,0.5182635515170584
1.25,-392.5710824700515,77.498968217938,155.43816876160977,-0.0421506505903291,0.2059677193058826,0.2323342055137795,-176.68310049814,78.43965461523075,0.3126296677266426,0.1343311419343421,0.3495256677435825,0.1577815567599337,-227.87034871079763,29.00205289366924,76.265827114207,1.5667266637345163,0.2753120595659766,0.5202700590439725,-94.554907192538,36.41986533911517,155.20595853097308,0.4078132614614564,0.1741326049422544,0.4966466151197599
1.26,-392.67594695340256,77.48554626635308,155.6200897188319,0.1209050177738252,-0.0099676584366536,-0.2628380944953163,-176.73997479206693,78.6790299487102,0.2905578939764892,-0.0261143737223176,0.2187390469538749,-0.0051784995616385,-226.62823252560705,29.52949384007277,77.65352404472866,1.7793259105753636,0.125980169395448,0.2176970696892973,-95.5676478398287,35.77607829724491,156.36398522909013,0.2895234452719918,0.3568896358276413,0.4918602074474136
1.27,-392.8372371696032,77.53136552163937,155.82919709087054,0.2733275138897257,0.1490930093911168,0.042027063545791,-177.02578181223774,79.4097044684462,-0.9893133420304152,-0.3097038051360099,0.3181666660577215,0.2583187624273084,-225.45015233986985,29.460774438098465,81.31249858568877,1.5743952073992007,0.3071876012944056,0.0821595400075042,-94.16348420716466,34.57545577369549,156.562125031686,-0.0487482683352108,0.1677888464055196,0.3991844325386342
1.28,-392.3919272657217,77.32923090251478,156.35297625980732,0.2193731870650289,-0.2127496174679511,0.1356771210300717,-177.04998869039625,79.70004752016555,-0.875787399315802,0.0695614712495598,0.2537840595584647,0.2275610754799176,-224.6423841646803,29.66779517871148,83.09062627027808,1.570607104944046,0.5055861982624937,0.2135337556687607,-95.17417862776942,34.69535160019254,156.69795250693238,-0.0677451475287725,0.1537913796481283,0.2555127623779653
1.29,-392.3551954123872,77.80515813349786,156.58231692506757,0.0357612468205959,-0.0537263848329074,0.164949382635409,-177.029805217359,79.57141972735438,-0.5737874990645646,0.0284958333001645,0.0993612404497236,0.3786619248226712,-223.872660057782,30.302434914297628,85.2048951857792,1.4524947762258702,0.4283624896549488,0.827049707565924,-95.93026986299571,34.87283721696422,156.6491397916348,0.4494036465881191,0.0839652735870865,0.2833015693727091
1.3,-392.09938571478926,77.5041599568027,156.46487190420126,0.194048877796359,0.1008331054195546,0.0542434953940389,-177.23222877296598,79.92927519954362,-1.126012646348568,0.1704148372295325,0.1016669595914514,0.2344224251185233,-222.5226126050476,30.88207064159911,86.73973036378035,1.273230628317066,0.1781755551705089,0.7178078054994694,-96.58973175684106,35.010462877278094,156.77656599603762,0.244411643927371,-0.0929269614124148,0.1700205971835449
1.31,-392.0712415079636,77.573935586417,156.77286607300903,-0.1646698156246958,-0.2190927671856699,0.0394744379928106,-177.0252881928556,80.27253574044464,-0.4441274319999417,-0.0967392809684711,-0.0689777643417938,0.199616146331273,-220.4810633418248,32.48655371542381,89.51825293817635,1.3640010517673522,-0.0661663348710095,0.6641152719600504,-97.71355705682294,35.21921568209601,156.1339704564837,0.7253308084375916,0.0777163461767838,0.3167971250222992
1.32,-392.10327359012297,77.68114922543963,157.25455597170728,0.2019918364351393,0.0330523952464916,-0.0289060892608036,-176.86700727974386,80.4350195471712,-0.9258927563988156,-0.080626847726572,0.0233654768489673,0.0292768325514793,-219.42148836455337,33.47374630635439,91.16163157220572,1.439873990200918,0.2902419957204645,0.7308639730568319,-99.18689439913182,35.43517985757009,155.62164426617184,0.8161294906418833,-0.0497146190013959,0.302087484450799
1.33,-392.0809799126728,77.54844622475765,157.63642129851604,-0.0142497970594792,0.1900490290124592,0.2834359760011619,-177.00938940058975,80.57489851615907,-1.5534226259492587,0.0594630348999899,0.2494788596401158,0.3476312003764261,-217.55692340357243,34.409873562203586,92.63390665109796,1.2475099159686918,0.0533587031427247,0.8424869125991994,-99.93681624979509,35.6035929030286,154.30174228723297,0.7751208654202245,-0.0704187008541848,0.1968864996035568
1.34,-391.695262328196,77.67624752188887,158.3007158890821,0.0705149834958157,-0.103547253676829,-0.1326742126374209,-177.09226622743685,80.42803513249748,-1.0490426561607151,0.1678315593700006,0.1278138326754349,-0.0678334641985791,-216.42310806052828,35.04738932913909,94.13478716811424,0.8559622195308385,0.0245529109711211,0.3928835300279295,-100.351933112728,35.62807915495809,154.1062430793751,0.8178457745243557,-0.012032999643801,-0.1446947161231584
1.35,-391.2531552056848,77.38700504759866,158.3871093254908,0.1928195718597275,0.0259702355177505,-0.0908228858580619,-176.5491359694547,80.27474834257156,-0.3407811277178169,0.2646010289741278,0.0329326767258368,0.2264268296538765,-215.08570271978684,35.62530581706675,96.18763866243414,1.068657990667095,0.0124235376724866,0.3543861365595454,-101.4330165410611,36.03444072032207,152.54745705038334,1.2557251855067462,-0.0105907548080108,0.1984009030250077
1.36,-391.4746290961554,77.12259327686165,158.46511520587993,0.2621552260639707,-0.1112646154641427,-0.0161072258067098,-176.35220891176954,80.52006250163164,-0.6311944776146634,0.031311194512636,-0.0190702715102797,-0.0117252493500382,-213.6687023430407,36.57711377569677,96.92388440194888,0.750297548845337,0.1280845050285126,1.04045520485927,-102.72591845817723,36.24667965931514,151.24936168372088,1.0625126926207296,-0.0613839858201052,0.2041233962133007
1.37,-391.2823724839116,77.47874741781563,158.37423087210954,-0.0681249043567091,-0.0608137337902421,0.1030855340378429,-176.46397019778038,80.25598121258085,-0.1748834725115743,0.1334624461048015,0.0941862864783144,0.0395554742346267,-212.36373159915837,37.47773217929898,97.90428697605438,0.7929561191645663,-0.2463182532613957,0.4020208602495804,-103.170167590063,36.49642562172615,150.20370591367023,0.6299270380474468,0.1941987311711703,-0.0217142937027093
1.38,-391.2242616128637,77.3761288353133,158.51423189810478,0.3371265271784057,0.3806551657094065,0.0997258664650752,-176.42948672132465,79.90925998242166,-0.4150019250311012,0.0947727266937969,0.3787034895953232,0.1465393675319486,-211.63128280457212,37.64217943820955,98.58214511584625,0.928010839149044,-0.1734734819968004,-0.0618713037465716,-103.47024268901512,36.88340421427819,149.63972139531916,0.7352514002102515,0.6475063703271526,-0.0381384464009222
1.39,-391.35674583042464,77.30319432000763,158.80404049691413,0.5570257283533965,0.031749485324791,-0.1186827341736955,-176.53502271641824,79.64272024836322,0.5868733264879914,0.136131957438436,0.0679376075702266,0.0412708896395193,-211.125602381898,37.9730872762069,99.29720992537688,0.5341318511389275,-0.3331697529428116,0.3150627948946107,-104.0895120758081,37.58150274154671,148.44536405236303,1.0236652923811322,0.3807277516683558,0.0229708820034092
1.4,-391.0107832482908,76.99115009066385,159.24749703053465,0.2541404483196557,0.1058912663363945,0.0389753781738007,-176.43974766961648,79.63337594600262,0.8706180847833226,0.2736279918824613,0.3058677990701119,0.1033163779507122,-210.03821537870567,38.4263109379676,100.09005888614831,0.6502980289439412,0.1872890218443296,0.5152719966000455,-104.571582864483,37.55697969133776,147.51414461512505,0.8461729924460786,0.387794115649234,0.143085862330729
1.41,-390.9350122386862,76.97480829757112,159.62260661381433,0.1308989494988391,0.1196510296131539,0.051461214830483,-176.50157318279415,79.57101948095327,1.0630002362027309,0.1220126693779119,0.0994895521853021,-0.1461225333445872,-208.82793219946325,39.21040554885087,100.50995550847485,0.7158757814967514,0.1364570906169891,0.8287487933635342,-104.52059327139378,37.929238502439226,146.713978272493,0.5107697695717671,0.5089952936920047,0.0194790511704458
1.42,-390.9748316167696,76.75884123926659,159.78380766255248,0.1535318248562533,0.1108639369119144,0.2503455263230931,-176.0630392851877,78.93064529895294,1.3739174990389125,0.1719393134733494,0.2591266352617464,0.2979527548582929,-207.72953968702024,39.693489994741,101.0947344209935,0.8201445528276727,0.2532194478847343,0.4004738326543278,-104.94546024234336,38.5182809075236,145.9115980677503,0.8813329436906081,0.6553805320878189,0.4787243743008872
1.43,-391.0446046324651,76.66834339435451,159.88211318439207,0.2606526720759773,0.4474842625802347,0.1945701399519144,-175.90531717287615,78.60650460708317,1.6973340810904591,0.1234219380435121,0.3744923891830047,-0.1529102446542719,-206.86552573306764,40.2424935008444,101.49442336855682,0.4910432007783634,-0.2263357398612989,0.2594030587400266,-105.15141697921364,39.37804194547046,145.25191723982246,0.5214295257578869,0.5306973324712877,0.3857812063921577
1.44,-391.517598184552,76.62666061133156,159.65766464563262,-0.09253110094473,0.185391376803964,-0.0338815874231611,-176.80626627310437,77.75175520617668,3.757529223430968,0.1612488543069749,0.1846468908580298,0.0386451746767661,-204.39810390685045,41.5857836186693,103.09586700104576,0.4778796022758084,0.0462791266136072,0.6798911944246306,-108.31054734759948,40.46868008855175,142.6920898664439,0.6179821470215536,0.5422354593644441,0.4869807039940229
1.45,-391.719052271714,76.2665926952878,159.2612306031456,0.224398714508616,0.2214906116066678,0.3287871700532241,-176.54167615207697,77.4442939671352,3.782339986881227,0.1387379284157701,0.1706512054043686,0.4961492849246426,-203.04297559758496,42.3604761215426,103.8168955827894,0.6305716463962844,0.2461930206212863,0.4570874533378518,-108.56527386035071,40.96293812186117,142.3025927148922,0.6963675871478692,0.4375873031616912,0.5443921678946216
1.46,-391.8956732102585,76.1889125269118,159.538193988586,0.0370919705916239,0.069026938573785,-0.2448064347301373,-176.92289747179242,77.43770569191358,4.54602367674952,-0.113628780581957,0.2274543929288928,0.2008709421361523,-202.1434047724393,42.40938028510138,104.09140369953684,0.2404856204691927,0.3612365911959348,0.323163971258502,-108.93684506572396,41.30698789838623,141.46628066304143,0.3117720834949201,0.0886069840496358,0.1148286265976386
1.47,-392.7594663262426,75.93308351709324,159.2890705459155,0.2150707894999007,0.2193289394012683,0.0299406927373753,-177.03483659616282,77.15306463604594,5.900604070159155,0.2680066812880097,0.6310288101042623,0.2219733543408075,-201.22901033507387,43.37114422388882,104.50217621059906,0.512412840275918,-0.0890327584369866,0.2400617702336687,-110.40998403731231,41.93682943585986,140.9954842405828,0.289054695334441,0.207936426675965,0.1376240967309071
1.48,-392.93141943723344,76.02134259846014,159.38989531481553,0.2703003584356891,-0.0557210594715538,-0.0133590450787578,-177.35898187375457,76.85749527211587,6.506362634074701,0.3842682602810333,0.0715276965865228,0.0286051356655339,-200.39243555988324,43.9452392843214,104.91657033292988,0.3799131942730482,0.2216540221732785,0.3698017961395898,-110.4211525956907,42.18517186242224,140.466621060748,0.3736336005757034,0.7300132642302493,0.7153495187387211
1.49,-393.1483022346186,76.07763002196141,159.2128552070573,-0.013112189365413,0.1747421766508541,0.0473490726222865,-177.64659740569718,76.5600199928441,7.377522341797727,0.1906008452786713,-0.0835938630381328,0.0789001174349281,-199.50036360996612,44.08226269089312,105.5703912328128,0.2260892524229763,-0.0808434372118872,0.4643690501960332,-110.90600496718832,42.569950749269296,140.47780912465709,0.1180762541489534,0.14918754712433,0.7166806790375324
1.5,-393.55046200300217,75.51933041248378,159.05262264689392,0.1816815934828611,-0.025330877119992,0.0186354702937217,-177.97866135254282,76.49217392344718,7.955089484972578,0.1528989316657378,0.4183045291016878,-0.1169602675280655,-199.23309889933128,44.281107250671226,105.39832444085494,0.2540111052121486,0.0018222140174785,0.7705016656813184,-111.04634776435476,42.807192362605264,140.40046856533883,0.5446923272064323,0.1118655818280703,0.298357694498424
1.51,-394.1867124746027,75.16994143921855,159.014681174897,0.4203775724463829,-0.1801626558523996,0.0458321853406581,-178.1781015331636,76.3356601075824,9.052544405264946,0.3192954316859516,0.0729340438144847,-0.1161391550961158,-198.0598973219546,44.81973414021473,106.1117180028202,0.2443667334928598,0.4394395185939876,0.3841497298175583,-112.12945304445816,42.57189176530237,139.2352915964929,0.4912626754078071,0.1772950997894587,0.0248777046067198
1.52,-394.3867062925718,74.92416302255114,158.3766846499612,0.1672343237163149,0.2015803243966463,0.029642248331478,-179.03404438581228,76.04546555682062,11.198880471546618,-0.2336462118598014,0.4456149460857173,0.2047870547304303,-196.8746420972166,45.1413066533569,106.45066950886692,0.4033846154872016,0.28695470152863,-0.0369779491329991,-113.62521482684488,42.50237872748467,138.54273434534502,0.4476765567143626,0.3033646328013304,0.1290126711328806
1.53,-394.5304153443228,75.07932676718752,158.40384960960623,0.0871568294666227,0.0205347283633076,0.2226078960481363,-179.00312040190508,75.95477883180924,12.143448491563651,0.1521447234659563,-0.1876501760937255,0.3866290893230334,-196.10852791860637,45.43486702886651,106.63596756785644,0.3963343667564545,0.3350798517502203,0.1537129535080567,-114.16739622976218,43.15502860660869,138.0390813057445,0.4839943468453547,0.2346592003026957,0.0973081476409392
1.54,-394.6355029060416,74.97183679946204,158.9241567997252,0.0952257117013633,0.1743808051530638,0.07482623583584,-179.39661411228155,75.96134814656077,12.809334226436276,0.0522659830570384,0.1282028870253648,0.0468208202804784,-195.5797305336933,45.68863334226201,106.90801867739316,0.4049982638653487,-0.0684584266994434,0.3502372116727386,-115.23469439087631,43.66310163009022,137.44371927871617,0.6895256450247341,0.2381853268408929,0.2310332756569692
1.55,-395.40169707103576,74.72538414299945,157.6231757381552,0.0396263696750375,-0.1336359011282253,0.3975692936336526,-179.52284486567638,76.07752005943452,13.582368792747513,0.0627981298903648,-0.0320585389677283,0.1707685458750044,-194.79745365567905,46.21449889887436,107.14953419904552,0.2069903209809375,0.2192974773800457,0.2057438109279009,-115.85040645609276,43.31044235132116,136.5714840127681,0.5523852043829853,0.1744393426680742,0.058296581047371
1.56,-395.456020422209,74.77633887273541,157.3789299440631,0.15743147017292,0.3020917276938482,-0.0037921525795663,-179.76138756314828,75.84460387702258,14.42268974742435,0.1197379272757398,0.2754518242081158,-0.0065593210395176,-194.4371398485305,46.66004917497791,106.91393422821056,-0.0652985083748138,0.1123732625438081,0.5787307718837887,-117.08640103585812,43.87720955430406,135.91617528875202,0.4595327969269891,0.4096882562974066,0.3862456988244881
1.57,-395.5385347775919,74.54067184094885,158.00239687867315,0.18811725714415,0.2904958734597275,0.0573206609816382,-179.97010715676188,75.2160251400314,15.105897823139754,0.1113344955803914,0.4454115124846063,-0.0143803836787047,-193.37908288843707,47.4601850486922,107.40870952876878,0.2631602422176167,0.0756762861203388,0.0166637915779675,-119.24360122845007,43.38938412390482,134.89888595651192,0.2525770087276177,0.2440575488569208,0.1897372512419954
1.58,-395.3013668242481,74.17665540695029,158.47546996314253,0.1445567971424219,0.0288197203396557,0.2157118805955282,-179.95390899049212,75.36961682054739,15.783729755716784,0.4351089906620922,0.2442045427994195,0.3117730634248258,-193.07183507595587,47.51191710164587,107.7717905694128,0.3481267865190671,-0.0221431259996646,-0.2512057922356582,-120.18744464844764,42.92161414492303,134.3178693527761,0.1452215633935715,0.0705160455147815,0.3774985979743759
1.59,-395.2875330292885,74.57135906005199,158.90930138139157,-0.3131366635268115,0.1731816782577061,0.1842603231318336,-179.91207435013504,74.73220315135858,17.245810940397785,0.1503425665922445,0.0850152724994936,0.1955942368065434,-192.59217398874983,46.96369523680181,108.03946235368618,0.3996879159730749,-0.0108782539529263,0.0051628573101776,-120.85423502783448,42.495658479009926,134.0121078099387,0.2000242765596047,0.0641383202142121,0.2159257971153585
1.6,-395.683646363059,73.28738268917317,159.73755963340267,0.0380303855239421,0.608084970626469,-0.0527625800795211,-179.8625699210496,74.4210043582959,17.87341859974501,0.0371243930728613,0.451760473258703,-0.0446964698052963,-192.21787726876616,47.140101685348256,108.44272742429104,0.205842929132411,-0.0025633496267951,0.3364384791630883,-122.08173615280587,42.95320504400035,133.53310337309566,0.3774258141261675,-0.1849984260589386,0.2002085947045296
1.61,-395.39879561032825,73.55181812859152,159.84387894300443,0.2478096670732922,0.0120407544488455,0.20318727259583,-179.97493267582405,74.32794899090669,18.19146800842965,0.1641954516402252,0.3837200430083574,0.169785579412633,-191.59338636450696,47.48731018416306,109.05017898193044,0.2977563997131415,0.1608972942896404,0.5259118608216995,-122.82881143746732,42.890981214346986,133.4930376697645,0.2139233306814351,0.0711923331136707,-0.0169800186069382
1.62,-395.48541448104646,73.30166784307116,159.99448014281884,-0.0218376872512566,0.0753172591254778,0.1709808530283002,-179.69766388538565,73.81564631593135,18.72009152009359,0.1956142899248279,0.3276584561126243,0.223109184506988,-190.88423554959164,47.91123435617148,109.7220480149527,0.215333533159901,0.2617566104989077,0.1184280758812249,-124.16936371384128,42.33992897307458,132.94748950610048,0.5344745788542465,0.0374298908344122,0.5305469043476996
1.63,-395.4181633632799,72.93149259115377,160.5013143858484,0.2841961836195243,0.4985915903342254,0.0711141811726361,-180.05021821415338,73.96923478642469,19.072774220286203,0.1620325977298338,0.3574090142258441,0.1940060481955673,-190.7635212680125,48.10364445644065,109.93248011988676,0.3262014068139107,0.0074274376522398,0.1024573694469758,-124.82183316530924,42.55603515569333,132.57433252799325,0.2695497197753222,0.2051596593123852,0.0943089376729565
1.64,-395.40691068565536,72.78462412868903,160.59507144442054,0.0498116198369313,0.288503588237074,0.1063362012282841,-179.70873076388662,73.59022083347446,19.459859681542326,0.2360920485869874,-0.0067193033498492,0.1000710156534418,-190.4044961247181,47.66698432182561,110.1772177310897,0.3266730831037636,0.3237801456717278,0.0804628131085969,-125.964727288354,42.14306323029189,132.30224984747286,0.3367263235824549,0.1469171888882519,-0.3265454960015335
1.65,-395.57625396232726,72.69478570615063,160.2011642563369,-0.0398501224919522,0.3862923682783558,-0.060973254453573,-180.0444578248367,73.76940519265966,19.766443190820382,0.160457209542014,0.3100301412409517,0.2008575869042532,-190.14045758897936,48.03991468937565,110.56786272697175,0.1501064012161168,0.0813205909305633,0.2928728349944025,-126.38742126042044,41.95599306590319,132.04279094626045,0.4251318606049684,0.144480483094593,0.2606528530125673
1.66,-395.5248145661524,72.494091163127,160.31352493196678,0.1769007038735074,-0.1094045295113925,0.0173010773569948,-179.63915743905548,73.2406888905158,20.24366525690689,-0.0406460022360671,0.0117779210685777,-0.1472287466855452,-190.0806528931811,47.88583964090119,110.45679775468736,0.3389035292513197,0.1193833748572508,0.1654511395925649,-127.65818516275768,41.69827872033397,131.66641478638115,0.1790478545011881,-0.0694547759880093,0.2485088950721237
1.67,-395.5307149310599,72.47835822020336,160.52730763741891,0.072142113941559,0.2247867937381878,0.2052893776447779,-179.7561238946534,73.10047901715102,20.50410253468023,-0.1269573682143288,0.0909077879207613,-0.0593035782315425,-190.074515366429,47.85245824340215,110.43982668840242,-0.0171805200631509,-0.1005617916788204,-0.0794070204470036,-128.10996246987972,41.54836327636816,131.37693485224946,0.1960628719893011,-0.083959416170711,0.2947153206709272
1.68,-395.3239062241125,72.09451686056633,161.01338231180384,-0.0080490540534961,0.5516711197978018,0.1134441652112617,-179.6289496615774,72.77187765570909,20.67493988955456,0.0961879462011344,0.2125061839728656,0.1448316826392231,-189.97827591845407,48.02877407532582,110.59040056559324,0.0208106812884807,0.1969071740479247,-0.0261056384374613,-128.56951063778808,41.593200440629865,131.2309294486966,-0.1277768526313701,-0.0112330604431181,0.0714061946594896
1.69,-395.5114288119607,71.64590017500807,161.00908308011017,0.1126720776615708,-0.0328993563270041,-0.0486993467406957,-179.3511408400714,72.35473320085744,20.975087840243503,-0.0525549130286739,0.349735912215793,0.1309066679815985,-189.8573959024987,48.0714201826124,110.59788298863504,-0.1044005285858866,0.342390960350163,-0.1309232496100612,-129.1563953643161,41.295722231085705,131.07353295181997,0.181673276567107,0.0596513466364991,0.0690598596354793
1.7,-394.82390486812665,71.53123640737519,161.6139244701304,0.0355306827111294,0.0281311348115552,0.1130771550355707,-179.06985201463334,72.57880804020795,21.18062011575196,0.328073191286066,0.1567287075911636,-0.0701588114872274,-189.91077471072023,48.365504920249336,110.97228176224412,0.2967333291555438,0.2853500219571023,0.0759746415699675,-130.44576024693004,41.02462779252603,130.36601485614597,0.0949718607039984,0.3150834721465919,0.0354031950614548
1.71,-394.8053589347341,71.3097351746538,161.74572177733603,0.2248710231900096,0.1898082706254008,0.0553260384659386,-179.12081828432375,72.39830675521843,21.44281218550064,0.1546627091917263,-0.0769414896690705,0.1261107414372667,-189.6720568461465,48.19535764931437,110.95032773338131,0.1620621603942237,-0.1137479432568881,0.0166884698471316,-130.44426407011397,41.13478543776373,130.7636480421451,0.2588243601882167,-0.0249316787533605,0.3227152062489798
1.72,-394.727623722138,71.0740542012455,162.2638210477066,-0.003376448347981,0.2641204624446917,-0.0062467754785952,-178.67530511528352,72.64913353130123,21.708975711064507,0.3706896948835339,0.2817904129409148,-0.2696605739601871,-189.4911550113409,48.34155044281388,110.8882117708632,0.0710649488939922,0.1344751446193548,0.2085649412520652,-131.77442747161996,40.427064092659776,130.19080058047118,-0.0487757114129265,0.1046805637764203,0.1976537472223772
1.73,-394.7799984599207,70.99321328072705,162.26948722331102,0.3536897778198334,0.0463847312099338,0.1598337659183001,-178.4192820490447,72.49681938198302,21.608021299519663,0.0718965030355358,0.0841959397309577,-0.1393557637264192,-189.08367658867635,48.54990794504244,111.10893093651438,0.2238614253481178,0.022939734801738,0.221044124721693,-132.2806351198729,40.55464470609533,130.01561246705944,0.2356649821818474,0.1820731329366373,-0.0916852209642396
1.74,-394.590960867992,71.00814786408891,161.8502835533474,0.2365652182894327,0.1161635489561438,0.0457602983150814,-178.99978022486502,72.26440496712766,21.771304391527348,-0.1210953995182596,-0.0974564667007147,0.1160659168222279,-188.92396911915563,48.66918543980886,111.12775139259212,0.4904322794298534,0.0503872332725203,0.0506850616320724,-132.72212128841406,40.45944561527001,129.99814627343284,0.5860225236815058,0.1887298554075962,0.0687780661787907
1.75,-394.7043762257039,70.73642810774439,161.7321858979746,0.0241682819867683,0.2077408721218582,0.0963233928336232,-178.77141787585063,72.17090052846298,21.61453577154149,0.057474265210491,0.3181484608867386,0.1059645588990125,-188.2767027237503,48.7002180398127,111.0823506545905,0.1452746520980046,0.1558687778995443,0.0361438152984087,-133.23278339448538,40.37799929437393,129.74360725497232,0.0773669997541881,0.1205547368783402,0.1645276144156046
1.76,-394.4247304513219,70.4471831763743,162.32220566913566,0.0812373134730433,0.3938307784714706,0.1551647042165044,-178.54614282779846,71.74985190662484,21.48729468365231,0.084003933362417,-0.0534980726589714,0.2792456935915923,-188.45764223744956,48.54699069437102,111.29033267023507,0.3442935491654694,-0.4591959708204689,0.3503922386195736,-134.24895904288795,40.12025101430368,129.7292360716957,0.1787905077275548,-0.0554751437785132,0.3450597656688986
1.77,-394.5405887314482,69.98321712267972,162.54616996438432,0.1978821451039715,0.301451533865601,-0.0938764082733854,-178.40060291047885,72.09686499322392,21.47267551137652,0.0489284770407519,0.0248446902262808,0.0101269564506128,-188.28081440793304,48.60338138838533,111.3953300363177,0.0225217035558133,0.1317488109973579,0.11942154893388,-136.06581137901708,39.00673878007376,129.1106062636328,0.0674683880995732,0.1876248625592947,0.5385891553088054
1.78,-394.5153908786828,70.09130049972916,162.3822052482582,0.2161691490070418,0.1542551333826273,0.234755095148292,-178.2483371479369,71.88004335509865,21.620900461983595,0.2837471549365437,0.4271347812514336,-0.0301538296410153,-188.08544158908148,48.22659936541096,111.4559224627995,0.109880448724339,0.0399877823806987,-0.0692382242556067,-137.31740936048888,38.26494617951724,128.85798780596178,-0.005359726381896,0.1987028328009294,0.2200183678918515
1.79,-394.2740727217666,69.8364287500917,162.39410284733435,-0.0180382170868898,0.1422163284170412,-0.0668558116035224,-178.32890009443307,71.68971482323579,21.75596613115784,-0.0978429955049092,-0.0981988319001079,-0.0656729967992004,-188.323082501308,47.87082974670747,111.60950972215882,0.3039857831962502,-0.0089294995467475,0.2501312859730557,-137.76532032959338,38.29345571149912,128.77683474877597,0.2103782571394575,0.3707335601100745,0.3039141424048125
1.8,-394.4327761236381,69.54276375588965,163.11923312414964,-0.1311121246084266,0.3185908990691302,-0.0401808080359309,-178.18863553566663,71.90897186497742,21.38736982082916,0.1773198090980031,0.4113270318182843,0.3664761123255594,-188.55880078935107,47.88980132779707,111.9751799847684,0.4526452152354684,-0.1567073307716851,0.1647122006410663,-138.86067064029373,38.03270141031589,128.51664565019294,0.114635668058013,0.2405649173902141,0.2705674316813908
1.81,-394.2737552280855,69.78616077835542,162.67388355788634,-0.0199524605242368,-0.010209481211713,-0.006321545996658,-178.1674063566987,72.13682172070646,20.91984451882886,0.2072353542033665,0.0133437676966624,0.1389168596092985,-187.86322416156116,47.614976465400616,111.8724500661149,0.0056134939633975,0.1410902284907742,0.1117731405222999,-139.82145095519348,37.22762339391394,128.48738568853528,0.1008761314907287,0.2449872388738127,0.6381362457037161
1.82,-393.9765286722984,69.96937007348956,162.66275973066894,-0.0780481607939938,0.457511242702083,-0.0140068870300723,-178.17888759451324,72.15992416782377,20.55820101659876,0.2500413386578892,0.191405190003353,-0.178662684443203,-187.9439526147517,47.55999782485807,112.00627612452368,0.2500253756205337,0.1064510089441852,0.0964617179318177,-140.7917718917503,36.82867617287765,128.30586458599572,0.3137193832527177,0.0729538100410459,0.1309118514866383
1.83,-394.3223722181937,69.55523225577112,162.34787297064938,0.0551284080100467,0.0053280231580457,0.1591077403786438,-177.66272741813674,72.12129966382595,19.986554546713844,-0.0906709987723793,0.3243265536514639,-0.1243710289032435,-187.82739269565587,47.10838874865025,112.37104449988828,0.4311739126017453,0.2263615938373804,0.5482222729156676,-142.89297361503844,35.53648135656539,127.67271765739912,0.0838848116065724,0.4318131957470467,0.4687437037426694
1.84,-394.0966239374417,69.9398268859889,162.34782427565003,0.1372861170794793,0.17700059092835,0.137153283140747,-177.4566985373797,72.56308340079782,19.52991492778457,0.203944843479108,0.0837944643792619,-0.1136565243396316,-188.14000054036,47.101082489587824,112.37477226409328,0.5018369370728188,0.1736506961532812,0.4033610965402038,-144.02840874684713,35.19478992980952,127.597022597867,0.1155041337374899,0.4884255133797824,0.8220198714967961
1.85,-394.5387197780224,70.03333992819215,162.1268998764119,-0.1849157355805213,0.1228391390129829,-0.0603703652222911,-177.2813035592319,72.78522817033692,19.103750659375194,-0.1171681522694468,0.0291863806787446,-0.0286795035303359,-188.69189946468137,45.629619233749615,112.61636044774605,0.2636931582006581,0.0273402477355828,0.6771154425229811,-146.28302551747768,33.95474332484989,127.35026787906014,0.213419632628512,0.3679326890036494,0.2699401040631326
1.86,-394.3040343003013,69.95496271091729,161.8816585601486,0.2310435766691359,-0.0247896724987269,-0.1496158529935388,-177.24718681793905,72.83221297970671,18.512438321189208,0.3986122493763032,0.2041559066143367,-0.0654441211620565,-188.9276150999833,45.24816232438361,113.11765129250276,0.4491031922941131,0.2048798352207527,0.2438455670461528,-147.60089241294213,33.615318541614045,127.16326280627116,0.0986300631716951,0.5075182486644308,0.6767793662311355
1.87,-394.5668332975805,69.72819725702017,161.86414774184524,0.0421674349586302,0.0444062620904271,0.1902787108060902,-176.9532843349096,73.11401141516491,18.41844987220425,0.1770981602417465,0.6141674000281752,0.2292442814577165,-188.983793007679,44.77485417625146,113.25534422732734,0.2172438754362021,-0.1070032545505621,0.3834799002839759,-149.10812690202567,32.33572658075721,126.7221751668742,0.1309014271242209,0.2380417786413038,1.1319857037093626
1.88,-394.2779255374965,70.05796692476694,161.65776045948587,0.1390261230102971,-0.1858326430500781,0.1220198323073783,-176.96045713980345,73.26058385435223,18.222344358729167,-0.1306528303138727,-0.0853009565030612,0.1223612238505099,-189.63494783965308,44.39803585785084,113.40993295524764,0.2458797494679304,-0.0506260593151365,0.34689047172613,-150.48169059645386,31.46278775469889,126.89901733205912,0.3576322928850963,0.2083918140227585,0.5468696376988509
1.89,-394.27064154074577,69.95588089308404,162.26906437416855,0.05708540567105,0.2369143903132695,-0.1309084148663583,-176.77600876326505,73.11901141587887,17.919307859531205,-0.0722623190702564,0.2466100902399335,0.1225427356175975,-190.0440392214065,43.49815370875505,113.36990886420132,0.1399964728010394,0.1387177401570168,0.5405271113556919,-151.2594341535676,30.82175959626608,126.96964446019672,0.4160681075388006,0.2508764478769043,0.2435066814207293
1.9,-394.0485158308639,69.78503360611117,161.9995594006898,0.1221939228268083,0.2480075562925144,0.3508176737323484,-176.83825952231985,73.65372454802298,17.812924285151205,0.1342979498666346,-0.1147500063810294,-0.2094234617121581,-190.39230899507285,43.187786203321565,113.6510277489029,0.1342427062473833,0.0191575702278287,0.3889317214689212,-151.7373060532209,30.576151884797103,126.94396375198302,-0.1267688488135773,-0.1589450671396584,0.2207846328531157
1.91,-394.1168427282801,69.96088151396391,162.3125779431348,0.3997240670112963,0.1792392609254167,0.0433240418759058,-176.8737984586079,73.41569061146002,17.648692968280187,-0.0529704990424576,0.0900966597034529,0.0914473212846149,-190.2330519377856,42.92989170867188,113.76366389143244,0.2143735971706353,0.0609798615842351,0.0614833438785201,-152.00363808044784,30.290570349932143,126.9797896438992,-0.2386089060003089,0.2809921639400602,0.352277384251065
1.92,-393.838916749547,70.2191844955887,162.20730337477048,-0.175677079842404,0.0422428546150508,-0.3669060884379952,-176.77272405775062,73.59827632347528,17.760800743268668,0.0107226359261239,0.1128655159261811,0.0959177930086474,-190.52787449952828,43.05585770199163,113.7500880689894,0.1376273747711481,-0.2822484542371676,0.0326090180991187,-153.01042634958498,29.765647243118785,127.02039461683616,0.0367285608190791,0.2690380654917382,0.2897731507309002
1.93,-394.2423944528903,70.01872807038103,162.35508843349368,0.0657443565543546,0.1114495878171509,0.279595282219535,-176.8038942806352,73.55265973902897,17.385444143655466,-0.0252859879749155,0.1775024453008037,-0.2112943040896568,-190.54011666363357,42.64117167509649,113.82713209845616,0.0425964040704013,0.19798683730021,0.2376063425092459,-153.3837345488767,29.22703910485469,127.06755361021862,-0.0034365972514641,0.0673437541867691,0.3157209279730934
1.94,-394.1769708705648,69.8406525294747,162.5997222578364,0.1433172118665053,0.1594931329509417,0.1122002935560323,-177.05418924951314,73.68515041788599,17.822661122666126,-0.0471328347952826,-0.0314315956693906,-0.074355360264108,-191.06435103049463,42.263821493457336,113.49311049016288,-0.0123865776830249,-0.0262396248592385,0.2113331824624797,-154.69015487897093,28.68941205389935,126.94575385138758,0.0498314702241231,0.1160126406712216,0.6448353878975064
1.95,-393.8742247311958,70.04874962599642,162.0818418226534,-0.1363632040115886,0.2953855024424453,0.3005064598822846,-176.70501534130688,73.44265881783761,17.721450893160164,0.0622492122610406,-0.0639035191669265,0.0934737592125353,-191.53422859152127,42.40922597986463,113.56103433894546,0.1398131822322995,0.0402961284215861,0.243612217569813,-154.9579406477437,28.144837140571383,127.232600849486,0.2869421028137133,0.1261949813896387,0.2199458478371099
1.96,-393.7596271029794,69.8910120622602,162.18237334939872,-0.0551766776462684,0.0192422063289217,-0.1220748693895963,-176.59600975839547,73.40476286930414,17.702747050611226,-0.0114158905450331,0.0966154443834578,-0.0390017061489,-191.23564723107148,42.373074774663166,113.69512304394952,-0.1827184046075384,-0.17076196093189,-0.0131644557176631,-155.67933296525504,27.87549022656192,127.26583767771656,0.2181489137024644,-0.0041023918574047,0.0673300797573444
1.97,-393.83872552048007,69.72136754194779,162.65180482942552,0.1019316457028505,0.0023774936663948,0.2929810059699679,-176.6317763622349,73.5067781835067,17.575202438920304,0.194208449365055,0.1358943449170765,0.1378843086679352,-191.8919815398904,41.84658882706014,113.4997580258827,0.0470537163400504,-0.1145170292294364,-0.019943507087338,-155.88297216077703,27.6243329368052,126.96083293637166,0.1536936010963812,0.1120657263794368,0.1317226462582358
1.98,-393.5471652744904,69.57873468942759,162.60705200214008,0.7807178323448071,-0.131229154094127,0.1190466147781295,-176.36585239492837,73.0840556910706,17.686793700604,-0.1604311692456169,0.3435129413590786,-0.2144771007417319,-191.5671031434135,41.89830082679567,113.16240257947962,-0.1229872426280597,-0.009957243182581,0.3874351144306339,-156.54676947216677,27.381549435342937,126.82607380288856,-0.0354651181792711,0.0926830684032801,0.4081223060011151
1.99,-393.5430545481228,69.58493381843873,163.035563758915,0.1407333008055666,0.1349187009338683,-0.0553195581332093,-176.12514192729589,73.35641979443977,17.611226195431186,0.2748289855155987,0.1383897341365115,-0.0969414425156606,-192.0948239402408,41.94244264613288,113.34285719287546,-0.2153495845535333,0.0283940401883938,0.2274797558157767,-156.99008179396716,27.2900725622958,126.93211516848056,-0.0037713621666387,0.2201859644267005,0.2912649833301923
2.0,-393.495669820198,69.6998896673405,162.77158595580664,0.1741821942173958,0.0352100976230098,0.1314751053364784,-175.96008935751826,73.32248148655515,17.56175575663725,0.4551499738197617,0.1533417943952225,-0.0365163302828049,-191.63311855723825,41.63323247765096,113.32627074757312,-0.0179299146818116,0.0795190597172824,-0.1880525053636922,-156.90262616379482,27.218393421836268,126.81279192313733,0.2137438039602918,-0.3470434678938054,-0.0613247110965251
2.01,-393.3886812646391,69.69815202210238,163.1745411562927,-0.0445513154159562,0.0609444571008271,-0.0638051143947158,-175.88106912856708,73.07673541768295,17.248323479160117,0.2924337838093439,0.018654973265046,0.1506682167230475,-191.89530657397395,41.82334289669527,113.24795667366308,0.3408748387855995,0.0957926308670689,0.1240135280975554,-156.7020307102804,27.29042529644155,126.96684296088252,0.1191539409116714,0.0422022956856524,0.5748092130439642
2.02,-393.0076150273266,69.67239234242672,163.29649594778598,0.1411091078102866,-0.0550435385686726,0.2381976325278132,-174.9986833049007,73.16400594810388,17.02172774867664,0.05656848698075,-0.1937296408775558,-0.1764334016816681,-191.53187865319785,41.90589809329448,113.09981653718656,0.0704190434465483,0.1910193542052558,0.3079140380251393,-156.7687752182609,27.823803009271824,127.29696800788838,0.0376374861718439,0.0607679995073424,-0.0301532874286435
2.03,-392.7124918212874,69.37065566957494,163.3978417660145,0.0530882134384008,-0.0235139501379389,0.2073595546813278,-175.0975438387746,73.3497660697373,17.02865178779472,-0.0448831026138368,0.1424338544452952,0.0206167844364401,-191.99253208019047,42.20103172253817,113.23730904758104,0.1224930241362402,-0.1957929665602001,0.1440512601723763,-157.1106445164716,27.415071636693195,126.71711008942466,0.2708853825525277,0.1752296204965838,0.1208396271296011
2.04,-392.7211170664339,69.58949231306477,163.36852838319749,0.0820500976967546,-0.1510733513962602,0.0743559740961033,-175.08546033881544,73.28956290240299,17.01411631155599,0.17694271675007,-0.0340004627466421,0.0820555679534892,-191.9272034074115,41.541543816106326,113.23006095927369,-0.0287253710617653,-0.0864327433035752,0.2167807261497981,-157.25458368212026,27.49875387783755,126.8285450443455,0.0706032041205126,-0.1327310928257397,0.2607170047661158
