0.01,-107.36799817353682,74.97353420552356,164.7878936378073,0.008699808941771527,0.9217034082967448,0.10103780454003743,2.2243787945564817,0.5906822043141046,0.6430627911529452,0.40051612528994374,0.6802982537671924,0.26941834125436054,0.5489474384104581,-95.22260066186601,63.20952708644681,165.32823219588477,0.059134159119807884,2.1617113697980064,0.047649171600907106,2.9684793679826855,0.040258173060368864,0.1629676525841691,0.5203505796512777,0.6699980859696256,0.26987804530214243,0.4595615603994916,-149.35730979176387,4.4850313285711625,2.556287660197465,0.12558024125783543,0.09866338454805851,0.5084373841146731,0.30084634528983495,0.7384229973570813,3.73739816334115,-0.029742008166659454,0.030360508281014782,-0.9603517922491265,0.2691657243041211,-127.7941989572126,7.267541223523792,9.48976737600134,0.12291522014982978,0.0362681389927091,0.07353052682043716,0.9755707143756239,0.3504912367528295,0.3309994890017682,-0.019692325047917025,0.09977965724476313,-0.88974633538497,0.44064108180216327
0.02,-107.22642282776717,73.58478088329788,166.04359452675436,0.046846082119542665,1.0558093712367358,0.1214565655901071,2.0010793379116723,0.5751334526491678,0.5955580028667116,0.4120121490858497,0.6819999653566388,0.27201860323323374,0.5364354687940875,-94.82990385721857,60.50508554412954,166.29896729519254,0.07206253143553991,2.1637315851632177,0.058090758069785864,2.507788832441535,0.11069432126265255,0.22271231003918196,0.5351446991910809,0.6724131790672303,0.2624110540381994,0.4390807811726867,-148.71568227266005,4.461251433694467,2.668566449126033,0.11484118680985896,0.09944691697485535,0.510683510385439,0.4533878963589643,0.7782427247890019,3.1485543105381324,-0.029249917356794924,0.031492754685162425,-0.9594405207861456,0.2738309208227772,-127.75440142014043,7.239114192604462,9.548905988558701,0.10813796277720761,0.03577508026355159,0.09136581453560186,1.0439409900972247,0.46525510987713187,0.8142407538222223,-0.01937974304318186,0.099848422172546,-0.8898639216783426,0.44134863977960614
0.03,-107.08079463772907,72.2022358432244,167.27466261115313,0.08367977714031243,1.1855007098621584,0.1409235001328879,1.7803728424766556,0.5592534326028765,0.5585149986422605,0.42340314940586854,0.6837261984842213,0.2744856114734553,0.5240140690466727,-94.44838306522193,57.840631061143085,167.2465770671564,0.08433686124966656,2.1626760591517566,0.06813217689340474,2.0705822199217163,0.17875171385046104,0.28284484707329177,0.5496266673915009,0.6747780865524706,0.2549589600497339,0.4189327151085412,-148.0636080450273,4.44419025389069,2.7708081049689763,0.10602994188631477,0.10204484106765344,0.509155310118583,0.606171209398209,0.8201348045391091,2.5861076789348822,-0.02884249463588228,0.03257730647570413,-0.9584418106669417,0.2785885179917316,-127.718261036297,7.222586466878179,9.612111173016315,0.09289900020156193,0.03639523908745536,0.1098422233477812,1.1031028374665908,0.5718094299234525,1.2856188576371168,-0.019130309436670094,0.10000963901873125,-0.8899707163394603,0.44200645975922176
0.04,-106.92604474497573,70.81168589994165,168.46065937853248,0.11797804108734095,1.3061408639457908,0.15878699734292975,1.5682350476046751,0.5430333427683066,0.5379076621176617,0.43464460590407494,0.685532105893475,0.2766174346102682,0.5116248144406457,-94.08448233958522,55.24225427977535,168.1534693470617,0.09529833064924205,2.1536472059932756,0.07752670084666874,1.6763007931665856,0.24156700791533633,0.34409219552652465,0.5635514843538452,0.6770542785921377,0.2475012019719197,0.39934094138349313,-147.40272419247785,4.441836190286939,2.8548722579671777,0.10086467960742938,0.10711275639561688,0.5026051521011163,0.7572773510173773,0.8664386817625438,2.0722373562086522,-0.028609845569375982,0.033572466636833796,-0.957317649144811,0.28343714483961263,-127.68039014332469,7.2250744690241655,9.677167318889492,0.07765968562557526,0.03905098881335781,0.12913765294699725,1.146770745557334,0.6628710212909302,1.7324157480553155,-0.0189914427707665,0.10029609772922636,-0.8900254876045963,0.4426433324153168
0.05,-106.7577689433211,69.40032740005064,169.58318871501905,0.14867527559780064,1.4136631899823577,0.17445910635120637,1.3711759074459573,0.5264112572969402,0.537928450150164,0.44569196674277406,0.6874643780899284,0.2782318471888509,0.49921606192826234,-93.74333376315874,52.73264137031719,169.00469649926328,0.10442217444869827,2.1324785019892203,0.08616010448404512,1.3401903913510471,0.2966996943453229,0.40697563228934786,0.5767084469636661,0.6792082143412248,0.24002241855851847,0.3804983873936408,-146.73669382399393,4.461527561472063,2.9128869746209736,0.1007777774727261,0.11502155352583683,0.4903392373164574,0.9041040255876921,0.9180047732282969,1.6255812355421821,-0.028635511046535403,0.034434077335093766,-0.9560441167991683,0.28835541040062834,-127.6351565026723,7.252439282668202,9.741195433587999,0.0628218668830873,0.04448578764809705,0.14934051937852502,1.1707603345864759,0.7325273030696785,2.141581744747424,-0.019005678011459172,0.10072688694114866,-0.8899899556004665,0.4432923455462599
0.06,-106.57253743937909,67.95786563972194,170.6267163167681,0.17492130859317653,1.5047906510205127,0.18743991803041093,1.1959810222786222,0.5092535633419059,0.5605058771318271,0.4565002470864353,0.6895575929393777,0.27917599199509996,0.4867492504570852,-93.42836175619883,50.33036596206798,169.78878495277237,0.11135261744809843,2.0960524340089277,0.09406687749414733,1.0720839144834369,0.34237201612258794,0.47166910907036846,0.5889327757427931,0.681212451510716,0.2325164051410842,0.36255981497812156,-146.07181078665207,4.509469063651142,2.9377168530645417,0.10678674839591644,0.1258129234850037,0.47233965036910075,1.0432965477937006,0.9737755847548186,1.2599479102357958,-0.028990986486774346,0.035117427975640686,-0.9546156182995669,0.29329601768529634,-127.5768319126756,7.30877422613969,9.800752832138729,0.04872248951521205,0.05318082208093918,0.17040984809245366,1.1735323189415527,0.7767392110982463,2.500241227632847,-0.019207363558981935,0.101304416942543,-0.8898308615349977,0.44399038639193855
0.07,-106.36809556751645,66.47725685025577,171.57919855226694,0.19612281081605565,1.5771869268655023,0.19734694807726186,1.0492221099760461,0.49136235953539525,0.605069945769151,0.46702464818620665,0.6918319920642443,0.279333338827827,0.4742027542240659,-93.14102572293086,48.04951909648966,170.49826731210817,0.11591210427418908,2.042468677798077,0.1014188774509376,0.8758842215093267,0.3776186724199951,0.5378969635646821,0.6001130676073307,0.683046139679908,0.2249893272140696,0.34563771560998807,-145.4173681083424,4.590303440374358,2.9235554806645188,0.1194014146376315,0.1391868432847085,0.4493373971974357,1.1708720825460972,1.0307331537652513,0.9834180179309061,-0.029730360675230084,0.03558073758530733,-0.9530473066154368,0.2981828385936953,-127.49976234460357,7.39596096900318,9.851992648528887,0.035651339956896094,0.0652944892592231,0.19214809458167847,1.1563801914294263,0.7936557406758958,2.796477358304114,-0.01961931916195991,0.10201286175960299,-0.8895216145916864,0.4447771378608356
0.08,-106.14345777033449,64.9550807500768,172.4324898165667,0.2119621563914771,1.629523009057093,0.203946421029207,0.9365960177388223,0.47250949840030243,0.6685885560645703,0.4772219204186114,0.694292710632589,0.27862779715981545,0.4615733525520024,-92.8807419894471,45.89970859739115,171.12988198626942,0.11808994384355546,1.971070855359575,0.10848872796524012,0.7497357175282277,0.40233206893758605,0.6048800891946342,0.6101938979027745,0.6846950283730279,0.21746211576186344,0.3298017997859369,-144.78571413964514,4.706764130702,2.8666011020694606,0.13857320417325317,0.15452268623879098,0.42281828087385287,1.2825314075163936,1.0842323921370913,0.7979418266911162,-0.03088545256252832,0.03579003380406525,-0.9513754511079718,0.302911555318923,-127.3985532400337,7.513340149865961,9.890892590580476,0.023889507689369083,0.08063203350003238,0.21419155242759835,1.123235612926596,0.7837036661650275,3.0203200161894217,-0.020249698106258533,0.10281836880299923,-0.8890434112234795,0.4456936639231435
0.09,-105.89891626328344,63.391574435040575,173.1825228089387,0.2223897737302881,1.6614545916899963,0.207181317861132,0.8622120242971332,0.45249617420203136,0.7458662285806614,0.4870520091164212,0.6969303640842862,0.2770250820121834,0.44887568656508575,-92.645005267475,43.88641027910025,171.6844369098966,0.11801766164203058,1.8823598691354495,0.11559377931269983,0.6867835869618584,0.4172074120441419,0.6713377014626956,0.6191735034868048,0.6861511844369882,0.20997196896647383,0.3150818282590733,-144.19194822678796,4.859432880890621,2.765739579662119,0.16368964073263226,0.17093239373481225,0.39494471476571535,1.3741078915880516,1.1286739485732393,0.6994877375758467,-0.032461929915069326,0.035724854844203596,-0.9496557693892668,0.30735399779367806,-127.26825352321676,7.657547574171343,9.913559582758142,0.013762158541990425,0.09865054439897095,0.23602066692271378,1.080119115045615,0.7494393184987004,3.164802244890182,-0.021089379285039424,0.10367129662114065,-0.8883857348365948,0.4467808435093965
0.1,-105.63599548344816,61.79038225783147,173.82927915257773,0.22759082296300667,1.6735209790596337,0.20719042334656465,0.8279713723436884,0.4312296876458268,0.8300698563120334,0.4964795372586802,0.6997228115053575,0.2745315901853444,0.4361401880206853,-92.4297014761407,42.01160501209516,172.16636362382397,0.1159383589103854,1.7778297051998213,0.12302911037280848,0.676363773809924,0.423608968910225,0.7355524398327362,0.6270971499319739,0.68741253906334,0.20257277793008613,0.30147318369048653,-143.65324588526664,5.046623875973965,2.623131251083692,0.19361546499978427,0.1873418328618326,0.3683851341886868,1.4420710836962325,1.1584113913604264,0.6787249084912296,-0.034436957914887135,0.035383850513137596,-0.9479599337868222,0.311365789011015,-127.10452213745613,7.822564214318712,9.916610412073206,0.005696037123460929,0.1185013178970801,0.25698944775482035,1.0343138610304288,0.6951820858248253,3.226922178194692,-0.022110274349356848,0.10451059647086679,-0.8875461759314145,0.4480778669595258
0.11,-105.35737943711428,60.15808628571886,174.37658041539052,0.22793379190692076,1.6669891180003211,0.2043129654119182,0.8331665098763479,0.4087980234986908,0.9134255810422051,0.5054748632807248,0.7026378221766191,0.2711911618372682,0.4234099472911769,-92.22957506865977,40.2745961363752,172.58301643195543,0.11217637302318047,1.6597601952478303,0.13100043263187286,0.7054356024405536,0.4233877616865077,0.7955055945071313,0.6340473432706286,0.6884822410056014,0.1953341915695049,0.28894430507174823,-143.1878467949741,5.264412615838215,2.444585243456148,0.2267796733662817,0.2025950391318252,0.3460565383167997,1.483991767939738,1.168743997644574,0.7221525493866784,-0.0367589119836107,0.03478918615890369,-0.946370532377612,0.3147964696558309,-126.90377244944766,8.000014956810563,9.897618495223725,0.00026999130993502613,0.13910738882182813,0.2763699850599385,0.9933800301661722,0.6264828288588109,3.2083507210078808,-0.023264952238737143,0.10527024010472427,-0.8865295780824936,0.44962080070843985
0.12,-105.06682059199207,58.503586874517964,174.83172613810814,0.22391368759964206,1.6436709927520161,0.19907442574563,0.8743821845127616,0.3855172517736443,0.9880136058531268,0.5140146996668151,0.7056362874663155,0.2670801844077776,0.41073694915579795,-92.03879214669139,38.67288050686185,172.94379656250706,0.10711172134643837,1.5309947142339608,0.13956910738307363,0.7600599554152868,0.4186804086144954,0.8490797497061954,0.6401323230407495,0.6893677041757321,0.18833906697694222,0.2774449402865114,-142.81378114537762,5.5068235011621285,2.239613048500533,0.2613034690865647,0.2155749088924992,0.3308004128309841,1.4988876814171124,1.1568237714004106,0.8135360636545967,-0.03934956165212352,0.033988739014103,-0.9449747758899908,0.31750100794065333,-126.66330672317615,8.179727672029765,9.855603799989472,-0.0017542233512658335,0.15926940647082155,0.2934055085203662,0.9641499615855748,0.5495043644186103,3.115754148068375,-0.024487937571774844,0.10588731002925779,-0.8853466260464131,0.45144103537486296
0.13,-104.76901234116116,56.83740671602535,175.20499001864195,0.21610228607771004,1.6057383527250897,0.19215110012974282,0.9457214480780786,0.36193313279559025,1.0465729583355978,0.5220824669603108,0.7086755834711447,0.26230151412353525,0.3981781115190722,-91.85153029982307,37.20295045909412,173.25919911321313,0.10116145598067222,1.3947240229506994,0.14862026036656015,0.8267452825523083,0.4117125038424467,0.8943049644962872,0.645474233141928,0.6900792792532755,0.1816792663360892,0.2669141750012191,-142.54744466688038,5.766184059432003,2.0210860836581257,0.2951577115217253,0.2253319414393322,0.3250252232201818,1.4873987478347037,1.122307895926362,0.9354836852626879,-0.04210887902948198,0.03305539037670216,-0.9438573055246885,0.31935154041991404,-126.38146627103465,8.350533397934804,9.791527469322409,0.0005666380899677119,0.17778880651363807,0.3073651902678048,0.9518451522954164,0.4704003598565936,2.960645133017361,-0.02569891129245017,0.10631103350402706,-0.8840121384618813,0.45356337725113377
0.14,-104.46938695319612,55.17099285407066,175.50897136460512,0.20511224344785972,1.5555499274860514,0.1843143097037817,1.0393175505357592,0.33877339119274763,1.0832222168233085,0.5296685900121485,0.711712705746057,0.2569776481926375,0.3857915843149919,-91.66252845045636,35.860930479248715,173.53988714396652,0.09476779366711596,1.254292513782186,0.15786048772888317,0.8935324633194905,0.4046230269642402,0.9296014452939213,0.6501981135157925,0.690628613997833,0.17545009373500595,0.2572873656609469,-142.40215468490067,6.033643926473645,1.8044761572593326,0.3263323207895602,0.23120945988016092,0.3303593481169978,1.4517776035787984,1.0676227901298079,1.0709949302115975,-0.044922287964754046,0.03208317019380964,-0.9430926209217805,0.32024829592269616,-126.0578255681809,8.501254364305971,9.708736255159485,0.008313276730460185,0.19359442552082365,0.31759735740308837,0.9594357333924205,0.39477178642534083,2.7587264734511154,-0.026807819105811863,0.1065117387525078,-0.8825434475739756,0.4560036024210862
0.15,-104.17380353619878,53.516086672956014,175.75780018681016,0.19157429110409877,1.4954987842845646,0.17635919021629354,1.1460393018533652,0.3168614963663874,1.0940138329897473,0.5367708024681674,0.7147068583268026,0.25124353319568205,0.37363374681690736,-91.46754284119451,34.64298951065162,173.79589016644454,0.08839122297301395,1.1130378533269085,0.16684529424670433,0.950752678927822,0.3993209043941768,0.9539647061751461,0.6544225325362868,0.691026903749088,0.1697439666867627,0.24850136483566732,-142.38682607403533,6.299841352731924,1.6067230035991151,0.3529976837063064,0.23295029520574612,0.34736512951355225,1.3957129618668254,0.9977798417728263,1.2048284898673127,-0.04766983061416317,0.031180519202404763,-0.9427378493927798,0.3201288473450584,-125.69344710473808,8.621794270141002,9.613287560534882,0.022611689323663878,0.20585832507893037,0.32358325555238177,0.9873244892225553,0.3272590991107627,2.5287457353610163,-0.027721591513040662,0.10648855985085921,-0.8809592486585368,0.4587654141982305
0.16,-103.88812116275781,51.88421887794556,175.9662156190878,0.17612175008466674,1.4278846176653368,0.16902657783185682,1.2562715391519745,0.29701019163425274,1.0772681418435817,0.5433943126094516,0.7176212809047068,0.24523938588296532,0.3617572552387742,-91.26367424091013,33.545506631366855,174.036003068943,0.08250593297634659,0.9741672425743425,0.17503090166850646,0.9914476040634452,0.3973785974518965,0.9670570041603286,0.6582523735064056,0.6912833113185313,0.1646440514291815,0.24049770298682732,-142.50489920491762,6.5556792151955285,1.4448361235708558,0.37364079023708013,0.23076742321424432,0.3753638581203351,1.3240209341280116,0.9197843744551892,1.3245667537315835,-0.05023644486371838,0.030461409351096425,-0.9428266908672083,0.3189750244212536,-125.29119008366449,8.704220202933998,9.51407887774667,0.04449540494636599,0.21408928745173378,0.32499636323806946,1.0333860732446922,0.2713015967690276,2.2909383284300997,-0.028351872380961495,0.10627478421578179,-0.8792791433449588,0.46183693253275965
0.17,-103.61769844880124,50.286363314661145,176.1485712295136,0.1593768687249405,1.3548166377659514,0.16292865679676607,1.3606678550040927,0.2799139122264094,1.0336651806441706,0.5495515527764484,0.7204242324199099,0.23910391414569493,0.35021032715988243,-91.04955130848883,32.565000650123544,174.26742908567113,0.0775948341662805,0.8406651461169771,0.18184211833011704,1.0114765686797373,0.39995909544733954,0.9692003332276398,0.6617740183449304,0.6914038439035236,0.16021852381160442,0.2332236475121701,-142.75363722714604,6.793148819281285,1.334387296602905,0.38716467417786166,0.22536090549543408,0.4124105983000049,1.2422424049307317,0.8417707755298037,1.4212933456683023,-0.0525223309394014,0.030035402373819266,-0.9433653151331313,0.3168169459780107,-124.85603799611731,8.74371333281597,9.422711395100922,0.07473459572188706,0.21819752857269573,0.3217692455883692,1.0933365605720544,0.22907087099849702,2.0652021187648835,-0.02862295398133125,0.10593998559663273,-0.8775238543671502,0.4651870965139267
0.18,-103.3668994593867,48.73275209784503,176.3178522922819,0.14193787281847753,1.2781534812792423,0.1584888406131588,1.4508171116435467,0.26605688622835905,0.9660967532527195,0.5552612813405559,0.7230892125618557,0.23296830146929523,0.3390372113649833,-90.82537204491413,31.6978632904663,174.4956729588868,0.07414175264824542,0.7152226230377939,0.18674707905151536,1.0093553819052534,0.40776683939217195,0.961292036137632,0.6650529412386857,0.691390926314138,0.15651592026921812,0.22663128912307173,-143.1238906701891,7.006118194407705,1.288077050738238,0.39294592272019774,0.21786776058473645,0.4554384228116198,1.1561800152937884,0.7720381943671549,1.489846675195554,-0.05445226130433542,0.029997872268318165,-0.9443307802742258,0.31373370240008414,-124.39538747953104,8.739270511970838,9.353039802353756,0.11365353332373822,0.21852909040604376,0.31416266667445797,1.1613605707519605,0.2015654572205088,1.8692100746008575,-0.02847909136704006,0.10558842488512817,-0.8757158787366277,0.4687625916674694
0.19,-103.13869884680746,47.232821803997574,176.48480537357065,0.12436964809696477,1.199483110412114,0.1559034575636834,1.5198026608703485,0.2556500483589161,0.8793011387415947,0.5605469996505191,0.7255946749219575,0.22695121953870231,0.3282795414737782,-90.59281825673536,30.939960453434686,174.72465449249597,0.07261837291614051,0.6001789556392716,0.18932943666164018,0.9858862421131777,0.42101588296874765,0.9446741589103608,0.6681335391439652,0.6912438201978464,0.1535618223263178,0.22067502454070737,-143.60040049001427,7.19098866882741,1.3145575357856851,0.3908505774790964,0.20974120181304146,0.5005670631268545,1.0714063725519796,0.7181436016003715,1.5286617933280058,-0.05598271621420156,0.030421590195612486,-0.9456722553495012,0.3098503090204288,-123.91923011652455,8.694063181986092,9.320397734078743,0.1609632308378156,0.21587004373280394,0.3028249153811574,1.2308919558547367,0.18883779996251981,1.7167083351413002,-0.027890481671866505,0.10535357104189129,-0.87388025876316,0.4724860082352057
0.2,-102.93446385186988,45.79523614078167,176.65727365057782,0.10720100490415449,1.12013708420594,0.15512833297149015,1.5626386584168408,0.2486053938310749,0.7793269383503199,0.5654348482737855,0.7279235952340788,0.22115498438860348,0.3179780959637495,-90.3548674564319,30.28618443497544,174.95698264162024,0.07346300512610242,0.4974696329960914,0.1893485032636005,0.9436496089384111,0.439418179499007,0.9209854321444028,0.6710408669307685,0.6909599227541702,0.15135695188415657,0.21530804818711458,-144.16266823458992,7.347125144919453,1.4176620989571256,0.38121414539426923,0.2025694704075939,0.5435430927285178,0.9927834242517454,0.6861551723433421,1.5392562635484601,-0.057105952633539854,0.03135068743592599,-0.9473150072113988,0.3053307510678063,-123.44016049063363,8.61540142953396,9.34053555224107,0.2156372907384632,0.21141819984378535,0.2888266811299083,1.2954322330320676,0.19031116166964104,1.6162429941173908,-0.026857361026581594,0.10538898306557913,-0.8720451953400593,0.4762558655524839
0.21,-102.75395643634882,44.427922391793146,176.8398055493577,0.09092831890716657,1.041224040004455,0.1558895499061696,1.5765502847985524,0.24455123898455944,0.6728972387558351,0.5699512335456298,0.7300632289307322,0.21566284105443992,0.3081744320288326,-90.11553278245358,29.730048337400078,175.1943095012656,0.07704819489713882,0.40857788272379103,0.18677853850718137,0.8864314970170879,0.46220300532916536,0.8920167900247123,0.673783790514293,0.6905368497572433,0.149876663931529,0.2104787150403534,-144.786357685697,7.476984772202128,1.596129954853936,0.3647960876174956,0.19785866238340705,0.580250504983595,0.9240487042342359,0.6801107894455263,1.5254489878753497,-0.057850503255404175,0.032797641225526926,-0.9491667636032999,0.3003673159624426,-122.9731548299385,8.514302777674454,9.428356358684658,0.27585711222077597,0.20671626621000924,0.27365883199084107,1.3492972769678644,0.20513334792765645,1.5705003221476481,-0.025411848516646532,0.10585620613481177,-0.8702423376595577,0.47994896209116245
0.22,-102.59555703194985,43.13806863626285,177.03356867050655,0.07602244703478332,0.9636632987938277,0.15771586617655386,1.5610532939525008,0.24288583382892548,0.5667571526039947,0.5741204201568769,0.7320052376273617,0.2105373067633125,0.2989119162377621,-89.87956356723703,29.263407418046505,175.43767623250986,0.08363593572269862,0.3344899419535356,0.18182072283976006,0.818651972864888,0.48817947507865544,0.8595808320109614,0.6763589481815285,0.6899750803657041,0.14907176893341387,0.2061277713327472,-145.44511165527123,7.58590422399957,1.8438343775126502,0.34272046431945263,0.19681409166155087,0.6072101310415455,0.8675325722347796,0.7016870538180013,1.4924283119244464,-0.05827805345909411,0.03474338781884443,-0.9511257349319047,0.2951669375463633,-122.53508231632902,8.404717177224803,9.596578506830568,0.33904833283633007,0.20353983599752679,0.2591851956466556,1.3882039265375659,0.23250913072203283,1.5763436513476052,-0.023617360791501927,0.10691076574958344,-0.8685066522359836,0.48342528944153906
0.23,-102.4566716752215,41.932051346675465,177.23656538257856,0.06293502667056046,0.8882046786454684,0.15998980093720022,1.5178049454274039,0.24285986907782853,0.467079809105962,0.5779623103827964,0.7337461829914128,0.20581953270715986,0.290235803094546,-89.65213655257178,28.876368522000824,175.68777259691794,0.09332329916056356,0.2756587372933683,0.1748854949889454,0.7448492835979108,0.5158477429262184,0.8253966305118177,0.678754891990684,0.6892808289600749,0.14887055331123908,0.20218732573733592,-146.11259145701263,7.681551091110368,2.150445383172408,0.3164104383735712,0.20015702064718055,0.6219846058925825,0.8240580194408151,0.7500705935612182,1.4458084193772436,-0.058477055587427974,0.03714011100522204,-0.9530893444308604,0.2899358187708594,-122.14393522244902,8.30250120101768,9.85448058596917,0.40202262669486655,0.20373909935344187,0.24754748412831487,1.409637604405597,0.27195788811164,1.6255134046489554,-0.021565643018480293,0.10868775140965864,-0.8668757488442167,0.48653549258379575
0.24,-102.33425444415741,40.815290589390905,177.4441174840656,0.05210095107247773,0.8154321093515817,0.16201381517411,1.4502414266722434,0.24367236260655084,0.37898410780214736,0.5814906519305008,0.7352882516483142,0.20152971906762165,0.28219217101194416,-89.43856120085886,28.557412795316797,175.94505790729212,0.10598656983727633,0.23198539087687364,0.16654796149825135,0.6692635596880601,0.543552574899343,0.7909895046677575,0.6809559144940582,0.6884687259325132,0.14918180285549892,0.19858202350859733,-146.7645004923316,7.773091128155968,2.5024020657841195,0.28751707830213397,0.20800722195967758,0.6234261227967377,0.7930424799553754,0.8220254579211164,1.390817669801174,-0.058553766505535086,0.03991587994216418,-0.9549626351542332,0.28486396668993547,-121.81779503889204,8.224258078827019,10.20689194177627,0.46122615412435425,0.2090438166481246,0.2410237146507198,1.4129719391809081,0.323457068043638,1.7058555578072043,-0.019371674576804214,0.11128875875311443,-0.8653884767789164,0.4891305696062288
0.25,-102.2253623686697,39.79205476449296,177.64956646302778,0.04393477008479508,0.7457598193530027,0.16308662962936593,1.363064233915966,0.2445623578989544,0.3061942149468521,0.5847119210467155,0.7366399773322235,0.19766865696647123,0.27482568703540994,-89.24401383110339,28.293719100829527,176.20972817244828,0.12123604832268425,0.20282885870887982,0.15748359517160684,0.595550630908726,0.5696581063594045,0.7576104096493002,0.6829453096089234,0.6875638487733613,0.1498986144358425,0.19523232996438478,-147.38035058376985,7.870163224657388,2.884044297955147,0.25783742092843126,0.21984970739081852,0.6117382424944264,0.7727822547591041,0.9121516163080504,1.3317323743529363,-0.058621643448242486,0.04298020674783924,-0.9566653958723514,0.2801113673413051,-121.57358890413607,8.186163220475686,10.653574718726075,0.5130781442722874,0.2208529397475936,0.24184545067635815,1.3993383688043737,0.3874506383308674,1.8028799858789746,-0.01716683905125394,0.11477195606586306,-0.8640826090073198,0.4910731949144911
0.26,-102.12766113341743,38.86525163755853,177.84512109131484,0.03881945997149283,0.6794353428371029,0.1625828417815994,1.26166607123094,0.2448828257301115,0.2508537199793262,0.5876250758652035,0.7378166542547988,0.19422040767702942,0.2681763373312948,-89.0733059397013,28.071646742390246,176.48155283073774,0.13839446772063355,0.18704871189974878,0.14839449034533606,0.5266355870083632,0.5927109118096735,0.7261836907673983,0.6847080534323511,0.6866026604400147,0.15090281897225682,0.19205934929753024,-147.94476585835872,7.981784126858018,3.2787571080921074,0.22921675253977444,0.2345899530139064,0.5883569622828718,0.7608668567505545,1.0133233475094916,1.271605605770422,-0.05879022627213359,0.046229714103942506,-0.9581372657106718,0.2757973762930202,-121.42573070586245,8.202879483666097,11.18910193998608,0.554363166304513,0.24003845732654516,0.25198388797243143,1.3712712996448555,0.46471975653695463,1.901431146869616,-0.015090774856492644,0.11914667242000597,-0.8629915725158499,0.49224973982303355
0.27,-102.03981439597024,38.036243008448714,178.02277419054167,0.03708670073366251,0.6165620101357614,0.16002727173140266,1.151587570322716,0.24415146045127906,0.21349584743972827,0.5902222770021001,0.7388401401342551,0.19115597993512032,0.26227542989200164,-88.93068321904727,27.87732217699995,176.75963542158783,0.15650927800605405,0.18307724146089835,0.13993753541071255,0.4646905243769797,0.6115582852410583,0.6972899603517764,0.6862330051432178,0.6856324964583296,0.15206990177133584,0.18899035309415452,-148.44818197756732,8.115321501160627,3.6700076040444345,0.2034351863165679,0.2506886814244795,0.5556827024745759,0.7546500000261707,1.1172849319896985,1.2122660922957036,-0.05915476510672109,0.04955335136547313,-0.9593404143190174,0.27199455947160633,-121.38477853917105,8.286638684072424,11.803274604120489,0.5826235213334034,0.26679425094622483,0.27292074005055045,1.3321865477872974,0.5561291856440298,1.9872729439814427,-0.01328232046992628,0.12437323904835694,-0.8621404497239662,0.4925817902479531
0.28,-101.96171356960484,37.3047080320217,178.17520695063848,0.03898910305510382,0.5571463421882425,0.15515463553686523,1.03807575617416,0.24208056631515465,0.19316075665886837,0.5924905526992369,0.7397378757496363,0.18843770391411452,0.25714131289473957,-88.81964562583703,27.697273682406127,177.04216960293277,0.1744042733300086,0.18901055025410365,0.13266435708676713,0.41120050882086806,0.6254024866752402,0.671185447637964,0.6875146843003884,0.6847094064244653,0.1532743485885208,0.18596416818286982,-148.88687856192166,8.275671629695703,4.042195980713792,0.18208571514600988,0.2663561709973713,0.5167137920527092,0.751697859959753,1.2153655577010207,1.154506896433345,-0.05978785353230873,0.052836910085179024,-0.9602597750589843,0.268727698904239,-121.45626684655902,8.446533956794319,12.482047909848133,0.5964892703868454,0.30055480044743643,0.3054270738532915,1.285782830083245,0.6622782616189278,2.0484319152412,-0.01187003274238179,0.13036802705512524,-0.8615417785995791,0.4920357780030932
0.29,-101.89453291719185,36.6685628942759,178.29660338532995,0.04466687306753967,0.5011655655509458,0.14794596793500436,0.9257843786116531,0.23859051911760484,0.18764016626517468,0.5944142722663975,0.7405411594944022,0.18602386673185192,0.2527753162538919,-88.74277866621449,27.519062586693575,177.32626319043712,0.1907704620426765,0.20270837178831258,0.1269786080310321,0.36707336220439396,0.6337924695787505,0.6478545166120797,0.6885545516130134,0.6838944038907396,0.15439532715884582,0.18293567033942576,-149.2623732365759,8.464752168963077,4.381289651274623,0.1664563477276277,0.2797776898765138,0.4746433996773891,0.7501395765778843,1.2992578417241933,1.098365904836108,-0.06073409314319662,0.055966910785783364,-0.9609011336754788,0.2659779864316225,-121.639878404923,8.688039664153978,13.20886414068826,0.5958868373432181,0.3399981334939738,0.3493801090505335,1.2354749108442922,0.7830992286757351,2.0761924027896064,-0.01096288839064637,0.13701287404385526,-0.8611918892538477,0.4906293097400802
0.3,-101.84062011559644,36.123932917109755,178.38330764151894,0.05411347579965058,0.44864107122546515,0.13863601782675528,0.818624364013271,0.23380884542037042,0.19381929956075472,0.5959781962728283,0.7412829164268581,0.18387308016613021,0.24915842647984754,-88.70159354356919,27.331862215273876,177.60788974576522,0.20428982509696053,0.22189774701539908,0.12311065660258795,0.332752841643432,0.636571924861443,0.627087927976829,0.6893616351487013,0.6832484879798832,0.15532250989733334,0.17987877494919155,-149.58029749214955,8.68137145035666,4.675252566899208,0.1574300334432422,0.289336346250816,0.43248217411150286,0.7488572064704339,1.3617926340116817,1.0434178195350923,-0.062008309128229945,0.058834165081191034,-0.9612875861872996,0.2636916402076632,-121.92910160851368,9.01275653167314,13.966230114701277,0.5820838984665908,0.3831357057262196,0.4036503486909599,1.1839617659355162,0.9174575067469728,2.0656850154470647,-0.010641881435136766,0.14416748815024663,-0.86106855199193,0.4884329660729533
0.31,-101.80325080958431,35.66517353195725,178.4342701712216,0.06714603668704103,0.39969875692434675,0.1276900466593238,0.7197448209109912,0.22805419766768364,0.20807716366758003,0.5971707719662549,0.7419953275429025,0.18194784169063863,0.24624918627113346,-88.69638615703704,27.126936091837184,177.88200250114582,0.21377820009326973,0.24428031530297598,0.12110598223164483,0.30830552357026336,0.6338111573136084,0.6085736854447226,0.6899523819508806,0.682827091362215,0.1559616653031721,0.17678752402548148,-149.84895069056532,8.921472782659293,4.914311114310626,0.1554128480765958,0.293799257013845,0.3927564463857306,0.7474784023340907,1.3976376910507677,0.9890313486460239,-0.06359717923718579,0.06133736656521169,-0.9614549745857619,0.261791464529746,-122.31147092711696,9.418369704247741,14.73734156760276,0.5575555634155207,0.42748075390098444,0.46608513829958786,1.1330037183471786,1.0628182336519467,2.0160526371923075,-0.010953225454295418,0.15168304851670142,-0.8611305846599411,0.48556680635926897
0.32,-101.7862866852405,35.28494683336087,178.45124401624315,0.08338624281799732,0.3545986921313796,0.11575290877828241,0.6316033953231442,0.22180515336607587,0.22669958758474074,0.5979872357075057,0.7427077210842705,0.18021687745391848,0.2439832734851911,-88.72613565299827,26.897972190519244,178.1428130783454,0.21832611282350722,0.2676418900232518,0.12082376912360682,0.2934642625827892,0.6257492511064378,0.5919802912974201,0.6903497447005948,0.6826747663378969,0.1562394682433013,0.17367516280416292,-150.07776860106316,9.178691546977161,5.091108653208123,0.16029629115424493,0.29244010433919587,0.3573113811366648,0.7461796059354895,1.4038391666782826,0.9345755284252598,-0.06546355516600248,0.06338693425410549,-0.9614469101265701,0.26018945640415636,-122.76941672510759,9.898803376678988,15.507551604648567,0.5256887771618716,0.47027701214982837,0.5336000688159237,1.0834383347187981,1.2150500702413776,1.9302153433449936,-0.01190377631405732,0.15941515450891677,-0.861319811058878,0.4821915211275423
0.33,-101.79378113328131,34.974372457734496,178.43870976296623,0.10225672436043062,0.3137240485124271,0.10357714676562545,0.5560740428167542,0.21565734375360773,0.24625829088787318,0.5984320373627718,0.7434450790982983,0.17865608954395798,0.24227511508272134,-88.78846647520085,26.641246250093207,178.38420410610476,0.2174129245122164,0.2899574978923201,0.12194555536211492,0.28762606222318576,0.6127615497226592,0.5770080118760941,0.6905816472747188,0.6828208773156448,0.15610692102898743,0.17057141745838963,-150.27593426846073,9.445120974775698,5.200793804905827,0.17145658436975714,0.2850853662421681,0.32722718698477055,0.7453591575011113,1.3801170476514442,0.8795766371003653,-0.06755243097493743,0.06490912208034433,-0.9613099280055182,0.2587985872963642,-123.28166352839112,10.444554742915345,16.26550516493678,0.49037065740502833,0.5087629104538081,0.6023723309959915,1.0354173372165303,1.3684341692611843,1.8142864953955273,-0.013459170943522421,0.16723452745068998,-0.8615654013020059,0.4784949845401964
0.34,-101.82957463645323,34.72327697433089,178.40352752817327,0.12299648187378913,0.27753026640668627,0.09193985276693732,0.494546112748207,0.21027466227427782,0.26391633282214505,0.5985201784227606,0.7442273854864275,0.1772481596330603,0.2410216882713062,-88.87969235354643,26.35561188000365,178.60021923952533,0.2109738240850728,0.3094810768802781,0.12399694841109589,0.2898202053061466,0.5953498492445883,0.5633888586680491,0.6906790554963259,0.683276862824689,0.15554091151877264,0.16751842229340244,-150.4513060485119,9.71216703797706,5.241068951678613,0.18779295464650259,0.2720876194257137,0.3028387685497522,0.7452755932833546,1.3288474969687878,0.8238324800398684,-0.06979750031621171,0.0658501982591442,-0.9610892085887267,0.2575423111044462,-123.8250301292491,11.04319151042648,17.003811791539473,0.4555248038190707,0.5404434691269845,0.6681182698400535,0.988801600567551,1.5159265051777993,1.6767185855007827,-0.015545053989042401,0.17503438755041975,-0.8617902213011435,0.47467567557645046
0.35,-101.89691426375518,34.52056091754533,178.35433721417826,0.1446965722557684,0.24646572120001886,0.08155985850231895,0.44798707117879827,0.20633794439272915,0.2776345907226661,0.5982772337011115,0.7450698436198436,0.17598101195584442,0.240108367049343,-88.9949497279653,26.042338672058875,178.7855629504623,0.19940966949192532,0.32481062566513813,0.12638534782939384,0.2986772454901904,0.5741407675605117,0.5508340013956223,0.6906739036185533,0.6840353525245634,0.1545437291140573,0.16456584625250953,-150.60975922671074,9.971380494262748,5.2122030024840615,0.20780630191873692,0.2542411872696782,0.2838369583580036,0.7457506142817891,1.2547290154399866,0.7674867316626901,-0.07212746196515685,0.06618029727540632,-0.9608251705391598,0.25636096913953177,-124.37642261383725,11.680000584121366,17.719198568025252,0.42466424762631394,0.563341636530015,0.7264344457818083,0.9436105899930214,1.649686833783398,1.5272810537171662,-0.018051604290177478,0.1827340988530613,-0.8619184697632406,0.4709249010036374
0.36,-101.9981216746212,34.354688406739314,178.30075428158256,0.16635378007742155,0.22088076260332812,0.07302655766140154,0.41695791933079673,0.20448959010945775,0.2862704578104094,0.5977380321575215,0.7459837503937693,0.17484544164589816,0.2394163631271078,-89.1284163554872,25.704832952642906,178.9360462301768,0.18354103306583305,0.3349253258303777,0.12845332299967668,0.3124328926295461,0.5498796912538668,0.5389517177705971,0.6905971082863462,0.6850711318524465,0.1531407100936179,0.1617657629319161,-150.7549568000341,10.215175595497154,5.116993441778174,0.2297174548453979,0.23266025316103014,0.2694239450706897,0.7460104284045499,1.1642017404774876,0.7110566786417623,-0.07447152439374408,0.06589636746776052,-0.9605511076128831,0.25521486343413186,-124.9147851095757,12.338777054311453,18.41216399457424,0.4005225753570685,0.5762000875073808,0.7731810182227746,0.9003993905106767,1.7618447324914204,1.375992274092178,-0.020841324263822777,0.19027933450936504,-0.8618836348763362,0.46740992753131955
0.37,-102.13432675909159,34.21428460290559,178.25243569170613,0.18693596088888523,0.20094215398673673,0.0667488178281634,0.40157710521115214,0.20527084001457518,0.2895732243111003,0.5969441631502563,0.7469776064822204,0.17383233500804285,0.23883106952920075,-89.2736013869245,25.348277335504164,179.04892810166376,0.16451602422243314,0.3391969092001397,0.12954332375199223,0.3289919971779172,0.523416712493627,0.5271755225187559,0.6904768563520226,0.6863436659049368,0.15137647091014098,0.15916774890374308,-150.8884985672582,10.43737208916281,4.960651788091313,0.2516191169944591,0.2086390330529498,0.2584958560881387,0.7446975598368063,1.0647274999230731,0.6554009795402335,-0.07676379261336412,0.06502356184762449,-0.9602919167652595,0.2540842415534204,-125.42277674825804,13.002736580999548,19.08622649831133,0.38480949958896676,0.5786038584884019,0.804877542324719,0.860454701939774,1.8454253276967,1.2321375233200307,-0.023759687790666117,0.19763951381853867,-0.8616356501811033,0.46426007010742987
0.38,-102.30528143463849,34.08880359059583,178.21811527110586,0.20544979518950324,0.1865669207697876,0.06292774390874033,0.4014335667887427,0.20905322056834127,0.2880881067967375,0.5959406537028713,0.7480579763279444,0.17293003033658186,0.23825048124045603,-89.42368714768199,24.97921915456026,179.1231206637005,0.1436862755087889,0.3373810355968392,0.12906710753100128,0.346061918459671,0.49568424371281433,0.5147415677172107,0.690337294514109,0.687800678475354,0.1493103146811749,0.15681460380504592,-151.0103524510331,10.633526237262506,4.75058622270756,0.2716475156850152,0.18351154445781792,0.24982866448983646,0.7400430611140225,0.9640368960293111,0.6016189181541498,-0.07894637498568838,0.06361453313166357,-0.9600638594419294,0.252966787783267,-125.88796606596452,13.65551754434468,19.746911892170708,0.3781159704541074,0.5709985341867383,0.819064074766954,0.8257636371060524,1.8953023693988218,1.1034918729091194,-0.026647788926253323,0.20480351766699711,-0.8611460996403494,0.4615575250189821
0.39,-102.50926758290328,33.969205817351906,178.20472313563545,0.22100187843021943,0.17738572387397203,0.06155227719224291,0.41546386183883033,0.21597430428842007,0.28298485959350894,0.5947723311605506,0.7492297357878627,0.1721223936959749,0.23759283367550824,-89.57190005138142,24.605130144020503,179.15924340025742,0.12246786280354907,0.3295952961772122,0.12657275880731944,0.3613467989421788,0.4676619076740628,0.5007393386431832,0.6901976877947404,0.6893822138242361,0.14701134417562586,0.15473897569409545,-151.11944785372958,10.80104684856264,4.496065504262037,0.28815115168229116,0.15852701733551405,0.24224750767701628,0.7301565816975364,0.8694291707885666,0.5508914710298873,-0.08097119870099438,0.06174639190431856,-0.9598752156049775,0.25187346928743093,-126.30338132896011,14.28221279505541,20.400643239175544,0.37996871674597826,0.5545926740492285,0.81456920670579,0.7987789613627684,1.9089964222779208,0.9958226396829207,-0.02935569732279168,0.21177468398210345,-0.860410511634043,0.4593342241996589
0.4,-102.74311053249657,33.84856499293089,178.21670287554699,0.2328476463626358,0.17274174889311011,0.06241354013448409,0.4418295947866647,0.22589390769834608,0.2758323649140789,0.5934804940903896,0.7504955979609742,0.1713880488248648,0.23680264762751488,-89.71188735283994,24.233954822271805,179.159529319826,0.10220434319773326,0.3162882392098553,0.12180186346949175,0.37277813638807533,0.4403230122346655,0.484238051050524,0.6900720578939243,0.6910247165928696,0.14455367482535372,0.15296108681515153,-151.21430601346935,10.939121604978915,4.207767024199702,0.29983009210664685,0.13475481020294267,0.23476405403800546,0.7133741094316758,0.7871852073038992,0.5042983922844791,-0.0828007197548574,0.059515490228590706,-0.9597276329899405,0.25082370042344715,-126.66734519900834,14.870338486951876,21.053685397445413,0.3890090358136467,0.5311554966618968,0.7916352639769637,0.7820409340522874,1.8871295780476287,0.9126785397525428,-0.031754941955276866,0.21856585672447204,-0.859447252980884,0.45757512940748657
0.41,-103.00230301771279,33.72251726982843,178.25561832109355,0.24042685427477456,0.17172665906531143,0.06513329184026938,0.47784586766549003,0.23838590918658706,0.2683491939875576,0.5921004770461992,0.7518550697850597,0.17070094726486193,0.23585448661794706,-89.83807589615206,23.873664664955967,179.12760114617265,0.08404773962816642,0.29819921730082316,0.11472848811571959,0.3787452753323407,0.41456537622126705,0.46446863277489175,0.6899692662567807,0.6926648710066029,0.14201203198307627,0.1514877039578073,-151.29359619702808,11.048502059769994,3.897233566878915,0.3058244940562984,0.11302795829362779,0.22667209091390753,0.6885994960921691,0.7221288244369777,0.4626596167061006,-0.08440790556321957,0.05703059652322625,-0.9596179416384251,0.24984070912622108,-126.98265379282321,15.41062000411596,21.711262739518165,0.40325216592505847,0.5027443622542532,0.7518782042279922,0.7777181563963846,1.8334166108286658,0.8554103946358069,-0.03374853461549525,0.22519491073275158,-0.8582932195195192,0.4562272324176283
0.42,-103.28123499928991,33.58947670177707,178.32010014304944,0.24338631223422688,0.17325053329461043,0.06920317521634839,0.520009545084521,0.2527735566905287,0.26216692204543646,0.5906604776929063,0.7533031757262433,0.1700321940115045,0.23475391675778057,-89.94598727335567,23.531837929571076,179.06814961611,0.06887020952622282,0.2763054364141498,0.10557165264712297,0.37828503706551797,0.391141643958761,0.4410224014455175,0.6898934726969885,0.6942431153497785,0.13945796741357477,0.15031242852988183,-151.3565392153978,11.131207168917864,3.57628051941574,0.3057448700191918,0.09392750739387412,0.21759736349133194,0.6555795122622216,0.6773513315790962,0.42644465397126013,-0.08577595512637587,0.05440531676239921,-0.9595401935307838,0.24894772137519214,-127.25529315480719,15.897471219440732,22.37692214893539,0.42037749143281694,0.47141292252835304,0.698092644256599,0.7871261849131191,1.7541931618312046,0.8233418585266593,-0.035277266301735645,0.23168085347458225,-0.8569972236575853,0.45521239599287733
0.43,-103.5735142789856,33.450570106213625,178.40612982911983,0.24159086946120517,0.1761382678277077,0.07403283311820147,0.5641589218804692,0.2682056131701401,0.25864158446648944,0.5891816902423597,0.7548293535561295,0.16935282552227338,0.23353541557396273,-90.03248203316086,23.215286977032516,178.9865555572635,0.057214300193237096,0.2517538935906839,0.09477627863755023,0.37119597939015475,0.37060937042930125,0.41402042782340476,0.6898448791555176,0.6957068041357394,0.13695688076377038,0.14941723964243375,-151.40312741654688,11.190203138572615,3.2564019736113026,0.2996524095383938,0.07780244457216488,0.20750285548214606,0.6150604896314591,0.6541008732812132,0.39577361978291065,-0.08689814259637339,0.051750698080610474,-0.9594876958126287,0.24816519914688512,-127.49296397069344,16.329078298137738,23.052166172622673,0.43800685524163935,0.43895440550688064,0.6339387737526487,0.810291217401369,1.65759202128631,0.8140250736875373,-0.036321600073201274,0.23804044289740353,-0.855612455076474,0.4544415071606369
0.44,-103.87235397662461,33.309285122133105,178.50760813604342,0.23512456901103068,0.17924102989468055,0.0790048554616739,0.6057713497154551,0.28376103959941423,0.2587377392470467,0.5876794811527838,0.7564168716084265,0.16863709151295286,0.23225731128910052,-90.09590741880373,22.929752693433638,178.88850007824894,0.049283683284780735,0.22578085687647392,0.08296416770501716,0.3580597052882559,0.3533153718801953,0.38421831692198305,0.6898206587303598,0.6970129222505409,0.1345659430713749,0.14877503946327034,-151.43418094819833,11.22910441390763,2.9482200152060485,0.28800699131320123,0.06481416933472257,0.1966551713692946,0.5687939430081274,0.6518274664057712,0.37050922852722346,-0.08777794396379061,0.04916880378520948,-0.9594548299850958,0.24750900373099222,-127.70368082425887,16.707068288737297,23.736344605805012,0.45394185352862915,0.40672432472165615,0.5635624001839578,0.8456400782402568,1.552535481969231,0.8235518105539953,-0.03689917735177216,0.24428527582928608,-0.8541894657086562,0.4538274768509415
0.45,-104.17099682837365,33.1708690488313,178.61711903188566,0.22428525723281478,0.18154821365928464,0.0835327364614362,0.6403790242956229,0.2985655766656309,0.26299330335162097,0.5861651404043493,0.7580429557093599,0.16786571905293537,0.2309942330325674,-90.13613144385126,22.67967953169387,178.77960235421602,0.04497021464356337,0.19962558374776465,0.07086345524498261,0.3401721269134326,0.33941691774691807,0.3530339875150473,0.6898159706409736,0.6981301377298474,0.13233292776648992,0.14835280513080568,-151.45129650903445,11.25192253776335,2.661011974087484,0.27159918583188514,0.05499149627795076,0.18556168826645592,0.5193901796588973,0.6683639791852114,0.3504198471166922,-0.08842933009886539,0.046747754284864655,-0.9594384849520992,0.24698914164906172,-127.89464423331758,17.035821237696634,24.426770744537308,0.46634252952427935,0.37556648359377637,0.4912016895382259,0.889899116091877,1.447711357086348,0.846915507527663,-0.037058590494652835,0.25041939917234574,-0.8527708183894195,0.4532952898457111
0.46,-104.46314194626879,33.04155551406431,178.7267831404682,0.2095752075537786,0.18228354153400905,0.08711597066117066,0.6640579656321699,0.3119058036388862,0.27155761759413183,0.5846476788561354,0.7596796179467094,0.16702863516042998,0.22982794883697202,-90.15445975673975,22.46807798465119,178.6651146076019,0.043908322446025876,0.17444572186398305,0.05922880097619396,0.3194021255821693,0.3289300347809171,0.32250526807289615,0.6898249699477297,0.6990399292091499,0.13029589362533497,0.14811489575392978,-151.45675453064112,11.262872083278934,2.4023420809403984,0.25147424465127044,0.04828286963269434,0.1748903264169029,0.4700494780295121,0.7002156102109055,0.33538185905802886,-0.0888769166522319,0.04455843167217022,-0.9594389758334599,0.24660873518315615,-128.07149206279183,17.321544996069864,25.11901520640975,0.47383693917123665,0.34584199243990454,0.42082599258479436,0.938261050621479,1.3506617358403803,0.8784237951284827,-0.03687056135523169,0.2564375604958882,-0.8513880204778108,0.45278822495892507
0.47,-104.74333677155487,32.92772439653643,178.8290939438667,0.19168678103411005,0.18097009858153315,0.08938581379222789,0.6739227815428813,0.32333036075793775,0.28428399191081305,0.5831352237166957,0.7612950521472056,0.16612669315102974,0.22883775682364568,-90.15344605889838,22.296476014230695,178.54969255462203,0.04554518386854037,0.15124105370986754,0.04876425599531811,0.29800077644521134,0.3217862654692195,0.2951896970265724,0.6898417341780648,0.699736606570964,0.1284835974992125,0.14802609667911254,-151.45343306769084,11.266229342431602,2.177818983874877,0.22884925677687865,0.044596347900139936,0.16538244064360602,0.42421745218273454,0.7429290605716533,0.32558282255655063,-0.08915563166816472,0.042652861364794306,-0.9594603703064234,0.24636300126281158,-128.23795165431716,17.571259528366564,25.807319120348073,0.4755581304315903,0.3175396101855093,0.3558380070860309,0.9848307280800462,1.2670683546988992,0.9121533077995467,-0.03641793809164479,0.2623241994848475,-0.8500608385314841,0.4522702055779493
0.48,-105.00729764919349,32.83511149394833,178.9176406200349,0.17147850608742685,0.17745464206758088,0.090136474129878,0.6685461952900672,0.3327280785689416,0.3008515299008056,0.5816357650866039,0.7628554521800914,0.16517209145784503,0.22809169699289297,-90.13661737143535,22.16495668506841,178.43724890526013,0.04921549177450474,0.1307921217303894,0.04005772549998882,0.27838577523492586,0.31787655195366626,0.2740148464629388,0.6898610452507192,0.7002262182827802,0.1269164043987135,0.14805408519061677,-151.44474270542378,11.266231289257997,1.9909957983186963,0.20502480111534177,0.043823423255016127,0.15776571712683593,0.3852160481386814,0.7915148032572128,0.32168465496736137,-0.08930966326169935,0.041064210251015004,-0.9595101977045076,0.2462382535091276,-128.39584783087793,17.79183219209421,26.48506143824683,0.4711160164072965,0.2904317277228546,0.29885774368840146,1.023300167979358,1.2002925234189294,0.9424280543822294,-0.03578591010941897,0.268053227126487,-0.8487986693292906,0.4517248535207738
0.49,-105.25212884158823,32.76817459601495,178.98764143610524,0.14993664921053382,0.1718904375219599,0.08933844243065592,0.648226869221671,0.3403684797326125,0.32088823517523324,0.5801572491308229,0.7643271601526419,0.16418739230314325,0.22763974051827524,-90.10814072299533,22.072275280729013,178.33088762372876,0.05421229907019644,0.11362052442554708,0.033532336490078994,0.26292698260509706,0.31706532585832076,0.262083364507716,0.6898789823620768,0.7005245133876787,0.12560735301176754,0.1481711500986812,-151.43456376463268,11.266999603950186,1.8434209129753047,0.18129751491813959,0.04584767029597727,0.1526717783352349,0.35589956573606824,0.8408953903468883,0.324910994328677,-0.0893905935737178,0.03980827941954847,-0.9595985711818805,0.2462111979893255,-128.54537959908947,17.989175125104698,27.145219215052148,0.4605240509865873,0.26423647774057146,0.25159892126574923,1.0477477974377079,1.15121489259755,0.9642925702290299,-0.0350535324494519,0.27358860914362637,-0.8476033584368902,0.45115216291366395
0.5,-105.4764208894183,32.72969323739799,179.0362413633097,0.12812101425610975,0.16468638259571322,0.0871322720279194,0.615054954975901,0.3468876281339923,0.3440692761325478,0.5787071872593708,0.7656790545884727,0.16320331934212415,0.227509784766392,-90.0724593351651,22.016046103537125,178.23290758386258,0.059848786276138446,0.09997661533110415,0.029417120513619745,0.2537584189255387,0.3191678409521877,0.2624370826447775,0.689893298429898,0.7006542406433104,0.12456301791244294,0.14835516959532613,-151.42714957590786,11.272475851524629,1.734835464365309,0.15888373426858224,0.05054178790399907,0.15056409052560435,0.3383759957245875,0.8863465668703825,0.337035852606507,-0.08945475188581822,0.03888624765845194,-0.9597368078794404,0.24624897719403274,-128.68556110427556,18.16767275097318,27.78077747807763,0.4441079499796446,0.23875278442204576,0.21484149254000157,1.0534234426961993,1.1183949275295975,0.9739445561694685,-0.03428716330341144,0.2788857767769701,-0.8464727115440204,0.4505638007523667
0.51,-105.68022195519727,32.72063719921341,179.06256476939785,0.10709872121854408,0.1564348039409465,0.08380268865463944,0.5727637696613067,0.35320870772728347,0.37017244951158057,0.5772919998260572,0.7668849946432189,0.16225576449474105,0.22770677012156507,-90.03392654238202,21.992988171936364,178.14485735264765,0.06550806459482011,0.0898570940276432,0.02773750557894005,0.2526357374762443,0.3238974746249275,0.277788230231742,0.6899035684281294,0.7006421146341394,0.12378393887787824,0.1485900081755012,-151.42696263265572,11.286357047151297,1.6635000341619517,0.13886286650225885,0.057756692377001186,0.1516834263027299,0.33381810797966016,0.9238888819907224,0.3602676867665502,-0.08955991774030773,0.038288268013978076,-0.9599356837573803,0.2463104092292591,-128.81472593379303,18.329865066269157,28.385070206876943,0.42242127576322214,0.21394806811615408,0.18849386347336228,1.0373800335491892,1.0985244475968179,0.9690901788494102,-0.033535964317186945,0.2838938905119381,-0.8454039313263054,0.44997795538188634
0.52,-105.86488782305145,32.74029437043191,179.06755093647038,0.08787306808859437,0.14783085561494844,0.07973532341341405,0.5263930471759449,0.36040283383191846,0.399084802827456,0.5759162874825967,0.767926002350844,0.16138255808279658,0.2282146784292195,-89.99646567987548,21.999220160742503,178.0676201714302,0.07067891857002682,0.08305054060874638,0.028324810546196864,0.2608468747631181,0.33080408548476964,0.31023252352116115,0.6899111121104132,0.7005157748796238,0.12326463877517185,0.14886557057218494,-151.43842952464846,11.312024363039168,1.6266206093740205,0.1221436484736893,0.06730529289204466,0.15601752963817156,0.34237205319050484,0.9505829204928671,0.39703915242793103,-0.08976158212944646,0.037997414274349155,-0.9602035054626101,0.24634862721554043,-128.93101133456986,18.476379853837674,28.952055517828278,0.39618210581345203,0.18999252430219582,0.17172782905693537,0.9988446309356639,1.0871001304624843,0.949183861329839,-0.032829374030643683,0.2885589422510673,-0.8443963277480684,0.4494144855598279
0.53,-106.03282707281089,32.78661271527725,179.0536263937183,0.07131545675194538,0.13959530637417666,0.07536162787623198,0.4818116314189594,0.3695133667672685,0.4307643228664992,0.5745822045412792,0.768791806461547,0.16062049990938357,0.2290007705123436,-89.96328313508647,22.03059597943205,178.0015102591043,0.07497610975726965,0.07920531128797105,0.030842758370522406,0.2791729423238962,0.33923315729418474,0.3609684772589217,0.6899187061875868,0.7003010277255549,0.12299352366816604,0.14917770728206722,-151.46562703273986,11.352461207289323,1.6208320260844145,0.10945025279977226,0.0789428325658192,0.16329824987411415,0.36315998551205225,0.9646892042814419,0.4497265480124374,-0.0901090382458972,0.037993464206760884,-0.960544217261852,0.24631494931111933,-129.03276594292817,18.606085078513427,29.476540435168843,0.3662327074373575,0.16724535177734828,0.16316336540675824,0.9392756141050531,1.0792025620117713,0.9155126482518607,-0.032176455542087395,0.29282759545556974,-0.8434528821992391,0.44889090038310364
0.54,-106.18716792505806,32.85669039503965,179.0242773421979,0.05810758932333896,0.13241106910446124,0.07110041805290329,0.44515294985776854,0.3813763647427068,0.46516656933206363,0.5732890976925444,0.7694814557213294,0.16000296691864183,0.2300212759804815,-89.93665798440536,22.083070402532897,177.94636597200278,0.07814600242775327,0.07791230541589722,0.03482781044563991,0.307891063363712,0.34833237294388314,0.4300571457962941,0.6899301121867438,0.7000196088244709,0.12295311503415504,0.1495280504229844,-151.51193766172204,11.410160217705657,1.6426868278492512,0.10132059046116283,0.09234582874084124,0.1730250921481797,0.39436796407202995,0.9656765213783662,0.5203340078189121,-0.09064162449286906,0.038256086703614446,-0.9609557816991043,0.2461634671264606,-129.11885723045322,18.71641808536453,29.954374295567053,0.33351582154459747,0.146205289232968,0.16107960848147151,0.8621165689813316,1.0702538337158172,0.8710960797903625,-0.03156708303110341,0.29665155171281865,-0.8425805614606613,0.4484194211149664
0.55,-106.33138186369602,32.94734241107262,178.9835797916826,0.04869951186305759,0.12688108537007,0.06730543290881542,0.42221485503530864,0.396467527102389,0.502151059206774,0.5720335074388052,0.7700028951071849,0.1595582125296008,0.23122780361612613,-89.9178244765151,22.153078480252546,177.9016289046239,0.08006127131397296,0.07879407731549651,0.03973903716001068,0.3468099878461975,0.35711787683352836,0.5162623321534088,0.6899494562175483,0.6996876505603871,0.1231210225545885,0.14992377548868643,-151.5797317334531,11.487022215701442,1.68909276453797,0.09810753587406575,0.10709266877387573,0.18451114588381776,0.4334077351736873,0.9540925991405894,0.6101829638673925,-0.09138547751862212,0.038767142517961,-0.9614290723309447,0.24585563066885094,-129.1888845694436,18.803839700174365,30.382627533220976,0.29905816981635913,0.12744064065288746,0.1636295596234876,0.7723162177991804,1.056638735781757,0.8204052317366509,-0.030974902191882307,0.299992125627711,-0.8417895905730912,0.4480050987952174
0.56,-106.46890443018097,33.0556763095228,178.93573257016678,0.043287066536128786,0.12351023366630799,0.06422663674317154,0.4178779839428841,0.4147959821922353,0.5413867046012343,0.5708095048791476,0.7703715905612675,0.1593083253960328,0.23257385818706663,-89.90695406688265,22.237905350355867,177.8664000454679,0.08071010963174931,0.08159056105615546,0.04501245040963998,0.3953289797502807,0.3645932787826591,0.617009357394806,0.6899805058410785,0.6993149916380453,0.12347185656454256,0.15037728476335294,-151.67013858813257,11.584254813741481,1.7576480755174997,0.09997612051646908,0.12265042345226816,0.19694636976181087,0.47713907227008723,0.9313349053803578,0.7196445447867397,-0.09235116280538498,0.0395119822087868,-0.96194748909712,0.24536406157999702,-129.24332035176042,18.864360494457973,30.759765505601894,0.2639527252640377,0.11151385888885858,0.16903706822751438,0.675722036988631,1.0361147963823838,0.7689446227390913,-0.03036185063410497,0.30282463861618986,-0.8410920868361778,0.4476447952627167
0.57,-106.60279349032582,33.17961771802307,178.88462700667895,0.04181033627724748,0.12270825195453167,0.061989507783827356,0.43560405183260403,0.43585429441798373,0.5822755698528942,0.5696092361834372,0.7706084238164121,0.1592687379788084,0.23402092724308307,-89.9032334710459,22.336017326373874,177.83946711768442,0.08018447357978903,0.08623048315984193,0.05011435791685428,0.45250844897791126,0.3698971973156753,0.7284885813273009,0.6900258970781626,0.6989054108258883,0.12397999216380436,0.15090585575608698,-151.7829567624391,11.702284320768674,1.846841678821289,0.1068950437889528,0.13837366302486837,0.20947241049502244,0.5221389575048703,0.8993671013866341,0.8479446034307432,-0.09353252101712005,0.040479801232238405,-0.9624874447947801,0.24467495427431246,-129.2836003524764,18.89409314368574,31.085815963985304,0.22933450365066962,0.09891351996891935,0.17575549463959714,0.5784620239423385,1.0079904457941835,0.7227618610808484,-0.02968383549857583,0.3051422220059717,-0.8405004680742806,0.44732683176019183
0.58,-106.73545941385639,33.318335779967896,178.833479804684,0.04397298133428699,0.12480688652574673,0.060592757124407835,0.4770771345800707,0.45862834483274595,0.6239078951158902,0.5684235227878027,0.7707371482452398,0.15944815773155183,0.2355436160111312,-89.9050256334674,22.44732225208499,177.8193038669945,0.0786694620053172,0.09287756067337659,0.05458852065358549,0.5171391718716264,0.3724442017208366,0.8459085524662491,0.6900863708884021,0.6984577593298071,0.12462281620471989,0.1515313371012862,-151.9167239588445,11.840699793400393,1.9561107769526587,0.11862617660338279,0.15352086122355407,0.2212606089351703,0.5650039318193527,0.860421393828039,0.9930647996193218,-0.0949069824311759,0.04166326359563027,-0.9630197682513009,0.24378871015588738,-129.3121692882802,18.88979510155679,31.362515886537988,0.19634862470619166,0.09000260000736165,0.1825704189785463,0.4864056251866207,0.9730977331572646,0.6879425763292518,-0.028897009323412708,0.30695863949665997,-0.8400259249002032,0.44703122839815757
0.59,-106.86849104718497,33.47252899733591,178.7845508009734,0.04928093917528474,0.13008370093608015,0.05992208599407121,0.5420383631546106,0.48167138674210797,0.6650532307013932,0.567242381785391,0.7707817116532115,0.15984881898281728,0.23713331611129862,-89.91009227642554,22.573328302613955,177.80405179291097,0.07643368004206416,0.10194320787794688,0.058092691142304566,0.5877994437132997,0.37202311349372774,0.9638765667561072,0.6901600824313405,0.6979677805281632,0.12538389995463645,0.152279976054576,-152.06893190677062,11.998249301137616,2.0857725774371247,0.13471850223379064,0.1672913777146527,0.23158205788129704,0.6026673007206886,0.8167210325178373,1.1517596521355735,-0.09643744342100426,0.04305770663273736,-0.9635119245605293,0.2427188210370728,-129.33246802736508,18.849374518923735,31.593412166273996,0.16611248210174484,0.08498745828683861,0.18863683141145382,0.4047543660706758,0.9336078487745832,0.6701259421493925,-0.0279639887051139,0.3083097867045555,-0.8396770914375304,0.4467306152363178
0.6,-107.00258733785569,33.644544544064004,178.7389621885663,0.057097637917768534,0.13878606821686973,0.059776106087222246,0.6283386670141975,0.5032467207723549,0.7041881945906829,0.566055357447032,0.7707637275247011,0.16046700265203268,0.23879999043958802,-89.91585019003395,22.717177611250875,177.79150371680444,0.07381925144221634,0.11406311752247443,0.06042124038733607,0.6628964029025972,0.368828232370436,1.0768571814622139,0.6902420470151688,0.6974302019657227,0.12625553652716928,0.15318241568179883,-152.23634192616794,12.172903621311407,2.236862495998767,0.1545124966312501,0.1788812051042387,0.2398591524456003,0.6327001376176401,0.7702573079227699,1.3197014890515453,-0.09807557499308744,0.044660266198500505,-0.9639307889804001,0.24148935687485254,-129.34883705826812,18.7723355412961,31.783885476390136,0.13967512539111396,0.08390832747687724,0.19345424026541247,0.33777260223845873,0.8927330940171481,0.6740576408194272,-0.026859330192304656,0.30925362323350575,-0.8394589315207772,0.446391987962122
0.61,-107.13758853198675,33.838318835770494,178.69662896151667,0.06671158388720314,0.1511502909517041,0.05989992841028067,0.732202601763816,0.521534849465762,0.7395619149313115,0.5648516206974626,0.7707003255023361,0.16129382311176113,0.2405718861283377,-89.91962936470006,22.883545226781752,177.77911202371865,0.07122977526528888,0.13004210281791992,0.061512062525254214,0.7406953107794402,0.3634201739310833,1.1796400016958022,0.6903237825813932,0.6968405776839256,0.12724027861773088,0.1542738019727709,-152.41534363852085,12.36199177889381,2.4109161389925564,0.17715818360673652,0.1875504984413776,0.24569306137641703,0.6535497871535877,0.7226547244779724,1.4917467938239788,-0.09976620275326306,0.04646919493802874,-0.9642456023795805,0.24013160399124348,-129.36631464341912,18.66013590904253,31.94107103206139,0.11797689186336414,0.08664994515147134,0.1967960707974954,0.2886414545842103,0.8543472906150074,0.7031901487936841,-0.02557362069172344,0.3098684629118608,-0.8393717948835879,0.44597941354931897
0.62,-107.2725857080206,34.05914372588502,178.65630163089025,0.0774108696519913,0.16741237339455126,0.06002159766283709,0.8486649183669658,0.534883594434513,0.769302528731649,0.5636199210670272,0.7706025457682394,0.16231631524881596,0.2424932852625159,-89.91890081319971,23.07841245785961,177.7640400445456,0.06911427631576009,0.1507771198646289,0.061438081060433455,0.8193451549757513,0.35663431724904376,1.2677464693206353,0.6903931985939815,0.6961964087628133,0.1283513874852295,0.15559380885620722,-152.60230305896337,12.562398449962657,2.609728935123117,0.2016468154423897,0.19269286829513302,0.24886790306612025,0.6646655912728019,0.6751448547340267,1.6622915507676088,-0.10145225311113974,0.04848349185010811,-0.9644307667223586,0.23868040236014915,-129.39032624279156,18.5164234356752,32.07366340312376,0.10181196088787232,0.0929694312575385,0.19861677681701698,0.2594066397762309,0.8225563301356084,0.7593439724405561,-0.02411566585965022,0.3102497559777021,-0.8394105826113979,0.4454575623150854
0.63,-107.40607636352092,34.31328132639952,178.6157117805038,0.0885576674000098,0.18780937862912783,0.05988664053489498,0.9721130936310955,0.5420619082576896,0.7915675465181994,0.562348609288094,0.7704743692560347,0.16351884824577648,0.24462065347981338,-89.91144693433854,23.308741574174153,177.74326377984067,0.06794495085186451,0.177170811656757,0.06038617367564245,0.8969091070304146,0.3494657542874355,1.337725118527035,0.690434764267535,0.6954972490888134,0.12961230309524904,0.15718628871390275,-152.79386017425213,12.770799359724,2.8351193422220518,0.22685413858043735,0.19389672161293106,0.2493362874712634,0.6664798752713402,0.6286423561486862,1.8256588072489774,-0.10307974275027379,0.050702776762887834,-0.9644682893589007,0.23717061734330036,-129.42628565981076,18.34711452953726,32.19161014166605,0.09179638972129073,0.10253660754153977,0.19895944296659177,0.2509887343616477,0.801259065955126,0.842455304941689,-0.022512479199665675,0.31050567323080064,-0.839563980797924,0.44479566834826856
0.64,-107.53612941062677,34.60747054814312,178.57179936570017,0.09965411443144696,0.21257326727240214,0.059286974399350816,1.096848358990131,0.5424695731721965,0.8047337732011782,0.5610259820276883,0.7703124030297995,0.1648848282231389,0.24701768864982987,-89.89545766777536,23.582091983114655,177.71371683593713,0.06818710769689515,0.21004767452207665,0.05862809730549432,0.9714045110501824,0.3429556293562849,1.3873170472958163,0.6904299646896341,0.6947437611698437,0.13105533191261853,0.15909828232755624,-152.9871499445932,12.983901513223447,3.088711595143901,0.25159285548562926,0.19099181406736485,0.24719112445693017,0.6602488637759312,0.5838877405578949,1.976449571862128,-0.10460233567287534,0.05312721822809196,-0.9643497996758873,0.23563407482115759,-129.47914903237353,18.16028268240788,32.305715323360445,0.08834439325095456,0.11497958026542802,0.19788084057089855,0.26322867878022443,0.7937417402698581,0.9504471327743198,-0.020807075015018554,0.31075190658411356,-0.8398137631207506,0.44397133911594455
0.65,-107.66052641079048,34.94838674059282,178.52098970336286,0.11038972518616753,0.2419209626514311,0.05808214335197149,1.2175752194044365,0.5362600481918619,0.8076100451235365,0.5596410795365018,0.7701061729184974,0.16639853662156007,0.2497498408006147,-89.86954942307473,23.90622478943575,177.67245933847053,0.07026195487795792,0.2500829761853758,0.05648831999900758,1.0408521943954059,0.33809075683305406,1.4155017327469268,0.6903580219462467,0.6939359769301039,0.13271979364873124,0.16137831108131198,-153.1799287972021,13.198652448617478,3.371742807220955,0.27467195185207227,0.18407805507537336,0.24262738229137112,0.64779375025707,0.5416054545257492,2.109799202330033,-0.10598501617880499,0.05575729611535646,-0.9640780123967024,0.23409725311233323,-129.55297436807723,17.965840070055133,32.42718596281083,0.09165577602063053,0.12992648691260622,0.19540347916785425,0.29495165611169094,0.8023417247621423,1.079259578639473,-0.019054387359268777,0.3111061369801333,-0.8401342142068826,0.44297362983191113
0.66,-107.7768568151857,35.34212670773891,178.45948143629948,0.1206609374938505,0.2760436129734363,0.056212478440275666,1.3297528670935914,0.5243499784099751,0.799645870268809,0.5581848505538606,0.769838917768095,0.16804684468763867,0.2528789371503103,-89.83271743817957,24.288742360720157,177.61684556509132,0.07450619461240678,0.2977512083019236,0.054312939073711035,1.1033331805828086,0.3357176874736679,1.4224459608273279,0.6901968214329044,0.6930712630301011,0.13464990899871132,0.1640741466692293,-153.3705936799816,13.41238631719318,3.6848880322912656,0.2949599565463345,0.17353706616778747,0.2358983945343319,0.631197627175319,0.5026297260509885,2.2215177566632645,-0.10720642712655325,0.05859320224538712,-0.9636673663303863,0.2325800183802527,-129.6505388878195,17.77502032022892,32.56716024291787,0.1017166927122166,0.1470341066056342,0.19149722249257584,0.34404669144121175,0.8282046305772357,1.223058583062172,-0.017315879508395308,0.31168260774428364,-0.840491774055717,0.44180497951019315
0.67,-107.8825608738948,35.79379003108398,178.38350880943236,0.13055713687155665,0.31509519525408236,0.053704587414120736,1.429784842694885,0.5083100882124149,0.7811069821897269,0.5566514015250168,0.7694887352749123,0.16982053937777272,0.2564585848736711,-89.78424284125933,24.736801050417654,177.54466551341466,0.08113498290958171,0.3532966581046526,0.05244283420153214,1.157053318584353,0.3364693733918414,1.4093765000074145,0.6899239442443129,0.6921425839827854,0.1368927032597276,0.1672304707180607,-153.55809007764012,13.622882470758169,4.028088525416801,0.3114482574449978,0.16002883030215526,0.22727557031929058,0.6125079040910728,0.4679704024982068,2.3081383578351544,-0.10825948910473421,0.061633701228650306,-0.9631435297505594,0.23109561168565868,-129.7730555592376,17.59970079444103,32.73625602418402,0.1183136798793638,0.16599645537812033,0.18608757402987613,0.40757118824892685,0.8711471491060823,1.3746187654115647,-0.015653528011335027,0.3125871910893077,-0.840845038501406,0.4404818879031081
0.68,-107.97493011241025,36.30721318043197,178.28955440883712,0.14031452448091455,0.35917849913434985,0.05066955550082075,1.5150658800183106,0.49015375461187405,0.7531919432510834,0.5550389533762793,0.7690299024173609,0.17171513119965792,0.2605309284069549,-89.7235818305117,25.256918561714937,177.45424091426864,0.09021515972351021,0.4167247372910945,0.05119310189886825,1.2004193866900303,0.3407035937490356,1.3783914637471457,0.6895176698034106,0.6911375493157406,0.1394961027809526,0.17088689086811082,-153.7417233635265,13.828322023639808,4.400366126699763,0.32331020482497624,0.14447553034921434,0.2170241854897552,0.5934805647972753,0.43881382328017837,2.3669271208098124,-0.10915010873376217,0.06487430409953944,-0.9625416515244677,0.22965189323311602,-129.92001481785718,17.451630684498255,32.94417120449696,0.14105745360371102,0.18653145008682667,0.17908487224456524,0.48189304575553177,0.9296260925836057,1.5258528469761559,-0.014123898987407119,0.31391324843761026,-0.841145262708519,0.4390344408032188
0.69,-108.05108723936958,36.884888761964994,178.17450790813263,0.1502469168804102,0.4083274115904262,0.047294037934543204,1.5839278708848124,0.4720599058391491,0.7180665897985181,0.5533501686324502,0.7684341891206092,0.17373121930443228,0.2651250502749651,-89.65026625748376,25.854875727030976,177.3444650369474,0.10165344948342109,0.48780970317539935,0.050839423365946386,1.2321304362704402,0.3484536104797376,1.33222692945195,0.6889577856561075,0.6900384844667709,0.1425072449534105,0.17507663768810597,-153.92090986574087,14.027138336484755,4.7996114705243995,0.3299521841318486,0.12803323672375722,0.20540563906603823,0.5753939173505124,0.41646728514084264,2.395908376944938,-0.10989406064159427,0.06830468399771568,-0.9619035580812217,0.2282535787718237,-130.08916257593734,17.341648501313596,33.19935460309144,0.1694097035787786,0.20834982022814974,0.1704280956194144,0.5628765044526856,1.000804222050674,1.6684368581031286,-0.01277301786373522,0.3157384548347117,-0.8413374976217005,0.4375048708567591
0.7,-108.10797303987059,37.528072911354,178.03578307519868,0.16066715265743037,0.4624872573487331,0.043824716031058364,1.6355260070158868,0.4560821809244208,0.6787948343042692,0.5515916677111724,0.7676720086709932,0.17587463861922384,0.2702569237549804,-89.56384339381295,26.535691589982594,177.21478712852922,0.11520051829470405,0.5661122179367102,0.05161019208065001,1.2512859706513957,0.3593949300260787,1.2740050617289347,0.688226032700886,0.6888234960665316,0.14597089156360527,0.1798259894423758,-154.09491931009345,14.217768679363859,5.22234402389079,0.3310540024758026,0.1120507415389161,0.1927068593920905,0.5589529632330883,0.40225817479295617,2.393936931134083,-0.11051239180599817,0.07190538515287186,-0.9612743454891735,0.22690497406688662,-130.27661100148012,17.27897427958912,33.50874895839089,0.2027051257486268,0.23111539002653272,0.16013651145489752,0.6461055614489172,1.080700648985675,1.794461086334677,-0.011632634010315269,0.31812258999585447,-0.841362440145902,0.4359453197205453
0.71,-108.1423681113497,38.237052624701846,177.87141131806408,0.17181245456189656,0.5214967770436222,0.04054731701925269,1.6696935243192421,0.44389878825538004,0.6391501868250178,0.5497727540234086,0.7667133113385277,0.17815661955478382,0.27593052936276014,-89.46387805008108,27.30363666264145,177.0651539766996,0.1304681257174858,0.6509991305573257,0.053681370097917507,1.2575095314789368,0.3728382418338388,1.2069980128034798,0.6873060353011562,0.6874682969482185,0.14992778117216032,0.1851542070296257,-154.26266087565176,14.398326462861558,5.663455506654596,0.32659774745596715,0.09801409372244431,0.17928511543995898,0.544292855110131,0.3973981744122725,2.360821508514889,-0.11102588554587794,0.07564402735340536,-0.9606988692160122,0.22561260223882437,-130.4770626407241,17.270648800143643,33.87759166231714,0.2401635304481142,0.2544078819472828,0.14836088431319103,0.7271279647220927,1.164418409109134,1.8970291957736278,-0.010718263812938222,0.3211061406298466,-0.8411589977746092,0.4344149623724107
0.72,-108.15097397062907,39.011516070576405,177.6801236112462,0.18378382267307602,0.5850750249777247,0.03776188495886039,1.6867847659388047,0.43664356017000494,0.6033087702676009,0.5479035097551421,0.7655282359812721,0.1805940400721664,0.28213964487648224,-89.35003181231842,28.1622461279791,176.89592855240483,0.14695466703038026,0.7416590416913944,0.05717019046664722,1.251080981317464,0.3877622926519665,1.1344373784733834,0.6861826301270181,0.6859484505909447,0.15441276997731532,0.19107365333648899,-154.42255146441474,14.566225296457691,6.115963466686732,0.3168862105378894,0.08747548202993252,0.16560786342038492,0.53107079419407,0.40282562205210926,2.2974824115647356,-0.11144922327798333,0.07947137221523617,-0.9602185265492211,0.2243871494724924,-130.68411430859396,17.321169509933362,34.309251632584036,0.28089205297380243,0.2776985627085985,0.13542526302729335,0.801699305218738,1.24644747102742,1.9707363579140376,-0.010029106587329625,0.3247094842873761,-0.8406674633887025,0.43297672854316854
0.73,-108.13057153837002,39.85095015961686,177.46141824452,0.19650644487597918,0.6528151043226815,0.035755884361212,1.6875263315641043,0.43483452286572766,0.5754508116072352,0.5459924598286193,0.7640876743973879,0.18320960899966102,0.28886989047470446,-89.22222157445421,29.11430290789756,176.70780609435698,0.16407439003466956,0.8371106338543803,0.062124917059220235,1.2330616902001263,0.4028965484160691,1.0593810851981147,0.684840626625486,0.684241698682287,0.1594526790106075,0.19758984957577658,-154.57248399868064,14.717796287082828,6.570816939177206,0.3025527083983899,0.0819664327156367,0.15226664346636556,0.5186191577829078,0.4190445274311598,2.2061141992840256,-0.11178550564216054,0.08331777265878307,-0.9598685684246869,0.22324432256427654,-130.89060061511495,17.43234721148296,34.80508642709243,0.3238825888434267,0.300346636382302,0.121852324009899,0.8660113202699666,1.3210401510000798,2.0119791823645223,-0.009549661523369037,0.32893246842770285,-0.839833077380724,0.4316939654400636
0.74,-108.07826403503181,40.75498811832086,177.21559732974904,0.20971582056657082,0.7241849797775302,0.03477648068587413,1.6728985307411872,0.43839260492295246,0.5593215442365724,0.5440439888419496,0.7623640125898523,0.18603161360047915,0.2961007557077392,-89.0808442681161,30.161775778833658,176.5017427357514,0.18118667492357904,0.9362046012157327,0.06851059389104719,1.2053867351394423,0.4168527540599734,0.9846293151060512,0.6832631952587093,0.6823301333349749,0.16506389847089994,0.20470140216135038,-154.70989372813176,14.847947184971646,7.016807822823975,0.28456259218244373,0.08289778375573491,0.13995190657883477,0.5061269478674857,0.4459829827063745,2.0903177604287237,-0.1120217535113123,0.08709065313770849,-0.9596760468623149,0.2222044840487199,-131.08893990812692,17.60338430044342,35.36431918852703,0.36801248768610506,0.32162090319625175,0.10836887544035219,0.9168966130253914,1.3826460604746575,2.01908165576116,-0.009252689993504945,0.3337543287190015,-0.8386096392369624,0.43062742559745654
0.75,-107.9917949939196,41.72364572143696,176.9437478083964,0.2229714268317038,0.7985337065678583,0.03500361717405736,1.6440674783967129,0.4467269776824293,0.5578123465076903,0.5420557239865497,0.7603323009395604,0.18909281352892776,0.3038074678723262,-88.92704008462351,31.305713728119937,176.27890464710532,0.1976233363697069,1.0376227071954975,0.07619350440794002,1.170892230853875,0.4282908899362219,0.9126700612831812,0.6814302268587618,0.6802021022374622,0.17124997981656429,0.21239990784507265,-154.83190682983943,14.949914871747954,7.440645270579787,0.26420318829152467,0.09145194480781856,0.12938905167526524,0.4928210250239518,0.4828945370227007,1.9551623966983698,-0.11212591497472953,0.09067373325184329,-0.9596584239434267,0.22129122193866183,-131.27145412690166,17.831156869718473,35.98395283857369,0.4120570751021052,0.34074680003344937,0.09589108023758255,0.9520069447279059,1.4263795966884671,1.9922582043489634,-0.00910307246285252,0.33913405299948063,-0.8369627422314525,0.42983287504124484
0.76,-107.86991240148926,42.757410279531165,176.64764618360707,0.23569625440007616,0.8751002889438961,0.0365263340511913,1.6023797253808105,0.45885689606992325,0.5726181422041412,0.540016171312234,0.7579719389709301,0.1924282065863302,0.311962660135913,-88.76295587504086,32.54610996550807,176.04063908933912,0.21271372575621422,1.1398788978569194,0.08492862827519411,1.1332475643377729,0.43609248198644185,0.8456341007048512,0.6793170473808241,0.6778537962527134,0.17799959246928054,0.22067003316645983,-154.9355491527697,15.015159775597734,7.827242875429477,0.2430552863936583,0.10847627869243746,0.12124949176750581,0.47812592280445887,0.5283234379790561,1.8071368630505855,-0.11204576689256357,0.09392864901505757,-0.9598228332006219,0.22052920329688766,-131.4306437126252,18.11066960160079,36.6587528952338,0.45472151187238524,0.356974555626273,0.08549013384531448,0.9699600866533554,1.4484788309470202,1.933466450311908,-0.009062085468268359,0.345011435023312,-0.8348721716547891,0.4293594460365273
0.77,-107.71273181003085,43.85717248936588,176.32957802717968,0.24723754933302874,0.9530230868090215,0.03932554837367701,1.5494163751863401,0.4735419070655242,0.6040127940312957,0.5379029347474883,0.755268721114439,0.19607165902306423,0.3205378656960661,-88.59196530692408,33.88175622766549,175.78846316934198,0.22580901590550456,1.241327796443431,0.09435472342187846,1.0967723299912184,0.4395081224809209,0.7852436154610725,0.6768937738813027,0.6752904277800047,0.18528525171705684,0.2294899307072414,-155.0179919044619,15.03344142331135,8.160250178335438,0.2229383130009745,0.13439006748796045,0.11605859688873539,0.46178751670399726,0.5801486888803632,1.6539512345083,-0.1117099294640884,0.096699408923077,-0.9601659820149093,0.21994168968252525,-131.55940707813124,18.43564325558512,37.3813370584019,0.4946971016424974,0.3696616181412119,0.07833938433054173,0.9704428172999464,1.4467032223461733,1.846209852457543,-0.009091651586012538,0.35130911435176027,-0.832333058960666,0.4292487008638502
0.78,-107.52204025629861,45.024013271644215,175.99207838191805,0.25694113576818256,1.0313490223044368,0.04326655515540379,1.4870861566817624,0.4893997957371922,0.6507647908321814,0.5356818060158003,0.7522169129556843,0.2000516562685518,0.3295048787707481,-88.41880266496099,35.310111019861736,175.52406175422462,0.23630760879570384,1.3401855530080289,0.10400124915400297,1.0661333046623804,0.4382525048854959,0.732747680008923,0.6741254353707642,0.6725268361830142,0.19306313644900766,0.23883202271060117,-155.07681256168985,14.993099650408572,8.422834331516395,0.205824699259451,0.16912045623745628,0.11412230557765275,0.44395289101846674,0.6357125534851186,1.5041642917066786,-0.1110310214368614,0.09881979148334218,-0.9606746991142315,0.21954800268197783,-131.65120165003052,18.799188083615046,38.142407350564895,0.5307431415285119,0.37836178912111074,0.07564489825901882,0.9542520710365746,1.420613391431828,1.7353262472182753,-0.00915817626659414,0.35793583455978495,-0.8293555319208066,0.42953428609702204
0.79,-107.30148366948555,46.25887436192689,175.63761434344946,0.2642279576382992,1.109041900453455,0.04810364222147335,1.417723469200096,0.5050008661986228,0.7101966111497696,0.5333069216751277,0.7488209951668136,0.20438660507187537,0.33883696404622443,-88.24957279132805,36.82720532781648,175.24928364161698,0.24368273196532092,1.4345673020124337,0.11331009321788606,1.0459338054030163,0.43253814963274495,0.6888516192890279,0.6709728657994705,0.6695873580904268,0.20127416775351903,0.24866403210696736,-155.11025133448538,14.881548523925977,8.598688467904546,0.19372590282719668,0.21208274373175892,0.11548784076364008,0.42520512784558584,0.6920272760917857,1.3666369047281823,-0.10991078746424773,0.10012342384408639,-0.9613271478338732,0.21936111719534626,-131.70015091812743,19.194510647711603,38.93114824786167,0.5617900512149856,0.3829127335993823,0.07856383626205042,0.9232587973909444,1.3716839226669097,1.6067589144337153,-0.009235665308725957,0.3647909998268284,-0.8259628066702319,0.4302420415277961
0.8,-107.05659549619043,47.56215270315528,175.2682447926903,0.26865940810340005,1.1849887049109902,0.053497782999820984,1.3441494866609909,0.5189370995178284,0.7783775094366149,0.5307220788991274,0.7450968058313386,0.20908020913239486,0.34850980117346037,-88.09161087749291,38.427606093061925,174.96612492947054,0.2475117019082696,1.5225439207922111,0.1216727655586297,1.04022668893088,0.4230561839866527,0.6536599629726101,0.6673943347324699,0.6665048968307454,0.2098463397935723,0.25895005318454195,-155.11744536524392,14.685972309105026,8.673213824361781,0.1885604201227379,0.2622156104200263,0.11994495513143041,0.4065520128144835,0.7460414540281527,1.2498451493396328,-0.10824684824170683,0.10045593233896462,-0.9620947260111372,0.21938549291839501,-131.70110860425072,19.61559648910635,39.73579428912279,0.5870539256306815,0.38351179461604246,0.0881174651694783,0.8802889614791589,1.3032193791568745,1.467279940024571,-0.009307904509043502,0.37177043209130073,-0.8221878600368215,0.4313904563504374
0.81,-106.79465133832741,48.93326573562957,174.88530116394807,0.26998067682435023,1.2580035776688085,0.059046807564339346,1.2696516896461303,0.5298752239159537,0.8504289921169327,0.527863161262735,0.7410719542271974,0.2141174721647023,0.3585019922424502,-87.95318218358051,40.10444977880835,174.67668992577788,0.247505212242016,1.6022170525340218,0.12848086114759238,1.0520058693044931,0.4109176376738668,0.626657484488167,0.6633478590638534,0.6633192504038073,0.21869808148524447,0.2696514570519884,-155.09862426552044,14.394196722446974,8.634796201664393,0.19202010705775535,0.31807280791096154,0.12706507046810692,0.3893623434182277,0.7949367780192478,1.1611171292953235,-0.1059405858871496,0.09968827516649462,-0.9629446401001377,0.21961524096163534,-131.6496953998789,20.057810548445207,40.544348921054166,0.6061480534882305,0.3807687217526432,0.10510680539820132,0.8289275302180429,1.2200688268183641,1.3241358391098699,-0.009369571080232585,0.37877306918431747,-0.8180689606305981,0.43299140149948023
0.82,-106.52436684643492,50.37023785314497,174.4891341037303,0.2681371540470374,1.32683101878057,0.06432588530299636,1.1978473680285768,0.5366092142261989,0.9209117869589442,0.5246614340469772,0.7367855175299874,0.2194618456365491,0.3687949772189209,-87.84303125836814,41.849544692613115,174.38312196729154,0.24353459055459703,1.6718058182263824,0.13318493973695059,1.082754024540499,0.39756365639776103,0.6067487592212469,0.6587940925841198,0.6600748513816843,0.22774222006884076,0.28072749591944474,-155.05525148740486,13.995695544611328,8.476077295282149,0.2054531753090596,0.37796223454081856,0.13626791124930618,0.37524255240129434,0.8364182530185272,1.1058790422541598,-0.10290561343859168,0.09773019716174156,-0.9638430583753455,0.22003274772693412,-131.5423243124288,20.518364788148524,41.34541762209491,0.6191742757588065,0.37572480141280523,0.1300388769909342,0.7732608249310543,1.1281616270725288,1.1846079615829341,-0.009426230295299792,0.3857081979448501,-0.8136444402701882,0.4350510756860538
0.83,-106.25548497731022,51.8693565345577,174.07896439484608,0.2632641661998203,1.3901517862643311,0.06893448887463041,1.1324263600400921,0.5381245809569042,0.9842576798309187,0.5210472974736109,0.7322871486182739,0.22505392634528892,0.37937228558128805,-87.76980999671547,43.65352437527701,174.08749871371714,0.23565444600713945,1.7297345859089168,0.13535485759483237,1.1321311688760478,0.3846475407630804,0.5923657957520486,0.6536996308169165,0.6568181282009247,0.23688998787948115,0.2921355597396341,-154.9900963987293,13.48268270722663,8.19511062381479,0.22977919887295456,0.44011446577567687,0.14690009820385225,0.36585721691674467,0.8689579262961592,1.0870079753741657,-0.09907630571861745,0.09454268506965213,-0.9647586059943305,0.2206079219036188,-131.3762269589246,20.99661776153303,42.129103087329355,0.6267770796938895,0.369831340412672,0.1630709731539009,0.7175800143080431,1.0339189551067036,1.0555132799747315,-0.009493248426987013,0.3925026861850937,-0.8089471668710138,0.4375710693585473
0.84,-105.99831337365555,53.42494017185591,173.65286385093404,0.255654919517095,1.44659732468886,0.07254420214597092,1.076806545500775,0.5336765556473264,1.0352142133364715,0.5169540410355021,0.727635771117317,0.230811946452057,0.39021817098893374,-87.74143113426754,45.506022449676045,173.79168894920983,0.2241170857168789,1.7747117726807728,0.13473319790698818,1.1978698099780183,0.3738902297234742,0.5816366028997731,0.6480405117481994,0.6535947253146951,0.24605450503235088,0.30383110712391354,-154.90722185870078,12.851232245022144,7.7962916449094255,0.2654436576144394,0.5028577712405571,0.15830915649196392,0.36271463294721235,0.8919546500763734,1.1043873469660321,-0.09441596071447864,0.09014832597132688,-0.9656657796635955,0.22129827236473043,-131.14948633728952,21.494190191917586,42.88789727473154,0.6301464078287331,0.36488587803771527,0.20397915711233053,0.6660734268921734,0.9436280339843786,0.9427037197879324,-0.009593723878735968,0.39910760602891565,-0.8039992147516909,0.44054941071321635
0.85,-105.76326374364126,55.02925039247464,173.20787170398603,0.24571685733046225,1.4947801266709295,0.07494007188992553,1.0337615508307936,0.5228762955953401,1.0692772249393065,0.5123212469795088,0.7228979592252898,0.23663411226186457,0.40131579710742965,-87.76440609751438,47.395839145421704,173.49717085435984,0.20937430812121915,1.8057942186697824,0.13127330641902732,1.2759030721657096,0.3669129687799249,0.5725896654802565,0.6418056266375572,0.6504468256622341,0.2551532832818743,0.31576732551621167,-154.81187239286334,12.102361096988293,7.290962199375952,0.31240952172663555,0.5647761466206043,0.1698999315321362,0.36695086401975335,0.9057810237978976,1.1547407983445839,-0.08892424131747614,0.0846385822625247,-0.9665477026437823,0.22205004518449428,-130.86107454652878,22.01490006569206,43.61749561263574,0.6309610769975649,0.36293062535066173,0.25215477534820624,0.6225370006227862,0.862881450727728,0.8506421352933435,-0.00975560245592415,0.40550366082702655,-0.7988071978649295,0.44398147657540527
0.86,-105.56041494227625,56.67256997812479,172.740225781844,0.23392976409760236,1.53334491112009,0.07604758422796548,1.0050857441508085,0.5057765888903117,1.0830837721114854,0.5070976699838511,0.7181459439501285,0.24240265655855955,0.4126452360294858,-87.84323164807175,49.311083954838914,173.20481497793872,0.19206279818355715,1.8224361492433183,0.1251550890691034,1.3607080428260148,0.3650563939491364,0.5633604574540495,0.6349996744057632,0.6474108126033609,0.26410951067003785,0.32789461083334387,-154.7102508618096,11.243000543845211,6.697609408982281,0.3701753066105276,0.6248307827023228,0.18116709390496227,0.37914627157285885,0.9117037563055103,1.231784766133671,-0.08264354993738356,0.07817719852228626,-0.9673976175608633,0.22280062915902604,-130.51088888478435,22.564537499641563,44.31745566862279,0.6312726812312819,0.3661224139902193,0.30662982711841713,0.5901287529805804,0.7961645956130176,0.7821302620992502,-0.010008199554272524,0.4117049080041207,-0.7933586434962205,0.4478607418261383
0.87,-105.3990891930708,58.34345094308566,172.2456660204055,0.22081530752804276,1.561038030529913,0.075939064596689,0.9913533068420671,0.48294365501049435,1.0747280208510475,0.5012435800382269,0.7134551133052869,0.2479893091631866,0.42418157718133914,-87.97988786030889,51.23930295180093,172.91463858138582,0.1729716658557914,1.8245230803745407,0.11677507615107004,1.445811067780181,0.3692034112461364,0.5523717873752002,0.6276452282350965,0.6445154911825882,0.27285215436550797,0.34016004783023673,-154.6091786223184,10.286770715861085,6.041605662538297,0.43780634664984674,0.682432242883013,0.19170470503395493,0.39920175775829997,0.9116840184747484,1.3266991150905516,-0.07566390761876565,0.0709992207246912,-0.9682186780922395,0.22348236632682103,-130.09977661600593,23.150511563221382,44.99162790101615,0.6333385418752278,0.3765852810732803,0.36612958839802834,0.5711823593638783,0.7466263650026783,0.738238756497243,-0.010378399843006057,0.41776036722400317,-0.7876196632582443,0.4521794300414406
0.88,-105.28741940050817,60.0291155422212,171.71976380370674,0.20691872141684167,1.5767846561407437,0.07481777339263013,0.9918100906852891,0.45549030766892273,1.0439579383280149,0.4947326573140463,0.7089009796804198,0.25326180216685845,0.4358934010428813,-88.17350115982785,53.167621853938854,172.6255422447796,0.15299412995353107,1.8123898708660922,0.10671149224055691,1.5243811865935921,0.37962982639867676,0.5384721543125333,0.6197834820375812,0.6417810533308506,0.28131517901258196,0.35250719437546696,-154.51564533291796,9.25446244739821,5.354465865776916,0.5139693301774513,0.7374576947655938,0.2011990656007103,0.42629496137776696,0.9080846849831599,1.428876466086166,-0.06812579771849037,0.06340538968630395,-0.9690218956517193,0.22402776647147188,-129.62953624102428,23.781407119854887,45.64829938243238,0.6394198285976452,0.3962563388343767,0.42914914396809095,0.5670794416290338,0.7160190214261547,0.7184499232649907,-0.010886839932552298,0.42375321364657415,-0.781534051682843,0.4569291412309913
0.89,-105.23190087033353,61.71597096082554,171.15824631141524,0.1927962732659939,1.5797609765867067,0.07298359327384155,1.0044100190458092,0.4250384987839764,0.9922178664902371,0.48755357371021174,0.7045557941050126,0.2580910050579135,0.447741750945104,-88.42021142418541,55.08294427608484,172.3350456791056,0.13306901398397103,1.7868209934723984,0.09566911993166186,1.5898337982414734,0.39590845475189307,0.521024005310365,0.611473336421449,0.6392189152556077,0.2894363152084066,0.3648765143889341,-154.43626902140065,8.17412765123704,4.672629479982958,0.5969670996525086,0.7902130665730949,0.20941250582607404,0.45893004902547274,0.9033249184616856,1.5268766955871307,-0.060220364044526596,0.055751935716025,-0.96982241442068,0.22437591706488888,-129.10288112412115,24.46649013392538,46.30001142700535,0.6515660452232458,0.4267348709161497,0.4940489784459842,0.5781689617702935,0.7047647215394836,0.7209766683594416,-0.011544395188613887,0.4297973937079211,-0.775023833044543,0.4621014836084327
0.9,-105.23694901682387,63.39018353763527,170.55730819116562,0.17900174553529635,1.5694529619928066,0.07078830307724232,1.0259822394831415,0.3935901555623567,0.9225184709306069,0.47971138511742684,0.7004851332362153,0.26235828173882575,0.4596795938328036,-88.71326323357958,56.97223404576431,172.03904742622407,0.11412051929657151,1.749031140353199,0.08441167673427377,1.6363774927466275,0.41688986969704855,0.499936288234865,0.6027886456476731,0.6368324711697808,0.2971557858659791,0.37720669487292574,-154.37670539471023,7.0806879545777335,4.03580967461055,0.6847782957920002,0.8413448095480431,0.2161637053607838,0.49508299972607456,0.8995278665643325,1.6094865532984155,-0.05218637607908777,0.04843605244225865,-0.9706345505717285,0.2244796071151882,-128.52335052584158,25.215196509907678,46.96303829703567,0.6714097493168989,0.46914450977064215,0.5591633190601994,0.6037228370157518,0.7120992316065798,0.7431736494473922,-0.012349279336533809,0.43603167811723453,-0.7679911886042472,0.467688690871337
0.91,-105.304507647364,65.03825436448247,169.91391888695844,0.16606898494964928,1.5456996958774314,0.06858954202776985,1.0525039264854712,0.3633130189553689,0.8391381068558958,0.4712287944324999,0.6967447891829759,0.26596263959145633,0.47165168774181504,-89.04332078316068,58.822887452747814,171.73164027510987,0.09700558909762695,1.700624729577139,0.0736906222466184,1.6594585001325413,0.44077564669226826,0.4756407110613901,0.5938136217142326,0.6346187020444679,0.304415279842908,0.3894368679891063,-154.34106662786422,6.014993504336483,3.4849917032889652,0.7751124920772957,0.8917115337170494,0.221307276693848,0.5324247804483274,0.8982092502261125,1.6667702523993218,-0.04430349991604807,0.04187760317375012,-0.971466213776032,0.22431237955843847,-127.89515355889009,26.036634039095215,47.6565461383905,0.6999963317989187,0.5240177790259899,0.6229138903805128,0.6419301413141689,0.7362477710578829,0.7819261527955411,-0.01328501349164294,0.4426113950456464,-0.7603216054487045,0.4736841992312488
0.92,-105.4337612830796,66.64754334308884,169.2261369974113,0.1544909866312136,1.5087227592159764,0.06671115979859792,1.0794527833071759,0.33627654049989725,0.7471864009869621,0.46214726532880473,0.6933781926812619,0.2688272080617599,0.48359480823498885,-89.39898546560102,60.62317642715946,171.4050177926724,0.08247627658973712,1.6435328860315002,0.06417870557453303,1.656081935333994,0.465286275796752,0.44902083184663016,0.5846365694375782,0.6325704912258563,0.311157363450213,0.40150953841616555,-154.33142778889467,5.022300563592914,3.0602063395747234,0.8654942559157266,0.9422316095939884,0.22471485714215939,0.5685843282245928,0.9000558351937721,1.6909988412184171,-0.03688163503479888,0.036497949600288355,-0.9723134285518646,0.22387448450789413,-127.22293243246385,26.93912092745226,48.40148660637042,0.7376720534611935,0.591210473732784,0.683921697219149,0.6899517460272432,0.7746005525200974,0.8339137474931465,-0.014319416704986572,0.4496983453461176,-0.7518879724156562,0.48008317343757934
0.93,-105.62099890508273,68.20669922874556,168.49343422106278,0.1446976597448153,1.4591422751801215,0.06541493851190294,1.1022079951879338,0.3141875190502937,0.6520852026132915,0.4525279091103504,0.690414483064067,0.2709045766605944,0.49543836365158767,-89.7674748638336,62.36272341985513,171.04950563638235,0.07115989745794976,1.5799265870509422,0.05641478287576764,1.6250075651201816,0.48790860799768526,0.42131050897141836,0.5753423749892463,0.6306794494876309,0.3173254756998016,0.41337386240607293,-154.34750454139595,4.150188610796838,2.7982480362264344,0.9533870262521474,0.99372686808342,0.22626235080942655,0.6014039492879997,0.904837222672324,1.6773633077472527,-0.030246402799176404,0.03269718823042358,-0.9731556900802149,0.22319665434122793,-126.51143245742286,27.92977971392576,49.21931318021974,0.7840469354338426,0.669851465544108,0.7411100261960074,0.7440704510137732,0.8238760793464631,0.8957048840843016,-0.015404603123859243,0.45744962801544936,-0.742555225527188,0.4868829732964191
0.94,-105.85965782085259,69.70596646641539,167.71701304039826,0.13703528815238952,1.3979773344214905,0.06488567586617752,1.11645785198488,0.298174188907143,0.5590349386972003,0.4424520139245843,0.6878672602278063,0.2721805672988664,0.5071054583353617,-90.13540258334807,64.03295556963107,170.65374451450543,0.06355373381210819,1.5121062886301189,0.050764368030741275,1.566823413147723,0.5061931781749932,0.39397705506253616,0.5660045267728467,0.6289389915283655,0.32286461583744525,0.42498884985807145,-154.38657290859098,3.446004283876634,2.7305441175324443,1.0363587786125301,1.046783344990815,0.22583037828591204,0.6291474790365964,0.9114751347974233,1.6244015726997743,-0.02472131164475887,0.03083149432213078,-0.9739528232513419,0.22234083942705432,-125.76507000744269,29.014203980927004,50.130634403900515,0.8380368787093012,0.7583330655535208,0.7937912760473126,0.7999648439803041,0.8802802593264435,0.9637133116122036,-0.016477755669179805,0.4660062454259108,-0.7321850457637511,0.4940835232790243
0.95,-106.14055138005604,71.137356289954,166.90007897783204,0.13175089581214372,1.3266267815678188,0.06522917713212,1.1185719687662945,0.28865624265994455,0.4725327546715732,0.43202098933105526,0.6857340138064706,0.27267609909445967,0.5185144373792265,-90.48958348572037,65.62748101542799,170.20504158781074,0.06002620025339315,1.4423719758374045,0.04739842249206327,1.4838947515648404,0.5180628386805549,0.36859690505496173,0.556677802254575,0.6273472892397166,0.3277227691594141,0.43632602265181136,-154.44367093651152,2.9539961967674055,2.88139869328617,1.1122775504823126,1.1016472887037083,0.2233237955828014,0.6506393162118121,0.9182631827947003,1.5340949634450585,-0.020607654099924815,0.031192609508279363,-0.9746438641079441,0.2213974957048312,-124.98740033236543,30.196216176104556,51.15393411123056,0.8979748558697636,0.8543476900592696,0.8417271963067159,0.8531048180732117,0.9396783860511423,1.0340944112285086,-0.01746225021750843,0.47548241016061515,-0.7206400462858378,0.5016875016202592
0.96,-106.45226342107989,72.49468993430725,166.04801060033316,0.1289839787568394,1.2468268645415177,0.06648134154137536,1.1059105601573718,0.28532153724372533,0.3959969095683821,0.4213553669798699,0.683996210320484,0.2724468863941522,0.5295809289271094,-90.81778379408873,67.14233511216136,169.6898964938085,0.06081508223186795,1.3728822187191096,0.046290909992563016,1.380179457933045,0.5220897790145782,0.34672541040952626,0.5473929064696837,0.625909597002724,0.33185305394428843,0.4473710410800015,-154.5120782922404,2.7123813657273166,3.266817955886104,1.1795098320124615,1.1581689753145445,0.21871034962624694,0.6653282722085714,0.9231960189744725,1.41161629798354,-0.01816375990868839,0.033991599017964697,-0.9751482495590236,0.2204795881974864,-124.18050866175433,31.477733010579534,52.30449251517649,0.9617692150565115,0.954976324772444,0.8851484180408046,0.8992248745004142,0.9977928635604812,1.102667117781697,-0.01826863008671329,0.48595644308709257,-0.7077868930108286,0.5097002201045369
0.97,-106.78168310647175,73.77354126976915,165.1683712144999,0.12876664433913973,1.1605840458186902,0.06862600382333167,1.0770554559013157,0.28721099735570793,0.3315349399672406,0.41059242996695233,0.6826200463153883,0.27158080589237166,0.5402204014206464,-91.10934419072947,68.57605859272851,169.094699555744,0.06601639745904866,1.3055150038377188,0.047233616282598485,1.2609048622752081,0.517699777469429,0.32976320217923744,0.538154175781249,0.6246393955866674,0.3352165348682213,0.45812385732041944,-154.58402136753185,2.750643597599616,3.8940612875429186,1.237084203774496,1.215799536745005,0.21207077236678887,0.6732792597669497,0.924340611663604,1.2647475772229162,-0.017585734376504302,0.03934869165423573,-0.9753692906345108,0.2197140307386993,-123.344380220714,32.85874414758881,53.593631314108656,1.027081239610595,1.0568316001327334,0.924719408678742,0.9347978121064336,1.0504276400976547,1.1649324812358344,-0.018795029954119323,0.49746400153510967,-0.6934979732779705,0.5181290083586948
0.98,-107.11465498451679,74.97111633560912,164.27073117379445,0.13103125024575,1.0700836996102026,0.07161879659533452,1.0319444205035717,0.2928943184443469,0.27987382264197486,0.39988216278240385,0.6815579394724482,0.2701929541652659,0.5503512046016965,-91.35562615039217,69.92959094614629,168.40659339825663,0.07556318856946462,1.2417457229690774,0.04986512555053755,1.1321197369639997,0.5052743258345004,0.31882870712292294,0.528941001995679,0.6235578974047599,0.3377856167846479,0.46859712225489847,-154.65150819740006,3.087383957193052,4.7619583662229985,1.2847820569661583,1.2736380786000205,0.20364698529011158,0.6751008863867616,0.9201734015728268,1.103032908237278,-0.018992062173665045,0.04729028495063636,-0.9751995509512541,0.21923169445020346,-122.47634007914682,34.33738966457431,55.028378597377284,1.091494756387468,1.1562528992337908,0.9614427526197766,0.9574212913679093,1.0937089574489143,1.2162369922053617,-0.018926868368546585,0.50999408356211,-0.6776515881008495,0.5269818337441541
0.99,-107.43672324456618,76.08610417260252,163.36631193270566,0.1356220884787612,0.9775789754718193,0.07541371861676194,0.9718826860066883,0.3007035092036004,0.24045112926640677,0.3893815310083188,0.6807508583096045,0.268418716873279,0.5598979355636527,-91.55026230056623,71.20598617792842,167.61448161067588,0.08919944066585098,1.1825578932700194,0.053710245276330906,1.0001629349125893,0.48614124799683683,0.31465373337472013,0.519713022982296,0.622691704929616,0.3395478648478797,0.4788128269640153,-154.70717003010532,3.7290022329807253,5.8619076862329536,1.3231288456012915,1.330518741960541,0.1938744000965799,0.6718213262356153,0.9098182468724708,0.9367792082972038,-0.02241423621405782,0.05775319176186876,-0.9745274473246216,0.2191573053741779,-121.57067823534817,35.91009961487321,56.611607426574935,1.1526567614550383,1.2495434987129224,0.9965103820101858,0.9660456926331977,1.1243277505917484,1.2520955247872643,-0.01853586818011264,0.5234878919852883,-0.6601310595131951,0.5362648218795132
1.0,-107.73394834417265,77.11852171330071,162.46750500961446,0.14230531789709647,0.8852684786978062,0.07998856127621173,0.8994122298297336,0.3089826745173049,0.21164974576010806,0.37924747087789146,0.6801315181075234,0.26640548137418385,0.568794831084638,-91.68922279561014,72.4099801304003,166.71015362702494,0.10645772994192963,1.1283994535330386,0.05822659864041411,0.8711165869859349,0.462463231514667,0.31752083934070907,0.5104185231988254,0.6220687758423159,0.34050998244526914,0.4887974202531119,-154.7449839430725,4.669379788711452,7.179359533611201,1.3532797727443784,1.385122008563695,0.183388825120215,0.6647305386713085,0.8931469901239099,0.776043123630691,-0.027794783087442345,0.0705951361907895,-0.9732442609947648,0.21960049141202614,-120.61857595134609,37.57174495953442,58.34265146164236,1.2083772177826304,1.3332315090792655,1.0311226902242374,0.9610050648818935,1.139770112224416,1.2686424784210872,-0.017478664644152327,0.537840342876662,-0.6408234389673315,0.545978366658707
1.01,-107.99376329099616,78.0695624238567,161.58734216604756,0.15077130885300394,0.7951747063056109,0.08536505057732782,0.8180441972216107,0.3163142318426289,0.1911459583181487,0.3696292357957152,0.6796283201959373,0.26430381336717934,0.5769888055805534,-91.77073426139867,73.54745535392748,165.6894705269562,0.1266491087739298,1.0791919028606658,0.0628557754982813,0.750323097433318,0.4370432217655876,0.3272560728109551,0.5010050273016319,0.6217132260854943,0.3407015621655805,0.4985758577978422,-154.76077658942603,5.890579010323096,8.695516394848397,1.3768167435176215,1.4360935299490463,0.17300594321403764,0.6552139740917348,0.8707399695963751,0.6297358339815426,-0.03499285199322154,0.08560959737074104,-0.9712508532313664,0.2206489422225133,-119.60842162703041,39.31574845908569,60.21834778427351,1.2566855457475516,1.4043290260823895,1.0663035978354323,0.9438521261529472,1.1385201383188848,1.2631310018925366,-0.01559541967471986,0.5529038297658597,-0.6196186265966738,0.5561116693569272
1.02,-108.20581583043563,78.94144641169936,160.73898836458648,0.16062769303400132,0.7090359880075537,0.0916194739930333,0.7318910781949223,0.32169365951485046,0.17633018977919526,0.3606608762196497,0.6791697638917363,0.26225893338526685,0.5844417455788272,-91.79510128733118,74.62485945261682,164.55352440510032,0.1488712453771482,1.034391865930208,0.06707641321811107,0.6420323071586065,0.41306693433628316,0.343279429327758,0.49143081101230307,0.6216397649173709,0.3401781583432505,0.5081652066651402,-154.75245506282837,7.364418859121739,10.388972867869127,1.3954925052668739,1.482156730588047,0.16367801647645758,0.6446058402699507,0.8437379410550687,0.5049433448707746,-0.04379629478660152,0.1025425870950918,-0.9684636235143212,0.22236418781948736,-118.5265530394725,41.13411623996204,62.23440562882515,1.2958498709914046,1.460559476270684,1.1027398403596829,0.9170347583792826,1.1202113829337126,1.234369641655587,-0.012708987451135712,0.5684937634007493,-0.5964097109198521,0.5666358090086692
1.03,-108.3627191513187,79.73725867764233,159.93530179708307,0.17138871889768245,0.6282234685053378,0.09887988642519228,0.6452566897605321,0.32464071861253757,0.16475036472659718,0.3524546590925266,0.6786889693488416,0.26040318072161034,0.5911317394418132,-91.76448132197208,75.64863558539805,163.30965025222255,0.17203788536718256,0.9930964231617293,0.07045558068838392,0.5492116103657263,0.39380312975584447,0.36469981143466035,0.4816759467102728,0.6218486269574425,0.3390232092818219,0.517568568846624,-154.71996032542705,9.054679276909367,12.237067951461524,1.410968039730754,1.5222101251540918,0.15643566252336694,0.6340820307388436,0.8136373563312218,0.4065134096557184,-0.05393830482955202,0.12110903531202047,-0.9648194569853086,0.2247800403810872,-117.35839692481733,43.01737233544711,64.38695496354245,1.3243728686871048,1.5005235276458406,1.1406685004830517,0.8834797838104625,1.0856973539213186,1.1829892339269068,-0.008625246649423185,0.5843953401263065,-0.5710952132885905,0.5774957816900548
1.04,-108.46061970939701,80.46075548370635,159.18846848681173,0.18247268737007902,0.5536924302829762,0.10730723006301719,0.5622437730153462,0.3252480688210336,0.1545214706291652,0.3450961506591804,0.6781279244683672,0.25884988441244944,0.5970530783026031,-91.68265361056599,76.62471979956857,161.97214058037974,0.19493004778959624,0.9541770125016569,0.07269337817152796,0.47351246063139724,0.38228611979661486,0.39042766954043073,0.47175147045021887,0.622321776257964,0.33734832705411594,0.5267701949124688,-154.66497664677536,10.919653457780303,14.216822244005222,1.4245881146388195,1.555404868404024,0.15232215231251484,0.6245960001748927,0.7820823626138503,0.33691459987705663,-0.06511639960039305,0.14100713706344128,-0.9602794790709044,0.2279034268977412,-116.08990851646696,44.95440526974405,66.67409658487023,1.3409831281300122,1.5237801490714684,1.1798295165033912,0.8461651153776639,1.0370170422674672,1.1114703964186141,-0.003135182324374971,0.6003709501152348,-0.5435836222176833,0.5886023082207359
1.05,-108.49949552124502,81.11612273377082,158.50968375371866,0.193220012880857,0.48597401972102383,0.1170601728457037,0.486423458404755,0.3241760134708027,0.14464570836271357,0.3386414412239966,0.6774411019978434,0.2576887658363539,0.602215093476344,-91.55480559963793,77.55814918136927,160.5624976229965,0.21626668931657378,0.9164240969387364,0.0736547450196856,0.41535915925016914,0.3810099799244152,0.41927646264795176,0.46170531325440783,0.6230209913387129,0.33529146912757923,0.5357326764402206,-154.59045199396493,12.91479520550881,16.305452459308306,1.437229375411904,1.5812012717344084,0.15232566109561965,0.6168463459648741,0.7506955340656374,0.29633613492055366,-0.07701173637937236,0.16192999092089172,-0.9548313880741354,0.23171721189927166,-114.70915710606361,46.93226248599713,69.09726011769348,1.3446398950951863,1.5308308960725812,1.2194890945448522,0.8077593704275741,0.9772474211161917,1.0239197206602364,0.00398083576140103,0.6161676623209951,-0.5138001592595971,0.5998245297191448
1.06,-108.48312342128443,81.70768633022712,157.90882908669565,0.20293892524296303,0.42520868039525656,0.12824710752858892,0.42059035030796543,0.32260419387940753,0.1351992988940033,0.33311660954154176,0.6765981750764907,0.2569827856656767,0.6066401279421288,-91.38734166317508,78.45280772518508,159.10906694861168,0.23478988920079988,0.8786867243684926,0.07338310534583355,0.3741197692391955,0.3916659544944703,0.45003635256328134,0.4516238799196555,0.6238882499094973,0.333012550968651,0.5443969431533247,-154.49999258396141,14.995268522910512,18.48056232827732,1.449239997569099,1.599403678821373,0.15731349166052136,0.6112620673340534,0.7209732781109064,0.28297343669601305,-0.08930720925499462,0.18357475100353224,-0.9484900416423603,0.23618463245449406,-113.20787257138639,48.93594923413296,71.66217977709655,1.3345611272216038,1.5230097887065552,1.2585263347558997,0.7703885055041562,0.9102525528927571,0.9256411877032914,0.012946319902848091,0.6315243449948604,-0.48169527343292895,0.6109848761868709
1.07,-108.4186956545191,82.23959566952608,157.3940942868811,0.21097614116265107,0.3712165808429557,0.14087305334084593,0.3666133068194144,0.32214628013968194,0.12736297144987133,0.3285191512542831,0.6755856683783162,0.25676628121898526,0.6103610882378337,-91.18770422458618,79.31131612877418,157.6459399857306,0.24935725701118205,0.8399955840064749,0.07209304786272086,0.3483287738381479,0.4149520838412658,0.4815211253730777,0.4416286499827388,0.6248486185565436,0.33068620952819505,0.5526854129655839,-154.39719539839916,17.118270280630806,20.720178961661286,1.4604735419655723,1.6101715010886068,0.167972359017078,0.608000068099357,0.6942524989634917,0.29343608573271523,-0.1017032818473614,0.20565008717190614,-0.9412959108560537,0.24125505771389477,-111.58276872732492,50.9482987245659,74.37931993157221,1.310273886850143,1.5022945614771455,1.295562974033247,0.7355577690044023,0.8403530565531139,0.8225888977165762,0.023979422613427507,0.6461781735882934,-0.4472540643878281,0.6218572910967435
1.08,-108.31611847889329,82.71551795873441,156.97153076996418,0.2167993384125535,0.32359435931243946,0.15479273652330075,0.3253866949535767,0.32472502395607966,0.12329645602227389,0.32482089258675567,0.6744074730890393,0.25704431414992657,0.6134190261026419,-90.96418981459291,80.13505230970338,156.2110958331419,0.25903216389119277,0.7996617658839937,0.070143002286426,0.33594036866017496,0.4504781419522089,0.5126010613389811,0.4318678721231038,0.6258155951129194,0.3284917302758179,0.5605081283538864,-154.2849805983922,19.245046732038798,23.002826953613894,1.4704045257367084,1.6140032782603346,0.1847591635034622,0.6069609431771429,0.6717333661996383,0.3232201813886394,-0.11393093246647519,0.2278829457850211,-0.933311074433134,0.24687081767644756,-109.83648843663327,52.9499788989494,77.26362320704774,1.2716773595773998,1.4710647405706565,1.3291101928926468,0.7042219808476534,0.7719515109705622,0.720795656565585,0.037281356633198134,0.6598704804703004,-0.41050573618547653,0.6321696277133924
1.09,-108.18707798505015,83.13838721806528,156.64458231577913,0.22007098914725579,0.2818231365156624,0.16968174986804263,0.29688174399299005,0.33240057134991197,0.12587584289302362,0.32197192732089486,0.6730842028360566,0.2577933020137049,0.6158610489534193,-90.72574348507774,80.92427477742486,154.84387063275915,0.2631610021306726,0.7573445801163838,0.06799235713306045,0.33458967981278326,0.49678055857880254,0.5422371212274371,0.4225041951661724,0.6266985327254131,0.3266006141178964,0.5677711978767422,-154.16498567177032,21.34255225717411,25.3078069810142,1.4783011385037022,1.6116934420283962,0.2078654143776059,0.6078339356041246,0.6545273782595987,0.3672002609365148,-0.12576135411075806,0.25002545689463357,-0.9246126629158101,0.25297472483370126,-107.97806127441218,54.91969117985607,80.33351274846028,1.2191049212337213,1.431837058110363,1.3577090812159398,0.676963379379339,0.7091589621702209,0.6258538614509264,0.053022891964096104,0.6723520727153226,-0.37153223034338534,0.641610559787826
1.1,-108.04399718368322,83.5102472245428,156.4136925581481,0.22069290952211515,0.24537114117330802,0.1850343112835054,0.28028534976920977,0.34715000556976255,0.13832449061481863,0.31990524068517595,0.6716514162530473,0.25896312205044497,0.6177386244734264,-90.48172220433237,81.6783119757653,153.58197842487922,0.26142764287908676,0.7130823406799432,0.06614936498572464,0.3418323835406823,0.5514505008254083,0.5695272589564945,0.4136997677847787,0.6274114070785276,0.3251628230657511,0.574386458419895,-154.03708476653193,23.384703906731296,27.6157761354324,1.4834229970238881,1.6042672677879322,0.23719585542053973,0.6101761757190326,0.6436993108881016,0.4201092721284974,-0.13701214624654376,0.27186238740596275,-0.9152840558713506,0.2595176601012147,-106.02281518960844,56.834602160226204,83.60915588672007,1.1533723270296354,1.3870095653976477,1.3800500182689224,0.6542106468796468,0.6554701854830833,0.5424986189701899,0.07132961363858295,0.6833882785845747,-0.33047528179489294,0.649840943733231
1.11,-107.8990217999909,83.83221473234866,156.27610222358697,0.21880881817428138,0.21377598370110926,0.20019008732322258,0.27419803261657283,0.37060827985719774,0.1637763821394383,0.31854174753799114,0.6701568272574489,0.2604808216509858,0.6191061492458814,-90.24162671715816,82.39577785190932,152.45842811811505,0.2538792734341347,0.6672826197146882,0.06511623817189846,0.35533440590363824,0.6113627421552059,0.5937650121153745,0.4056007911159862,0.6278818466581186,0.32429326677760306,0.5802810488695201,-153.8990932467956,25.353178072156734,29.909628223078393,1.4852093650097833,1.5929036707738495,0.27236055135171683,0.6135186034699189,0.6402819700392278,0.4769821917964021,-0.14754972868470156,0.2932188826937901,-0.9054045744093342,0.2664653445893465,-103.99173249671915,58.67103134231327,87.1100854561334,1.07580224152377,1.3386432057626763,1.3950659152387297,0.6364251089391036,0.6135266191620689,0.4743215400177713,0.09226693415340141,0.6927640639628523,-0.28754120815558776,0.6565092611408188
1.12,-107.7631571377005,84.10457167232305,156.22591556835818,0.2147649752878383,0.18669614508219534,0.2143864221650933,0.2768548905022952,0.4037950327796248,0.2048185241379991,0.3177954128520449,0.6686567260535501,0.2622558238988117,0.620019588788585,-90.0148082203572,83.07477814559593,151.49874671187018,0.24092283890019908,0.6206732536256436,0.06533687158003482,0.3729978438870969,0.6729755019621778,0.6144964639221056,0.39832361552028267,0.6280591646755891,0.3240604011872469,0.5854055869589685,-153.74669956972312,27.237694388359714,32.17556842554958,1.4834254223579548,1.5788544319156363,0.31268150406746903,0.6174788177768168,0.6452505892593919,0.5335381487082138,-0.15728774785801125,0.3139675746506278,-0.8950387536495663,0.27380333376048194,-101.91028865048654,60.40539317962507,90.85237186020079,0.9882188851740351,1.2883044499574412,1.402000790988136,0.6241961374478247,0.584986704451028,0.42362658124027375,0.11582618547127668,0.7002895448477588,-0.24300276030092405,0.6612704577540974
1.13,-107.64564097115539,84.3269761904814,156.25445318734424,0.20904105906924678,0.16392728520953342,0.22682783658370678,0.28633850743291134,0.446865792488822,0.2630649199380172,0.317578025913452,0.6672118684554064,0.2641862034807584,0.6205350691265277,-89.81016091797282,83.71308302465215,150.71889816678015,0.22329484422059845,0.5742202819776194,0.06715160992411276,0.3930287864430006,0.7326583151667833,0.6315519637630278,0.3919442023438928,0.6279202252917594,0.324478746090695,0.5897398924842221,-153.5736307797697,29.03575400546726,34.404197077073775,1.4782404837716072,1.5633632041721177,0.35721814311232275,0.6218553511687932,0.6594457002793918,0.5864727420215873,-0.1661814750323435,0.3340337214459283,-0.8842264306068351,0.2815394584963199,-99.80686549812835,62.015354496666895,94.84563515570234,0.8929095788889057,1.2369857519504117,1.4004565756062144,0.618221563022899,0.5704999651983446,0.3914218559057375,0.14191337891993847,0.7058060897215711,-0.19719738006264273,0.6638070826727713
1.14,-107.5535884213674,84.49876512652247,156.35084481608266,0.20217050323047023,0.14538510140591354,0.23676225420334704,0.30076438881128653,0.4989366847507849,0.3388150552198964,0.3178031778347627,0.6658830722122203,0.2661653817677749,0.6207074304576011,-89.6358151435614,84.30825740791227,150.12417678388493,0.20200882059054642,0.5290223560378783,0.07076257938850827,0.4139647987360285,0.7870019643086763,0.6450316976098743,0.3864921755884784,0.6274723382111116,0.3255066205859196,0.5932956552282319,-153.3720124948967,30.751848575061867,36.59138666211445,1.4702227895282995,1.547582806407659,0.40481729473764694,0.6266820342083147,0.6834399711634831,0.6336344377765691,-0.17421864069860762,0.3533970449457533,-0.8729748234439593,0.2897033882517625,-97.71089193342385,63.48111811651094,99.09026356968371,0.7925524586499952,1.1851122224297241,1.390418103086161,0.61918687556218,0.5697637460404114,0.37752392322269085,0.17034230576760537,0.7091929899104089,-0.15052134650359747,0.6638511563324955
1.15,-107.49189575982871,84.61930714905152,156.5027700586505,0.19466978249902533,0.13106181578535428,0.243553123235343,0.31842835081821624,0.5580319677198853,0.4308429943230075,0.31838908129662147,0.6647267751913827,0.26808851942692724,0.6205888544701401,-89.49884765680945,84.85775669568778,149.7091860808903,0.17828506125677188,0.48619276572804393,0.07621193895745587,0.4346801696847895,0.8330715058304431,0.6552392823140074,0.3819499160336771,0.6267528606992723,0.3270495529696005,0.5961159577423435,-153.13284605853264,32.396219352533926,38.73876462258604,1.4602505998739106,1.5324892742478544,0.4541903353532741,0.6322359146217623,0.7173631482033653,0.6740687989766276,-0.18140768321367498,0.37208935014640326,-0.8612535377772533,0.2983435509711904,-95.65092392291794,64.78669096177667,103.57522656368859,0.6901118832081934,1.1326323582617603,1.3722522460484166,0.6275871647269909,0.5816365865942817,0.3807380963452425,0.2008334320941464,0.7103744317277303,-0.10341968586917985,0.6612048351221982
1.16,-107.46335210872054,84.68835842133433,156.69723393047906,0.18698999311166933,0.12096743354986796,0.24673845212857456,0.33790957761818785,0.62118774794483,0.5363502658740541,0.31926004124308266,0.6637909091687006,0.2698579733076789,0.6202277113174928,-89.40502491250612,85.35900841298366,149.45884267233558,0.15346679347623027,0.44674079412341305,0.08337395685547622,0.4543811996456478,0.8685768594688884,0.6625761600321094,0.37825640337295213,0.6258256315599544,0.3289689184611221,0.5982719573395229,-152.846511187634,33.98329923787347,40.85368921328738,1.449356264317985,1.5187965393217635,0.504013239481631,0.63901069618934,0.7607217982120379,0.7079289699337012,-0.18776481641379233,0.39018772135637336,-0.8489930862321277,0.30752208098606487,-93.65290849863555,65.92096156793954,108.27679923898958,0.588705507858139,1.0791777556368123,1.3466761800081546,0.6435512108841205,0.6042867300006513,0.3990750229667045,0.2330194040512366,0.7093262691780069,-0.05637240937987772,0.6557578809112057
1.17,-107.46888938480791,84.70637301140255,156.92126658733895,0.17949431386031467,0.11506899154962127,0.24607134674271272,0.358127176860631,0.6847153419414065,0.6510983470044185,0.32034658575788283,0.663111567505004,0.27138739648003,0.6196677528951421,-89.35859210301201,85.80950610098556,149.35021311157834,0.12892683988898318,0.4114641113788033,0.09196052040832263,0.47259804748741435,0.8919543040631729,0.6674228031822895,0.37531492953257917,0.6247747095682973,0.3310946621011767,0.5998572426951936,-152.5032194424012,35.52999442980937,42.948695893385235,1.4385338198027438,1.5068821661329188,0.5530356691316297,0.647676618875583,0.8122627709104715,0.7362679778118626,-0.19330150104779067,0.407803859044329,-0.8360871526445094,0.3173086065404025,-91.73885837911516,66.87841818167308,113.15835849031869,0.4914499239120507,1.0242635826703708,1.3146939035115601,0.666724569706839,0.635361824609324,0.4299716910929711,0.2664570012938107,0.7060819037455749,-0.009878405629696631,0.6475002315735741
1.18,-107.50790326946198,84.6747282037275,157.1624578467145,0.17245643165376146,0.11324026390791438,0.24154073812991436,0.3783548985506117,0.7445926879270965,0.7697154382218094,0.32158445226138604,0.662710976897389,0.2726043079392718,0.6189477369857405,-89.36211631538087,86.20693876742729,149.35491483808246,0.10597044544659535,0.380863062131897,0.1015387372451282,0.48917449624097764,0.9023739301410142,0.6700378528942142,0.37300343378557205,0.6236961676879467,0.33324058504714016,0.6009804841777451,-152.0933863018365,37.05395175854482,45.040470251660636,1.4285480449654377,1.4967371688175282,0.6001760823898574,0.6590406894961254,0.8699253397471257,0.7607454810396062,-0.19801381236864476,0.42507070254659557,-0.822398548121518,0.32777351542578087,-89.92608915777116,67.65939002610018,118.17123835214379,0.40129472780879455,0.9674921964858906,1.2775076805680312,0.6962492553589141,0.6721730328001609,0.4704972726410385,0.30064443497339083,0.7007364693859309,0.0355612887792603,0.6365284891500164
1.19,-107.57859500977303,84.5958382005176,157.4092704676691,0.16607164496075624,0.11523060948626315,0.23337394146520263,0.39820597484580816,0.7969218078362145,0.8861486504038801,0.32291275835067074,0.662597150585723,0.2734511357524138,0.6181015319046494,-89.41638629337486,86.54936779707079,149.4417840881872,0.08574272853758738,0.35508578771275634,0.11155871420866223,0.5042505339115033,0.8997022051526545,0.6705033380911445,0.37118607045365887,0.6226889013281413,0.3352205663280669,0.6017570890028809,-151.60794140847145,38.57192332861485,47.14846076699227,1.419783339484468,1.4879505326569251,0.644575445460967,0.6740056599749216,0.9309105259326621,0.7832927324214211,-0.2018748845775492,0.44212777445276213,-0.8077685886089734,0.3389809909088137,-88.22705752742678,68.26977768187758,123.2565141232037,0.3208575397515735,0.9087202213855748,1.2364173695830802,0.7308503647454021,0.7118910582887614,0.5175321751900008,0.33504237582186464,0.6934485206097333,0.07945937855965098,0.6230457200599858
