0.01,-107.65,77.16,167.95,0.09,0.03,0.13,1.11,0.31,1.49,-101.18,84.17,175.64,0.13,0.75,0.12,0.31,0.84,0.1,-167.88,4.1,10.43,0.14,0.15,0.11,0.95,1.29,0.49,-134.15,3.79,14.29,0.25,0.08,0.28,0.86,0.63,0.0
0.02,-107.52,77.26,167.84,0.02,0.06,-0.12,0.79,0.18,1.12,-101.12,83.82,175.65,0.13,0.57,0.11,1.94,0.27,0.26,-168.1,3.87,10.28,0.2,0.09,0.26,1.08,2.43,0.38,-133.93,3.66,14.45,0.21,0.0,0.18,1.19,0.75,-0.03
0.03,-107.53,77.23,168.24,0.15,0.03,-0.05,1.61,0.61,0.47,-100.91,82.52,175.59,0.03,1.29,-0.05,2.15,0.6,-0.06,-168.18,4.03,10.02,0.25,-0.05,0.21,1.19,2.74,0.33,-133.57,3.6,14.86,0.18,0.11,0.26,2.02,1.15,0.4
0.04,-107.21,76.94,167.8,0.4,0.36,0.04,2.24,0.24,0.8,-101.24,81.14,175.32,0.09,1.48,-0.13,2.47,0.58,0.11,-167.97,4.13,9.84,0.2,0.28,0.56,0.99,2.69,0.97,-133.06,3.75,14.83,0.2,0.16,0.58,1.93,1.55,1.1
0.05,-106.35,76.64,167.2,0.49,0.49,0.29,1.46,0.45,0.22,-101.02,79.82,180.29,0.01,1.42,0.01,3.23,0.68,0.61,-166.24,4.18,9.77,0.2,0.31,0.72,0.92,1.34,2.45,-131.82,3.47,15.09,0.03,0.32,0.66,2.01,0.29,1.81
0.06,-105.33,75.51,166.9,0.64,1.14,-0.04,0.95,0.76,0.18,-101.23,78.58,184.2,-0.0,1.36,0.22,2.9,0.59,0.2,-165.31,4.14,9.62,0.11,0.36,0.89,0.9,0.93,2.68,-130.88,3.47,14.97,0.19,0.19,0.64,1.8,0.21,2.25
0.07,-104.5,74.3,167.24,0.5,1.31,-0.04,2.23,-0.14,0.21,-101.29,76.92,187.46,0.24,1.82,0.07,1.05,0.08,0.45,-164.34,4.45,9.47,-0.0,0.41,0.74,0.55,0.27,3.05,-130.08,3.38,15.22,0.18,0.34,0.85,1.27,0.29,2.82
0.08,-103.53,72.78,167.53,0.35,1.17,0.03,1.86,0.96,0.8,-101.0,74.63,190.25,0.07,2.42,0.07,0.43,0.56,0.23,-163.36,4.68,9.63,0.14,0.46,0.77,0.53,0.19,3.39,-129.28,3.22,14.98,0.05,0.33,0.64,1.31,0.04,3.25
0.09,-102.94,71.25,167.93,0.32,1.52,0.09,0.81,1.53,1.23,-100.72,72.04,192.29,0.11,2.04,0.17,1.67,0.4,0.79,-162.3,4.98,9.59,0.13,0.39,0.64,0.02,0.58,2.39,-128.68,2.97,15.15,0.09,0.19,0.5,0.95,0.37,2.72
0.1,-102.39,69.73,168.25,0.17,1.51,0.02,0.46,1.62,1.46,-100.2,69.69,194.03,0.07,2.3,0.19,2.1,0.38,1.41,-161.5,5.18,9.5,0.18,0.24,0.75,0.38,0.46,1.61,-127.84,3.1,15.16,-0.01,0.12,0.6,0.49,0.01,2.24
0.11,-101.91,68.32,168.76,0.3,1.27,0.1,0.47,0.29,1.85,-100.13,67.28,195.31,0.1,2.24,0.18,0.56,0.07,0.62,-160.75,4.82,9.8,0.09,0.17,0.49,0.18,0.25,1.53,-127.32,3.24,15.07,-0.11,0.06,0.42,0.29,0.42,1.47
0.12,-101.25,67.22,168.99,0.37,0.94,0.09,0.49,0.07,1.94,-99.9,64.84,196.66,0.07,2.08,0.17,0.32,0.03,1.1,-160.48,5.36,9.76,0.15,0.29,0.43,0.02,0.65,2.05,-126.87,3.03,15.07,0.02,0.06,0.32,0.35,0.24,1.82
0.13,-100.12,66.05,168.29,0.51,1.06,0.24,2.03,-0.06,1.06,-99.31,62.42,197.6,0.24,2.07,0.25,1.26,0.42,0.8,-159.99,5.23,10.01,0.14,0.14,0.15,0.39,0.82,2.01,-126.74,3.27,15.23,-0.09,0.03,-0.0,0.33,0.49,1.91
0.14,-99.68,65.08,168.57,0.09,1.4,0.13,0.14,0.46,0.71,-99.45,60.05,198.7,0.05,2.17,0.07,0.33,0.35,0.34,-160.04,5.54,10.21,0.24,-0.03,0.07,0.29,0.66,1.58,-126.87,3.2,15.42,0.07,-0.14,0.16,0.58,0.31,1.78
0.15,-99.27,63.44,169.07,0.03,1.5,0.16,2.07,1.09,0.67,-99.07,57.76,199.14,0.17,2.03,-0.12,0.09,0.09,-0.12,-159.74,6.0,10.43,0.16,0.18,0.09,0.25,0.47,1.85,-127.3,3.31,15.6,0.12,0.08,0.07,0.49,0.24,1.8
0.16,-99.2,62.1,169.65,0.06,0.84,0.12,1.05,0.62,0.69,-99.09,55.5,199.58,0.14,1.89,-0.13,0.65,-0.03,0.34,-159.71,6.2,10.68,0.17,0.23,0.43,0.31,0.64,0.73,-127.26,3.42,15.71,0.07,0.01,-0.01,0.31,0.43,1.63
0.17,-99.0,61.48,169.92,-0.08,0.63,0.03,0.09,0.38,0.91,-98.84,53.68,200.09,-0.06,1.64,0.25,0.36,-0.16,0.68,-159.01,6.24,11.08,0.22,-0.04,0.28,0.62,0.52,0.21,-127.46,3.55,15.96,0.19,0.11,0.12,0.88,-0.03,1.09
0.18,-99.06,60.43,170.14,0.18,0.92,-0.05,0.38,0.63,0.94,-98.63,52.11,200.58,-0.09,1.68,0.07,-0.02,0.59,0.94,-158.5,6.0,11.24,0.23,0.03,0.52,1.19,0.93,0.62,-127.27,3.64,16.24,0.08,0.19,0.2,1.08,0.51,0.12
0.19,-99.09,59.62,170.56,0.18,0.7,0.14,2.25,0.15,1.09,-98.7,50.07,201.15,0.15,1.76,0.14,0.95,-0.17,1.45,-158.01,6.31,11.83,0.21,0.24,0.44,1.04,1.27,1.03,-126.89,3.56,16.25,0.02,0.15,0.29,1.06,0.09,1.1
0.2,-99.33,58.72,171.16,0.24,0.96,0.03,2.06,0.23,0.89,-98.71,48.77,201.44,0.32,1.28,0.1,1.02,0.79,1.56,-157.58,6.14,12.15,0.33,0.14,0.34,1.22,1.37,1.2,-126.68,3.81,16.16,-0.1,0.0,0.19,1.13,0.43,1.26
0.21,-99.31,58.29,171.42,0.11,0.85,0.16,1.27,0.04,0.31,-98.9,47.91,201.64,0.18,1.25,0.13,0.87,0.65,0.74,-157.14,6.18,12.37,0.47,0.08,0.37,1.09,1.11,1.62,-126.56,3.85,16.22,0.13,-0.01,0.2,1.26,0.33,1.29
0.22,-99.32,57.98,171.6,0.0,0.59,0.07,0.74,-0.03,0.19,-98.95,47.37,201.65,0.11,0.94,0.33,1.01,0.57,0.22,-157.09,6.17,12.7,0.36,0.08,0.35,0.93,0.9,1.54,-126.44,3.86,16.4,0.21,0.28,0.19,1.47,0.23,1.29
0.23,-99.56,57.18,171.76,0.04,0.36,0.06,0.51,0.02,0.43,-98.82,46.04,201.85,-0.05,1.36,0.16,1.48,0.5,0.4,-156.87,6.35,12.98,0.4,0.16,0.22,0.91,1.12,2.04,-126.22,3.97,16.57,0.21,-0.07,0.08,1.49,0.12,1.4
0.24,-99.67,57.03,172.07,0.29,0.3,0.19,0.74,0.36,0.61,-98.64,44.99,202.28,0.16,1.23,0.27,2.12,0.04,2.07,-156.7,6.35,13.48,0.24,0.08,0.0,0.77,0.24,1.83,-125.96,4.27,16.78,0.12,0.15,0.02,1.63,-0.0,1.44
0.25,-100.15,56.42,172.2,-0.05,0.41,0.22,1.5,0.88,0.55,-98.81,43.92,202.33,0.06,0.7,-0.11,1.51,0.7,2.08,-156.8,6.49,13.89,0.3,0.21,0.19,0.55,-0.04,2.06,-126.04,4.42,17.09,0.32,0.04,0.11,1.06,0.03,1.5
0.26,-100.09,56.15,172.22,-0.09,0.29,0.28,1.91,0.89,0.25,-98.52,43.12,202.72,0.16,0.45,0.04,0.84,0.31,0.58,-156.3,6.45,13.97,0.29,0.01,0.18,0.99,0.12,1.86,-125.93,4.55,17.28,0.03,0.09,0.16,0.62,0.23,1.54
0.27,-100.06,55.88,172.17,-0.03,0.06,-0.12,0.79,0.46,0.48,-98.76,42.48,202.96,0.19,0.65,0.05,1.15,0.13,0.52,-155.94,6.59,14.53,0.43,0.17,0.5,0.94,0.45,1.95,-125.63,4.54,17.65,0.27,0.22,0.02,1.02,0.44,1.87
0.28,-100.18,55.84,172.27,0.22,-0.0,-0.04,1.81,0.25,0.73,-98.42,41.66,203.19,0.05,0.78,0.02,1.24,0.75,0.85,-155.55,6.37,14.61,0.13,0.02,0.54,0.74,1.15,1.85,-125.69,4.44,17.95,0.17,-0.02,0.15,0.8,0.45,2.2
0.29,-100.56,55.96,172.23,0.26,0.2,-0.15,2.28,0.51,0.26,-98.87,40.81,203.56,0.11,0.24,0.2,0.78,0.27,0.8,-155.39,6.46,14.81,0.09,-0.0,0.16,0.68,1.36,1.62,-125.14,4.36,17.83,-0.03,0.03,0.48,0.78,0.63,2.1
0.3,-100.86,56.48,172.38,-0.18,0.5,0.2,2.4,0.88,0.29,-98.79,40.19,203.53,0.27,0.44,0.14,1.11,0.4,0.59,-155.1,6.52,15.28,0.25,0.12,0.03,0.35,1.7,2.48,-124.81,4.56,18.07,0.26,-0.05,0.3,0.49,0.89,1.83
0.31,-100.53,56.99,172.31,0.24,0.49,0.08,1.67,0.73,0.28,-98.93,39.63,204.1,0.13,0.27,-0.05,2.07,0.3,2.47,-156.61,6.33,15.11,-0.03,0.2,0.52,0.81,0.8,3.32,-124.52,4.73,18.43,0.22,0.15,0.25,0.59,1.53,1.62
0.32,-100.29,57.76,171.85,0.37,0.58,-0.08,2.01,0.55,0.47,-98.94,39.8,203.78,0.18,0.19,-0.08,1.95,0.42,2.48,-156.58,6.19,15.29,0.05,0.32,0.26,0.33,0.73,3.6,-124.38,4.68,18.68,0.22,0.11,0.05,0.87,1.03,2.13
0.33,-100.26,58.11,171.62,0.04,0.3,-0.01,2.44,0.1,0.58,-99.03,40.03,203.8,0.04,0.12,-0.09,2.13,-0.09,1.36,-157.46,5.52,14.84,0.39,0.19,0.16,0.46,0.99,4.25,-125.14,4.37,18.82,0.07,0.12,0.62,0.42,0.69,2.72
0.34,-100.44,58.65,171.44,0.12,0.57,0.15,1.75,0.05,0.68,-98.85,40.29,203.8,0.16,0.17,-0.08,2.52,0.26,1.07,-157.67,5.49,14.43,0.5,0.26,0.46,0.85,1.16,4.4,-125.55,4.28,19.23,0.09,0.15,0.15,0.72,0.91,3.32
0.35,-100.85,59.62,171.5,0.0,0.85,0.13,1.09,0.13,1.01,-98.93,40.58,203.89,0.1,0.24,0.13,2.9,0.88,1.81,-158.27,5.04,13.65,0.72,0.17,0.44,1.76,0.55,3.43,-125.22,4.66,19.43,0.28,0.36,0.28,0.49,0.29,3.75
0.36,-101.18,60.53,171.53,-0.1,0.91,-0.01,1.1,0.43,1.19,-98.92,40.69,203.79,0.06,0.75,-0.0,2.84,0.68,2.16,-158.47,5.37,12.79,0.81,0.2,0.28,1.47,0.3,3.34,-124.62,5.59,19.58,0.45,0.31,0.84,0.82,0.31,3.48
0.37,-101.56,61.21,171.61,-0.07,0.97,0.11,1.46,0.26,1.13,-98.98,41.62,203.78,-0.07,0.74,0.14,2.16,-0.05,1.36,-158.55,5.16,11.85,0.67,0.08,-0.11,0.96,1.67,2.95,-123.68,6.14,20.16,0.42,0.55,0.39,2.35,0.07,4.09
0.38,-101.92,62.36,171.66,-0.05,0.97,0.01,1.4,0.04,0.94,-99.05,42.33,203.85,-0.05,0.63,0.12,1.77,0.04,0.65,-158.52,5.16,10.57,1.08,-0.03,0.3,1.18,2.03,2.81,-124.02,6.55,21.01,0.67,0.31,0.2,2.34,0.4,4.2
0.39,-102.01,63.48,171.47,-0.07,0.88,0.15,0.41,0.2,1.19,-99.22,43.11,203.89,0.08,0.75,0.3,2.23,0.63,0.45,-158.71,5.19,9.35,1.23,-0.02,0.37,1.39,0.61,2.57,-124.34,6.69,21.59,0.39,0.14,0.03,1.53,1.68,3.91
0.4,-102.54,64.66,171.6,-0.19,0.95,0.09,0.14,-0.01,0.68,-99.37,44.06,204.03,0.02,1.0,-0.11,2.13,0.46,0.39,-159.7,5.09,8.16,1.07,0.2,0.86,1.67,1.05,2.04,-123.79,7.12,22.12,0.61,0.34,0.3,0.52,0.71,3.89
0.41,-102.69,66.0,171.49,0.05,1.14,0.17,0.51,0.03,0.49,-95.71,46.57,203.74,-0.03,1.33,0.01,1.28,0.58,0.77,-160.82,5.18,6.83,0.88,0.52,0.95,1.24,1.46,1.69,-123.58,7.72,22.53,0.58,0.27,0.52,0.36,0.3,4.0
0.42,-102.87,66.57,171.47,0.04,1.2,0.17,0.65,0.09,0.4,-95.72,47.17,203.55,0.09,1.23,0.05,1.13,0.38,0.71,-162.2,4.97,6.26,0.77,0.42,1.09,0.93,1.36,1.23,-123.38,8.0,23.06,0.84,0.55,0.29,0.37,0.82,3.65
0.43,-103.04,67.33,171.59,0.11,1.07,0.23,0.88,0.33,0.47,-95.61,47.94,203.41,0.06,1.38,-0.03,1.08,0.15,0.95,-162.95,4.58,5.38,0.61,0.26,1.29,0.39,1.22,1.02,-123.39,8.34,23.71,1.0,0.67,0.14,0.18,0.99,3.68
0.44,-103.23,68.45,171.25,-0.13,1.02,0.06,0.5,-0.1,0.26,-95.46,49.6,203.23,-0.17,1.31,-0.05,0.68,0.46,0.38,-164.48,4.24,4.92,0.48,0.36,1.18,0.1,2.7,0.42,-123.68,9.31,24.49,1.07,0.86,0.2,0.51,1.83,3.21
0.45,-103.98,70.56,171.57,0.03,0.88,0.13,0.01,0.47,0.34,-95.8,51.4,203.23,-0.14,1.42,-0.08,0.44,0.23,0.6,-166.11,3.98,4.87,0.22,0.62,1.43,0.24,3.22,0.85,-123.98,10.11,25.82,1.02,1.07,0.04,1.59,1.7,2.21
0.46,-104.29,71.37,171.61,0.13,0.83,0.28,0.16,0.32,0.19,-96.0,53.24,203.36,0.09,1.88,-0.07,0.04,0.19,0.02,-167.59,3.41,5.32,0.63,0.54,1.02,0.58,3.49,2.13,-124.04,11.45,27.24,1.03,1.35,0.05,1.9,2.12,1.41
0.47,-105.08,72.97,171.48,0.26,0.65,-0.11,1.34,0.05,0.57,-96.21,54.96,203.21,0.21,1.85,0.13,0.06,0.16,0.44,-168.67,2.75,5.98,0.92,0.38,0.83,1.19,4.16,1.37,-124.56,13.64,28.85,1.23,1.74,0.27,4.22,3.08,0.65
0.48,-105.34,73.84,171.41,0.04,0.86,-0.1,1.56,-0.03,0.48,-96.58,56.98,202.85,0.2,1.83,0.16,0.12,0.37,0.25,-169.48,2.31,7.39,1.22,0.55,0.59,1.25,4.05,1.39,-124.38,16.0,30.6,1.43,2.23,0.29,4.09,2.33,0.7
0.49,-105.7,74.48,171.06,0.12,0.64,-0.03,1.58,0.1,0.67,-96.62,58.73,202.42,0.06,1.72,0.21,0.38,-0.11,0.45,-170.14,1.44,9.0,1.67,0.88,0.47,1.81,4.09,1.53,-124.64,18.14,32.3,1.61,2.55,0.06,4.2,2.5,1.66
0.5,-105.93,75.13,170.78,0.15,0.63,0.13,1.26,0.07,0.25,-96.62,60.91,201.92,-0.02,1.99,0.4,0.68,0.47,0.06,-171.04,0.85,11.28,2.07,0.67,0.53,2.33,3.26,1.25,-124.72,20.57,34.66,1.89,2.72,0.5,4.05,1.93,1.88
0.51,-106.19,75.8,170.71,0.12,0.3,-0.02,0.8,0.39,0.21,-96.32,64.91,200.3,0.22,1.86,0.26,1.48,0.37,0.22,-171.76,0.74,13.88,2.44,0.91,0.44,1.9,3.67,0.88,-124.62,23.81,37.27,1.83,2.77,0.53,3.87,1.33,2.48
0.52,-106.11,75.93,170.42,0.0,0.41,0.02,0.53,0.32,0.15,-96.11,65.92,200.04,0.05,1.53,0.17,1.67,0.32,0.41,-172.06,0.51,15.18,2.57,1.0,0.35,1.55,4.02,0.59,-124.35,26.86,39.97,1.73,3.26,1.1,3.62,1.14,2.27
0.53,-106.1,76.21,170.19,0.08,0.28,0.0,0.52,0.35,0.57,-95.87,67.57,199.13,0.19,1.41,0.09,2.04,0.48,0.53,-172.72,1.53,18.39,2.77,1.07,0.01,1.17,3.63,0.32,-124.07,30.42,42.88,1.9,3.5,1.24,2.73,0.15,1.88
0.54,-105.94,76.32,170.22,0.07,0.21,0.14,0.93,0.03,0.27,-95.6,69.32,198.51,0.12,1.51,-0.01,1.73,0.48,0.88,-172.76,2.46,21.64,3.09,0.98,0.25,1.28,2.17,0.45,-122.82,37.3,43.05,2.13,3.3,1.44,2.13,0.78,1.82
0.55,-105.52,76.78,169.67,0.31,-0.02,-0.02,0.94,0.25,0.23,-95.19,70.88,197.77,0.3,1.46,0.06,1.1,0.26,0.89,-172.58,3.58,24.64,3.11,0.89,0.28,1.69,0.9,0.17,-121.7,40.86,47.18,2.16,3.42,1.59,1.75,0.66,1.27
0.56,-104.81,76.73,168.97,0.39,0.02,0.0,0.12,0.17,0.6,-95.14,72.53,196.76,0.41,1.38,0.15,1.25,-0.11,0.32,-172.17,4.97,28.51,3.19,1.14,0.39,0.62,0.92,0.49,-119.02,48.0,55.73,1.75,3.18,1.29,0.92,0.41,0.28
0.57,-104.68,76.78,168.84,0.31,0.19,0.01,0.09,0.12,0.19,-94.71,74.4,195.76,0.53,1.52,0.08,1.95,0.3,0.14,-171.74,6.21,31.97,3.35,1.1,0.55,0.66,1.2,0.75,-118.05,50.98,60.9,2.11,3.11,1.31,0.53,1.15,0.7
0.58,-103.79,76.64,168.46,0.32,0.04,0.1,0.18,0.07,0.03,-94.51,75.63,194.79,0.32,1.02,0.04,0.84,-0.01,0.88,-171.31,7.69,35.67,3.32,1.23,0.53,0.47,1.06,0.83,-116.88,53.37,66.6,1.9,3.26,1.96,0.51,0.73,1.46
0.59,-103.21,76.78,168.37,0.43,0.14,-0.16,0.39,-0.13,0.66,-94.17,76.74,193.76,0.14,1.1,0.08,0.54,0.0,0.62,-170.96,9.27,39.4,3.31,1.38,0.5,0.23,0.7,0.92,-115.01,56.14,72.95,1.94,3.21,2.1,0.34,0.91,1.17
0.6,-102.81,76.85,168.25,0.26,0.15,0.02,0.43,0.13,0.27,-93.89,78.02,192.86,0.29,0.9,0.23,1.12,0.29,0.59,-170.8,10.52,43.08,3.42,1.24,0.4,0.24,0.08,1.49,-113.14,58.8,79.94,1.51,3.06,1.46,0.6,1.22,0.13
0.61,-102.26,77.1,168.11,0.34,0.05,0.07,0.72,0.34,0.18,-93.67,79.23,191.79,0.27,1.07,0.09,1.05,0.26,0.88,-170.33,12.14,46.72,3.15,1.28,0.42,0.28,0.44,1.32,-111.84,60.25,86.95,1.64,2.68,1.3,0.59,0.91,1.67
0.62,-101.9,77.38,167.92,0.24,0.25,0.23,0.53,0.5,0.38,-93.3,80.18,191.12,0.21,0.93,0.24,0.73,0.22,0.24,-169.16,14.66,47.03,2.86,1.13,0.84,0.08,0.45,1.21,-110.66,60.91,94.08,1.33,2.64,1.15,0.55,0.85,3.01
0.63,-101.99,77.3,167.91,0.41,0.07,-0.02,0.3,0.33,0.13,-93.52,80.51,190.83,0.47,0.83,-0.13,0.98,0.17,0.13,-168.55,15.63,48.72,2.78,1.32,0.97,0.3,0.21,1.22,-108.89,61.92,93.91,1.21,2.43,1.33,0.45,0.46,2.6
0.64,-101.53,77.19,168.02,0.38,-0.02,-0.03,0.15,0.22,-0.02,-93.34,81.2,190.47,0.32,0.9,0.23,0.66,0.33,-0.04,-168.24,16.16,50.26,2.85,1.21,0.99,0.23,-0.16,1.28,-107.29,62.79,93.77,1.08,2.28,1.96,0.59,0.14,2.1
0.65,-101.34,77.31,167.84,0.4,-0.12,-0.05,0.16,0.52,0.37,-93.13,81.9,190.24,0.41,0.71,0.04,0.76,0.34,0.2,-167.63,17.84,53.3,2.64,1.37,1.07,0.25,0.73,0.61,-105.22,63.43,93.9,1.11,2.44,1.7,1.57,1.11,1.02
0.66,-100.8,77.23,167.73,0.12,-0.0,0.01,0.42,0.82,-0.01,-92.99,82.68,189.69,0.29,0.69,0.23,0.54,0.41,0.17,-166.43,19.5,56.55,2.76,1.19,0.97,0.63,0.23,0.47,-103.72,63.2,100.54,0.62,2.01,1.31,1.93,1.52,0.21
0.67,-100.71,77.39,168.06,-0.04,0.1,0.03,0.54,0.64,0.06,-93.03,83.54,189.82,0.33,0.78,0.34,0.77,0.79,-0.01,-165.56,21.16,59.74,2.65,1.25,1.08,0.58,1.21,0.8,-102.53,62.84,105.74,0.57,1.58,1.23,2.71,0.75,0.64
0.68,-100.8,76.96,168.45,0.18,0.22,0.05,0.51,0.07,0.14,-92.77,84.13,189.96,0.37,0.31,0.33,0.83,0.4,0.25,-164.33,22.55,63.13,2.48,1.23,0.86,0.89,1.02,0.99,-101.43,62.29,109.76,0.49,1.31,0.89,2.33,0.39,0.11
0.69,-100.55,76.51,168.36,-0.05,0.13,0.04,-0.08,0.11,0.93,-92.99,84.72,190.14,0.19,0.52,0.2,0.24,0.12,0.12,-163.6,23.89,66.01,2.44,1.14,1.25,0.79,0.07,0.54,-100.74,61.75,112.28,0.1,0.66,0.71,1.52,0.7,0.61
0.7,-100.66,76.43,168.61,-0.05,0.19,-0.04,0.25,0.39,1.03,-93.14,85.13,190.44,0.04,0.42,0.25,-0.01,0.18,0.17,-162.2,25.46,69.11,2.3,0.99,1.12,1.9,-0.05,0.4,-100.27,61.65,114.46,0.04,0.71,1.0,1.66,1.22,1.33
0.71,-100.51,75.96,168.85,-0.1,0.22,0.04,0.45,0.27,0.89,-92.93,85.63,190.33,0.2,0.25,0.06,-0.02,0.28,-0.02,-159.36,28.6,75.06,2.21,1.11,1.14,0.78,2.89,1.07,-99.46,61.99,117.07,0.13,0.51,1.02,1.73,1.05,0.65
0.72,-100.6,75.98,169.07,0.06,0.03,0.01,0.67,0.22,0.41,-92.8,86.37,190.44,0.2,0.43,0.17,0.54,0.91,0.69,-157.9,29.92,77.9,2.16,0.83,0.94,1.06,2.06,1.18,-98.82,62.2,119.07,0.26,0.21,1.08,2.33,0.92,0.27
0.73,-100.73,75.61,169.14,-0.0,0.39,-0.03,-0.07,0.04,0.11,-92.59,86.79,190.71,-0.08,0.11,0.04,0.26,0.67,0.67,-156.75,31.22,80.86,2.2,0.63,1.33,1.07,0.61,1.25,-99.53,62.27,118.66,0.44,0.19,0.2,2.36,1.76,1.63
0.74,-100.6,75.19,169.14,-0.08,0.32,0.07,0.03,0.5,0.33,-92.66,87.21,190.89,0.06,0.08,0.15,0.14,0.46,0.27,-155.34,32.43,83.36,1.9,0.77,1.19,1.8,1.54,0.28,-99.86,62.85,119.05,0.43,0.1,0.66,2.66,1.7,2.63
0.75,-100.57,74.94,169.39,-0.02,0.34,0.1,0.36,0.54,0.13,-92.62,87.32,191.05,-0.0,0.32,0.21,0.29,0.33,0.28,-153.72,33.42,85.46,1.67,0.6,0.96,1.45,2.65,0.39,-98.9,63.87,120.5,0.57,0.35,1.35,2.22,0.53,1.98
0.76,-100.17,74.34,169.21,0.18,0.42,-0.21,0.33,0.34,0.45,-92.72,87.7,191.08,0.1,0.14,0.09,0.45,0.01,0.48,-152.56,34.63,87.27,1.5,0.33,1.08,0.35,2.33,0.68,-98.22,64.74,122.11,0.5,0.5,0.99,1.89,1.69,1.97
0.77,-99.74,74.28,169.35,0.44,0.33,0.08,0.24,0.25,0.29,-93.05,88.03,191.17,0.05,0.02,0.03,0.41,0.18,0.19,-151.33,35.25,89.5,1.6,0.58,0.43,0.86,0.99,1.05,-98.03,65.54,122.71,0.31,-0.03,0.58,0.96,0.16,2.43
0.78,-99.43,74.05,168.93,0.33,0.28,0.08,-0.1,0.57,0.22,-93.14,87.72,191.48,0.12,0.18,0.13,0.29,0.07,0.03,-151.05,35.61,91.71,1.42,0.4,0.29,-0.07,0.28,2.5,-98.52,65.54,122.46,0.37,0.16,-0.08,1.2,1.08,0.52
0.79,-99.6,73.77,169.13,-0.05,0.16,-0.11,0.29,0.28,0.16,-93.23,87.79,191.54,0.25,-0.08,0.12,0.19,0.19,0.8,-149.81,35.89,93.6,1.17,0.38,0.5,0.86,0.23,1.03,-99.25,65.15,122.09,0.43,0.09,-0.03,1.83,1.82,1.52
0.8,-99.02,73.62,169.05,0.08,0.29,-0.04,0.15,0.43,0.05,-93.35,87.88,191.67,0.08,0.07,0.27,0.1,0.32,0.27,-148.66,36.42,95.32,1.12,0.08,0.66,0.93,1.95,0.28,-99.41,65.32,122.17,0.34,0.22,0.27,2.39,-0.08,2.16
0.81,-99.02,73.49,168.89,-0.11,0.05,0.21,0.2,0.18,0.07,-93.33,87.77,191.5,-0.08,-0.12,0.23,0.21,0.09,0.81,-147.51,37.81,96.67,0.96,0.28,1.04,0.66,1.87,1.02,-99.33,65.5,122.33,0.42,0.23,0.66,1.4,-0.0,1.01
0.82,-98.83,73.4,168.46,0.15,0.14,0.02,0.42,-0.01,0.18,-93.22,87.5,191.31,0.19,0.2,0.23,0.02,0.07,0.37,-145.63,38.51,97.79,0.7,0.07,0.86,1.14,1.35,0.98,-99.43,66.17,122.65,0.5,0.46,0.73,1.91,0.33,1.76
0.83,-98.54,73.24,168.25,0.15,0.05,0.05,0.3,0.07,0.04,-93.13,87.47,191.18,0.24,0.03,0.19,0.35,0.5,0.32,-142.62,40.65,99.79,0.59,0.05,0.93,1.62,1.78,1.52,-99.26,66.99,122.85,0.54,0.42,0.46,1.73,0.44,1.74
0.84,-98.42,73.25,168.22,0.08,0.03,0.09,0.22,-0.04,-0.05,-93.03,87.55,191.12,0.17,0.05,0.33,0.2,0.43,0.0,-141.97,41.08,100.36,0.55,0.1,0.94,1.57,1.88,1.73,-99.37,67.36,122.95,0.35,0.31,0.53,2.32,0.28,1.43
0.85,-98.3,73.38,167.88,0.1,-0.03,-0.05,0.3,0.05,0.18,-93.11,87.36,190.99,0.16,0.34,0.2,0.06,0.39,0.12,-141.34,41.59,100.62,0.32,0.11,1.02,1.35,1.74,1.56,-99.42,67.85,123.2,0.28,0.5,0.42,2.75,0.45,1.4
0.86,-98.11,73.38,167.95,-0.1,0.26,0.02,0.18,0.08,-0.05,-93.31,87.01,191.05,0.02,0.05,-0.06,-0.22,0.37,-0.04,-140.54,42.42,100.98,0.25,0.25,0.65,0.69,2.52,1.68,-99.1,68.56,123.19,0.3,0.38,0.39,2.7,0.63,2.04
0.87,-98.29,73.19,167.77,0.08,-0.02,0.03,0.14,-0.02,0.09,-93.39,86.9,190.8,-0.01,0.09,0.05,0.58,0.2,0.1,-139.79,43.06,101.57,0.21,-0.2,0.39,0.59,1.07,1.26,-98.82,68.88,123.47,0.26,0.43,0.55,2.47,0.05,1.96
0.88,-98.18,73.32,167.35,0.17,0.07,-0.04,0.08,0.14,0.09,-93.56,86.66,190.82,0.04,0.0,0.12,0.27,-0.15,0.38,-139.8,43.2,101.69,0.14,-0.0,0.37,0.91,0.56,0.82,-98.18,69.68,125.28,0.15,0.29,0.91,2.31,0.88,1.49
0.89,-98.13,73.58,167.12,0.15,0.11,0.09,0.11,0.18,0.13,-93.17,86.56,190.91,-0.01,0.08,-0.15,0.15,-0.02,0.45,-138.91,43.75,101.9,0.22,0.23,0.39,0.91,0.91,1.01,-97.45,70.38,127.08,0.09,0.05,1.04,1.96,0.75,1.75
0.9,-98.24,73.53,166.87,0.14,0.02,-0.09,0.26,0.21,0.17,-93.03,86.74,190.97,-0.06,-0.01,-0.09,0.39,0.03,0.67,-138.22,44.03,101.99,-0.19,0.36,0.61,0.63,1.27,1.16,-96.76,70.6,128.34,0.0,0.26,0.41,1.7,0.34,0.95
0.91,-98.09,73.58,166.83,-0.09,0.05,0.13,0.27,-0.06,0.04,-92.92,86.72,190.7,-0.09,0.01,0.2,0.12,0.03,0.58,-138.12,44.67,101.87,0.13,0.02,0.38,0.51,1.13,1.13,-96.28,71.27,128.85,0.07,0.5,0.28,1.58,0.08,1.14
0.92,-98.24,73.68,166.64,0.18,0.0,0.19,0.47,0.15,0.02,-92.9,86.6,190.62,0.1,0.1,0.03,-0.01,0.04,0.14,-137.68,44.64,102.02,0.14,-0.1,0.12,0.31,0.77,1.32,-96.0,71.74,129.37,0.16,0.31,0.27,1.24,0.3,1.28
0.93,-97.84,73.67,166.17,0.09,0.11,-0.25,0.5,0.07,0.13,-92.95,86.59,190.83,0.21,0.17,0.18,0.13,0.15,0.14,-138.02,44.77,101.91,0.07,-0.01,-0.04,0.32,0.22,1.03,-96.15,72.15,130.26,-0.07,0.22,0.28,0.65,-0.04,1.2
0.94,-98.24,73.72,166.3,0.06,0.11,-0.21,0.46,-0.07,0.43,-92.89,86.71,190.92,0.03,0.16,0.04,0.19,0.15,0.24,-138.16,44.72,101.91,0.02,0.03,0.05,0.15,0.12,0.5,-95.66,72.62,131.21,0.23,0.09,0.25,0.57,0.32,1.45
0.95,-98.26,73.79,166.32,-0.11,0.09,0.03,0.31,0.14,0.08,-92.79,86.7,190.88,0.21,0.02,-0.08,-0.04,0.16,0.26,-138.34,44.69,101.61,-0.07,0.05,0.16,0.12,-0.02,0.52,-95.99,72.94,131.51,-0.01,0.17,0.1,0.54,-0.1,1.31
0.96,-98.6,73.84,166.2,0.22,0.26,0.03,0.63,0.25,0.56,-92.9,86.68,191.04,0.03,-0.02,-0.05,0.16,0.08,0.17,-138.8,44.69,101.7,-0.04,-0.03,0.19,0.16,0.31,0.29,-95.55,72.94,131.83,0.19,0.11,0.22,0.31,0.32,0.91
0.97,-98.59,73.95,166.14,0.05,-0.01,-0.02,0.07,0.7,0.27,-92.76,86.79,191.07,0.15,0.31,0.1,0.22,0.24,0.42,-138.7,44.77,101.66,-0.0,-0.09,-0.25,0.09,0.91,0.28,-95.45,73.29,132.2,-0.07,-0.04,0.24,0.01,0.45,0.83
0.98,-98.64,73.95,166.18,-0.07,-0.09,0.08,0.37,0.55,0.11,-92.73,86.94,190.89,-0.05,-0.09,-0.06,0.54,0.3,-0.04,-138.87,44.46,101.58,-0.03,0.04,0.21,-0.09,0.96,0.23,-95.35,73.26,132.91,0.0,0.05,0.12,0.13,-0.05,0.47
0.99,-98.86,73.98,165.96,0.02,0.05,0.12,0.2,0.4,0.23,-92.67,86.97,191.12,-0.01,0.1,0.03,0.27,0.27,0.49,-138.82,45.06,101.77,0.13,0.17,0.29,0.47,0.52,0.22,-95.2,73.5,133.04,0.18,0.07,0.03,0.1,0.14,0.18
1.0,-98.36,73.94,166.07,0.02,0.05,-0.06,0.11,0.12,0.27,-92.84,86.85,190.74,0.1,0.12,-0.09,0.64,-0.0,0.19,-138.47,45.4,101.59,-0.26,0.05,0.27,0.54,0.11,0.28,-94.92,73.48,133.18,0.1,0.24,-0.15,0.21,0.52,0.5
1.01,-98.03,74.01,165.96,-0.02,-0.08,0.01,0.31,0.34,0.09,-92.46,86.79,190.98,0.06,0.01,-0.0,0.57,0.02,-0.0,-138.11,46.19,101.67,0.04,0.06,0.14,0.03,0.14,0.35,-94.93,74.0,134.5,0.14,0.3,0.33,0.21,1.09,0.18
1.02,-98.44,74.15,165.94,0.08,-0.11,0.01,-0.05,0.32,0.14,-92.56,86.87,191.17,-0.01,0.18,-0.01,0.35,0.06,0.08,-138.16,46.13,101.74,0.04,-0.06,0.22,-0.0,0.58,0.04,-94.63,74.14,136.01,-0.05,0.2,0.34,0.11,0.4,0.17
1.03,-98.41,74.12,166.1,-0.13,-0.06,-0.06,0.15,0.27,0.19,-92.7,86.89,190.99,0.19,0.17,0.04,0.41,0.25,0.24,-137.92,46.26,101.83,0.2,0.11,0.27,0.14,0.23,0.05,-94.2,74.51,137.97,-0.12,0.1,0.02,-0.1,0.66,0.06
1.04,-98.39,74.06,166.21,-0.02,0.02,-0.06,0.17,0.19,0.24,-92.9,86.83,191.11,0.06,0.02,-0.1,0.27,0.11,0.07,-137.67,46.61,102.02,0.21,0.17,0.03,0.34,0.07,-0.08,-94.19,74.3,138.35,0.11,0.02,0.18,0.24,0.67,0.22
1.05,-98.4,74.03,165.81,0.04,-0.05,-0.09,0.24,0.41,0.08,-92.45,86.73,190.98,0.08,0.19,0.08,-0.01,0.12,-0.15,-137.58,46.61,101.99,0.07,-0.11,-0.03,0.26,0.1,0.17,-94.26,74.55,138.52,0.06,0.11,0.39,0.2,0.41,0.18
1.06,-98.54,74.13,166.2,-0.16,0.05,0.02,0.13,0.4,-0.07,-92.58,86.91,191.0,-0.06,0.02,-0.14,0.04,0.15,-0.05,-137.51,46.83,102.05,0.06,0.02,0.25,0.32,0.18,0.06,-94.09,74.74,139.13,0.1,0.22,0.19,0.12,0.3,0.05
1.07,-98.4,74.11,166.1,0.13,0.04,-0.05,0.05,0.14,0.04,-92.54,86.75,190.83,0.11,0.09,0.06,0.11,0.04,0.29,-137.14,47.08,102.04,-0.01,-0.05,0.28,0.38,0.15,0.15,-94.25,74.74,139.74,0.04,0.09,0.21,0.04,0.04,0.1
1.08,-98.28,74.11,165.94,0.21,0.12,-0.24,0.0,-0.08,0.17,-92.85,86.67,191.05,0.04,0.09,0.12,0.12,0.1,0.31,-137.13,47.07,102.12,-0.06,0.05,0.05,0.29,0.23,0.28,-93.94,74.76,140.64,0.17,0.03,0.07,0.33,0.4,-0.02
1.09,-98.38,73.98,165.97,0.09,0.08,-0.03,0.11,0.04,0.24,-92.81,86.99,190.94,0.06,-0.01,-0.01,0.16,-0.09,0.08,-136.97,47.32,102.11,0.12,0.01,-0.02,0.4,0.3,0.41,-93.77,74.95,141.56,-0.06,0.03,0.25,0.42,-0.03,0.24
1.1,-98.12,74.28,165.72,-0.04,0.11,-0.05,0.3,0.02,0.19,-92.84,86.91,191.07,0.11,0.02,0.13,0.03,-0.07,0.16,-136.98,47.33,102.01,-0.08,0.09,0.06,0.46,0.6,0.2,-93.99,75.0,141.8,-0.09,0.13,0.05,0.58,0.15,0.06
1.11,-98.35,74.28,165.59,0.11,-0.08,-0.02,0.38,0.11,0.02,-92.81,86.64,190.98,-0.12,0.22,0.02,0.22,0.17,0.14,-136.91,47.55,102.15,0.11,0.11,0.21,0.31,0.23,0.07,-93.64,74.86,143.08,0.02,0.05,0.14,0.87,0.13,0.28
1.12,-98.54,74.19,166.13,0.01,0.04,0.08,0.01,0.22,0.17,-92.79,86.63,190.83,-0.03,-0.13,0.09,-0.1,0.04,0.03,-137.0,47.56,102.1,0.08,-0.01,-0.04,0.67,0.51,0.31,-93.73,74.87,143.22,0.08,-0.02,-0.01,0.71,0.12,-0.01
1.13,-98.47,74.36,166.07,-0.07,0.03,0.05,0.09,0.27,-0.0,-92.94,86.87,190.73,0.03,-0.08,-0.1,0.22,0.14,0.17,-137.21,47.5,102.06,-0.1,-0.01,0.13,0.75,1.02,0.55,-93.83,75.07,144.12,0.09,0.17,0.06,1.12,0.37,0.43
