0.02,-360.69980412313726,71.7063069995235,159.69310097439262,-176.2905507301234,85.05185431685001,4.267507014228377,-187.8257250653025,0.4601021339667979,8.404726269424321,-150.15404625842416,18.24919581304287,17.870816118861907
0.03,-361.0115211620322,71.72498193685777,159.56108575714845,-176.4181675826146,84.52467768998297,4.363739167469012,-187.57401679944988,0.271162715157863,8.452980484367389,-149.66353380007183,18.74461421936001,18.08147291190521
0.04,-361.293321864328,71.27478341282604,159.70242839672233,-176.13130087853528,83.64065728255264,4.539241310075768,-187.4778554169096,0.7208548850589462,8.522753039191608,-148.71961557053027,19.316345838532524,18.02573392173904
0.05,-361.1101781705016,71.03289614420567,159.89339569818483,-176.43868541588117,82.51739749505705,4.403084168056674,-187.6471959297494,0.5909799169085305,8.382802514887064,-148.50160815027797,19.626556667752613,17.664116955278313
0.06,-361.1018700612332,71.1623888343976,160.71765890805318,-176.09678424798744,80.95782397875485,4.429527348335747,-187.6298646398328,0.2244045287904195,8.22266476341784,-147.84088367752295,19.76238071025869,17.819389065503607
0.07,-361.6250964718146,70.59085433456146,161.37855572786043,-176.41182518352542,79.81289899738717,7.109888750353759,-187.7255773625425,0.4178411325792896,8.524271469116167,-147.2340564861866,19.98958424172264,17.255409122723535
0.08,-361.878267012808,69.14119616428745,162.02836897150553,-176.34358420186226,78.21430463761133,11.497005140909732,-187.781132998804,0.4565786697985757,8.369803868321538,-146.75058069719498,20.71548325412939,17.223825639796647
0.09,-363.1210695700112,67.01322499186483,162.78208989006123,-176.26314838561194,76.03274794556336,14.127231707406349,-187.9023640528734,0.4445718182095435,8.509915834626156,-146.49285455055295,20.669112506537047,16.918699356360506
0.1,-364.1142511916008,65.18940717373606,163.38214171648832,-176.29882727582472,74.15405974765082,17.096273560984017,-187.6164426817186,0.2166960341738087,8.899263962970107,-146.16816484541044,20.89707141196173,17.195435341310528
0.11,-364.6185861884831,64.03970038526025,163.8376956903361,-176.23175877782336,72.93803050232314,18.0708626564904,-187.6129521958493,0.0633514985033393,8.821515548732904,-146.03364078667954,21.06350234238714,17.086689734486733
0.12,-365.5473459755649,62.755220759425725,164.1396244805977,-175.94405477807825,71.65574191848074,19.043031521820684,-187.6339942036132,0.2720533713590025,8.423669287315654,-146.04112549366948,20.89809361282745,16.823260458523972
0.13,-366.89300151505614,60.583131859936806,164.19482396195298,-175.46715372493648,68.55792239926079,20.653380637899147,-187.86178485153195,0.3193780084919733,8.768795161673912,-145.2392060126563,20.88698745472885,16.766189345174112
0.14,-368.503450276632,58.26445015772268,164.2956273039383,-174.59661841149833,65.35460397507781,21.4197464433332,-187.57477147661072,0.2308730273730027,8.742300012845142,-144.73551772007377,21.08882796780751,16.732371090977505
0.15,-370.94263988060175,55.09835911006756,164.0310090941046,-174.10067103232902,62.71805507553962,22.699153421702047,-187.9399716565145,0.4932135366438437,8.411030454048207,-144.06849048345484,20.893957119649794,16.364406823460172
0.16,-373.6507265591834,52.37482911972689,163.77312364995626,-174.265133700291,60.5771330408276,23.232750011124228,-187.907909873821,0.5896965251723705,8.632607239661514,-143.40193231108492,20.99439745857961,16.43273676247414
0.17,-376.41378283253056,50.37095945499616,163.4134524041926,-174.60800584336369,58.54599111215998,23.95542058958125,-187.5479457873972,0.3859927357226273,8.541220858417926,-141.8530459130151,20.961343340428787,15.844290318894972
0.18,-382.36428774133753,45.36562200329361,163.31827794533012,-175.3840085285671,53.60019551022093,25.70281392462317,-187.9982364739204,0.4847271896582619,8.737591619278874,-139.8894090949468,21.210952614522185,15.288103673099032
0.19,-382.47864671918353,42.783608955022245,163.77033170949957,-175.44995481215363,51.84080582204007,25.714498177311665,-187.78316361573584,0.3266900365267007,8.473418541520942,-138.549962822555,20.73602110929371,14.906384889311594
0.2,-382.48285284947787,39.93075091434755,164.35521521243618,-175.1018938700001,49.36214994897655,26.13756548154817,-187.9048150654745,0.3879026445422857,8.622142009231585,-137.7623545636955,21.148823400134003,14.717083858511971
0.21,-382.5401002738801,37.90059926291225,164.7256547491186,-174.93139075049635,47.275047180843416,26.727881431889887,-187.56197313113017,0.4619005254650642,8.631586685770747,-136.6190917189723,21.193775768654668,14.55447218160391
0.22,-388.3375494124728,41.17236675025136,165.16637909621662,-174.50064380146586,46.120245751015375,27.14651809062708,-187.70602408306308,0.4889359258086466,8.876254951351015,-136.43483533078842,21.219534807398027,14.29879000413134
0.23,-394.223676679682,44.42978817847404,165.1829184208002,-174.17421721466903,45.0880887291468,27.1332302591702,-187.7894809124617,0.5142222782054771,8.63906887393622,-136.40705843172805,21.330668139870436,14.142413712111615
0.24,-406.0580443620791,50.62888025141743,165.3886427879222,-174.29571408936704,43.1073037606449,27.41134117002621,-187.80498828476863,0.3457043230529195,8.627372525963366,-135.86593835712247,21.25677974034472,14.220905019858964
0.25,-402.5925405694542,52.90941714767962,166.9821449042017,-174.39540941735052,41.33082391631029,27.64166161530012,-188.08826115587252,0.5559585073020916,8.818126394542956,-135.61668065108077,21.36671446954451,14.04505499871409
0.26,-398.3835409231879,55.04704211524388,169.26165737508327,-174.64565845155795,40.03429402498517,27.535990350600287,-187.9080925554174,0.4418960293448826,8.663229639133174,-135.14397063973246,21.683456324657666,13.722958390756771
0.27,-396.3582077000365,57.80711095341701,169.60895666474445,-174.25807345318714,38.540524385820056,27.588237246465237,-187.7712098161282,0.4741024375867378,8.56294414683371,-134.36563964090217,22.11902560344777,13.580239725866642
0.28,-394.02689061108725,60.79721264097985,170.67764066857228,-174.03166643425513,36.94089404164513,28.167410965920077,-187.95886759661408,0.5723800430666506,8.475848232947406,-133.73519448343546,22.344836539480315,13.538953276566488
0.29,-392.4170808892179,62.332332111672656,171.43455249938904,-174.0986096672077,35.12171668789995,28.06155532775149,-187.9039789892861,0.4958862797924017,8.445086388045755,-133.08896999897922,22.776870310036568,13.450021763147062
0.3,-392.2941047103719,64.10441462456137,172.18189944412865,-173.60462584049122,33.796409380910035,28.09285360173341,-187.81081862757583,0.2946022943835941,8.610638203545387,-133.0585882649818,23.489211182617392,13.576197695014606
0.31,-392.5015950165181,65.74283304687452,174.28255867625458,-173.18330700930713,33.02006286603024,27.74070842760451,-187.7771182058865,0.0453311989255297,8.420640891754463,-132.70683322751398,23.533835871181807,13.665028904750208
0.32,-392.5004215191496,66.95694372968727,176.15571162627182,-173.15332863063696,31.499006363170174,28.165980974753865,-187.6653673622884,0.3030109531209224,8.190007766464014,-132.48336725140967,23.702250451850944,14.09926230929187
0.33,-391.51260905656727,67.2390373920105,177.5824228111054,-173.1133151963461,30.83093708423124,28.12487301900627,-187.920965565932,0.3689258774932293,8.491735576424166,-132.8350856240772,24.15226593573615,14.242285628852294
0.34,-390.6008280326639,67.87976274544444,178.87290738694688,-173.4327296675477,29.90254297833425,28.2084336655453,-187.6547880133225,0.3734229631693055,8.61223110376929,-132.79613942214925,24.269624156315267,13.829950261646296
0.35,-388.4938228716731,68.21601200168028,178.4062514644922,-173.16898868850922,28.65626906487727,28.50556793780344,-187.7485465897973,0.4536831715697344,8.565093445654018,-132.4718522271773,24.317731621040718,14.399548362358058
0.36,-384.9511258513919,70.06078873042301,172.93619019114325,-172.44582177305517,26.425133741849766,27.765587623299385,-187.8843738945683,0.2965862467379058,8.749255098508513,-131.9111795424989,25.02656260677709,14.726395150452838
0.37,-383.8307682146789,69.23043750479762,170.95132614023183,-172.40301666360406,25.08669347400314,27.92140036390997,-187.61983990527943,0.6804243219690933,8.569361491078695,-132.13663310792,25.340335971814696,15.011186079006372
0.38,-383.5170442879612,69.11835339403248,170.74176240374558,-172.35886604669113,24.303715068580757,28.34316042273344,-187.6676331508867,0.3134153362552977,8.310816121974476,-132.02511193822798,25.626685245064078,15.48246571876264
0.39,-383.3598600892358,69.60520449716208,170.4322486022651,-172.03368845254735,24.13778520713351,27.765358278259825,-187.73833152422944,0.1970648397695098,8.261204128419028,-131.79697177462978,25.576303505698316,15.353234721783108
0.4,-383.1752280012404,69.7663209045871,170.07295623422365,-172.134866558666,23.79694838783544,27.57087549527099,-187.94017623096929,0.3118235277659536,8.329320855520486,-131.30722758360346,25.9382356662298,15.451938076971764
0.41,-382.8174099439557,69.98260486486318,170.44774322652214,-171.72349386687966,22.98257514916387,27.823027390405045,-187.7305608317864,0.3503133611557096,8.528553274590971,-130.93015255982897,26.378431162640336,14.968762798147337
0.42,-382.9727964626432,70.2458145240355,170.65005839718492,-172.52694228733245,21.708325965720828,27.699611495461536,-187.32551358791588,0.096063693664664,8.335660095590127,-129.75797421901413,26.87676176833134,14.71781654815602
0.43,-382.5805355934346,70.6311318712727,170.32735267463886,-172.05132726796236,21.251030067674947,28.170002120592617,-187.47589443336136,-0.1147060761462929,8.132757141202093,-129.39789421896842,27.22734119299952,14.679987752262091
0.44,-382.3577071314159,70.85219147120578,169.67719925595836,-172.2247966028256,20.769128293366883,28.18438975795393,-187.771415973858,0.245266676525471,8.182745192112536,-129.14539044978142,27.18743382924787,14.54735091414314
0.45,-382.0635257806553,71.19690518338285,169.48586203593587,-171.87656856159603,20.37980122692173,27.900461573445103,-187.67731773507944,0.0842378937379401,8.534316168421446,-128.7378675838462,27.209747536047363,14.71926742497086
0.46,-381.3916763573769,71.46517412203951,168.75893634009654,-171.8395030761415,19.89109113874288,27.7094538784109,-187.27031165914636,0.1785731686705426,8.28070024867906,-128.27601800893382,27.463853012670445,14.408062688296129
0.47,-381.325444021929,71.5695376974534,168.8569131280283,-171.9874438498536,19.41812009244096,27.808329394382756,-187.11183624953404,0.4576674570654762,8.254517342493543,-127.08134660812424,27.89519613132508,14.201268542960662
0.48,-380.869612364479,72.26829317424078,168.5533519043103,-171.96419541232498,18.8155744898762,27.590878067933293,-186.68374429316245,0.7790196476925253,8.25970921412617,-126.61296524484308,28.116726055955034,14.163781867651103
0.49,-380.930714345566,72.92588352357747,167.7057124267568,-172.25493188611728,18.60575909024336,27.72752121567522,-186.6896437720554,1.0715799764832228,8.163030926126932,-126.46757325622823,28.267327566186506,14.363706970335478
0.5,-380.7288861194453,73.01212400994321,167.19413986885826,-171.94819236061588,17.552572177409132,27.808657073953714,-186.3164930922266,1.5525068396266537,8.248364040283043,-126.12278182681584,28.44508033925753,14.83986395429959
0.51,-380.6615524797636,72.95896869524492,167.40762940709016,-171.7899315286582,16.379388520929457,27.597316816484604,-186.08712692818847,2.1757980126814385,8.452547161995252,-126.2647060197667,28.602269159956187,15.23230660213446
0.52,-380.6034284970515,73.36847188635514,167.22153490690167,-171.98289028180497,16.515810936039088,27.70109603189359,-186.0050264286675,2.277892458425323,8.304666692314433,-126.44872279278604,28.498408141667397,16.156794862365462
0.53,-380.83429695967936,74.27860265313568,165.31085044177723,-171.92773486881077,15.506641063469983,27.92041684898772,-185.02385377072736,3.0261154891595807,8.240066446629951,-127.16608749585438,28.623542701916502,18.500632998813984
0.54,-380.7473406488496,73.72906775024218,165.66414101912886,-171.84788543778944,14.881536295021617,27.68627635554628,-184.53814415553376,3.425619465700895,8.568017200515875,-127.36572560380448,28.64025660386981,19.24437121485825
0.55,-380.8863247205157,74.0402059094446,165.65709081490178,-172.0098209441854,14.989766570185564,27.95022519329288,-184.2506156350632,3.608705559252738,8.629619786007897,-127.43722479072444,28.63538041357087,19.5795878996572
0.56,-381.0278577615375,73.92568974853064,165.62218822792588,-172.20587208012748,15.248423721492328,27.91668768308516,-183.63828160231216,3.883148494324815,8.835231287917807,-127.36059629550164,28.51515177526456,19.538265603787504
0.57,-381.2551680653052,74.48113972707533,165.2824615845268,-172.13575734233083,15.933698253278155,28.54957315803517,-183.11575632133335,4.275037657606361,8.648285612113522,-127.45478044859722,28.7700759519082,20.332277424327373
0.58,-381.4439336879472,74.73550970127347,164.82113706441294,-172.14082985940718,15.86804972946972,28.306685499005518,-183.07980829790347,10.55230769910436,8.917794290905567,-127.90138913552944,28.149755253562063,20.87622246067728
0.59,-381.860284261192,74.16489599833066,163.9306208640409,-172.32042166568732,15.20819210152997,28.118044492555505,-182.88375208279157,16.849349965837987,8.760876071661137,-128.18766249800333,27.76358746657244,21.428564391589177
0.6,-382.28043520718114,74.01742240340477,164.7349016686496,-172.54217374183528,15.446470470395363,28.027864243957225,-183.40231353683035,16.583578840014024,8.87849578596105,-127.49843323044944,27.9538041514612,21.2304626847034
0.61,-382.03442705175945,74.52753883903904,164.53847895360693,-172.5713446114805,16.680180960036573,28.57115734535004,-183.2907191451843,16.762549240753014,8.932536915381094,-127.18304108886956,27.77555324413057,21.383536672359973
0.62,-382.3063662514968,74.55072488997625,164.007612585797,-172.90594525508885,16.784734554918185,28.54213232412589,-183.39951696354336,17.168267077899554,9.084417861869342,-127.18962166260592,27.51396151973919,21.724074632978574
0.63,-382.06460598615377,74.58573295717154,163.344003744272,-172.63477978442208,16.737094513104026,28.29276612720617,-183.0942395644321,16.900169381681856,8.330215996160907,-127.02120241770535,27.25144355862056,21.762709247646768
0.64,-381.8998716762218,74.13259180605834,162.93435244081883,-172.7583576908343,16.513766089645852,28.635971309650586,-183.3454344332449,16.88748366848736,8.232204137281077,-126.24051921010336,27.866021298970733,21.202683056552956
0.65,-381.8485518408807,74.60239815585537,162.66379868903968,-172.95595476792994,16.550370164442228,28.500190204853453,-183.72969233707076,17.073990677944582,8.183739213627835,-126.3771736496445,27.600968870493546,21.270810318313515
0.66,-381.9061936057231,74.7254771490224,162.4697204758451,-173.0552827369486,17.138139821102566,28.40906888069122,-184.0988174368707,17.08906809000256,8.239221697864352,-126.4304327463295,27.250612582869927,21.532464777718083
0.67,-381.9005110056445,75.00890499140256,162.11471068421122,-173.0886219110792,17.40166261257561,28.55643477158141,-184.21379944507447,17.432330150920503,8.209378732720136,-126.62625573787166,26.975331705056977,22.02630680399907
0.68,-381.7559158798491,74.96121455461001,160.99596770100757,-173.08698675624652,17.64311052343273,28.57515002989344,-184.3683880196364,17.869359963446712,9.151823996230934,-127.14450932585484,26.332747480371484,22.42140884166709
0.69,-381.9935966323339,75.62613827159768,160.65385630418075,-172.97455535169118,17.165544783469212,28.518219554602076,-183.7337152791341,18.15000304615527,9.602823796956512,-126.52513675284374,26.11161272976952,22.287856557976244
0.7,-382.0820614725257,76.03391754116595,160.97766729645303,-172.85759223885282,17.078286181080042,28.784769089094752,-182.9212107903727,17.806034727860997,9.764300424790765,-125.76703525370638,25.597828773081226,21.843207147626647
0.71,-382.6114115662492,76.14960750008001,161.01864931930743,-172.80332293867409,17.393892815321983,28.55811294368437,-181.71596945923167,17.941672492287058,9.934972999724634,-124.67121733019394,25.28912401121545,21.19025489789293
0.72,-382.7057940807717,76.41201873705276,161.62497646847274,-172.76285112019326,17.554974968731546,28.616058548624512,-181.86302979805683,18.08921130689562,10.395859987002918,-124.1376897927736,25.09707203174797,20.367728526926157
0.73,-382.80707245679497,75.51485981701724,162.33371429604944,-172.75975908358245,17.578798638716513,28.81335738358592,-182.0596574802369,18.25910536182489,10.664665190028304,-123.76769285644512,24.86524001091445,20.11995804249977
0.74,-383.2388743141706,75.20720576770573,162.68119652238016,-172.79200099614474,17.340766733167563,28.859899945669703,-181.949193319728,18.15369994073714,9.973445632370398,-123.57518343299569,24.61370053359825,20.50391606726894
0.75,-383.11298633249015,74.66932851651691,163.26682700545584,-172.9429588486593,17.32880444017484,28.83031509097698,-181.5014919062721,18.524010877420228,9.748835934786324,-123.59430479030836,24.334821944289573,20.42780122883429
0.76,-383.9883179546426,74.26980775272845,164.0148378222748,-172.80307127785844,17.456742295564847,28.837810466935565,-181.4115689701522,18.06010964276635,9.350451638224298,-123.31631495979347,23.97831170009929,20.300793170120517
0.77,-384.2043085456402,73.96005617982031,164.43369512365496,-172.79836822578645,17.29423101691545,28.73824207142744,-181.7933468226608,18.069621784950687,9.403888559102722,-123.32157868917164,24.13445018135172,20.30715333396139
0.78,-384.1007678531703,74.25625902126187,164.8984534825743,-172.77397897737907,17.390290023541866,28.9332372412439,-182.0512457288583,18.063083686651098,9.403447877935363,-123.354216704874,23.77956347666676,20.335582647328863
0.79,-384.2898611924727,73.18165307138707,166.02052979114083,-172.73429474949475,17.167450577955123,28.872976641313123,-182.276569708809,18.24658749060688,9.123870211277229,-123.0767016717818,23.893601881537748,21.05738411282564
0.8,-384.7864069158184,72.32951863825897,167.38033694201923,-172.87955183348598,17.51965203805841,28.783134539201093,-182.3462749728627,18.36594380072721,9.200634096089296,-123.55842930173888,24.07847926785427,21.526876925697948
0.81,-385.4073250028303,71.29767945149008,169.2323267899283,-172.63864288797632,17.57730030021482,28.736555724595604,-182.46908070114603,18.597533484214495,8.559511335698796,-123.17104129210584,24.04922504156203,21.83875969660183
0.82,-385.8331234532946,70.86917206087261,170.52355099255635,-172.62780793497222,17.79677630978844,29.01151105106638,-182.49861948967964,18.639048504495975,8.69437997895445,-123.15322387668132,24.02657897569086,22.01043779054718
0.83,-386.0949988963844,69.30274233129431,172.44515026972016,-172.68260173798058,17.577039175579728,29.14414615018541,-182.7721635540083,18.494829452462817,8.470681504429365,-123.111216051013,24.147531975441137,22.506217251852007
0.84,-386.781017226838,68.49195798413402,173.7902616607135,-172.84113468101071,17.93411262692495,29.019585160807974,-182.81809380460305,18.55141052795046,8.47754445124159,-123.03685679335985,24.51260155694154,23.19008118632777
0.85,-387.6806052203895,68.25243728525219,175.06564804353053,-172.9950742558171,18.173306034621472,28.97098176153555,-182.6121614423631,18.636837826875244,7.904064816531109,-123.30400650005872,24.42229821915617,23.30749811326824
0.86,-388.0506602714748,67.6917166378851,176.04832392445508,-173.19928404826717,18.969240813686007,29.18137508177684,-182.9869976288689,18.83697957519104,7.363923716309615,-123.10571919561974,24.294222993865077,23.718791035891314
0.87,-388.96880885134215,66.82062268719015,177.7768255576144,-173.2884415042171,19.29510790407037,29.01334345242581,-183.51193990146604,18.867312244840047,8.061040352639873,-123.14211253913074,24.370054653089127,24.085012584574056
0.88,-389.8215289068416,65.73007629265035,178.18290104194136,-173.43345690677486,19.815812316991693,29.026741175093512,-183.63777341886396,19.20701694535853,8.557158280953063,-122.67127267570916,24.40867872913712,24.57202632709008
0.89,-390.8100219156496,65.01080108843058,178.64841164030986,-173.34698289055248,20.60311872117234,29.03688633812617,-183.8675226915176,19.04099359988569,8.838490886231607,-122.97455597084002,24.422635598876617,24.848775589535027
0.9,-391.6785379292961,64.35684123848368,176.91896225537988,-173.24316931252204,21.03563864380061,29.06235291105171,-184.4434576212385,19.48928133636879,9.4813063504763,-122.51304771611667,24.768717682672214,25.21132830851635
0.91,-392.1482031286107,63.07235175213223,176.1795843987207,-173.46789516553883,21.87290816341212,28.922608049108323,-184.817349617548,19.528174131160945,10.038445098352629,-122.29546091118917,24.915799449759973,25.40225878966664
0.92,-392.4779901278421,61.98894591521979,174.9427359010377,-173.5172042541645,23.043071730186814,28.885993913385423,-185.04388303077548,19.64592301864997,10.323135648029698,-122.44898996272543,24.864804339849226,26.397956881032407
0.93,-392.6133931124754,60.6023209100269,174.62931317295465,-173.38714556062766,23.83820991981258,28.408530810708854,-185.58759642298816,19.93239362528346,10.980019807069626,-122.18391959660153,24.768517169393107,26.71655219210804
0.94,-393.8995672438651,58.98139152417365,173.16493520459068,-173.36986642205366,24.5395649756718,28.652530350516894,-185.9937133655355,19.58265728430786,11.44763788365094,-121.99995574901318,25.113211439293547,27.1481888171049
0.95,-395.54718383258,56.43596482499287,172.03509928249233,-173.89168560808952,25.675403801390654,28.308347716254417,-186.4248995497008,19.90797208246874,12.377835062317825,-121.940282422961,25.21655364319495,27.97341234120661
0.96,-397.4510382639174,53.84288588778927,171.28688033196806,-174.0316887835568,26.69284822637191,28.353210279159924,-187.32753121706816,20.33593847705304,12.587602189931006,-121.87689426523652,25.430167984639187,28.50753309949451
0.97,-400.0420669724544,51.483342636863405,169.73422964048785,-173.70686597537002,27.97177356813864,28.195271211712576,-188.08838331589672,20.565469615062877,12.637490253972768,-122.37397919197107,25.50862907598244,29.365506465549167
0.98,-400.99866230413846,51.688232359402825,169.08401644746928,-173.8417549023395,28.79659435015264,27.85641148618937,-188.7110109652412,20.643638331726613,13.424999159765248,-121.94745083130448,25.48965652820014,30.44974095890528
0.99,-400.7240237776616,52.29445960466935,168.68316381943103,-174.1785251221755,29.465688924018597,27.93092423545885,-189.17412740973217,21.284488505261965,13.417031727518095,-122.1849842314271,26.11637055119702,30.84347626983637
1.0,-400.3009546688632,52.74433092983083,168.53554559462071,-174.33779013851495,29.91755882321789,27.962995719130603,-189.37668915982823,21.61238696898809,13.4137025193394,-122.10770210080956,26.24419331495788,31.08415947308585
1.01,-399.7543435210145,53.56636433056028,167.82512356063594,-174.2043389522754,31.19145656057972,27.362722819915728,-190.33220458171905,22.167320945223977,13.932379241811176,-121.97092652757534,26.793316797325023,32.145089498956175
1.02,-399.4743783055781,54.58637683148021,167.58714570656983,-174.3782161932602,32.25264504016342,27.41929351203615,-191.40260465901875,22.47259620580212,14.513752638299234,-121.6918289651274,27.38838948746519,33.20529123897164
1.03,-399.1579302771259,55.76754730874693,166.88662798326905,-174.50459891900573,33.43652279003802,27.427496687327647,-192.4217322286001,22.98391479477354,14.482057733561192,-121.71103324585695,28.83962780747085,35.250462433074915
1.04,-398.6987084198173,56.89697573372961,166.6213829172384,-174.56435501846357,34.164665824315,27.4595999087078,-193.38477369735128,23.586572661089917,14.832648430359551,-121.55732484705484,29.88201198934115,37.492076005310736
1.05,-398.107764052018,57.88618417297697,166.64015281119092,-174.3042575804106,35.34882214862021,27.17716657737504,-194.28527110550232,23.85658059091291,14.668626557709771,-121.60655098989882,31.16018502878287,38.75507600041468
1.06,-398.0464383768283,59.82210498812017,165.98162928195265,-174.84264444632873,38.20043684903376,26.83074868451279,-197.0084774034092,25.28720973368667,15.175725017345073,-121.4123319448134,32.36669331788858,40.448791505496985
1.07,-397.858552947717,60.87310084649212,165.1931934162876,-175.0527730309411,39.51290336733848,26.66912848448652,-198.51528816057504,25.893691968070296,15.124283465351027,-121.32040460939542,33.39628327962976,42.62884780331997
1.08,-398.2977874876535,61.669981394124086,164.6975464931547,-175.25298498045086,40.78308821036667,26.36777624157763,-199.70039611361665,26.647137619429284,14.7626222112648,-121.63808880986004,34.07428400430683,44.05683680864108
1.09,-398.9694423730247,62.388109181755766,164.30812656116544,-175.32638739157352,42.16313272897448,25.94687063511241,-201.11716319666547,27.592644279604347,15.02327965791626,-121.5393948294136,35.15558368775658,45.60084270116832
1.1,-398.7632657317944,62.43907603071601,164.0121352075509,-175.57767362508108,42.90244770643139,25.92277619425195,-201.90640691402905,28.16443539381517,14.96414580811564,-121.32743363423292,35.66680251155212,46.47279958293739
1.11,-398.74795368097415,62.65332301421389,163.90812846797292,-175.82885133573538,43.66295949628096,25.920416797355223,-202.58988487590187,28.36351941491465,14.782524718179411,-121.23408533881434,35.968740140065975,47.32357310845372
1.12,-399.0123445434919,63.43767236707145,163.43486046717112,-175.72504709904126,45.02246124916199,26.138529495165805,-204.15725705002052,28.94973786965596,14.13559459416299,-120.94031887287078,37.44828039723108,49.48650516575671
1.13,-399.0161055409474,64.10019458173716,162.68562154002407,-176.08690827227468,46.50656474258896,25.447629987011737,-205.8534060038248,30.069018175111296,13.723068302535092,-121.02311205441347,38.397152196847976,51.63950596690909
1.14,-399.0968812470969,64.24874773836979,162.40156608485225,-177.12634172352398,47.908219284962094,25.39527964701012,-206.4833307309221,30.36809502489781,13.731095653790256,-120.8664921841453,38.9513631024948,54.00633851739085
1.15,-399.1393780734641,65.0033547882931,162.21126365406047,-177.72703013281773,48.960726177483934,25.526053822552385,-207.63121146576503,31.11383708113329,12.792768082014572,-120.86777133919809,40.163053520907,56.64108591793487
1.16,-399.373927478061,65.6533585110751,161.7255928118582,-178.66516968856683,50.42576953961164,25.102800360592397,-208.6073206578052,31.85651209473102,12.091226491192216,-120.5399661844344,40.94510885644663,59.41960296044518
1.17,-399.25286025664815,66.52181593397287,161.30545449242962,-178.58102465160016,51.35170260292266,24.98417818920129,-210.40063258560417,32.7477350834386,11.184114156426054,-120.41792372608128,42.10078993861322,62.86268100668945
1.18,-399.4152427969893,67.05927707923937,161.045797895335,-178.98669753130878,52.464809370774766,24.37212499558473,-211.96655724724164,33.3419866350284,10.103019385556934,-119.7383269173814,43.02222989029798,62.231011981509575
1.19,-398.94670484293846,67.71282596787985,161.09008480129933,-178.90655507401746,54.16453904410421,24.16260475778313,-213.75560186275248,33.509038734934094,8.719031556644794,-119.69414530438269,44.25684689325407,62.290033940534485
1.2,-398.5992715687519,68.19634540822783,160.3190276338142,-179.2442341990377,55.38359322556534,23.49827443894109,-215.39484843979605,34.29812489093308,8.96165554585358,-119.50116748753116,45.22365447352631,65.50985048263603
1.21,-398.7534301462751,68.90263090867144,160.01889320018424,-179.22002915172197,55.75210677374247,23.38179718499432,-216.05885944301053,34.36343679170494,8.834166225142207,-119.17226161213702,45.44683769120401,67.33383823488911
1.22,-398.47655589709257,69.59826114130261,159.88953110693112,-179.46451761987973,56.47537669471416,23.05328733843924,-217.11048097445249,34.677685343740094,8.717360604261293,-119.07572384307028,45.98532173550236,69.59666892099784
1.23,-398.51587702155285,69.82074207717599,159.19737347789854,-179.6363441707869,57.23129595745279,22.928439112211542,-219.0065553505159,35.26331137860412,10.691919583968945,-119.29400608372583,46.58083681661761,73.52555344973815
1.24,-398.4038296312388,71.15896035482719,158.85889074930716,-180.09398947840333,59.42504152983978,21.76433276528916,-222.7953939134836,36.07594526203896,15.414272176899948,-118.83546547211424,47.578717653969576,80.71753540303207
1.25,-398.241564144112,71.51097032886524,158.365260367576,-180.28612792509864,60.74268952117685,21.323897700121545,-224.0529818110608,35.91878835749654,17.535326527479796,-118.02505540957192,48.527797463595,84.440047333143
1.26,-398.0189003491395,71.99061684577157,157.69539786351487,-180.66311764176285,61.66413618017826,20.799298847966178,-225.0788591707377,36.11922182145108,19.7583156920043,-117.59229174794147,48.65035247621592,88.28059149652235
1.27,-398.357278975033,72.79210957279379,157.1055249935898,-180.42471725071985,62.879375320946345,20.23509638473874,-226.01525070380976,36.036166874466645,21.893730332121603,-117.09896722627964,49.0481462716461,90.33373843955604
1.28,-397.8528256961391,73.26997011610887,156.75893724531826,-180.23305167618173,63.79544093647506,19.548770082878004,-227.71073549423144,36.247000551244135,24.25131236097977,-116.59766945761704,49.344839630052334,94.39489536046626
1.29,-397.9170814023236,73.60218714666637,156.0393657632941,-180.50723668853652,64.5826655393315,18.94895138334653,-228.50788464492427,36.04973417297619,26.973499719261746,-115.5953238963863,49.985870653550606,98.45225456514734
1.3,-398.0050082505701,73.70988091852276,155.70386792414195,-180.29965497795,65.29971555149945,18.008811232425952,-229.68614577989487,35.86288082942297,26.82556229799076,-114.74364800061625,50.54746748383541,102.5129243362478
1.31,-397.4235577698792,74.38966833064153,155.80763081801032,-180.5820235501373,67.02775548294403,17.13917932186437,-230.7167221914476,35.50818089091603,26.97394964361686,-114.25068497939054,50.28375853617417,106.99230807738182
1.32,-397.42579923121593,74.55160388332585,155.72113938809522,-180.29965371489263,67.07166115421546,16.827584189838426,-230.96377168862065,35.47752856118289,28.256208488877515,-113.26920498260634,50.509461513701865,109.75180488977172
1.33,-397.31411395061536,74.88959288475475,156.0771816953301,-180.35270655865745,67.37444528107355,16.156302974516752,-231.6667949823992,35.24897732520923,29.614551714978525,-112.51848801168714,50.319010172964745,112.30792648489836
1.34,-397.1841140875734,75.30506305386382,155.93765309062252,-180.28788869035105,68.20607008469878,15.466172073741852,-232.3330632275961,34.80000457683325,32.068839184540934,-111.16210440710816,50.0589426178561,117.86858982869208
1.35,-396.5081723219731,75.70471217254813,155.71589353958333,-179.96401026354343,68.97368960526856,14.41860595965262,-232.52219766960337,34.41860479100724,34.62524500496193,-110.03366105792728,50.281157240105856,119.94944026920956
1.36,-396.6773324074738,75.90648075484711,155.19354682514142,-179.70627432796715,69.97154683158168,13.586594285589973,-232.6116802095022,34.02413232610096,36.74770544815348,-108.14384104327588,49.93582680306779,124.14039054708256
1.37,-396.8361565978272,76.04320269143314,154.7931359693563,-179.3348251737493,70.26426954342534,12.644112065841949,-232.48204278764277,33.648008672231924,39.002876408809016,-107.59226206264516,49.33836290665499,127.69880763533772
1.38,-395.9420016654242,76.36453781645041,154.498470902895,-179.42275317539008,71.39328650690643,11.373924829398431,-232.66497651882364,33.00667706676362,41.48125024658621,-106.93003289179396,47.94263866965128,130.54930544365686
1.39,-395.660273813247,77.02144333131581,155.20594773967983,-178.952956218599,71.91973873061613,10.67120952502169,-233.3208956085745,32.61775867450132,44.177697033948135,-105.88227055267522,47.09411468597271,133.69498500908767
1.4,-395.3381865297859,77.22957740365189,155.00975094701857,-178.54165152016387,72.74530651452794,9.528649430588716,-233.28745544417797,31.98165826987704,46.80086271087417,-103.9118535267634,46.590043985605625,136.88122692549825
1.41,-394.5837782736932,77.59837054453246,153.91193976292445,-178.43835453603515,74.02657827117956,7.313801754509211,-232.50368083334004,31.341839282402184,51.514252278812975,-100.03813330326705,44.70360018970548,142.40156368207718
1.42,-394.5125609235014,77.67181937610222,153.54372796078886,-177.90741082806227,74.79504978592303,6.280839642275311,-232.53776558585955,30.54780605477959,53.959460917966936,-99.02524724001982,43.74815004825179,143.995384481346
1.43,-394.3499823678651,77.76530013004543,153.2318125259048,-177.7830434570847,74.87932979633791,5.690572691545952,-232.59486491116235,30.11227560450905,55.57359367357192,-98.63686242055464,43.38439990191046,144.50894593507024
1.44,-394.1267267206221,77.69799859889929,153.13981153319145,-177.53901954291447,75.22069727975388,5.4186270178246,-232.73846589984623,29.891021212852856,56.78759779507412,-98.31429849190472,42.804447591816135,145.32855467253003
1.45,-393.8281597433359,77.44730100111228,153.53561747651577,-177.41122846115277,75.92800874437734,4.285084562681994,-232.954212327577,29.35081820233256,59.20555303839056,-97.01481246681226,42.07924269335731,147.74052954762627
1.46,-393.62722596413545,77.6738745071725,153.9455514951707,-176.79516829649518,75.89302288577703,3.5727297447376345,-232.15671316110675,29.406937217947583,61.27015276156319,-95.92633458438836,40.827030609117934,149.70841026282446
1.47,-393.38138597371005,77.7765089687877,154.24187262358367,-177.129253634242,76.49978211216688,2.977960728628005,-231.42020063955653,29.420049062441404,63.28329673511664,-95.15572422041129,39.81791197978127,150.60491849168864
1.48,-393.1826570726681,77.74624964630418,154.31821425178416,-176.85911117172571,76.63348150600916,2.172281189829408,-230.2230938775346,29.55535708863684,65.21476259014257,-94.84081633275996,39.0587159363023,151.4392000916623
1.49,-393.1986828220748,78.02727706960346,155.0386758285249,-177.05542494688393,77.17498774368175,1.844565835080355,-230.0080955412872,29.25327389031688,67.50306130486092,-95.44465094371265,38.76813406795828,152.72226825513883
1.5,-393.0347136032353,77.91868497724512,154.79794841826035,-176.72251241144815,77.67015094327944,1.5512752566613413,-230.30206186973976,28.96844771726055,69.64713370548934,-96.1234712837487,38.30405391053683,153.91970077822975
1.51,-392.62903466615313,77.65532892262063,155.78262476973262,-176.52037036143383,77.99056542485964,0.891596584894891,-229.46921440850005,28.815849719562173,72.07049616333367,-95.11969342138556,37.39300202509136,154.14165556556694
1.52,-392.68963273327387,77.74542434193738,155.3053568017622,-176.76820439889943,78.10803002515392,0.4403425246783173,-228.59593568656263,28.998167643538245,74.17928660106475,-94.5740129275003,36.52176578533926,154.74211634939633
1.53,-392.6855780737392,77.59046689672917,155.4493307966548,-176.83143324558225,78.33203817800272,0.4151309296925358,-227.9181961982112,28.8729848161846,76.27663181870358,-94.48212077833304,36.43766939368807,155.19240315768414
1.54,-392.6694913392342,77.64518385483397,155.52754881996958,-176.81991174709103,78.47240082532927,0.3791460833369244,-227.5654495993533,29.23857001006735,76.74011365527717,-94.76325145312742,36.156204456445145,155.86195374813892
1.55,-392.7758395704306,77.63155990572015,155.9502320615598,-176.63247230555507,78.7305277577929,0.1795199293409481,-226.85681306288487,29.44380492692018,77.79767452636604,-95.04770519632535,35.833770818731075,156.4294991228749
1.56,-392.69443919818815,77.45102420849688,156.3492899402112,-176.88369799811045,79.06349241319484,-0.6094284412822475,-225.69392051355763,29.530657697416355,79.34715552005508,-95.10525318217547,35.532420086074175,156.59965306604553
1.57,-392.84608345785966,77.61429645239247,155.942426770962,-177.00614342391958,79.4247898021661,-1.035797390781198,-225.255132295473,29.55094352155808,81.33851028032086,-94.11791532222628,34.53513254526,156.50246285791056
1.58,-392.3211973329869,77.55989642578322,156.1903775931981,-176.95673393182952,79.46513006012543,-0.4997265899882556,-224.68831554434735,29.970582884805637,83.04235556846048,-95.15039005082951,34.853063732863475,156.2866896086326
1.59,-392.6313423966049,77.51329971987133,156.21853732385804,-176.81520839080832,79.92884653195676,-0.7715807933355558,-222.47119138206423,30.898602468473868,86.68468517549174,-96.7939021006972,35.0434253612394,156.723110961421
1.6,-392.2766772727888,77.38137727274822,157.1260902822221,-176.95322786384838,80.06658326392565,-0.5339902493990292,-221.63254504567487,31.815648083274944,87.98177325545866,-97.79606484796216,35.085609420920726,156.40211950909074
1.61,-392.0215608189154,77.75479955374637,156.9295710849876,-177.294560817007,80.06935511049397,-0.6804847044599492,-220.64685580709985,32.83041698818442,89.4213071730992,-97.79813197590214,35.5692092783334,155.93253655476744
1.62,-392.0277694268722,77.5747782403285,156.9996878488994,-177.14381784234132,80.2005869225666,-0.8061055258458968,-219.64198291236127,33.22708387130834,90.98620261765409,-99.24025762917805,35.34848787317427,155.44255131810607
1.63,-392.0550044086798,77.61423877528115,157.81630081340228,-176.8921107254029,80.19756162953773,-1.3022087125536663,-217.821510084654,34.30422345280027,92.79401296699268,-99.82742006437935,35.15371329049002,154.6962096043108
1.64,-391.8960928523457,77.42970426988748,158.3816908275126,-176.81080557869822,80.41390148488092,-0.6381458102642229,-216.13832823382157,35.248887931759484,93.93249120077866,-100.05118981948912,35.52933030952643,153.70322923219757
1.65,-391.74682544747935,77.25377512122748,158.5961634477559,-176.7165596784193,80.49008297028467,-0.8055811027655433,-215.98132505235017,35.195408876607374,94.18497966556384,-100.65419478629134,35.68905895302363,153.29287253087668
1.66,-391.6285131729285,77.39438509771485,158.71484169180243,-176.72754337837182,80.44887033992745,-0.4672195385046973,-215.82176573319512,35.52630759662198,94.4292849396702,-100.85293760434962,36.05058756485059,153.0699076812978
1.67,-391.3624737780214,77.41622875087754,158.5263020438169,-176.77380991809466,80.46000228032702,-0.3428190330491753,-215.0839851547991,35.746122135063736,95.55612794329043,-101.4293688420684,36.42412947203033,152.65177556290823
1.68,-391.61228535278735,77.0794749348417,158.65704401079986,-176.4860033353344,80.75403594984702,-0.4957911539338611,-213.87244960016525,36.50792821126287,96.8405864685606,-102.80371601627968,36.40340418645438,151.41108174003932
1.69,-391.6107561788468,77.4184394468745,158.4489654173793,-176.62333122826,80.40530179064402,-0.2284991658941328,-212.6680819171672,37.67428306101364,97.63496977658993,-102.80620155558351,36.61829274011634,150.65296010403242
1.7,-391.3090021250753,77.33301435749597,158.54719146198642,-176.6922850019746,80.19150392207266,-0.1187049146546765,-211.5517152755922,37.820800514282645,98.86567334049938,-103.07662242332589,37.21374551602589,149.66808074359943
1.71,-391.2842323945555,77.04452103030636,158.97800955350473,-176.2945518377026,79.67311884401387,0.3429675861164284,-211.27614051007197,38.08123136592226,99.38142336152713,-104.52227431222612,37.44618560519972,148.8161008736394
1.72,-390.9292446716149,77.0914600482193,159.2914114888247,-176.26363537219535,79.70748386441899,0.6422666353320019,-209.88989526963292,38.53626457949336,100.5131891639382,-104.62793871071696,37.68768285706291,147.58064636864492
1.73,-391.10135317531416,77.07824017452504,159.7237203173885,-176.20575155045157,79.27209365500029,0.886763845991102,-208.48693589437568,39.30626744849954,100.72769018937272,-104.56682768973243,37.764370590455634,146.62380276141948
1.74,-391.3251076809023,76.60780003506181,159.95038070019953,-176.3576758506905,78.70240292046029,1.5590881612859415,-207.52873923627095,39.94854788116836,101.18138662753051,-104.80975337111208,38.52256303548078,145.9653656868998
1.75,-391.0527124806966,76.9405792702489,159.8238557392171,-176.15693632582722,78.6296630083535,1.9124875544591813,-206.52710756536612,40.368889335976114,101.62732340348916,-105.29980291163017,39.480346145043306,145.2768514505242
1.76,-391.10740437752776,76.78682936251693,159.81912592444738,-176.34746654848226,78.45396821281405,2.083518236520965,-206.10115883384216,40.48588437145835,102.09088570249224,-106.33193687836348,39.70731773089508,144.41255652925952
1.77,-391.3191157447177,76.47396193630935,159.51153295304266,-176.3891002347355,78.36448686436013,2.534966205735345,-205.2148308144551,40.916590243316726,103.11919781464466,-108.0014400874326,39.88464205847721,143.39088281071247
1.78,-391.710936729007,76.53736913671523,159.544652112394,-176.65387285377363,77.78675433624794,3.5754824623896164,-203.86427336801967,41.731003625848,103.07363675016786,-108.224700795025,40.71097570270275,142.83325679114952
1.79,-392.02880428321134,76.03970858079948,159.3002068804339,-176.6501229619995,77.61616920861178,4.28484083034158,-203.3402918612104,42.19262701012441,103.53680820020976,-108.44285216492298,40.97756192416264,142.2246999181155
1.8,-392.1000884337271,75.92609511777859,159.5148292884812,-177.01466520631354,77.4580653932085,4.759127297334354,-201.93911050878037,42.77618518088264,103.99852164571436,-109.04674129676305,41.50626302128191,141.58905073642478
1.81,-392.76489177009927,76.18905354213796,159.10366822536935,-176.99771939960425,76.87980542447843,5.910335087596686,-201.23900633187844,43.20880299628006,104.50568453267934,-110.65403313265033,41.7141885890908,140.95353877432163
1.82,-392.9262730459861,76.03315883919899,159.1550216767929,-177.3064373712909,77.0958901975902,6.7821610011129545,-200.38957401776736,43.57300526406859,104.89183162283254,-110.4064355069404,42.40622549471495,140.42343505298695
1.83,-393.4822010214117,75.78351665728873,159.13177243723652,-177.65725958660718,76.60208136666549,7.292065863146306,-199.37312995107263,44.25041812133114,105.48585423846566,-110.74465140893744,42.706426437443845,140.5365403778504
1.84,-393.5330846104025,75.27396551702907,159.27124628061017,-177.70726778132462,76.78124705119193,8.214939943452702,-199.0580989600364,44.42544758041083,105.56808014155332,-111.0053892126521,42.89777671834919,140.15732709994157
1.85,-393.8818197214435,75.56318762213415,159.122525214988,-178.2627103421512,76.42990668729627,9.475366833992334,-198.3593022900824,44.935731819912014,105.92475158946188,-112.23784160694004,42.73424214052344,139.32848412672772
1.86,-394.2518848778708,75.30895981697066,158.6324380855545,-178.88775316587336,76.14859632291564,10.303509948189028,-197.46105363334516,44.95232793311592,106.23671527181791,-112.7444888083092,42.81430233228326,138.78765334085432
1.87,-394.33284369315936,75.31716287878862,158.6005047433955,-178.7598451929694,76.31925050442707,10.836915313273268,-196.8726107539653,44.95978687112533,106.25882679387834,-113.3079683952109,42.90541684735948,138.3145314310361
1.88,-394.584847016632,75.06875407544474,158.4078300464353,-179.06845875842447,76.14818200283177,11.424051132191195,-196.86172068949267,45.127456177419845,106.34578265742698,-113.62808277957566,42.81700821782215,138.33876653648645
1.89,-394.9076762889508,75.10599101623589,158.57144101361305,-179.1658851787954,75.9940479568489,12.09745063675848,-196.04794876192815,45.4072449967716,106.57254188687708,-114.51323361098709,42.97236848851768,138.11897292350042
1.9,-395.077633765071,74.68710886403323,158.38809308038032,-179.6159225700325,76.0761842716046,12.951278166140677,-195.54682959963165,45.51252135399113,106.72127650602783,-115.2105325585531,43.184471122038296,137.23606327556885
1.91,-395.3054625737489,74.93039047594577,157.6504306482923,-179.51677426752178,76.0163207569902,13.543659884277766,-195.26755853829715,46.12198984746737,107.23367176362191,-115.99043559524748,43.8173199862148,136.59741667813958
1.92,-395.3363177481816,74.5979890801088,157.51806085389637,-179.71274800401395,75.62707849864293,14.289700900551328,-194.38321697968183,46.4949779849415,107.30401839656096,-117.34770081874586,43.92317632619467,135.65021532566328
1.93,-395.57517529417686,74.59703430294927,157.41593663868082,-179.9755970862893,75.68351237441011,15.120056473041,-194.0002800252009,47.21267253791602,107.2369379530806,-118.19282914807108,43.73513492555774,135.3340725344106
1.94,-395.3476413314749,74.62089465048909,158.59965190145465,-179.90958592190808,75.37052975469786,16.156882903852363,-193.0997474572573,47.26378942464265,107.74170457138936,-120.10917542286904,43.33937499338712,134.61104466249284
1.95,-395.5099789581787,74.18569872495917,158.77152811505854,-179.91716919630903,74.62752190335107,17.192442885248408,-192.74666914803623,47.10405407251101,108.0845938629856,-121.15716085917444,42.80275451195335,134.0914525283814
1.96,-395.7740356386212,74.21468758329715,159.06963648098952,-179.524317502643,74.84093781540389,17.71716367976127,-192.6431683345376,46.70245697292435,107.90795579242106,-121.6813976710093,42.71933434271987,133.79778863684243
1.97,-395.7948581416173,73.5481583081332,159.76777597005915,-179.9023459325346,74.64661740975737,18.007813529111193,-192.4879671096259,47.12621658732794,108.65294564687125,-122.33365434621244,43.16312076665443,133.52713204242835
1.98,-395.9236821720963,73.66837958571311,159.74739696592212,-179.81123836161365,74.56846000924052,18.23899602901312,-191.7979430708951,47.21257456861159,108.75607546302666,-122.54916909714218,43.30893909278068,133.6021091179475
1.99,-395.58349369482096,73.76344066823502,159.62004100658547,-179.83697407434943,74.34194232772366,18.089825062051894,-191.5425136879269,47.500249478891696,108.9790257037861,-122.77201581406716,43.28321847541503,133.28051205955524
2.0,-395.3252152202424,73.08816918200858,160.14219829306188,-180.0263066502274,74.49399718672028,18.537775706006464,-191.26535047266856,47.63206600014644,109.57667293321124,-123.8677068870001,42.59410880667056,132.7980387878426
2.01,-395.3513990111711,73.30432548050804,160.5022702089546,-179.9710817362532,74.03487419447933,19.08408967632395,-190.7370142001294,48.22849053761528,110.00766832052452,-124.85685109473674,42.62054379965091,132.67441825199515
2.02,-395.5210968683193,72.62210613363136,160.19847761973563,-180.02923924699698,73.80896585631834,19.35663022422901,-190.18622574972923,48.04481691943275,110.262125608034,-125.83174718646744,42.28112321325926,132.36647200218525
2.03,-395.5948945790396,72.66187219010729,160.3493164375705,-179.49490767299017,73.42984363449587,19.7109723141579,-190.20785542464208,48.33703466544873,110.3213576911097,-126.44797080416028,42.14355810022792,132.2793172249456
2.04,-395.40659112970457,72.56991590162029,160.31264057198996,-179.6296852591312,73.21134297033706,20.13808132601429,-189.91008638651036,48.0966349275164,110.37871695560348,-127.51918117284082,41.6537184994894,131.6248880335831
2.05,-395.5972096092912,72.56028042540379,160.34672011798546,-179.94064908977887,73.29168415900762,20.52357879759403,-190.29861100651985,48.03977385927276,110.1408149863545,-128.01847851569096,41.68521038756997,131.53996843848685
2.06,-395.50388163117833,72.0895231683335,160.71542123057378,-179.7291746598655,72.90145932005687,20.39584470706555,-190.0315216926641,48.07653216515159,110.3554691221024,-128.65482888077386,41.53140327682657,130.99545818381347
2.07,-395.1073675397526,71.83076915025117,161.17434665957282,-179.25612494925994,73.39434125788031,20.73573433542921,-189.58163363262665,47.82223887780574,110.59218616825504,-128.80751523663506,41.466140343281786,131.15896319555205
2.08,-395.4046303097384,71.84603783256834,161.13320808519094,-178.96108975419438,72.90149540181899,21.194802335030648,-189.88663509927747,48.24994054415926,110.79024243784406,-129.205449948572,41.38017122359508,130.7300041335171
2.09,-395.1108394881328,71.70194734408973,161.22636535368872,-179.1033842677591,72.72963636213704,21.306562527805028,-189.6911933191116,48.26929755553743,110.77017437907192,-129.5220651072958,41.39711642040856,130.7159081775559
2.1,-395.07020086270654,71.54805938967452,161.01200210496285,-179.44297810911448,72.67692606358622,21.43857458939742,-189.8467185942777,48.35474206970788,110.63036960689864,-130.16209764207724,41.40744333862806,130.63835902676317
2.11,-394.9801242874555,71.70836878447722,161.33556659907717,-179.28739011702302,72.55359330668173,21.482592623250916,-189.7745142059204,48.31849455553621,110.77386539524376,-130.27434235268544,41.01199278966004,130.59037997433177
2.12,-394.4560555743615,71.4875788448236,162.2200177345779,-178.6208955363319,72.30623021697409,21.480315208814112,-189.33997889875644,48.31405104651146,110.96251698709322,-131.51641708409502,40.847814506841694,130.20233747407468
2.13,-394.7041634417455,71.1738055175479,162.30731479313943,-178.87234983874396,72.23853350194285,21.72322110413674,-189.0967969479333,48.19999078561734,110.92769226018468,-132.33521089934786,40.391676198928536,130.18069256028895
2.14,-394.3468852861018,70.92583914688815,161.89115488869967,-178.94033784416538,72.35558844171078,21.6505835945141,-188.65296947688503,48.50540557221763,111.2129574949276,-132.72292434739467,40.60083786377963,129.76855774812893
2.15,-394.6499085112172,70.676765689445,161.97986138175838,-178.9320159230338,72.17721345501548,21.934035137772568,-188.38962160321668,48.36206871993701,111.31169776237462,-133.21327930913515,40.65673462476919,129.91045713178647
2.16,-394.4204551781416,70.42922372832618,162.28777709776378,-178.37526910796083,71.99588573086838,21.39531152021522,-188.28556900940623,48.61824671177247,111.32473612430977,-134.3133108188671,40.336462543562696,129.489801585784
2.17,-394.6892907895239,70.34551901184952,162.5629154312295,-178.6094493477948,72.03244774197535,21.260236368973867,-188.39347583741025,48.41971641825688,111.69866958284013,-135.2087059170214,39.546775807435694,129.26583458985883
2.18,-394.6435691570144,70.03184209880729,162.39029897239823,-178.2238602283446,72.14513410589161,21.65841022532684,-188.17567041151324,48.45874833632155,111.4701671808832,-136.050479779149,39.06527887921682,129.1978732354893
2.19,-394.2400496915728,69.90377904096516,162.57993839364582,-178.46476243381886,71.8789939780881,21.709735247906558,-188.32864140493857,48.144240851335816,111.4918265184946,-137.15793722627984,38.40424305107424,128.9265997413187
2.2,-394.0209461446465,69.98783544816871,162.48703901907157,-178.1516431298493,71.52114926007171,21.812738695921198,-188.00688357708336,48.07980062631273,111.70182111202594,-137.6823092213469,38.35126733062359,128.92415716926504
2.21,-394.1757824646734,69.88390309163724,162.32573140584145,-178.12869397757643,71.62543999140223,21.604209213026238,-188.1688055023274,48.19444442851273,111.69900585922886,-138.12409739025475,38.08617091887282,128.72279468978613
2.22,-394.5419963576472,69.5966424395134,162.62926323859978,-178.24840792699774,71.84918541460742,21.020275905926194,-188.56260598980728,47.87996472751238,111.83260246380792,-138.773034915047,37.805566766246514,128.65169204379183
2.23,-394.39248003366765,69.58182162095731,163.02250431142826,-178.1754053530589,72.35856488915684,20.903890604491043,-187.8862370236617,47.88378785711127,111.80981183657538,-140.00645176259715,37.43310122693005,128.58347327548427
2.24,-394.3901449514947,69.66549147080467,162.53542574350365,-178.25769089248436,72.31502590936611,20.575329544253453,-187.74580141273756,47.84850465778913,112.10795661455396,-141.01269949369157,36.63109363267301,128.10459897576047
2.25,-394.0934337070706,69.87523115684117,162.5652748849171,-177.74714364224565,72.0390790316085,20.443893079720976,-188.0774297842598,47.44390523029979,112.18614755302336,-141.57360180233397,36.56165182924119,128.01542569913272
2.26,-394.03180310519286,69.98869467580789,162.4928700248132,-177.83408183568343,72.35499862348004,19.91327310304376,-188.070590625627,46.91646730210946,112.38776440189363,-142.7998183717758,35.79246066815036,127.74733903427855
2.27,-394.4774313136415,70.0413812412609,162.74383453651652,-177.68763667986917,72.62989318045662,19.40498186703808,-188.20974798419024,46.7744604670285,112.28146305759375,-144.05855888572742,35.295270430315306,127.72242652599412
2.28,-394.841426561586,69.84297220285849,162.02803977530732,-177.50266731039045,72.50738416264969,19.090213687018537,-188.56907547510372,46.27352981250595,112.49420199285817,-144.98099723485095,34.78910762147444,127.36315726866088
2.29,-394.41566082243,70.04918786808437,162.0807855762147,-176.9767099277042,73.00779808732885,18.2842215385836,-188.7277552321009,45.010191844676015,113.13307607043792,-147.57188939427635,33.18121894364061,127.12032642083072
2.3,-394.55808615509886,69.94545942543873,162.07067624532766,-177.15372190299092,73.02909549185817,18.12943147122401,-189.2029589541589,44.50454508619358,113.29260572532964,-149.27223091338354,32.23111444942383,126.88856663291196
2.31,-394.2916254384677,70.21328411929485,161.9053933934155,-177.18138394644646,73.08996192900246,18.316150348261665,-189.43119615856315,44.10421127172894,113.32691647249588,-149.90051015868605,31.85773918186537,127.02819252980989
2.32,-394.4254748343674,70.2053791987105,162.03263662949914,-176.98088370736036,73.42097415178714,18.210960822938063,-189.551801213073,44.192262530209135,113.2404354986294,-150.3986043146515,31.720719326071247,126.80020476035574
2.33,-394.20681082868975,69.88301464906085,161.88960979855716,-176.86290897981698,73.15824642322087,18.08343476937132,-190.1165607155096,43.64502324900128,113.29701821899768,-151.27003987301535,30.80204217895973,126.70033640819236
2.34,-394.19074470417087,69.98814958666655,162.06891359042604,-177.00542593579087,73.48865405728493,17.92477672511781,-190.375132122446,43.017650170038976,113.43087194688071,-151.31815519291146,30.635544484523887,126.95268946473038
2.35,-394.0068590957487,70.1119789723216,162.23676855040233,-176.91818574761956,73.4304927489248,17.75479106617855,-190.4499591943948,42.90024401221815,113.9057319485074,-152.07726016682514,30.242134514775486,126.92568170405134
2.36,-393.8292129455383,70.29300224011091,161.90289656003768,-176.57897370518066,73.35348052315476,17.76765641432196,-190.4181476508153,42.9734079065342,113.69384326202064,-152.84231443624944,29.67820366367168,127.04313787939392
2.37,-393.888890540488,70.20359135217755,162.32284854113828,-176.73234083912922,73.58692252539323,17.630583985430317,-190.4158626367768,42.70636296598422,114.08817146408512,-153.47256555613342,29.335478114790494,127.15815431757892
2.38,-393.9231000360367,69.86746678530622,162.5236521149121,-176.81894491793463,73.61768647242596,17.615495312965116,-190.7446429144914,42.52207758209804,113.89738682022896,-154.08609843244244,28.987587461904468,127.32669042503164
2.39,-393.93046849553207,69.9581779256043,162.4237420276356,-176.93545726908656,73.71461806588901,17.523319103331165,-191.0716694143292,42.22460203752844,113.5465338384508,-154.32829343609387,28.47872322108395,126.94163321202556
2.4,-394.172175175011,69.81317094078682,162.38807758652484,-176.76838795355408,73.5146328472421,17.75021446118212,-191.21387866260207,42.16015142862427,113.75957258520287,-154.9188474386912,28.25945211631281,127.06540888157672
2.41,-394.0185013985281,69.94595814511688,162.19391803986426,-176.6694534860932,73.38631527377639,17.74675554074933,-191.5641128101104,42.09204876383101,113.51915323960876,-155.2582740690909,27.93991761798159,127.16791935010188
2.42,-393.90395083789207,69.96052583364002,162.1309325050529,-176.84105140912612,73.60113416182033,17.757341249358976,-191.4844470136748,42.01137046018276,113.5514766589333,-155.54828356035787,28.152063717255785,126.98579592789724
2.43,-393.81646060412464,69.836817097611,161.98691967157836,-177.0103519689722,73.66886100168531,17.789102244669802,-191.4471653614844,42.00274316247674,113.67061102393228,-155.7523106273732,27.936956461221733,126.81896912232806
2.44,-393.5462717318276,69.73233701420338,162.50771358817482,-176.31789555629206,73.8042914408645,17.740929006690433,-191.4394051648749,42.40235433413065,113.55369642555796,-156.10295435477246,27.509515369868023,126.7769560281271
2.45,-393.7017845493257,69.9421479734874,162.83124110055968,-176.1569154097487,73.40342590463811,17.435911810859192,-191.58230855050795,41.92645014436896,113.46725190410504,-156.6668546853924,27.27087779377725,126.79205079050396
2.46,-393.7424101784775,69.7798658967505,162.80716634999223,-175.98806099550367,73.42288011935777,17.510981125015242,-191.95279398145067,41.825505525111446,113.4436511452254,-156.8722301478128,27.17507687386488,126.51324402324454
2.47,-393.3694571455901,69.83885265617022,163.35589757206282,-175.69117692516014,73.37610258062251,17.115716013730182,-191.9306898819653,41.870528300156245,113.3739290817227,-156.85533176782448,27.320527601192147,126.58336321825992
2.48,-393.1337151430234,69.69812172597507,163.22920654921072,-175.53062255744155,73.40028685822054,17.040043646743026,-191.6832778322651,41.98533805643893,113.47796373710068,-156.6569805927837,27.6384379106308,127.18729717687222
2.49,-392.9952828376735,69.80222085874205,163.43073023260644,-175.4579108094861,73.31014418175425,17.003848655735457,-191.54536031570967,41.98229349952324,113.10655778607403,-156.85531369362874,27.34410889232707,126.78222084819244
2.5,-392.9962127036718,69.58737139726759,163.4571372037766,-175.1160614403639,73.15485447399696,17.022303972544933,-191.7779369664702,41.72065513456942,113.26184894886424,-156.87857873005035,27.654706520134923,126.64102283237152
2.51,-392.5592392503252,69.73683633718205,163.65814176077683,-174.94669446220064,73.43809168688558,16.974166179017963,-191.83285496772956,41.94438904940859,113.3791464821601,-157.50303715207818,27.500470920823687,126.90157663928277
