0.01,156.06,18.44,39.19,2.90,5.50,7.12,0.03,0.09,0.33,18.50,40.06,27.25,0.22,0.37,0.07,0.19,0.10,0.35,0.91
0.02,168.81,4.69,10.00,0.58,1.38,9.61,0.37,0.03,0.05,6.87,7.56,50.69,0.21,0.35,0.00,0.10,0.05,0.08,0.99
0.03,168.81,4.62,10.38,0.58,1.42,9.51,0.32,0.01,0.01,6.87,6.50,50.38,0.12,0.04,0.19,0.10,0.05,0.09,0.99
0.04,168.81,4.62,10.69,0.62,1.81,9.39,0.29,0.02,0.00,6.87,6.50,50.38,0.19,0.01,0.07,0.10,0.05,0.09,0.99
0.05,168.81,4.56,11.00,0.54,1.79,9.65,0.27,0.04,0.02,6.87,5.69,51.56,0.26,0.04,0.19,0.10,0.05,0.09,0.99
0.06,168.81,4.50,11.25,0.47,1.91,9.80,0.19,0.04,0.04,6.87,5.69,51.56,0.32,0.07,0.19,0.10,0.05,0.09,0.99
0.07,168.75,4.44,11.50,0.64,2.11,9.83,0.15,0.01,0.02,6.87,5.69,51.56,0.12,0.15,0.25,0.10,0.05,0.10,0.99
0.08,168.75,4.50,11.63,0.59,2.10,9.91,0.12,0.02,0.03,7.25,5.00,52.00,0.24,0.12,0.37,0.10,0.05,0.10,0.99
0.09,168.81,4.50,11.75,0.49,2.16,9.92,0.07,0.02,0.04,7.25,5.00,52.00,0.18,0.21,0.38,0.10,0.05,0.10,0.99
0.10,168.87,4.44,11.81,0.61,2.37,9.82,0.05,0.01,0.02,7.25,5.00,52.00,0.11,0.35,0.10,0.10,0.05,0.10,0.99
0.12,168.81,4.44,11.88,0.63,2.12,9.22,0.03,0.03,0.05,6.50,4.19,50.19,0.14,0.04,0.41,0.10,0.05,0.10,0.99
0.13,168.81,4.44,11.81,0.60,2.09,9.13,0.04,0.03,0.07,6.19,5.00,51.06,0.15,0.08,0.42,0.10,0.05,0.10,0.99
0.15,168.62,4.44,11.75,0.64,2.17,9.46,0.05,0.03,0.09,6.19,5.00,51.06,0.08,0.24,0.01,0.10,0.05,0.10,0.99
0.16,168.50,4.50,11.69,0.85,2.32,9.64,0.05,0.04,0.09,6.87,5.37,51.56,0.06,0.23,0.11,0.10,0.05,0.10,0.99
0.17,168.44,4.50,11.69,0.77,2.13,9.78,0.04,0.03,0.06,6.87,5.37,51.56,0.01,0.12,0.16,0.10,0.05,0.10,0.99
0.18,168.31,4.56,11.63,0.74,2.10,9.69,0.04,0.03,0.04,7.25,3.87,50.19,0.04,0.13,0.03,0.10,0.05,0.10,0.99
0.19,168.25,4.56,11.56,0.72,2.12,9.48,0.04,0.04,0.04,7.25,3.87,50.19,0.02,0.13,0.15,0.10,0.05,0.10,0.99
0.20,168.19,4.62,11.56,0.70,2.02,9.43,0.03,0.04,0.04,7.25,3.87,50.19,0.13,0.04,0.20,0.10,0.05,0.10,0.99
0.21,168.37,4.62,11.50,0.62,2.04,9.41,0.04,0.04,0.02,5.75,5.00,51.56,0.16,0.08,0.15,0.10,0.05,0.10,0.99
0.22,168.37,4.69,11.50,0.66,2.14,9.39,0.05,0.03,0.03,5.75,5.00,51.56,0.13,0.19,0.17,0.10,0.05,0.10,0.99
0.23,168.31,4.69,11.44,0.68,2.19,9.53,0.04,0.03,0.06,7.25,4.19,51.50,0.12,0.24,0.04,0.10,0.05,0.10,0.99
0.24,168.25,4.69,11.44,0.66,2.24,9.60,0.04,0.04,0.07,7.25,4.19,51.50,0.13,0.29,0.03,0.10,0.05,0.10,0.99
0.25,168.13,4.69,11.44,0.84,2.06,9.60,0.04,0.05,0.08,7.25,4.19,51.50,0.03,0.12,0.02,0.10,0.05,0.09,0.99
0.26,168.06,4.75,11.44,0.78,1.95,9.59,0.03,0.03,0.06,6.87,4.56,50.25,0.02,0.01,0.01,0.10,0.05,0.09,0.99
0.27,168.00,4.75,11.38,0.80,1.87,9.50,0.02,0.02,0.04,6.87,4.56,50.25,0.01,0.05,0.07,0.10,0.05,0.09,0.99
0.28,168.00,4.75,11.38,0.67,1.82,9.51,0.01,0.00,0.01,7.25,5.00,50.38,0.14,0.10,0.06,0.10,0.05,0.09,0.99
0.29,168.00,4.75,11.38,0.72,2.10,9.48,0.02,0.01,0.02,7.25,5.00,50.38,0.08,0.17,0.09,0.10,0.05,0.09,0.99
0.30,168.00,4.75,11.31,0.78,2.13,9.50,0.02,0.00,0.03,7.25,5.00,50.38,0.03,0.21,0.07,0.10,0.05,0.09,0.99
0.31,167.69,4.75,11.31,0.79,2.14,9.53,0.01,0.00,0.02,9.50,4.56,51.06,0.13,0.20,0.00,0.11,0.05,0.09,0.99
0.32,167.69,4.75,11.31,0.68,2.14,9.57,0.02,0.01,0.04,9.50,4.56,51.06,0.06,0.21,0.03,0.11,0.05,0.09,0.99
0.33,167.62,4.75,11.31,0.78,2.10,9.52,0.02,0.03,0.04,9.50,4.56,51.06,0.06,0.11,0.03,0.11,0.05,0.09,0.99
0.34,167.62,4.75,11.31,0.74,1.97,9.63,0.01,0.02,0.03,6.87,4.19,50.69,0.07,0.05,0.07,0.11,0.05,0.09,0.99
0.35,167.56,4.75,11.31,0.76,2.05,9.65,0.01,0.01,0.03,6.87,4.19,50.69,0.05,0.14,0.07,0.11,0.05,0.09,0.99
0.36,167.75,4.75,11.31,0.74,2.03,9.56,0.01,0.02,0.00,6.19,4.56,51.19,0.12,0.04,0.02,0.11,0.05,0.09,0.99
0.37,167.75,4.75,11.31,0.66,1.96,9.53,0.02,0.00,0.01,6.19,4.56,51.19,0.15,0.04,0.04,0.11,0.05,0.09,0.99
0.38,167.75,4.75,11.31,0.72,2.15,9.45,0.03,0.00,0.00,6.87,4.56,50.69,0.08,0.31,0.11,0.11,0.05,0.09,0.99
0.39,167.75,4.75,11.25,0.84,2.17,9.46,0.04,0.02,0.03,6.87,4.56,50.69,0.00,0.24,0.08,0.11,0.05,0.09,0.99
0.40,167.75,4.75,11.25,0.71,2.14,9.55,0.03,0.01,0.01,6.87,4.56,50.69,0.02,0.19,0.03,0.11,0.05,0.09,0.99
0.41,167.81,4.75,11.25,0.85,2.08,9.52,0.03,0.00,0.02,6.87,5.37,51.56,0.03,0.17,0.06,0.11,0.05,0.09,0.99
0.42,167.75,4.75,11.19,0.84,2.04,9.50,0.03,0.01,0.04,6.87,5.37,51.56,0.03,0.01,0.10,0.11,0.05,0.09,0.99
0.43,167.69,4.75,11.19,0.81,1.84,9.45,0.03,0.01,0.05,6.87,5.37,51.56,0.00,0.05,0.12,0.11,0.05,0.09,0.99
0.44,167.81,4.75,11.19,0.79,1.83,9.49,0.02,0.00,0.01,6.50,4.56,50.69,0.02,0.06,0.09,0.11,0.05,0.09,0.99
0.45,167.81,4.75,11.12,0.78,2.02,9.54,0.02,0.02,0.03,6.50,4.56,50.69,0.03,0.13,0.04,0.11,0.05,0.09,0.99
0.46,167.81,4.75,11.12,0.83,2.07,9.51,0.02,0.02,0.01,7.69,5.00,50.69,0.02,0.18,0.07,0.11,0.05,0.09,0.99
0.47,167.81,4.75,11.12,0.82,2.03,9.51,0.01,0.01,0.00,7.69,5.00,50.69,0.01,0.14,0.07,0.11,0.05,0.09,0.99
0.48,167.81,4.75,11.12,0.80,1.96,9.56,0.00,0.01,0.01,7.69,5.00,50.69,0.01,0.07,0.02,0.11,0.05,0.09,0.99
0.49,167.87,4.69,11.12,0.89,2.02,9.51,0.00,0.01,0.01,6.87,5.37,50.69,0.08,0.13,0.07,0.10,0.05,0.09,0.99
0.50,167.87,4.75,11.12,0.77,1.93,9.54,0.00,0.01,0.03,6.87,5.37,50.69,0.03,0.04,0.04,0.10,0.05,0.09,0.99
0.51,167.94,4.75,11.12,0.81,1.91,9.55,0.00,0.01,0.03,6.87,5.00,50.25,0.07,0.17,0.00,0.10,0.05,0.09,0.99
0.52,168.00,4.75,11.12,0.75,2.10,9.57,0.00,0.02,0.05,6.87,5.00,50.25,0.05,0.25,0.05,0.10,0.05,0.09,0.99
0.53,168.06,4.75,11.12,0.75,2.14,9.55,0.00,0.00,0.02,6.87,5.00,50.25,0.07,0.22,0.03,0.10,0.05,0.09,0.99
0.54,168.06,4.75,11.12,0.74,2.06,9.57,0.01,0.01,0.01,7.69,5.00,51.19,0.06,0.16,0.01,0.10,0.05,0.09,0.99
0.55,168.06,4.75,11.19,0.74,2.09,9.53,0.01,0.01,0.01,7.69,5.00,51.19,0.07,0.19,0.05,0.10,0.05,0.09,0.99
0.56,168.06,4.75,11.19,0.77,2.08,9.55,0.01,0.01,0.01,8.38,5.00,51.56,0.05,0.17,0.00,0.10,0.05,0.09,0.99
0.57,167.94,4.75,11.19,0.75,2.07,9.57,0.02,0.01,0.01,8.38,5.00,51.56,0.03,0.24,0.04,0.10,0.05,0.09,0.99
0.58,167.94,4.75,11.19,0.80,2.12,9.56,0.02,0.02,0.00,8.38,5.00,51.56,0.01,0.23,0.02,0.10,0.05,0.09,0.99
0.59,167.87,4.75,11.12,0.79,2.06,9.57,0.02,0.02,0.01,7.69,4.19,49.50,0.04,0.09,0.01,0.10,0.05,0.09,0.99
0.60,167.87,4.75,11.12,0.77,1.93,9.54,0.02,0.00,0.00,7.69,4.19,49.50,0.06,0.03,0.03,0.10,0.05,0.09,0.99
0.61,167.87,4.75,11.12,0.74,1.93,9.56,0.02,0.01,0.02,7.69,4.19,49.50,0.08,0.12,0.03,0.10,0.05,0.09,0.99
0.62,167.87,4.75,11.12,0.78,1.99,9.55,0.02,0.02,0.03,8.00,5.37,51.56,0.07,0.13,0.08,0.10,0.05,0.09,0.99
0.63,167.94,4.75,11.12,0.70,2.03,9.58,0.01,0.02,0.04,8.00,5.37,51.56,0.12,0.18,0.03,0.10,0.05,0.09,0.99
0.64,167.94,4.69,11.06,0.77,2.17,9.53,0.01,0.02,0.04,7.69,5.37,51.19,0.02,0.28,0.04,0.10,0.05,0.09,0.99
0.65,168.00,4.69,11.12,0.77,2.15,9.51,0.01,0.01,0.03,7.69,5.37,51.19,0.02,0.24,0.06,0.10,0.05,0.09,0.99
0.66,168.00,4.69,11.12,0.77,2.11,9.55,0.01,0.01,0.00,7.69,5.37,51.19,0.03,0.22,0.03,0.10,0.05,0.09,0.99
0.67,168.00,4.69,11.12,0.82,2.05,9.56,0.00,0.01,0.01,7.69,5.37,51.56,0.00,0.12,0.00,0.10,0.05,0.09,0.99
0.68,168.00,4.69,11.12,0.77,1.99,9.52,0.01,0.01,0.00,7.69,5.37,51.56,0.02,0.09,0.06,0.10,0.05,0.09,0.99
0.69,168.13,4.69,11.12,0.68,1.95,9.52,0.01,0.01,0.01,6.50,5.37,51.56,0.12,0.05,0.06,0.10,0.05,0.09,0.99
0.70,168.13,4.69,11.19,0.79,2.04,9.50,0.00,0.00,0.02,6.50,5.37,51.56,0.01,0.14,0.08,0.10,0.05,0.09,0.99
0.71,168.13,4.69,11.19,0.85,2.11,9.49,0.00,0.01,0.01,7.25,5.69,50.69,0.00,0.26,0.05,0.10,0.05,0.09,0.99
0.72,168.19,4.69,11.19,0.78,2.13,9.60,0.00,0.00,0.01,7.25,5.69,50.69,0.02,0.23,0.01,0.10,0.05,0.09,0.99
0.73,168.13,4.69,11.19,0.72,2.05,9.67,0.01,0.01,0.00,7.25,5.69,50.69,0.07,0.15,0.08,0.10,0.05,0.09,0.99
0.74,168.13,4.69,11.25,0.80,1.94,9.60,0.01,0.00,0.01,7.25,5.69,51.56,0.00,0.03,0.01,0.10,0.05,0.09,0.99
0.75,168.13,4.69,11.25,0.76,2.00,9.51,0.00,0.02,0.02,7.25,5.69,51.56,0.04,0.09,0.06,0.10,0.05,0.09,0.99
0.76,168.13,4.69,11.25,0.78,1.97,9.45,0.00,0.02,0.01,7.69,5.37,50.38,0.10,0.05,0.09,0.10,0.05,0.09,0.99
0.77,168.06,4.69,11.25,0.79,2.04,9.45,0.01,0.01,0.00,7.69,5.37,50.38,0.01,0.13,0.12,0.10,0.05,0.09,0.99
0.78,168.06,4.69,11.25,0.77,2.13,9.49,0.01,0.02,0.02,7.69,5.37,50.38,0.03,0.21,0.08,0.10,0.05,0.09,0.99
0.79,168.06,4.75,11.25,0.81,2.05,9.50,0.00,0.02,0.03,6.87,4.56,51.19,0.04,0.08,0.07,0.10,0.05,0.09,0.99
0.80,168.00,4.75,11.25,0.69,1.96,9.55,0.00,0.01,0.01,6.87,4.56,51.19,0.13,0.00,0.06,0.10,0.05,0.09,0.99
0.81,168.00,4.75,11.31,0.75,2.07,9.55,0.00,0.01,0.01,7.69,4.19,50.69,0.00,0.22,0.03,0.10,0.05,0.09,0.99
0.82,168.00,4.75,11.31,0.86,2.19,9.54,0.00,0.01,0.02,7.69,4.19,50.69,0.05,0.29,0.08,0.10,0.05,0.09,0.99
0.83,168.00,4.75,11.31,0.85,2.20,9.53,0.01,0.02,0.04,7.69,4.19,50.69,0.01,0.07,0.00,0.10,0.05,0.09,0.99
0.84,167.94,4.75,11.31,0.81,1.94,9.60,0.01,0.02,0.05,7.69,5.37,50.69,0.04,0.01,0.00,0.10,0.05,0.09,0.99
0.85,167.87,4.75,11.31,0.81,1.91,9.58,0.01,0.02,0.03,7.69,5.37,50.69,0.02,0.04,0.03,0.10,0.05,0.09,0.99
0.86,167.87,4.75,11.31,0.82,1.94,9.57,0.01,0.00,0.00,7.69,5.37,50.69,0.01,0.02,0.01,0.10,0.05,0.09,0.99
0.87,167.75,4.75,11.31,0.77,1.99,9.59,0.01,0.01,0.02,8.38,4.56,51.19,0.00,0.21,0.03,0.11,0.05,0.09,0.99
0.88,167.75,4.75,11.31,0.82,2.15,9.56,0.01,0.00,0.02,8.38,4.56,51.19,0.03,0.23,0.02,0.11,0.05,0.09,0.99
0.89,167.81,4.75,11.31,0.80,2.11,9.57,0.01,0.01,0.01,7.25,5.00,52.00,0.01,0.19,0.00,0.11,0.05,0.09,0.99
0.90,167.81,4.75,11.31,0.80,1.99,9.59,0.02,0.02,0.02,7.25,5.00,52.00,0.02,0.07,0.01,0.11,0.05,0.09,0.99
0.91,167.75,4.81,11.31,0.81,1.96,9.60,0.02,0.02,0.03,6.50,5.00,51.19,0.01,0.05,0.02,0.11,0.05,0.09,0.99
0.92,167.87,4.81,11.31,0.81,2.00,9.56,0.01,0.02,0.02,6.50,5.00,51.19,0.06,0.10,0.00,0.10,0.05,0.09,0.99
0.93,167.87,4.81,11.31,0.78,1.97,9.60,0.01,0.01,0.01,6.50,5.00,51.19,0.04,0.05,0.02,0.10,0.05,0.09,0.99
0.94,167.87,4.81,11.25,0.81,2.06,9.53,0.01,0.00,0.01,7.25,4.56,51.56,0.01,0.15,0.04,0.10,0.05,0.09,0.99
0.95,167.87,4.81,11.25,0.78,2.07,9.49,0.01,0.01,0.01,7.25,4.56,51.56,0.04,0.15,0.08,0.10,0.05,0.09,0.99
0.96,167.87,4.81,11.31,0.80,2.09,9.52,0.02,0.00,0.01,7.69,5.37,51.19,0.02,0.10,0.04,0.10,0.05,0.09,0.99
0.97,167.87,4.81,11.25,0.73,1.97,9.58,0.02,0.00,0.01,7.69,5.37,51.19,0.08,0.05,0.00,0.10,0.05,0.09,0.99
0.98,167.87,4.81,11.25,0.77,2.09,9.55,0.02,0.01,0.00,7.69,5.37,51.19,0.05,0.17,0.03,0.10,0.05,0.09,0.99
0.99,168.06,4.81,11.25,0.85,2.11,9.51,0.02,0.01,0.01,6.19,5.00,50.38,0.02,0.20,0.07,0.10,0.05,0.09,0.99
1.00,168.06,4.81,11.25,0.82,2.05,9.59,0.01,0.01,0.00,6.19,5.00,50.38,0.00,0.14,0.01,0.10,0.05,0.09,0.99
1.01,168.06,4.75,11.25,0.79,2.00,9.55,0.01,0.02,0.01,7.25,5.00,50.38,0.05,0.07,0.03,0.10,0.05,0.09,0.99
1.02,168.00,4.75,11.25,0.83,1.97,9.53,0.01,0.01,0.02,7.25,5.00,50.38,0.07,0.04,0.13,0.10,0.05,0.09,0.99
1.03,168.00,4.75,11.25,0.84,1.99,9.53,0.00,0.02,0.01,7.25,5.00,50.38,0.03,0.08,0.05,0.10,0.05,0.09,0.99
1.04,167.87,4.75,11.25,0.72,2.03,9.61,0.01,0.02,0.02,8.38,5.37,51.19,0.08,0.12,0.02,0.10,0.05,0.09,0.99
1.05,167.94,4.69,11.25,0.72,2.17,9.59,0.01,0.02,0.04,8.38,5.37,51.19,0.08,0.25,0.01,0.10,0.05,0.09,0.99
1.06,168.00,4.69,11.25,0.86,2.22,9.57,0.01,0.02,0.04,6.87,5.37,51.19,0.09,0.27,0.09,0.10,0.05,0.09,0.99
1.07,168.06,4.69,11.31,0.74,1.97,9.54,0.01,0.01,0.05,6.87,5.37,51.19,0.06,0.05,0.03,0.10,0.05,0.09,0.99
1.08,168.00,4.69,11.31,0.77,1.88,9.49,0.01,0.01,0.05,6.87,5.37,51.19,0.03,0.03,0.08,0.10,0.05,0.09,0.99
1.09,168.00,4.69,11.31,0.76,1.90,9.52,0.00,0.00,0.03,6.87,5.00,51.19,0.01,0.06,0.08,0.10,0.05,0.09,0.99
1.10,168.00,4.69,11.31,0.86,2.06,9.48,0.00,0.00,0.00,6.87,5.00,51.19,0.06,0.16,0.08,0.10,0.05,0.09,0.99
1.11,168.00,4.69,11.31,0.76,2.03,9.60,0.00,0.00,0.00,7.69,5.69,50.38,0.00,0.08,0.02,0.10,0.05,0.09,0.99
1.12,167.94,4.69,11.31,0.80,1.97,9.62,0.01,0.02,0.00,7.69,5.69,50.38,0.01,0.04,0.02,0.10,0.05,0.09,0.99
1.13,168.00,4.69,11.31,0.80,2.06,9.55,0.00,0.01,0.00,7.69,5.69,50.38,0.00,0.14,0.03,0.10,0.05,0.09,0.99
1.14,168.00,4.69,11.31,0.79,2.04,9.58,0.01,0.00,0.00,6.87,5.37,49.88,0.00,0.11,0.00,0.10,0.05,0.09,0.99
1.15,168.00,4.69,11.31,0.75,1.99,9.56,0.02,0.00,0.01,6.87,5.37,49.88,0.04,0.07,0.01,0.10,0.05,0.09,0.99
1.16,168.00,4.69,11.31,0.79,1.98,9.59,0.02,0.01,0.01,8.38,5.69,50.38,0.02,0.08,0.01,0.10,0.05,0.09,0.99
1.17,167.81,4.69,11.31,0.81,2.03,9.54,0.02,0.00,0.01,8.38,5.69,50.38,0.03,0.12,0.07,0.11,0.05,0.09,0.99
1.18,167.81,4.69,11.31,0.78,1.96,9.58,0.01,0.01,0.00,8.38,5.69,50.38,0.01,0.04,0.00,0.11,0.05,0.09,0.99
1.19,167.87,4.69,11.31,0.81,2.06,9.57,0.01,0.01,0.02,6.87,5.69,51.19,0.00,0.14,0.01,0.10,0.05,0.09,0.99
1.20,167.94,4.62,11.25,0.80,2.06,9.54,0.02,0.00,0.01,6.87,5.69,51.19,0.00,0.14,0.03,0.10,0.05,0.09,0.99
1.21,167.94,4.62,11.25,0.77,2.06,9.57,0.02,0.01,0.01,8.00,4.56,51.06,0.01,0.11,0.02,0.10,0.05,0.09,0.99
1.22,167.81,4.62,11.25,0.77,1.95,9.54,0.01,0.01,0.01,8.00,4.56,51.06,0.02,0.04,0.03,0.11,0.05,0.09,0.99
1.23,167.87,4.62,11.25,0.76,1.99,9.57,0.01,0.01,0.01,8.00,4.56,51.06,0.03,0.08,0.01,0.10,0.05,0.09,0.99
1.24,167.81,4.62,11.25,0.79,2.05,9.55,0.02,0.00,0.01,7.69,5.00,51.19,0.00,0.15,0.03,0.11,0.05,0.09,0.99
1.25,167.81,4.62,11.19,0.75,1.97,9.52,0.02,0.00,0.00,7.69,5.00,51.19,0.04,0.07,0.05,0.11,0.05,0.09,0.99
1.26,167.81,4.62,11.19,0.81,2.02,9.52,0.01,0.00,0.01,7.25,5.00,51.06,0.03,0.10,0.03,0.11,0.05,0.09,0.99
1.27,167.81,4.62,11.19,0.78,1.99,9.57,0.00,0.00,0.01,7.25,5.00,51.06,0.02,0.09,0.02,0.11,0.05,0.09,0.99
1.28,167.87,4.69,11.19,0.73,2.00,9.58,0.01,0.00,0.01,7.25,5.00,51.06,0.06,0.10,0.00,0.10,0.05,0.09,0.99
1.29,168.06,4.62,11.19,0.78,2.03,9.56,0.01,0.00,0.01,6.19,5.69,51.19,0.01,0.12,0.02,0.10,0.05,0.09,0.99
1.30,168.06,4.62,11.25,0.74,2.07,9.48,0.01,0.01,0.02,6.19,5.69,51.19,0.05,0.16,0.10,0.10,0.05,0.09,0.99
1.31,168.06,4.69,11.25,0.75,2.08,9.48,0.01,0.01,0.01,7.25,5.00,50.69,0.00,0.15,0.10,0.10,0.05,0.09,0.99
1.32,168.06,4.62,11.25,0.76,2.05,9.51,0.01,0.01,0.01,7.25,5.00,50.69,0.03,0.14,0.07,0.10,0.05,0.09,0.99
1.33,168.06,4.69,11.25,0.81,1.98,9.56,0.02,0.02,0.02,7.25,5.00,50.69,0.00,0.07,0.02,0.10,0.05,0.09,0.99
1.35,168.13,4.69,11.19,0.87,1.93,9.62,0.01,0.00,0.02,6.50,5.69,50.38,0.02,0.00,0.02,0.10,0.05,0.09,0.99
1.36,168.06,4.69,11.19,0.77,1.90,9.67,0.00,0.00,0.01,8.00,6.06,52.00,0.09,0.02,0.06,0.10,0.05,0.09,0.99
1.37,168.13,4.69,11.19,0.72,2.02,9.58,0.01,0.00,0.05,8.00,6.06,52.00,0.06,0.15,0.06,0.10,0.05,0.09,0.99
1.38,168.19,4.69,11.25,0.77,2.11,9.48,0.01,0.01,0.02,8.00,6.06,52.00,0.00,0.23,0.11,0.10,0.05,0.09,0.99
1.39,168.25,4.69,11.25,0.72,1.91,9.54,0.01,0.01,0.03,6.87,5.37,51.56,0.07,0.00,0.03,0.10,0.05,0.09,0.99
1.40,168.19,4.69,11.25,0.75,1.96,9.54,0.00,0.01,0.02,6.87,5.37,51.56,0.04,0.04,0.03,0.10,0.05,0.09,0.99
1.41,168.19,4.69,11.25,0.81,2.03,9.56,0.00,0.01,0.01,8.38,5.37,49.88,0.03,0.18,0.01,0.10,0.05,0.09,0.99
1.42,168.06,4.69,11.25,0.84,2.06,9.58,0.01,0.00,0.01,8.38,5.37,49.88,0.00,0.13,0.00,0.10,0.05,0.09,0.99
1.43,168.06,4.69,11.25,0.74,1.93,9.60,0.01,0.01,0.01,8.38,5.37,49.88,0.09,0.03,0.01,0.10,0.05,0.09,0.99
1.44,168.31,4.69,11.25,0.74,1.99,9.57,0.01,0.01,0.03,5.75,5.00,51.19,0.05,0.07,0.00,0.10,0.05,0.09,0.99
1.45,168.31,4.69,11.25,0.77,2.04,9.55,0.00,0.00,0.02,5.75,5.00,51.19,0.02,0.13,0.02,0.10,0.05,0.09,0.99
1.46,168.37,4.69,11.25,0.72,2.02,9.57,0.01,0.00,0.01,8.38,5.00,50.69,0.10,0.10,0.00,0.10,0.05,0.09,0.99
1.47,168.37,4.69,11.25,0.72,2.06,9.58,0.02,0.01,0.01,8.38,5.00,50.69,0.07,0.15,0.00,0.10,0.05,0.09,0.99
1.48,168.37,4.62,11.25,0.81,2.11,9.58,0.02,0.00,0.00,8.38,5.00,50.69,0.01,0.19,0.00,0.10,0.05,0.09,0.99
1.49,168.37,4.62,11.25,0.82,2.07,9.58,0.02,0.00,0.00,7.25,5.37,51.19,0.05,0.11,0.01,0.10,0.05,0.09,0.99
1.50,168.31,4.62,11.25,0.78,2.02,9.57,0.03,0.01,0.00,7.25,5.37,51.19,0.01,0.10,0.00,0.10,0.05,0.09,0.99
1.51,168.31,4.62,11.19,0.81,2.01,9.58,0.03,0.01,0.00,7.25,5.37,51.19,0.00,0.03,0.00,0.10,0.05,0.09,0.99
1.52,168.31,4.62,11.19,0.78,1.92,9.58,0.03,0.00,0.01,7.25,5.00,50.69,0.05,0.07,0.00,0.10,0.05,0.09,0.99
1.53,168.31,4.62,11.12,0.80,2.00,9.55,0.03,0.00,0.02,7.25,5.00,50.69,0.00,0.13,0.00,0.10,0.05,0.09,0.99
1.54,168.37,4.62,11.12,0.77,1.99,9.59,0.02,0.01,0.03,7.69,5.69,52.00,0.02,0.10,0.00,0.10,0.05,0.09,0.99
1.55,168.37,4.62,11.06,0.76,1.95,9.57,0.02,0.02,0.03,7.69,5.69,52.00,0.04,0.05,0.03,0.10,0.05,0.09,0.99
1.56,168.44,4.62,11.06,0.69,2.06,9.53,0.01,0.02,0.04,7.69,5.69,52.00,0.09,0.17,0.05,0.10,0.05,0.09,0.99
1.57,168.50,4.56,11.06,0.68,2.06,9.51,0.02,0.03,0.05,7.69,5.37,51.56,0.10,0.18,0.07,0.10,0.05,0.09,0.99
1.58,168.56,4.50,11.06,0.54,2.20,9.56,0.04,0.07,0.09,7.69,5.37,51.56,0.23,0.32,0.03,0.10,0.05,0.09,0.99
1.59,168.69,4.37,11.06,0.55,2.33,9.65,0.03,0.13,0.13,7.25,4.56,50.38,0.20,0.45,0.06,0.10,0.05,0.09,0.99
1.60,168.81,4.31,11.00,0.17,2.48,9.85,0.02,0.18,0.16,7.25,4.56,50.38,0.55,0.61,0.25,0.10,0.05,0.09,0.99
1.61,169.13,4.06,10.94,0.21,2.76,9.54,0.05,0.19,0.23,7.25,4.56,50.38,0.49,0.90,0.05,0.09,0.04,0.09,0.99
1.62,169.31,4.00,10.88,0.06,3.13,9.36,0.07,0.16,0.31,6.87,5.37,51.19,0.61,1.28,0.24,0.09,0.04,0.09,0.99
1.63,169.69,3.94,10.75,0.18,3.99,9.04,0.14,0.13,0.27,6.87,5.37,51.19,0.84,2.17,0.57,0.09,0.04,0.09,0.99
1.64,169.94,3.81,10.56,0.17,4.03,8.91,0.15,0.10,0.21,6.87,5.37,51.19,0.93,2.22,0.88,0.09,0.04,0.09,0.99
1.65,170.06,3.75,10.44,0.54,3.61,8.35,0.12,0.03,0.05,6.87,5.37,50.69,1.27,1.82,1.54,0.09,0.04,0.09,0.99
1.66,170.12,3.75,10.31,0.71,3.25,7.43,0.09,0.02,0.03,6.87,5.37,50.69,1.36,1.51,2.19,0.09,0.04,0.09,0.99
1.67,170.06,3.81,10.19,0.65,2.84,6.78,0.06,0.06,0.08,6.19,6.06,51.56,1.29,0.75,3.09,0.09,0.04,0.09,0.99
1.68,169.87,3.87,10.19,0.65,1.63,5.94,0.02,0.14,0.25,6.19,6.06,51.56,1.33,0.09,3.68,0.09,0.04,0.09,0.99
1.69,169.56,4.00,10.19,0.43,1.31,5.45,0.02,0.13,0.29,6.19,6.06,51.56,0.90,0.29,4.21,0.09,0.04,0.09,0.99
1.70,169.25,4.06,10.19,0.19,1.50,5.58,0.01,0.08,0.26,6.50,6.06,50.69,0.73,0.07,3.74,0.09,0.04,0.09,0.99
1.71,168.87,4.06,10.25,0.06,1.70,6.32,0.11,0.10,0.30,6.50,6.06,50.69,0.43,0.01,2.39,0.10,0.04,0.09,0.99
1.72,168.56,4.12,10.44,0.33,1.80,7.53,0.16,0.08,0.27,7.25,5.69,50.00,0.30,0.03,1.93,0.10,0.05,0.09,0.99
1.73,168.37,4.12,10.63,0.43,1.77,7.76,0.17,0.01,0.13,7.25,5.69,50.00,0.26,0.11,1.57,0.10,0.05,0.09,0.99
1.74,168.37,4.12,10.75,0.52,1.74,8.04,0.09,0.03,0.03,7.25,5.69,50.00,0.18,0.08,1.56,0.10,0.05,0.09,0.99
1.75,168.56,4.06,10.75,0.96,2.04,8.03,0.02,0.08,0.18,6.50,6.50,51.19,0.43,0.37,1.02,0.10,0.05,0.09,0.99
1.76,168.81,4.00,10.69,1.10,2.31,8.76,0.08,0.06,0.18,6.50,6.50,51.19,0.38,0.74,0.68,0.10,0.04,0.09,0.99
1.77,168.81,4.00,10.50,1.02,2.51,8.96,0.15,0.03,0.01,6.50,5.37,51.56,0.33,0.72,0.65,0.10,0.04,0.09,0.99
1.78,168.56,3.94,10.38,1.13,1.86,8.79,0.13,0.03,0.31,6.50,5.37,51.56,0.56,0.33,0.91,0.10,0.04,0.09,0.99
1.79,168.06,3.94,10.38,1.37,0.99,8.76,0.02,0.06,0.50,6.50,5.37,51.56,0.69,0.76,0.85,0.10,0.04,0.09,0.99
1.80,167.50,3.87,10.56,1.14,0.29,9.92,0.17,0.02,0.51,6.19,5.69,51.50,0.47,1.50,0.31,0.11,0.04,0.09,0.99
1.81,167.06,3.75,10.88,1.00,0.31,10.29,0.25,0.06,0.33,6.19,5.69,51.50,0.51,1.47,0.72,0.11,0.04,0.09,0.99
1.82,166.94,3.62,11.12,1.59,0.32,10.15,0.19,0.12,0.05,8.00,5.37,53.06,0.98,1.53,0.59,0.11,0.04,0.09,0.99
1.83,167.06,3.56,11.25,1.37,0.58,10.29,0.10,0.08,0.15,8.00,5.37,53.06,0.49,1.07,0.73,0.11,0.04,0.09,0.99
1.84,167.37,3.50,11.25,0.82,1.61,10.38,0.04,0.09,0.28,8.00,5.37,53.06,0.22,0.30,0.79,0.11,0.04,0.09,0.99
1.85,167.69,3.50,11.31,1.04,1.99,10.14,0.05,0.07,0.25,7.25,5.37,51.88,0.53,0.08,0.68,0.11,0.04,0.09,0.99
1.86,167.81,3.50,11.38,1.32,1.83,10.64,0.07,0.01,0.06,7.25,5.37,51.88,0.85,0.18,1.13,0.11,0.04,0.10,0.99
1.87,167.75,3.50,11.44,1.32,1.59,10.88,0.10,0.02,0.06,7.69,5.00,52.69,0.72,0.35,1.29,0.11,0.04,0.10,0.99
1.89,167.56,3.44,11.50,0.76,1.01,10.39,0.09,0.01,0.07,7.69,5.00,52.69,0.17,0.94,0.80,0.11,0.04,0.10,0.99
1.90,167.56,3.50,11.31,0.99,1.14,10.29,0.19,0.02,0.02,7.25,5.00,53.50,0.39,0.77,0.70,0.11,0.04,0.09,0.99
1.92,167.75,3.69,10.75,1.32,1.21,10.66,0.23,0.09,0.18,7.69,5.37,51.06,0.49,0.56,1.22,0.11,0.04,0.09,0.99
1.93,168.06,3.81,10.50,1.35,1.34,10.76,0.25,0.01,0.35,7.69,5.37,51.06,0.71,0.46,1.13,0.10,0.04,0.09,0.99
1.94,168.44,3.87,10.19,1.25,0.98,10.81,0.27,0.02,0.40,7.69,5.37,51.06,0.28,0.82,1.35,0.10,0.04,0.08,0.99
1.95,169.00,4.00,9.75,0.87,1.16,10.91,0.37,0.01,0.52,8.38,7.19,52.69,0.20,0.14,1.12,0.10,0.04,0.08,0.99
1.96,169.69,4.06,9.25,0.97,1.71,10.73,0.40,0.04,0.65,8.38,7.19,52.69,0.29,0.17,1.16,0.09,0.04,0.08,0.99
1.97,170.31,4.19,8.75,1.09,1.74,11.10,0.38,0.01,0.67,8.00,8.69,52.69,0.38,0.45,1.36,0.08,0.04,0.07,0.99
1.98,171.00,4.25,8.25,1.00,2.01,10.81,0.40,0.01,0.55,8.00,8.69,52.69,0.22,0.77,0.83,0.08,0.04,0.07,0.99
1.99,171.56,4.31,7.81,0.60,1.89,10.18,0.38,0.03,0.49,8.00,8.69,52.69,0.35,0.23,0.52,0.07,0.04,0.07,0.99
2.00,171.75,4.31,7.37,0.27,1.03,10.26,0.35,0.05,0.41,8.00,8.69,51.50,0.69,0.77,0.55,0.07,0.04,0.06,0.99
2.01,172.13,4.25,6.87,0.25,0.67,10.38,0.45,0.14,0.34,8.00,8.69,51.50,0.04,0.25,0.44,0.07,0.04,0.06,1.00
2.02,172.31,4.12,6.37,1.09,2.01,10.12,0.42,0.15,0.35,8.00,9.88,54.25,0.38,0.92,0.40,0.07,0.04,0.05,1.00
2.03,172.62,4.06,5.94,1.25,1.96,10.03,0.35,0.08,0.30,8.00,9.88,54.25,0.44,0.51,0.31,0.06,0.04,0.05,1.00
2.04,172.87,4.06,5.50,1.22,1.35,10.08,0.37,0.02,0.18,8.00,9.88,54.25,0.52,0.40,0.35,0.06,0.04,0.05,1.00
2.05,173.00,4.12,5.19,1.50,1.09,10.17,0.26,0.04,0.19,6.87,12.37,53.56,0.79,0.20,0.43,0.06,0.04,0.04,1.00
2.06,173.13,4.25,4.94,1.71,0.99,10.19,0.23,0.14,0.08,6.87,12.37,53.56,0.98,0.15,0.45,0.06,0.04,0.04,1.00
2.07,173.13,4.50,4.62,1.77,0.31,10.37,0.27,0.23,0.09,6.87,13.50,52.38,1.00,1.11,0.62,0.06,0.04,0.04,1.00
2.08,173.25,4.81,4.25,0.93,0.91,10.84,0.34,0.28,0.21,6.87,13.50,52.38,0.10,1.64,1.09,0.06,0.04,0.03,1.00
2.09,173.69,5.00,3.87,0.65,0.02,10.43,0.30,0.07,0.46,6.87,13.50,52.38,0.20,0.64,0.68,0.05,0.05,0.03,1.00
2.10,173.94,5.00,3.69,0.82,1.02,10.69,0.23,0.02,0.57,7.00,13.88,52.38,0.04,0.41,0.94,0.05,0.05,0.03,1.00
2.11,174.50,5.06,3.37,0.94,2.62,10.20,0.14,0.01,0.46,7.00,13.88,52.38,0.07,2.06,0.45,0.05,0.05,0.03,1.00
2.12,175.00,5.06,3.25,0.64,2.79,10.35,0.04,0.04,0.45,9.25,14.56,52.00,0.41,2.08,0.54,0.04,0.05,0.03,1.00
2.13,175.00,5.12,3.25,1.63,2.49,9.99,0.09,0.26,0.15,9.25,14.56,52.00,0.58,1.75,0.12,0.04,0.05,0.03,1.00
2.14,175.06,5.44,3.37,0.08,0.15,10.55,0.08,0.25,0.07,9.25,14.56,52.00,1.03,0.43,0.81,0.04,0.05,0.03,1.00
2.15,174.75,5.69,3.44,0.22,0.20,10.49,0.03,0.19,0.05,7.75,15.75,52.00,0.40,0.10,0.61,0.05,0.05,0.03,1.00
2.16,174.69,5.69,3.50,0.93,1.37,10.36,0.11,0.05,0.05,7.75,15.75,52.00,0.06,0.68,0.85,0.05,0.05,0.03,1.00
2.17,174.62,5.62,3.62,0.80,0.62,10.62,0.09,0.04,0.07,7.75,15.75,52.00,0.16,0.00,0.88,0.05,0.05,0.03,1.00
2.18,174.31,5.69,3.56,1.07,0.08,10.34,0.09,0.02,0.15,8.06,16.06,52.00,0.29,0.82,0.71,0.05,0.05,0.03,1.00
2.19,174.19,5.69,3.37,1.50,0.03,10.55,0.23,0.01,0.12,8.06,16.06,52.00,0.75,0.16,1.17,0.05,0.05,0.03,1.00
2.20,173.94,5.69,3.12,2.30,1.07,10.98,0.22,0.03,0.15,7.75,15.69,52.00,1.32,0.53,1.24,0.05,0.05,0.02,1.00
2.21,173.69,5.75,2.94,1.29,0.20,10.97,0.27,0.12,0.19,7.75,15.69,52.00,0.22,0.56,1.35,0.05,0.05,0.02,1.00
2.22,173.56,5.87,2.62,1.16,0.68,11.22,0.26,0.11,0.02,7.75,15.69,52.00,0.12,1.39,1.90,0.06,0.05,0.02,1.00
2.23,173.69,6.00,2.31,1.54,0.33,11.20,0.24,0.06,0.25,7.75,15.69,52.00,0.26,0.29,1.64,0.05,0.05,0.02,1.00
2.24,174.12,6.00,2.06,0.94,0.24,11.32,0.18,0.06,0.49,7.75,15.69,52.00,0.19,0.10,1.66,0.05,0.05,0.02,1.00
2.25,174.31,5.94,1.81,1.16,0.81,11.76,0.21,0.06,0.46,9.25,16.00,50.75,0.38,0.67,1.78,0.05,0.05,0.01,1.00
2.26,174.75,5.94,1.50,1.47,0.83,11.47,0.24,0.02,0.39,9.25,16.00,50.75,0.22,0.08,1.53,0.05,0.05,0.01,1.00
2.27,175.12,6.00,1.12,1.41,0.72,10.84,0.30,0.11,0.28,9.25,16.00,50.75,0.38,0.52,1.09,0.04,0.05,0.01,1.00
2.28,175.38,6.19,0.81,1.33,0.88,10.82,0.24,0.14,0.25,7.00,16.37,51.56,0.27,0.74,1.07,0.04,0.05,0.01,1.00
2.29,175.56,6.37,0.50,1.46,0.24,10.75,0.28,0.23,0.18,7.00,16.37,51.56,0.28,0.38,1.37,0.04,0.06,0.00,1.00
2.30,175.69,6.69,0.13,1.58,0.02,10.87,0.28,0.25,0.23,7.75,17.19,50.38,0.44,0.05,1.13,0.04,0.06,0.00,1.00
2.31,176.12,6.87,0.13,0.94,0.88,11.08,0.23,0.18,0.46,7.75,17.19,50.38,0.08,0.68,1.81,0.03,0.06,0.00,1.00
2.33,177.25,7.12,0.88,0.99,0.22,11.64,0.33,0.02,0.60,7.75,16.87,50.00,0.22,0.38,1.91,0.02,0.06,0.01,1.00
2.34,177.87,7.06,1.25,1.44,0.25,10.97,0.20,0.01,0.54,7.75,16.87,50.00,0.22,0.47,1.24,0.02,0.06,0.01,1.00
2.36,178.62,7.31,1.69,1.49,0.11,11.05,0.07,0.10,0.46,7.75,18.37,48.75,0.24,0.40,1.32,0.01,0.06,0.02,1.00
2.37,179.12,7.31,1.81,1.11,0.22,11.35,0.01,0.02,0.47,7.75,18.37,48.75,0.14,0.08,1.63,0.01,0.06,0.02,1.00
2.38,179.69,7.31,1.87,1.08,0.51,10.95,0.01,0.03,0.50,7.37,18.00,49.19,0.16,0.19,1.23,0.00,0.06,0.02,1.00
2.39,180.19,7.19,1.94,0.40,0.18,10.57,0.04,0.10,0.44,7.37,18.00,49.19,0.82,0.15,0.84,0.00,0.06,0.02,1.00
2.40,180.69,6.94,2.00,1.47,0.03,9.71,0.02,0.22,0.47,6.25,18.37,48.38,0.28,0.38,0.00,0.01,0.06,0.02,1.00
2.41,180.94,6.87,2.00,1.54,0.62,9.69,0.06,0.14,0.32,6.25,18.37,48.38,0.38,0.96,0.03,0.01,0.06,0.02,1.00
2.42,181.25,6.75,1.94,1.64,0.06,10.25,0.16,0.03,0.30,6.25,18.37,48.38,0.49,0.25,0.52,0.01,0.06,0.02,1.00
2.43,181.87,6.62,1.81,1.27,0.05,10.26,0.13,0.10,0.26,4.00,17.56,48.69,0.14,0.24,0.52,0.02,0.06,0.02,1.00
2.44,182.12,6.56,1.69,1.01,0.25,10.49,0.19,0.15,0.31,4.00,17.56,48.69,0.09,0.03,0.75,0.02,0.06,0.01,1.00
2.45,182.56,6.37,1.50,1.11,0.43,10.08,0.25,0.15,0.45,4.25,17.37,48.38,0.51,1.58,0.51,0.02,0.06,0.01,1.00
2.46,183.06,6.12,1.25,1.38,1.78,8.92,0.29,0.21,0.27,4.25,17.37,48.38,0.28,1.63,1.03,0.03,0.05,0.01,1.00
2.47,183.31,6.00,0.88,1.19,0.25,9.01,0.40,0.02,0.10,4.25,17.37,48.38,0.25,0.33,0.49,0.03,0.05,0.01,1.00
2.48,183.50,5.94,0.37,1.00,0.39,9.24,0.44,0.09,0.11,4.25,16.56,50.06,0.14,0.23,0.66,0.03,0.05,0.00,1.00
2.49,183.69,5.69,0.13,1.17,1.21,8.23,0.61,0.19,0.18,4.25,16.56,50.06,0.13,1.34,1.73,0.03,0.05,0.00,1.00
2.50,183.94,5.50,0.75,0.89,1.49,7.80,0.63,0.20,0.10,4.25,16.56,50.06,0.05,1.35,1.95,0.03,0.05,0.01,1.00
2.51,183.94,5.37,1.56,1.24,1.35,8.35,0.73,0.07,0.02,4.25,14.69,49.19,0.45,0.95,1.10,0.03,0.05,0.02,1.00
2.52,184.00,5.31,2.50,1.08,1.02,8.73,0.87,0.05,0.00,4.25,14.69,49.19,0.45,0.04,0.80,0.03,0.05,0.02,1.00
2.53,184.19,5.12,3.50,0.23,0.09,9.03,0.93,0.22,0.14,3.06,13.56,50.75,1.11,0.69,0.71,0.04,0.04,0.03,1.00
2.54,184.50,4.69,4.44,0.73,0.80,8.62,0.84,0.47,0.24,3.06,13.56,50.75,0.60,1.12,1.45,0.04,0.04,0.04,1.00
2.55,184.63,4.12,5.37,1.04,2.48,8.31,0.87,0.48,0.02,3.06,13.56,50.75,0.33,1.56,1.42,0.04,0.03,0.05,1.00
2.56,184.87,3.62,6.37,0.51,2.45,8.25,0.96,0.45,0.07,1.87,12.06,50.75,0.10,1.35,1.47,0.04,0.03,0.06,1.00
2.57,184.81,3.12,7.50,0.57,1.59,8.02,0.93,0.45,0.15,1.87,12.06,50.75,0.04,0.31,1.67,0.04,0.02,0.07,1.00
2.58,184.81,2.62,8.44,1.15,0.92,8.71,0.83,0.40,0.18,1.19,9.06,51.56,0.70,0.51,0.97,0.04,0.02,0.07,1.00
2.59,184.81,2.00,9.38,1.54,2.05,9.12,0.92,0.56,0.02,1.19,9.06,51.56,1.19,0.45,0.53,0.04,0.01,0.08,1.00
2.60,184.87,1.37,10.44,0.43,2.79,9.19,0.93,0.61,0.03,1.19,9.06,51.56,0.19,1.01,0.44,0.04,0.01,0.09,0.99
2.61,185.19,0.69,11.38,0.88,3.31,7.96,0.83,0.67,0.01,0.06,6.50,51.19,0.76,1.37,1.65,0.05,0.00,0.10,0.99
2.62,185.12,0.06,12.37,0.81,3.68,7.20,0.99,0.44,0.07,0.06,6.50,51.19,0.79,1.57,2.37,0.04,0.00,0.11,0.99
2.63,185.25,0.19,13.69,0.82,3.87,8.54,1.18,0.29,0.15,1.37,3.87,52.00,0.86,1.55,0.98,0.05,0.01,0.12,0.99
2.64,185.12,0.37,14.38,0.07,3.22,9.73,1.26,0.27,0.17,1.37,3.87,52.00,0.17,0.67,0.26,0.04,0.01,0.13,0.99
2.65,185.00,0.75,15.75,1.25,3.49,8.45,1.28,0.28,0.15,1.37,3.87,52.00,1.41,0.71,0.94,0.04,0.01,0.14,0.99
2.66,184.87,1.00,17.19,0.39,1.74,8.35,1.31,0.05,0.09,1.06,2.00,52.38,1.38,0.68,0.38,0.04,0.02,0.15,0.99
2.67,185.06,1.12,18.69,1.67,3.80,8.62,1.57,0.59,0.55,1.06,2.00,52.38,1.93,1.70,0.70,0.04,0.02,0.16,0.99
2.68,185.81,1.56,20.44,2.00,5.48,8.34,1.59,0.67,0.63,2.19,1.37,51.19,1.50,1.80,0.84,0.05,0.02,0.18,0.98
2.70,185.75,2.62,23.62,0.91,5.26,9.67,1.39,0.38,0.50,2.19,1.37,51.19,0.37,1.60,0.18,0.05,0.03,0.20,0.98
2.71,185.37,3.19,25.12,0.79,4.68,8.57,1.33,0.26,0.68,4.75,5.50,52.00,0.67,0.00,0.43,0.05,0.04,0.22,0.97
2.73,184.75,4.12,28.00,0.86,5.25,8.85,1.32,0.46,0.04,5.19,8.88,51.69,0.05,1.21,0.12,0.04,0.05,0.24,0.97
2.74,185.00,4.50,29.50,0.87,5.68,8.66,1.35,0.42,0.12,5.19,8.88,51.69,0.07,0.75,0.22,0.04,0.05,0.25,0.97
2.75,185.19,4.87,31.00,2.23,5.16,9.22,1.43,0.45,0.09,5.19,8.88,51.69,1.36,0.01,0.92,0.04,0.06,0.26,0.96
2.76,185.69,5.25,32.69,2.22,5.32,9.29,1.49,0.56,0.15,7.06,12.56,50.88,0.82,0.29,0.85,0.05,0.06,0.28,0.96
2.77,186.00,5.75,34.44,1.71,5.46,9.01,1.44,0.55,0.09,7.06,12.56,50.88,0.32,0.38,0.85,0.05,0.07,0.29,0.95
2.78,186.12,6.25,36.06,1.35,6.75,8.89,1.43,0.56,0.00,8.56,14.69,48.50,0.25,0.93,0.89,0.05,0.07,0.30,0.95
2.79,186.56,6.87,37.69,1.53,6.39,8.49,1.44,0.61,0.11,8.56,14.69,48.50,0.33,0.50,0.74,0.05,0.08,0.32,0.94
2.80,186.50,7.50,39.25,1.50,6.56,7.65,1.42,0.65,0.08,8.56,14.69,48.50,0.34,0.00,0.13,0.05,0.09,0.33,0.94
2.81,186.62,8.13,40.88,1.49,6.02,8.01,1.37,0.56,0.17,8.88,19.00,47.69,0.15,0.11,1.07,0.05,0.10,0.34,0.93
2.82,186.44,8.81,42.38,1.84,7.09,8.21,1.38,0.73,0.24,8.88,19.00,47.69,0.11,0.85,0.72,0.05,0.10,0.35,0.93
2.83,186.37,9.63,44.00,1.80,7.14,7.55,1.43,0.79,0.22,8.88,19.00,47.69,0.17,0.66,0.02,0.05,0.11,0.36,0.92
2.84,186.44,10.44,45.63,1.51,7.44,7.43,1.42,0.75,0.37,10.75,22.00,46.37,0.21,0.14,1.10,0.05,0.12,0.38,0.92
2.85,186.12,11.38,47.31,2.37,7.14,7.20,1.53,0.86,0.42,10.75,22.00,46.37,0.49,0.17,0.19,0.05,0.13,0.39,0.91
2.86,185.94,12.31,49.13,2.40,7.83,5.50,1.61,0.85,0.41,12.25,25.00,45.69,0.50,0.41,1.16,0.05,0.14,0.40,0.90
2.87,185.56,13.25,51.00,1.76,7.33,5.20,1.54,0.59,0.64,12.25,25.00,45.69,0.45,0.15,0.41,0.04,0.15,0.41,0.90
2.88,184.87,14.25,52.69,1.41,7.44,5.45,1.53,0.57,0.70,16.06,27.50,42.69,1.07,0.05,0.62,0.04,0.16,0.43,0.89
2.89,184.44,15.25,54.44,1.42,7.91,4.19,1.59,0.65,0.71,16.06,27.50,42.69,0.78,0.50,1.81,0.03,0.17,0.44,0.88
2.90,183.75,16.25,56.31,1.80,7.45,4.53,1.81,0.55,0.57,16.06,27.50,42.69,1.01,0.45,0.52,0.03,0.18,0.45,0.87
2.91,183.44,17.12,58.38,2.37,7.48,5.13,1.83,0.51,0.57,17.87,30.06,38.69,0.34,0.03,0.17,0.03,0.18,0.46,0.87
2.92,183.06,17.75,60.63,2.37,9.16,3.71,1.92,0.77,0.24,17.87,30.06,38.69,0.95,1.00,1.35,0.02,0.19,0.48,0.86
2.93,182.81,18.37,62.94,2.13,9.31,2.74,1.98,0.67,0.28,17.87,30.06,38.69,1.16,0.94,0.94,0.02,0.20,0.49,0.85
2.94,182.69,18.81,65.44,2.29,8.63,4.00,2.15,0.34,0.19,20.19,33.56,35.06,0.19,0.32,0.12,0.02,0.21,0.51,0.83
2.95,182.19,19.25,67.69,2.97,8.62,2.52,1.77,0.42,0.48,20.19,33.56,35.06,0.20,0.25,0.92,0.02,0.21,0.53,0.82
2.96,181.75,19.94,69.75,3.04,8.60,2.16,1.81,0.41,0.50,21.25,36.19,31.75,1.74,0.37,0.78,0.01,0.22,0.54,0.81
2.97,180.63,20.69,71.81,1.68,9.14,2.82,1.88,0.21,0.71,21.25,36.19,31.75,1.13,0.02,0.60,0.00,0.22,0.55,0.80
2.98,179.44,21.44,73.81,3.48,8.33,3.46,1.79,0.09,0.60,21.25,36.19,31.75,0.09,0.42,0.92,0.00,0.23,0.56,0.79
2.99,178.75,22.13,75.62,3.97,7.35,1.99,1.53,0.30,0.57,22.69,38.50,29.00,0.22,1.22,0.69,0.01,0.23,0.57,0.78
3.00,177.87,22.75,77.44,3.23,8.10,1.58,1.58,0.26,0.54,22.69,38.50,29.00,1.04,0.24,0.31,0.01,0.24,0.59,0.77
3.01,177.31,23.56,79.25,2.63,10.04,0.77,1.53,0.33,0.74,25.37,40.00,23.69,0.94,0.25,0.71,0.02,0.25,0.59,0.76
3.02,176.06,24.37,80.75,3.91,7.84,1.54,1.36,0.08,0.62,25.37,40.00,23.69,0.06,1.45,0.04,0.03,0.25,0.60,0.76
3.03,174.87,25.12,82.00,3.76,7.81,0.72,1.07,0.02,0.79,25.37,40.00,23.69,0.40,0.97,0.50,0.03,0.26,0.61,0.75
3.04,173.62,26.12,83.19,2.59,9.02,1.12,1.12,0.02,0.92,26.00,40.75,22.50,1.72,0.28,0.08,0.04,0.26,0.61,0.74
3.05,172.19,27.06,84.31,4.77,8.06,1.26,1.05,0.04,0.86,26.00,40.75,22.50,0.05,1.03,0.18,0.05,0.27,0.62,0.74
3.06,171.25,27.87,85.50,4.37,6.90,0.60,1.01,0.16,0.67,27.06,41.06,19.56,0.21,1.72,0.07,0.06,0.27,0.62,0.73
3.07,170.31,28.38,86.75,4.15,7.52,1.00,1.14,0.12,0.30,27.06,41.06,19.56,1.11,0.11,0.27,0.06,0.28,0.63,0.72
3.08,169.75,28.75,88.19,3.37,9.60,0.50,1.09,0.44,0.37,27.06,41.06,19.56,1.34,1.01,0.24,0.06,0.28,0.64,0.71
3.09,169.31,29.31,89.50,4.07,10.08,0.43,0.88,0.30,0.57,29.87,40.69,18.37,0.72,1.53,0.36,0.07,0.29,0.64,0.71
3.10,168.37,30.06,90.44,4.50,7.20,0.15,0.77,0.15,0.62,29.87,40.69,18.37,0.41,1.27,0.07,0.07,0.29,0.65,0.70
3.11,167.50,30.62,91.44,3.60,6.74,0.28,0.77,0.07,0.48,29.06,40.69,15.50,1.39,1.69,0.07,0.08,0.30,0.65,0.70
3.12,166.56,31.31,92.25,4.06,9.45,0.71,0.63,0.16,0.67,29.06,40.69,15.50,1.03,1.08,0.38,0.08,0.30,0.65,0.69
3.14,165.62,32.31,93.50,3.67,6.63,0.26,0.54,0.16,0.70,32.88,39.50,13.88,1.62,1.59,0.30,0.09,0.31,0.66,0.68
3.15,164.75,33.00,94.25,4.17,7.23,0.49,0.50,0.14,0.35,32.88,39.50,13.88,1.20,0.93,0.16,0.09,0.31,0.66,0.68
3.17,164.00,33.56,95.25,5.06,7.42,0.17,0.36,0.05,0.14,32.50,39.06,12.25,0.36,0.70,0.95,0.09,0.32,0.66,0.67
3.18,163.62,33.69,95.69,5.18,8.44,0.07,0.38,0.09,0.09,32.50,39.06,12.25,0.26,0.32,0.77,0.10,0.32,0.66,0.67
3.19,163.62,33.88,96.19,5.28,7.99,0.37,0.32,0.07,0.27,34.69,39.88,10.50,0.04,0.38,0.01,0.10,0.32,0.66,0.67
3.20,163.00,34.25,96.56,5.45,7.62,1.38,0.38,0.04,0.35,34.69,39.88,10.50,0.45,0.34,0.02,0.10,0.32,0.67,0.67
3.21,162.25,34.63,96.94,4.54,6.87,0.44,0.37,0.10,0.39,34.69,39.88,10.50,2.11,1.76,0.48,0.10,0.33,0.67,0.66
3.22,161.31,35.50,96.81,2.77,6.28,0.85,0.11,0.42,0.87,33.56,39.06,10.19,2.12,0.86,0.51,0.11,0.33,0.66,0.66
3.23,160.06,36.50,96.25,4.01,7.32,1.36,0.05,0.44,0.63,33.56,39.06,10.19,1.03,0.64,0.17,0.12,0.33,0.66,0.66
3.25,158.44,37.50,96.00,5.05,6.16,0.79,0.22,0.44,0.10,35.88,38.00,10.50,0.74,1.53,1.07,0.13,0.33,0.66,0.67
3.26,158.25,37.25,95.81,5.14,7.16,0.33,0.14,0.29,0.33,35.88,38.00,10.50,0.79,0.59,0.46,0.13,0.33,0.66,0.67
3.28,159.12,35.94,96.31,6.94,10.07,0.71,0.43,0.10,0.33,37.00,37.19,10.88,1.21,2.17,1.62,0.12,0.32,0.67,0.66
3.29,159.00,35.69,96.69,7.03,8.01,0.00,0.41,0.05,0.14,34.69,38.00,10.88,1.20,0.42,0.22,0.12,0.32,0.67,0.66
3.30,158.87,35.50,97.19,6.54,7.46,1.06,0.46,0.02,0.11,34.69,38.00,10.88,0.26,0.20,0.28,0.12,0.32,0.67,0.66
3.31,158.63,35.44,97.69,6.07,7.64,0.22,0.42,0.04,0.02,34.69,38.00,10.88,0.63,0.23,1.46,0.12,0.32,0.67,0.66
3.32,158.37,35.75,98.12,6.45,8.22,0.16,0.21,0.20,0.41,34.00,38.69,10.06,0.25,1.09,0.30,0.12,0.32,0.68,0.65
3.33,157.69,36.44,98.62,5.67,9.54,1.42,0.27,0.16,0.65,34.00,38.69,10.06,0.13,2.22,0.46,0.13,0.32,0.67,0.65
3.34,156.69,37.44,99.19,5.95,9.39,0.82,0.40,0.10,0.95,34.69,39.06,9.69,0.01,1.70,0.42,0.13,0.33,0.67,0.65
3.35,155.25,38.56,99.87,6.06,8.74,1.55,0.40,0.06,1.13,34.69,39.06,9.69,0.92,0.22,0.20,0.14,0.34,0.67,0.64
3.36,154.00,39.63,100.62,6.05,7.54,2.08,0.42,0.20,0.88,34.69,39.06,9.69,0.20,0.11,0.68,0.15,0.34,0.67,0.64
3.38,152.38,40.94,102.25,4.70,7.52,3.86,0.50,0.10,0.60,37.00,37.56,8.06,1.72,0.28,2.28,0.15,0.36,0.67,0.63
3.39,151.12,41.75,102.69,4.41,7.88,3.47,0.42,0.18,0.76,36.19,36.06,7.25,2.12,0.75,1.86,0.16,0.36,0.67,0.63
3.40,150.31,42.25,102.94,5.67,6.06,1.95,0.49,0.29,0.90,36.19,36.06,7.25,0.98,0.93,0.30,0.17,0.36,0.67,0.62
3.41,148.62,43.25,103.44,5.96,5.79,1.35,0.47,0.23,0.70,36.19,36.06,7.25,0.80,1.08,0.32,0.18,0.37,0.67,0.62
3.42,147.50,44.06,103.87,6.32,5.30,1.09,0.51,0.15,0.46,39.19,35.38,5.19,0.52,1.49,0.62,0.18,0.37,0.67,0.62
3.43,146.50,44.50,104.44,6.72,5.59,1.76,0.48,0.12,0.24,39.19,35.38,5.19,0.16,1.15,0.00,0.18,0.37,0.67,0.61
3.44,145.62,44.81,104.81,6.86,6.14,1.99,0.43,0.20,0.25,39.19,35.38,5.19,0.01,0.26,0.21,0.19,0.37,0.67,0.61
3.46,143.62,45.94,105.44,6.64,7.81,1.91,0.42,0.24,0.76,40.00,33.56,6.00,0.55,0.25,0.40,0.20,0.37,0.67,0.61
3.47,142.31,46.75,105.94,6.83,5.57,1.27,0.41,0.17,0.73,41.50,34.00,6.75,0.29,1.66,0.64,0.21,0.37,0.67,0.60
3.48,141.12,47.44,106.37,6.89,4.62,1.33,0.44,0.17,0.38,41.50,34.00,6.75,0.85,0.67,0.18,0.21,0.38,0.67,0.60
3.49,140.19,47.81,106.81,6.30,6.01,1.76,0.44,0.16,0.24,41.50,34.00,6.75,0.97,0.28,0.13,0.22,0.38,0.67,0.60
3.50,139.94,48.06,107.12,6.97,6.12,1.43,0.35,0.09,0.22,43.38,32.06,5.19,0.24,0.14,0.41,0.22,0.38,0.67,0.60
3.51,139.12,48.38,107.44,6.65,6.33,1.63,0.38,0.20,0.23,43.38,32.06,5.19,0.63,0.25,0.34,0.22,0.38,0.68,0.59
3.52,138.50,48.56,107.75,6.92,5.58,1.82,0.40,0.11,0.06,43.00,32.50,6.00,0.42,0.59,0.15,0.22,0.38,0.68,0.59
3.53,138.00,48.63,108.06,7.27,5.49,1.54,0.39,0.10,0.01,43.00,32.50,6.00,0.26,0.66,0.64,0.23,0.38,0.68,0.59
3.54,137.69,48.50,108.37,7.11,5.52,1.30,0.33,0.00,0.10,43.00,32.50,6.00,0.23,0.62,0.74,0.23,0.38,0.68,0.59
3.55,137.50,48.38,108.69,6.89,6.02,1.69,0.32,0.03,0.15,41.88,31.69,6.00,0.43,0.13,0.39,0.23,0.37,0.68,0.58
3.56,137.31,48.31,108.87,7.07,6.18,2.04,0.23,0.05,0.04,41.88,31.69,6.00,0.25,0.01,0.06,0.23,0.37,0.68,0.58
3.57,137.12,48.38,109.00,6.99,5.48,1.49,0.15,0.08,0.03,42.19,31.69,4.00,0.33,0.66,0.63,0.23,0.37,0.68,0.58
3.58,136.88,48.44,109.12,7.21,5.28,1.53,0.08,0.01,0.08,42.19,31.69,4.00,0.13,0.85,0.59,0.23,0.37,0.69,0.58
3.59,136.81,48.50,109.19,7.11,5.94,1.41,0.06,0.04,0.00,42.19,31.69,4.00,0.23,0.19,0.72,0.23,0.37,0.69,0.58
3.60,136.88,48.44,109.25,7.00,6.04,1.63,0.01,0.04,0.01,42.19,32.50,4.00,0.33,0.08,0.51,0.23,0.37,0.69,0.58
3.61,136.88,48.44,109.31,6.83,5.99,1.88,0.00,0.01,0.02,42.19,32.50,4.00,0.50,0.13,0.26,0.23,0.37,0.69,0.58
3.62,136.88,48.44,109.31,7.24,6.38,1.84,0.01,0.03,0.01,41.88,31.69,4.87,0.15,0.49,0.11,0.23,0.37,0.69,0.58
3.63,137.00,48.44,109.37,7.04,6.52,2.16,0.00,0.12,0.01,41.88,31.69,4.87,0.38,0.02,0.05,0.23,0.37,0.69,0.58
3.64,137.12,48.38,109.50,6.97,5.58,1.92,0.00,0.12,0.03,41.88,31.69,4.87,0.28,0.37,0.31,0.23,0.37,0.69,0.58
3.65,137.44,48.31,109.63,7.01,5.89,1.85,0.00,0.10,0.04,43.38,32.06,3.56,0.32,0.00,0.40,0.23,0.38,0.69,0.58
3.66,137.69,48.13,109.75,6.90,6.30,1.83,0.07,0.19,0.09,43.38,32.06,3.56,0.56,0.03,0.38,0.22,0.38,0.69,0.58
3.67,138.06,48.00,109.81,6.63,5.74,1.71,0.10,0.19,0.09,42.56,32.50,4.37,0.68,0.96,0.79,0.22,0.38,0.69,0.58
3.68,138.56,47.75,109.81,6.41,4.79,1.15,0.16,0.18,0.16,42.56,32.50,4.37,1.09,2.47,1.81,0.22,0.38,0.69,0.58
3.69,139.31,47.38,109.69,6.09,3.42,0.28,0.31,0.15,0.43,42.56,32.50,4.37,1.41,3.13,2.04,0.22,0.38,0.69,0.58
3.70,140.31,46.88,109.25,5.60,2.92,0.16,0.44,0.11,0.49,41.50,32.50,4.87,1.47,3.41,2.22,0.21,0.38,0.69,0.59
3.71,141.69,46.13,108.37,5.11,3.31,0.13,0.64,0.05,0.68,41.50,32.50,4.87,2.28,3.00,2.19,0.20,0.37,0.69,0.59
3.72,143.19,45.44,107.31,4.95,3.55,0.08,0.82,0.03,0.66,41.50,32.50,4.87,2.04,3.00,2.14,0.20,0.37,0.68,0.60
3.73,144.75,44.81,105.81,4.99,3.89,0.27,1.09,0.16,0.60,41.06,33.19,4.37,1.91,2.79,1.62,0.19,0.37,0.68,0.61
3.75,148.38,43.44,101.69,3.77,3.93,0.15,1.51,0.49,0.93,40.69,34.25,4.75,2.96,3.03,1.59,0.18,0.36,0.67,0.63
3.76,150.50,42.25,99.13,3.87,4.71,0.79,1.60,0.59,1.25,40.69,34.25,4.75,2.72,2.44,1.94,0.17,0.35,0.66,0.64
3.78,155.69,39.00,93.37,4.36,6.92,1.13,1.98,0.68,1.61,38.88,35.50,8.06,1.81,0.68,1.58,0.15,0.33,0.65,0.67
3.79,158.19,37.31,90.38,3.77,6.69,1.27,2.12,0.78,1.51,38.88,35.50,8.06,2.30,1.14,1.23,0.13,0.32,0.64,0.69
3.80,160.44,35.69,87.06,3.31,6.84,1.76,2.44,1.01,1.42,35.88,37.69,13.38,2.41,1.10,1.35,0.12,0.30,0.62,0.71
3.81,162.69,33.94,83.37,3.69,7.23,2.93,2.67,1.16,1.53,35.88,37.69,13.38,1.78,0.84,1.99,0.11,0.29,0.61,0.73
3.82,164.88,32.13,79.69,3.60,7.86,2.44,2.78,1.06,1.39,35.88,37.69,13.38,1.61,0.30,0.96,0.10,0.28,0.59,0.75
3.83,166.62,30.69,75.94,3.48,8.07,2.52,2.91,1.08,1.03,31.69,38.75,19.06,1.52,0.10,0.48,0.09,0.26,0.57,0.77
3.84,168.13,29.31,71.94,3.51,8.46,3.77,3.10,1.30,0.92,31.69,38.75,19.06,1.29,0.33,1.13,0.08,0.25,0.55,0.79
3.85,168.81,28.62,69.87,4.10,8.56,4.36,3.25,1.36,0.93,27.25,37.25,26.00,0.48,0.54,1.09,0.07,0.24,0.53,0.81
3.86,170.19,27.06,65.75,4.28,7.87,4.40,3.24,1.30,0.99,27.25,37.25,26.00,0.05,0.01,0.52,0.07,0.23,0.50,0.83
3.87,171.62,25.44,61.69,3.28,8.04,5.53,3.48,1.38,0.88,27.25,37.25,26.00,0.81,0.36,1.03,0.06,0.21,0.47,0.85
3.88,172.87,23.81,57.38,3.18,8.55,7.19,3.63,1.40,0.89,24.00,33.56,32.88,0.24,1.33,2.56,0.05,0.21,0.46,0.86
3.89,174.12,22.13,53.13,3.58,8.96,7.62,3.44,1.27,1.03,24.00,33.56,32.88,0.04,2.28,2.03,0.04,0.19,0.43,0.88
3.90,175.50,20.37,49.25,3.41,9.17,7.98,3.29,1.27,1.00,24.00,33.56,32.88,0.00,2.11,2.16,0.04,0.18,0.40,0.90
3.91,176.63,18.62,45.50,3.01,9.05,8.70,3.30,1.29,0.77,21.00,29.87,39.00,0.14,2.80,1.72,0.03,0.16,0.38,0.91
3.92,177.50,17.06,41.69,2.88,9.44,8.05,3.32,1.37,0.43,21.00,29.87,39.00,0.33,2.67,1.02,0.02,0.15,0.35,0.93
3.93,177.94,15.56,37.88,3.08,8.25,8.54,3.18,1.38,0.40,16.19,25.00,44.69,0.22,2.42,0.91,0.02,0.14,0.32,0.94
3.94,178.44,14.06,34.44,2.55,7.96,8.85,2.83,1.37,0.59,16.19,25.00,44.69,0.36,2.50,1.34,0.01,0.12,0.29,0.95
3.95,179.06,12.50,31.25,2.51,7.93,9.80,2.79,1.33,0.56,16.19,25.00,44.69,0.44,3.41,1.58,0.01,0.11,0.27,0.96
3.96,179.38,11.12,28.31,2.31,8.49,9.65,2.60,1.12,0.44,12.75,17.75,48.69,0.44,4.53,0.39,0.00,0.10,0.24,0.97
3.97,179.69,9.81,25.62,1.88,9.10,8.55,2.05,1.23,0.03,12.75,17.75,48.69,0.10,5.07,0.59,0.00,0.09,0.22,0.97
3.98,179.12,8.63,23.38,1.20,8.92,8.05,1.91,1.23,0.18,8.38,11.75,50.38,0.27,5.08,0.84,0.01,0.08,0.20,0.98
3.99,178.62,7.37,21.31,2.41,7.35,9.14,1.63,1.39,0.31,8.38,11.75,50.38,0.74,4.05,0.01,0.01,0.06,0.18,0.98
4.00,177.81,6.00,19.56,0.70,7.59,8.82,1.40,1.54,0.70,8.38,11.75,50.38,0.32,4.31,0.35,0.02,0.05,0.17,0.98
4.01,176.44,4.62,18.12,0.29,6.55,8.72,1.14,1.57,0.66,5.75,6.19,51.75,0.62,2.25,0.31,0.03,0.04,0.16,0.99
4.02,175.69,3.19,17.00,2.58,3.86,9.95,0.93,1.50,0.41,5.75,6.19,51.75,2.99,0.17,1.15,0.04,0.02,0.15,0.99
4.03,174.81,1.81,15.94,2.53,3.81,11.03,0.87,1.28,0.01,0.37,2.00,52.69,2.21,1.11,1.61,0.04,0.01,0.14,0.99
4.04,174.31,0.50,14.94,0.34,6.27,9.73,0.91,1.33,0.41,0.37,2.00,52.69,0.87,3.95,0.18,0.05,0.00,0.13,0.99
4.05,173.06,0.69,13.88,0.49,5.06,9.47,1.03,1.42,1.15,0.37,2.00,52.69,0.37,2.71,0.03,0.06,0.01,0.12,0.99
4.06,171.00,1.87,12.81,0.70,4.30,10.25,0.99,1.40,1.38,2.06,0.19,52.38,0.37,2.13,0.69,0.08,0.03,0.11,0.99
4.07,169.13,2.94,11.88,1.27,2.25,10.27,0.85,1.30,1.55,2.06,0.19,52.38,0.86,0.42,0.72,0.09,0.04,0.10,0.99
4.08,166.81,4.00,11.12,1.43,0.97,10.48,0.78,1.28,1.49,6.19,2.50,51.56,0.74,0.91,0.89,0.11,0.05,0.09,0.99
4.09,165.31,5.12,10.44,1.02,0.14,10.79,0.68,1.26,1.05,6.19,2.50,51.56,0.06,2.01,1.46,0.13,0.06,0.08,0.99
4.10,164.62,6.25,9.88,0.94,0.07,11.25,0.58,1.04,0.33,6.19,2.50,51.56,0.13,1.74,1.65,0.13,0.07,0.08,0.99
4.11,164.25,7.12,9.31,0.70,0.00,11.11,0.45,0.67,0.28,9.25,2.75,51.56,0.51,1.58,1.51,0.14,0.07,0.07,0.99
4.12,164.81,7.75,8.81,0.82,1.51,10.46,0.39,0.47,0.65,9.25,2.75,51.56,0.50,0.01,0.86,0.13,0.08,0.07,0.99
4.13,165.06,8.38,8.25,0.92,2.58,9.94,0.45,0.46,0.59,12.25,5.19,50.38,0.51,1.19,0.34,0.13,0.08,0.06,0.99
4.14,165.44,9.00,7.62,0.85,3.03,9.80,0.53,0.49,0.29,12.25,5.19,50.38,0.67,1.74,0.20,0.13,0.09,0.06,0.99
4.15,165.44,9.50,7.00,0.77,2.76,9.86,0.57,0.42,0.05,12.25,5.19,50.38,0.84,1.57,0.26,0.13,0.09,0.05,0.99
4.16,165.00,9.69,6.69,0.68,2.74,10.05,0.58,0.37,0.02,13.50,6.25,48.69,1.00,1.66,0.45,0.13,0.09,0.05,0.99
4.17,164.88,10.06,6.06,0.87,2.43,9.90,0.60,0.19,0.05,13.50,6.25,48.69,0.82,1.41,0.30,0.13,0.09,0.04,0.99
4.18,164.69,10.06,5.69,1.02,2.19,9.95,0.60,0.11,0.06,13.56,8.19,48.69,0.32,1.12,0.27,0.13,0.09,0.04,0.99
4.19,164.31,10.06,5.00,1.73,1.76,9.86,0.70,0.03,0.11,13.56,8.19,48.69,0.01,0.98,0.24,0.14,0.09,0.03,0.99
4.20,164.13,10.13,4.19,2.06,1.46,9.91,0.87,0.07,0.27,13.56,8.19,48.69,0.33,0.83,0.28,0.14,0.09,0.02,0.99
4.21,163.31,10.19,3.25,2.17,1.38,9.92,0.97,0.12,0.33,15.06,9.69,48.69,0.42,0.77,0.25,0.14,0.09,0.01,0.99
4.22,162.81,10.38,2.06,2.01,1.02,9.83,1.25,0.19,0.38,15.06,9.69,48.69,0.03,0.48,0.13,0.15,0.09,0.00,0.98
4.23,162.25,10.56,0.75,1.77,0.65,9.65,1.31,0.19,0.39,15.06,9.69,48.69,0.01,0.49,0.08,0.15,0.09,0.01,0.98
4.24,161.37,10.81,0.69,1.96,0.27,9.41,1.44,0.21,0.40,14.69,11.19,48.69,0.11,0.35,0.36,0.16,0.09,0.02,0.98
4.25,160.75,11.00,2.37,2.01,0.52,8.89,1.68,0.19,0.47,14.69,11.19,48.69,0.11,0.08,0.86,0.17,0.09,0.04,0.98
4.26,159.94,11.25,4.37,1.98,0.79,8.64,1.97,0.22,0.54,14.25,13.75,47.50,0.06,0.05,0.94,0.17,0.09,0.05,0.98
4.27,159.12,11.56,6.62,2.07,0.72,8.37,2.14,0.21,0.50,14.25,13.75,47.50,0.07,0.57,1.15,0.18,0.09,0.07,0.98
4.29,157.37,12.25,11.31,2.10,1.67,8.82,2.25,0.24,0.45,16.19,17.56,46.56,0.02,0.21,0.56,0.19,0.09,0.12,0.97
4.30,156.69,12.56,13.75,2.13,1.62,9.08,2.23,0.25,0.37,16.19,17.56,46.56,0.06,0.73,0.22,0.20,0.08,0.14,0.97
4.32,155.81,13.06,18.37,2.09,2.95,7.94,2.00,0.15,0.04,16.56,22.06,43.75,0.08,0.07,1.27,0.21,0.08,0.18,0.96
4.33,155.63,13.19,20.56,2.26,3.16,7.61,1.98,0.13,0.04,16.56,22.06,43.75,0.44,0.57,1.15,0.21,0.08,0.20,0.96
4.34,155.31,13.31,22.75,2.89,2.93,7.83,1.91,0.12,0.02,17.75,26.87,40.06,0.79,0.78,0.78,0.21,0.07,0.21,0.95
4.35,155.19,13.44,24.81,3.18,3.30,8.00,1.82,0.17,0.06,17.75,26.87,40.06,0.96,0.38,0.68,0.21,0.07,0.23,0.95
4.36,155.00,13.69,26.87,3.24,4.02,7.86,1.81,0.27,0.06,18.06,31.00,39.69,0.91,0.28,0.63,0.21,0.07,0.25,0.94
4.37,155.00,13.88,28.81,3.19,4.11,8.32,1.64,0.27,0.17,18.06,31.00,39.69,0.53,0.29,0.45,0.21,0.07,0.26,0.94
4.38,155.12,13.94,30.50,2.86,4.49,8.77,1.35,0.19,0.27,18.06,31.00,39.69,0.50,0.33,0.57,0.21,0.07,0.28,0.94
4.40,155.31,14.06,33.38,2.69,5.23,8.33,1.14,0.25,0.25,18.37,33.56,34.75,0.31,0.00,0.39,0.20,0.07,0.30,0.93
4.41,155.56,14.06,34.56,2.95,5.24,8.23,0.92,0.20,0.30,17.25,36.19,32.38,0.56,0.15,0.40,0.20,0.06,0.31,0.93
4.42,155.81,14.00,35.50,2.63,5.49,8.26,0.75,0.14,0.33,17.25,36.19,32.38,0.25,0.03,0.52,0.20,0.06,0.32,0.93
4.43,156.12,13.94,36.38,2.46,5.71,7.98,0.73,0.15,0.33,17.25,36.19,32.38,0.09,0.06,0.32,0.19,0.06,0.33,0.92
4.44,156.25,13.88,36.81,2.31,5.79,7.98,0.64,0.12,0.37,18.06,38.50,30.37,0.02,0.02,0.40,0.19,0.06,0.33,0.92
4.45,156.56,13.69,37.63,2.29,5.60,8.15,0.48,0.04,0.39,18.06,38.50,30.37,0.01,0.25,0.63,0.19,0.06,0.33,0.92
4.46,156.94,13.44,38.19,2.24,5.66,8.23,0.40,0.02,0.36,17.25,39.56,30.00,0.09,0.13,0.69,0.19,0.06,0.34,0.92
4.47,157.25,13.19,38.63,2.12,5.90,8.08,0.39,0.02,0.34,17.25,39.56,30.00,0.14,0.02,0.50,0.18,0.06,0.34,0.92
4.48,157.62,12.94,39.06,2.01,5.97,7.84,0.32,0.03,0.44,17.25,39.56,30.00,0.18,0.13,0.34,0.18,0.05,0.34,0.92
4.49,158.06,12.63,39.50,2.02,5.74,7.35,0.30,0.06,0.47,15.75,41.06,27.06,0.11,0.52,0.04,0.18,0.05,0.35,0.92
4.50,158.50,12.25,39.88,1.94,5.53,7.28,0.30,0.07,0.40,15.75,41.06,27.06,0.09,0.64,0.02,0.17,0.05,0.35,0.92
4.51,158.75,12.00,40.31,2.11,5.57,7.43,0.33,0.01,0.22,15.75,41.06,27.06,0.06,0.63,0.11,0.17,0.05,0.35,0.92
4.52,158.87,11.88,40.69,2.01,5.74,7.54,0.29,0.02,0.20,15.38,41.06,28.50,0.01,0.50,0.27,0.17,0.05,0.36,0.92
4.53,159.06,11.75,40.88,1.82,5.84,7.41,0.25,0.02,0.20,15.38,41.06,28.50,0.18,0.44,0.16,0.17,0.05,0.36,0.92
4.54,159.19,11.63,41.13,1.71,5.91,7.40,0.25,0.03,0.17,15.06,41.50,27.87,0.26,0.40,0.17,0.17,0.04,0.36,0.92
4.55,159.31,11.56,41.44,1.51,5.74,7.38,0.24,0.03,0.09,15.06,41.50,27.87,0.46,0.61,0.18,0.17,0.04,0.36,0.92
4.56,159.37,11.56,41.63,1.56,5.84,7.41,0.18,0.03,0.05,15.06,41.50,27.87,0.40,0.54,0.24,0.17,0.04,0.36,0.92
4.57,159.06,11.56,41.81,1.46,6.01,7.32,0.17,0.07,0.04,16.19,42.56,26.25,0.51,0.38,0.16,0.17,0.04,0.36,0.91
4.58,159.06,11.63,41.81,1.85,5.94,7.52,0.17,0.09,0.13,16.19,42.56,26.25,0.13,0.46,0.37,0.17,0.04,0.37,0.91
4.59,158.94,11.75,41.94,2.04,6.03,7.65,0.13,0.08,0.15,15.06,42.56,27.50,0.02,0.39,0.51,0.17,0.04,0.37,0.91
