0.02,-112.7918031045537,74.23794148305502,176.4484564271618,-113.4593211231506,82.59326118985268,35.45214182491251,-188.8260778721428,3.405487452187666,17.43152609158407,-162.68775966600563,12.06129246860274,23.54412115870012
0.03,-112.67929489026486,74.35954770150602,176.37774308540347,-113.43915203152088,82.19608137070146,35.19564583022496,-188.73959938052576,3.3065038279398733,17.570007507319502,-162.75577478088945,11.9888352862484,23.76207935941532
0.04,-112.73525738582508,74.22207306605027,176.58046979388203,-113.25059280047044,82.61549887324102,35.08172458951356,-188.66754400861956,3.4599495626152867,17.562651939537776,-162.6446586383685,12.033210125588598,23.823589804494983
0.05,-112.6745107721206,74.14193930020834,176.6380825555675,-113.58555133300597,82.28402903431771,34.99694899815915,-188.75467115514425,3.325827827141997,17.496635251389993,-162.72517307726432,11.943233285151877,23.874242825525037
0.06,-112.71536317921512,74.35669832552352,176.68140861490363,-113.33201246020258,82.23069054208922,34.7842771881839,-188.8249975855203,3.155773818952199,17.369269205547603,-162.67251300015187,12.112911008946062,23.72229691869753
0.07,-112.7228246233383,74.15800372311836,176.59460375253252,-113.41975900036805,82.42256224876117,34.8239108898622,-188.82499791045385,3.3182653770639616,17.536767960712673,-162.89660537197295,12.09814150193023,23.8628679397662
0.08,-112.77691864580147,74.21178556156264,176.39281019003434,-113.55802115311994,82.36471814495441,34.686820136027926,-188.82060467360404,3.2850895444801864,17.603076222470733,-162.71609207457013,11.967109604618235,23.724981200708108
0.09,-112.85018924052626,74.37306262378503,176.611895831393,-113.50614791137008,82.26291737589271,35.023906703215566,-188.7365111360012,3.326449716813237,17.379831807913376,-162.96623892978698,11.965558177531326,23.84162561268176
0.1,-112.8745670326194,74.1994573135877,176.48605549875083,-113.40072489985086,82.18583567596278,34.82968187320126,-188.7720654342017,3.544247068013886,17.382162292513307,-162.68626405967106,11.979066608121329,23.62943266559507
0.11,-112.77162270091172,74.33940140817329,176.7501393672323,-113.45624566585968,82.46920695581059,34.92048213490117,-188.93397384662012,3.3713910738345074,17.61986168308697,-162.74843738599284,12.104456472714151,23.812078421534085
0.12,-112.76226346887,74.25344190910303,176.7189615856789,-113.42974490162328,82.37842466006086,34.667917283820614,-189.18401689067423,3.491718019200508,17.58528633565016,-162.6978459417452,11.838900019454645,23.767671286967527
0.13,-112.74491234355182,74.18930241125993,176.5744358238807,-113.4494404551217,82.3318313988149,34.98113838759107,-188.8034292724685,3.3368742218037406,17.378528750166183,-162.73915819794348,12.082975375027772,23.849650294752923
0.14,-112.55047803605112,74.33443593614673,176.71769956373578,-113.4082516178727,82.41608441034683,34.93745571050231,-188.93871392352293,3.295719138299292,17.490304265977567,-162.78445797251294,11.998484129686558,23.98375346672612
0.15,-112.76987843244888,74.220461352412,176.4816654792418,-113.54962768050062,82.4113089942762,34.76567487063892,-188.91680329646329,3.0073542447459127,17.473935478809054,-162.71651953384986,12.004711687249108,23.663054908464968
0.16,-112.85098699754194,74.43858894587524,176.5860406583825,-113.44769396203785,82.20251937139592,34.76279100341699,-189.02924129016927,3.1413724227797637,17.288734350980548,-162.59961275811776,12.059828930151191,23.76899916991607
0.17,-112.76137805788764,74.43932233947639,176.4638228095045,-113.4298889345664,82.17510650943281,34.76935514529095,-188.90250914248912,3.204738051553716,17.34293401931374,-162.64446074956834,11.836792633914207,23.86202070935256
0.18,-113.03784074954682,74.358074424812,176.41533010149067,-113.62972329503538,82.23621583192205,34.81872707165149,-189.09408493888765,3.324208884538304,17.34389284927568,-162.6902034988002,11.993954158960902,23.834765318929428
0.19,-112.91713151099448,74.37580847383934,176.72812059338543,-113.34106394701298,82.30248594512108,34.62037229143497,-188.9349106335811,3.197492048182444,17.475279755218544,-162.69126386484868,11.876438605319075,23.73303704917786
0.2,-112.7510361282328,74.17406477466201,176.6533066037811,-113.54467385752392,82.20118390443018,34.730833770294886,-188.99891186394905,3.3707038143250663,17.547376391867157,-162.58223426988965,12.067122334613464,23.734994543981937
0.21,-112.86948728138556,74.36120146182454,176.46065695728876,-113.55112246838954,82.25841826231525,34.032867575224095,-188.76777704694615,3.283198453038595,17.523454902221538,-162.5799206200035,11.946245376854923,23.706827499890483
0.22,-112.96873187382148,74.33990052897464,176.52123719808426,-113.32341524774873,82.12763227438714,33.751560652361135,-189.1035810089147,3.2828376171267384,17.385815851249347,-162.66636289282226,11.88456330976473,23.61136768394444
0.23,-112.96806704849436,74.21852226302082,176.55460388270924,-113.54193224048892,82.1367117282665,34.08273847648761,-188.90744061826345,3.379265662215928,17.421286533065246,-162.74436684668245,11.90738344108047,23.78881753087512
0.24,-112.94923560253612,74.47642483973914,176.45291061400422,-113.46855489538667,82.18979900779739,33.450223566881455,-188.8554216451662,3.3049865429211223,17.52405800532387,-162.6300095694041,12.015793683376211,23.807651212054928
0.25,-112.67721907496453,74.31995229874943,176.57893236775732,-113.5290525475326,81.99708752634588,32.77967822025057,-188.8036362988973,3.321088867681102,17.456332521176403,-162.67579291549018,12.044055982790727,23.85082201350056
0.26,-112.9288482897948,74.32806658797287,176.73863879998913,-113.39470120623072,82.15457545569036,33.00992902621393,-188.83859685549865,3.307555042414615,17.264951883136217,-162.55208394897312,11.993617735471448,23.717058911534394
0.27,-112.83604403057656,74.36781598795793,176.51083528326174,-113.53788051922233,82.09967387421567,32.91748092265249,-188.69598772215207,3.15807485922403,17.375761092612315,-162.7820882498081,12.087685920760483,23.81899166538518
0.28,-112.88166916538712,74.45029361032302,176.36514055305034,-113.68176001305876,82.10991583115307,32.92207844739993,-189.01445642408328,3.092183846186532,17.297557092378344,-162.84618429822538,12.07435767593999,23.74968943945257
0.29,-112.82685491974044,74.21572198151671,176.59605147005274,-113.53574810267452,81.85378452601265,32.071731353482605,-188.91837350819029,3.05302121121984,17.384404519015035,-162.6284383078043,12.07215932113278,23.69920616541673
0.3,-112.97666603989374,74.39472885645495,176.6804916268321,-113.85612417213902,81.77535381192958,31.40063794967677,-189.0081440408875,3.2083286585020847,17.497296439577106,-162.79241197740615,11.963641894009266,23.70496155596017
0.31,-113.04735690771976,74.18477822114212,176.40672858674438,-113.70388938133036,81.97947434072647,30.54882800361272,-189.0316077201573,3.1855898058433563,17.38688738201543,-162.75721077176212,12.100182337847398,23.645461088513297
0.32,-112.7665362405407,74.39034095806414,176.56497165354148,-113.69927956090902,81.8525902992096,30.582089905206843,-189.19466601140263,3.0862051945565985,17.382572153353006,-162.5292325681326,11.931780093906651,23.826326121911222
0.33,-112.82436082080608,74.16177678011448,176.4351188689608,-113.7690520698956,82.14860025763421,30.894421875048632,-188.99695273050472,3.294869266024583,17.528511663747082,-162.57991385594767,12.058732947085554,23.879739238986748
0.34,-113.01624091812862,74.05968211216542,176.44584490272356,-113.7430978746853,82.28904044637007,31.685670913046117,-189.03766522987644,3.2809848548326137,17.453050800855394,-162.49498357573611,11.94496407931484,23.72470350820548
0.35,-112.90994223141412,73.99552131686467,176.51973598844592,-113.84641075860856,82.52861682104982,32.2027149497766,-188.86754285780432,3.068646075732777,17.505264071002813,-162.6838966608379,12.195097274577568,23.763528397396783
0.36,-112.93903218617318,73.94460009715856,176.3681364811246,-113.89781194289333,82.53925208999851,32.65037167605053,-188.9935018515276,3.042456843151165,17.41706585146069,-162.74883690796585,12.02029290124943,23.947286506402225
0.37,-112.99132983503786,73.74713833933745,176.52696950467396,-114.090943862576,82.79432117526987,33.47369390856532,-189.0395670423252,3.2762345409861604,17.302509902997638,-162.8232033828266,12.019789586445423,23.93286958213938
0.38,-112.884155105593,73.79219258304174,176.41303612259526,-114.17776680880296,82.91545889143195,33.56367644464184,-189.01360576805925,3.133131509639578,17.300781518407177,-162.7788486702472,11.754774031575211,24.11901528798382
0.39,-113.0375832333998,73.64530190742722,176.56738317348277,-114.24557084040032,83.15966576769132,33.32973797662451,-189.2242911107429,3.2152179397310583,17.204898806597804,-162.91260920456486,11.813737910739787,24.159046453382715
0.4,-113.17221304067738,73.63462580971627,176.25922212575009,-114.01498880157536,83.695550336782,33.16671205900007,-189.1039040555424,3.051421645696333,17.32303223573948,-162.84535959860142,11.67389995032579,24.053466360212145
0.41,-113.20693078939549,73.53643869247765,176.363794077367,-114.26081992552474,84.11737030790489,33.263306775195275,-189.1275307128423,2.9375018046570016,17.182980603102667,-162.40984042010118,11.862570138144468,24.317148541533896
0.42,-113.25682139152408,73.38673292276705,176.1167105129722,-114.38687718252622,84.57739251696387,33.251715642986895,-188.7497784992335,2.8224477161151658,16.85525889167062,-162.1993113138225,11.81084891732328,24.515212759829893
0.43,-113.27862763412163,73.16314609770443,176.1680698814507,-114.28335198827226,85.01878734765825,33.06854615223435,-188.88064023264573,2.560357654050861,17.0771300174865,-161.96116944571753,11.93694911769288,24.99011837121696
0.44,-113.02389077011678,72.9702298254334,176.44047802600278,-114.2847752126156,85.48240447757583,32.98023243626344,-188.5292491391342,2.4558341470512435,16.908409413744515,-161.67894812335717,12.097201761093524,25.272811658629134
0.45,-112.90845756305303,72.98425443216601,176.4936260902622,-114.6093612608272,86.11680035270341,33.03660903475289,-188.2063047898966,2.220928820518096,17.05307398617544,-161.4516507136401,12.248415227855151,25.513776120237477
0.46,-112.94605540129636,72.56994583721736,176.55564783622128,-114.3270015804132,86.26622162298041,33.06530555871265,-187.77067167573816,2.0965805169418377,17.11764442192224,-161.06875136114851,11.961155566597638,25.99837010021622
0.47,-112.85157291301869,72.53581943004481,176.22930889778146,-114.34679124165574,86.43280669313737,33.16450932643192,-187.36562171286428,1.942422195962396,16.861136145043943,-160.57668045269617,12.252980190629795,26.22867053612776
0.48,-112.80248145359668,72.34945554448214,176.35434928851683,-114.225021845607,85.72365791643145,33.13949514638876,-186.885708956122,1.818922288168985,17.202295554612284,-160.1203738920036,12.333314297425373,26.50921432798295
0.49,-112.777311457776,72.2353267951169,176.35719418070977,-114.40487942656958,83.99452570196281,33.36998989003679,-186.4466415999291,1.7411320466861633,17.32601150499979,-159.49478233206833,12.240767747248096,26.54762401074884
0.5,-112.97939742569862,72.04478904141416,176.28708711021278,-114.40399103938223,82.47319798449435,33.113031757083675,-185.72652100806403,1.5751316241118132,17.072526489174095,-159.05975013845742,12.380685097975874,27.049201942826915
0.51,-113.13507741285964,71.63674601757546,176.16011159530134,-114.5982870654199,80.78786568831616,33.05765240988599,-185.078282785675,1.452782603052278,17.111543115312777,-158.33369215654147,12.300531452919518,27.22231081152565
0.52,-113.12383170324136,71.3075619243737,175.9670529207791,-114.61569895643116,78.49883333851064,37.51181358439879,-184.29499091234817,1.3841018910642644,16.9004780273371,-158.03743647837968,12.301288285591042,27.440262726176453
0.53,-113.31642343593953,70.93976737188737,175.795044816776,-114.78378793026212,76.27492321615681,40.51689078470401,-183.49551881522905,1.3229635083510334,16.771317549234915,-157.39621770463876,12.154035298487765,27.453713249266368
0.54,-113.26454708086122,70.95880986797675,175.76472518339654,-114.40030158940355,74.94559116506699,41.44809514567506,-183.12017945702613,1.2764745779860034,16.518945489771042,-157.07521989880684,12.246994994014749,27.48748989619934
0.55,-113.2508162075112,70.68718120804517,175.6984104402698,-114.33985529910072,73.81559921414073,42.54916584726016,-182.76647020083303,1.1553772432014875,16.38937071025777,-156.8713710692873,12.045553362513528,27.538208160737256
0.56,-113.18980895727265,70.72383937006863,175.65441420398938,-114.0171821739774,71.15261270605316,44.00954782269617,-181.6203730776585,1.2990338098388303,16.06875121199586,-156.18668660085928,12.105063646293766,27.57356921534716
0.57,-113.40747372561742,70.56240028686251,175.8794719028107,-114.07302113046836,69.91785139963027,44.713954284176914,-180.72776112045784,1.5500828155773103,15.500812188908403,-155.58225832815472,11.616437321050912,27.594336944254486
0.58,-113.54272980060009,70.0515532736214,175.8457827666039,-113.64545687938376,67.19308545929496,45.49212895603458,-180.1388974936316,1.9041903544907528,14.8721428274018,-155.74433643694928,11.666977815209028,27.89360692175688
0.59,-113.62653995216657,69.81714597245319,175.85071654842184,-113.43574265248948,64.54114349898398,46.2088842078272,-179.04285089855372,1.9567944637014367,14.594867507150315,-155.43130150640204,11.17686785909796,27.8592674302386
0.6,-113.75263393509672,68.59585743404898,175.83160513558153,-112.86137240853428,62.006466673803104,46.4632207092173,-178.26856930352005,2.469785482586412,14.280134265626366,-155.43641189065244,10.936148270446685,28.149440856816238
0.61,-114.23481994762942,66.37350172145158,175.90839852973025,-112.8382177417954,59.4635487284953,47.09926307975492,-177.51364446592072,2.65713345678154,13.81357525973778,-155.76418066740877,10.733960240606915,28.513666867767444
0.62,-114.54383010549276,64.33040076980278,175.9637756401764,-112.94662929985572,57.47370914612552,47.65137359499128,-176.8061122404735,2.989537365742631,13.552912600893848,-156.1975357685405,10.3472597583167,28.660143561001824
0.63,-115.03283356612506,61.6384503709431,176.1562842617603,-113.4404911966496,55.81674832295659,48.19958517428,-176.03430490656532,3.260953063276076,13.409024296463672,-156.29580497563978,9.920058558595764,28.731905371851763
0.64,-115.47087463767969,58.99381153474093,175.9791516983488,-113.6513536848294,53.87889093956359,48.62425101769312,-175.67259984145988,3.6298286802198008,13.1342388469867,-156.18309518630932,9.949901003555434,28.778333019460764
0.65,-115.90478238801606,56.10046229338207,175.86126636529556,-113.77815612479286,50.982607234815525,49.31637854165822,-174.9807045559146,4.033284458786075,13.074378448307185,-155.95770852388293,9.802546143189408,28.675406360358515
0.66,-116.52903483358024,53.211792442199936,175.9935554507886,-114.02662539005416,48.2108929726816,50.068909796483865,-174.46007874610953,4.073084339934901,13.176588820581694,-156.1191719794828,9.72287505776038,28.453639943359622
0.67,-117.4153391249868,50.883002915724816,175.7873851218344,-113.92445846041534,46.25899135387992,50.34477000601092,-174.53440059993548,4.2028115591073565,13.271909844942204,-156.00951406955116,9.7741954844551,28.48627510634017
0.68,-117.70552455326464,49.2068266481828,175.7289171728758,-114.0472076663907,45.18775036699009,50.690310684078,-174.7222059018579,4.390721820879033,13.446632260860312,-156.26199129331113,9.383194020881554,28.38262495577461
0.69,-118.08570757102876,48.05787983606257,175.90113765608783,-114.00823189157164,44.14747895190794,50.59883710892272,-175.2455909918778,4.438705687951179,13.753284885261705,-156.68829065250227,9.325029358436469,28.43726704180244
0.7,-118.17171509234048,46.63329650330461,176.1515242010741,-113.99762085411145,42.603312367078864,51.20812753974789,-176.2885088920444,4.554020506807596,13.700700741407204,-157.29473839101482,8.917513746645918,28.95252460244484
0.71,-117.85231790838148,45.16893343104886,176.16382312062143,-113.82675599145442,40.7634955673578,51.49367088012957,-176.59086860128605,4.652212286871439,13.673038920812768,-157.45256473184918,8.800432379717172,28.921617621678315
0.72,-118.02146761174976,44.31401031191392,176.29123313799514,-113.8742260006406,40.04960941232016,51.79487039948937,-176.8938900101067,4.483043944970157,13.648190743632435,-157.19395562547473,8.813101566699537,29.07807362899619
0.73,-118.0845079764437,43.672938905422704,176.33438669510585,-113.76428329796416,39.55875673295937,52.08550529395984,-176.6194631903282,4.769015409417029,13.650775946873043,-157.40606882395377,8.691204070352525,29.02036344205906
0.74,-118.21276732299911,42.54739883321977,176.650649871249,-113.67114732476274,38.760887862925145,52.56247781612709,-176.3470473659806,4.696236479497363,13.635489776984707,-157.05105532965186,9.122424174413114,29.049477165370085
0.75,-118.35673603883735,41.37498423604449,176.6571682331216,-113.69608272698213,37.97072607300528,53.12829760403573,-175.99630060975176,5.008539089707299,13.609951340880423,-156.62662088085216,9.23871227181159,28.98972117440316
0.76,-118.3041429524712,40.38796326054607,176.611063342515,-113.87322949316577,37.45520601606121,53.341485558299965,-175.76581089815355,4.596405564613381,13.349297780390303,-156.822637399011,9.503180238364264,29.077637770928344
0.77,-118.03987263724686,39.214214552811285,176.75200506335324,-113.54735226180394,36.30424611822036,53.55261191989676,-175.47981116109284,4.591276530726455,13.46114549529992,-157.4563183862467,9.411690763511295,29.29478867533633
0.78,-117.91956152714272,38.02145570921903,177.0743348353853,-113.29608053547616,35.36941506116207,53.11474589609231,-175.33116694642274,4.493030043747909,13.543855128178448,-158.0234814981235,9.321200379913552,29.47095175010706
0.79,-117.82756261073196,36.62854847971614,177.10761261936133,-113.01163206777612,34.98905143642779,53.3943283411156,-175.48032634164088,4.567166679079604,13.614051167667103,-158.67305984871285,9.0761103135906,29.71273691912156
0.8,-117.90349818972012,35.10373086834068,177.39787635999306,-112.98474002126942,34.55154438133456,53.63785902225739,-175.8078241149228,4.165692556897315,13.51959332146056,-159.18355928984374,8.946591043650969,29.83413839176109
0.81,-117.78749192461814,36.21465513636005,178.1496247818956,-112.83934416698176,34.43017337130258,53.91774192152682,-175.91574093684548,4.339688824476977,13.49417967803931,-160.04685686275894,8.98760495463678,29.769549326251227
0.82,-118.10265837286272,38.49324047723361,178.91199275177277,-112.93553131595424,34.11695347261647,54.027459459887886,-175.75898547386572,4.060433523724729,13.5421576731129,-160.7018745907628,8.852813571866626,29.76493063317611
0.83,-118.10121430923316,41.00259379855553,179.83408429145163,-112.66481998505938,33.79226822435569,53.96218659491664,-175.52160693680935,4.169720835966623,13.239698819252146,-161.71307676751292,8.744614212874914,29.72604269652935
0.84,-118.3426989136062,43.475842294466624,179.29453648313503,-112.8576140378963,33.71362963511223,54.30807269483811,-174.7354298948261,3.9634631049494633,13.07418520746628,-162.49298037010277,8.682695233689193,29.601435174069938
0.85,-115.06863173717412,46.56862314010649,178.1153153428267,-112.5977417967274,33.92513906787385,54.10488665426735,-174.5834086675511,3.999234590873428,13.353204777819643,-163.4455826654312,8.401037054499854,30.13989601831169
0.86,-113.7787292582082,48.758835212481074,176.95985096876134,-112.60497552723672,33.75419096896315,54.157396641566095,-174.81815510638532,3.936807752523548,13.07469011842127,-164.10351567614168,8.178303545494252,30.370899286092737
0.87,-113.504389890045,50.49331455516452,176.4738382635126,-112.57788259672124,33.46409484904269,54.156616351053046,-175.24350519252928,4.003508792909152,13.248505967288716,-164.84059339917422,7.856544779675606,30.43345913408319
0.88,-113.52864659592706,52.33206557390141,176.24481330944673,-112.6297064170811,33.332138800534054,53.98379919412073,-175.26762478348246,3.783381722161741,13.09290114508641,-165.33699435816678,7.9261040608780515,30.56981580404178
0.89,-113.90679457021176,53.94457098258388,175.90760614834892,-112.45128947538716,33.06115812696834,54.218779940718285,-175.2919541332539,3.695167073151145,12.963220048434422,-165.4373047037591,7.969501895686898,30.65806555521224
0.9,-114.05267883944046,54.808269178289976,175.7719059359704,-112.46903646246226,33.42167059529362,54.14475430956308,-175.0743527920576,3.969951523001341,12.919311377083636,-165.79658537018562,7.8329740768436125,30.666057711634316
0.91,-114.17951608722612,55.48149698230566,175.75436846299718,-112.40734423254314,33.373749437942784,54.12243335597815,-175.12000977483524,3.8002674396062623,12.781329385631915,-166.13462268159242,8.024660788927612,30.72924890894813
0.92,-114.39819422855489,56.47022906050374,175.61889311416704,-112.32654529858846,33.34781963579434,54.31895068773373,-174.5629195213755,3.794554081953882,12.722290003823998,-166.444620940927,7.406747791178024,31.071942980226588
0.93,-114.34774749567542,57.825289951467646,175.32579507481117,-112.56383143138564,33.065431095941,54.01404519400161,-174.26587821710478,3.702590934127504,12.239697882122774,-166.3714528412373,7.493553017038525,31.278968918026056
0.94,-114.07835087558152,58.7424064400166,174.91067959657255,-112.66612566513356,32.86233506540384,53.96205356228802,-174.10280179294637,3.953404200224381,12.03882057234237,-166.19321377141583,7.534159727329792,31.66596792954784
0.95,-113.63515929027554,59.68928442198674,174.4927267931166,-112.5865948117779,32.53493021157016,53.80228717292727,-174.06054991977632,3.939151758735008,11.686051092382195,-165.69286503356733,8.095215413291317,31.902890213119903
0.96,-113.46445161696091,60.591533660050416,174.03978331230218,-112.38748542349616,32.068933032072366,54.26025974597453,-173.94442684028496,4.206350797745654,11.26732117850118,-164.9889693184385,8.373682154519901,32.38770480475141
0.97,-113.38286107259415,61.22223904130827,173.5198650569149,-112.67794234809824,32.72496944178505,54.43745536192247,-173.97132577119285,3.8756253795951783,10.74177871413526,-164.29993865916285,8.236682217451264,32.97305207690514
0.98,-113.09043566027876,61.75352625331059,173.00398477413648,-112.76051777755583,33.126086069922835,54.40735443946425,-173.84062163842734,3.834659732919727,10.20669117206902,-163.23795926518477,7.790337835039508,33.71479673573492
0.99,-112.8684199874879,62.26716235155288,172.58100697317002,-112.84080007417168,32.35472201077153,54.50220410587281,-173.606751983675,3.807574175116609,9.250084367193454,-162.25831429275803,7.855864182547786,34.55371297076763
1.0,-112.8583788575814,62.51333825006273,172.2267976322568,-112.9997799047424,32.16007257783083,54.45234656631872,-172.49546432251898,4.079674624401336,8.380155713920415,-161.62510634484832,7.560000689623868,34.99499323571239
1.01,-112.49266542497432,62.81584526381194,172.05809956873145,-112.87211978758948,31.555450180682865,54.412301509671046,-170.65665673019316,4.298559115531008,7.419798175409341,-162.3927893191916,7.358483863219686,35.46000256523806
1.02,-112.40830204768778,63.07858722231433,171.73118170271994,-112.93933085167431,31.160993418125745,54.70409762890975,-169.7938908261842,4.856915477195539,7.209066830251432,-163.24647263103364,6.709971926926535,35.67239228809278
1.03,-112.25344745974942,63.37891611717967,171.55313349684346,-113.0754001894236,30.836131763496283,54.55054616604959,-169.98698007886352,5.030505042824978,7.171066436165331,-164.41779817772905,5.765969402703436,36.10767016864248
1.04,-112.42475927589538,63.88399999141316,171.36543055699445,-113.13579585883788,30.598803692558203,54.576885712369005,-171.08449881416266,5.085075740513444,7.23078682607751,-164.67833145214817,5.614320114093742,36.36303719682283
1.05,-112.35900615692007,64.02568803659203,171.4582788927868,-113.22113083010998,30.0851561023652,54.5056562478011,-171.70198539875787,4.941572661675269,7.561783546608042,-165.0539880333248,5.244931279004723,36.4595216285295
1.06,-112.11400162716944,64.36493018214792,171.11565671879782,-113.45734913922168,29.73789140289596,54.56108194713297,-172.83755071019186,4.884081705617117,7.81387870930315,-165.1680920683211,4.932015369993076,36.45622740537858
1.07,-112.40147584572723,64.7264292613733,171.06730262074123,-113.35959371747728,29.15557418485187,54.45350394333813,-171.95274113692395,4.626384216123742,8.10102820556524,-164.9130434877198,5.159275509215919,36.48757402272414
1.08,-112.6216686166895,64.82313457174132,171.25237821765413,-113.39505507321012,28.76828748114003,54.29901249641485,-171.3534812753038,4.375665765875117,8.320600184823897,-164.79710987847483,5.136052524218693,36.532558743268375
1.09,-112.6170254213404,64.86510633196748,171.1717464938791,-113.49875536973404,28.5581359362844,54.181645283940725,-170.86557210298085,4.396707700081356,8.422116436435218,-164.83899330183445,5.261423398861612,36.48183844828621
1.1,-112.8376856969808,65.18623702170203,171.1366074059615,-113.56965117632583,28.193981473517702,53.881819293655305,-169.73845826220895,4.406930808443356,8.558143650433285,-164.605515314699,4.940790199860649,37.09675253102686
1.11,-112.89508471394404,65.632477318212,171.20110699543616,-113.80848253805162,28.221523892131064,54.07622285006881,-169.6279564946949,4.473684972695547,8.629217684867493,-164.28182894943066,5.005264212772321,37.54992056214379
1.12,-112.97433125060034,66.04950604619299,171.06220743118,-113.84898882739772,27.894815147353565,54.12916266113427,-169.99982881352994,4.435282198372052,8.826833551112824,-164.3637693723975,4.872570246801817,38.02397242282149
1.13,-113.27230106059172,66.11216951203771,170.88941309420147,-113.9016130779378,27.41706661774234,54.08151374903847,-170.6034955569161,4.138343336133025,8.771133414327004,-164.42621300708976,4.513167692046656,38.03711428032756
1.14,-113.23614983845984,66.23225874547539,171.33929117453292,-113.87269240010872,27.22747954822541,53.80524139991592,-170.61475587057004,4.064760667601687,8.747994344774197,-164.20558642615924,4.390034199981138,37.99382932565954
1.15,-113.7053934114907,66.13805716566588,171.535390414607,-113.82056871627556,27.147672822123702,53.78327272139048,-169.81610270465595,3.834900246631992,8.778383942825657,-163.93297224094383,4.472715050595493,38.03411498794673
1.16,-113.9333069313077,65.9558241577451,171.85993750502348,-113.97730055459634,27.197911454409404,53.34883620974097,-169.28893260152674,3.95198634403589,8.862436384933948,-163.74268966608528,4.642516890265525,37.97375886635377
1.17,-114.07659730655948,65.34951729349811,172.37418779955362,-114.05162143674842,27.2997899897584,53.16052183246545,-169.24279344232977,4.04785330694104,9.01997611335814,-163.58736502900825,4.385260232814063,37.76883463719759
1.18,-114.36703083420862,64.62519542106956,172.79623533603177,-114.1140254655508,27.59461623681849,53.28416108250013,-169.29200331953197,3.66224977040907,9.04270385556493,-163.01933138842287,4.439069583434657,38.02545224079903
1.19,-114.5796285604951,64.34390036541217,173.39272250668557,-114.05790467853896,27.99224336783915,53.17302671335118,-168.93157462433126,3.7650889166841752,8.798713131240705,-162.82665551127994,4.530305827276712,38.826162182419104
1.2,-114.73136345426336,63.55671627282337,173.5828186319085,-114.18970922789808,28.446067835452205,53.47934891317506,-168.55426632766938,3.6913073451569263,8.56198618844618,-162.70562257181743,4.36651522216383,39.10205090660828
1.21,-114.75637788659309,63.206104944889525,173.66018260204604,-114.38862808500532,29.115199432714416,53.08342550792323,-168.4912460468702,3.593865265336827,7.97393895902188,-162.4140775666083,4.3872087819203145,39.84819904565547
1.22,-114.99410498314312,62.48923967459151,174.06118794814662,-114.32219620068898,29.69584296334751,52.80994018533671,-168.586677615872,3.8216474665417977,7.728963936885571,-162.09149921840168,4.670121128155713,40.52475908449144
1.23,-115.06636137349408,61.77326344816389,174.43147503609063,-114.46029192852384,30.3790381974836,52.56770826608925,-168.876298943537,3.74048996610544,7.646274373853426,-161.34912200253464,4.922321613284845,41.37369484955894
1.24,-115.43911948476472,61.02978073732048,175.4131147148021,-114.23689618393205,31.225357711745723,52.53562144959449,-169.73573194315566,3.3609046469499493,7.33809218686179,-160.77689389313105,5.054677617342722,42.0485513610451
1.25,-115.8802753324558,59.82080512334869,176.24270052874357,-114.264735594182,32.09158986744609,51.9893075962891,-169.6955244264833,3.278350578572194,6.698632199302561,-160.1131268013343,5.346735701231432,42.611062783601
1.26,-116.24447451323672,58.90182232536848,176.7037150452032,-114.15987065901298,32.60634953807024,52.05756322982248,-169.1084187096228,2.8648860973511705,6.627091607582844,-159.97329673856024,5.684746195782397,43.007436384167946
1.27,-116.45802788612748,58.14950388529471,177.2246321195598,-114.1009031701403,33.16487638727492,51.64182524638671,-168.9169296816343,3.0097199156243155,6.12185334922459,-159.65486693849454,5.761586162960476,43.51350609637266
1.28,-116.78262856520928,56.18052057375453,177.7553665370301,-114.13148752020778,34.02121443123682,51.40690810857026,-168.3990244177523,2.484719945749577,5.614696999781753,-159.23682604885585,5.953549514841215,44.1505227170351
1.29,-117.37868583414796,54.13782473876787,178.64137508527332,-114.14135039354858,34.76263769455787,51.1182690168407,-167.70013761826905,2.1448033146275747,5.108258729085628,-158.74116927595145,6.132762877210471,44.77805166084466
1.3,-117.78242815327437,52.13950416953774,179.26370475582385,-114.12888925951114,35.5527069094024,50.87630087953416,-167.9453775516498,1.8538957123978717,4.544216888912923,-158.28978971541807,6.587418138362683,45.38903368776988
1.31,-118.47846780254189,50.10959546153951,179.91053244067632,-114.02040402219696,36.62589416819612,50.941624423633165,-167.95145768917075,1.4970757930587486,3.944659449942052,-157.61090585588863,6.727709725268589,46.14797074231682
1.32,-118.98457462523317,48.53363103972303,179.48019160570206,-113.763687917281,37.82453187762414,50.62235934849724,-168.3312139689982,0.9888278229145646,3.687775758142711,-157.33631389036083,6.852736027214087,46.94799985972579
1.33,-119.51730485916252,48.30987411468488,179.11792336583173,-113.89942107987872,38.99765971717337,50.423037062623415,-168.43423161024356,0.767871882227753,2.9899704991716782,-157.0506805405763,7.288466285546415,47.89736410799696
1.34,-119.8570974461744,47.02993504295944,178.86082419266884,-113.81387661575862,40.01270149476228,50.04360080785671,-168.56069854644164,0.6453666092560951,2.4139746484601234,-156.78245661614673,7.574474304667066,48.69413749665569
1.35,-117.45682254111048,44.47049078899392,178.3195241630169,-113.8777218427133,41.28862308750952,49.94027456545206,-169.063034968097,0.153575480763239,1.8904782742076445,-156.45390216976426,8.100617132358613,49.57473933852766
1.36,-117.34996861112154,44.21830304251225,178.33451187401388,-113.72282991075248,42.71418568369512,49.79534758150476,-169.68372048189286,0.1788301776246902,1.2310992293210012,-156.1489851605949,8.22487008804355,50.55653272199921
1.37,-120.71662473463816,45.20170631644292,178.07124445855283,-113.56346471118115,44.15948729905946,49.69267353174708,-170.08932100170006,0.6163606309463129,0.8839205878118519,-155.75347370479776,8.824487469922424,51.76608036489881
1.38,-121.0120141411504,46.36260885842229,177.56494911471407,-113.90921121616756,45.21838406486134,49.38845193368911,-170.62746434999343,0.9982105161860408,0.5606352647991358,-155.40566060938414,9.32964842154618,52.56075541950586
1.39,-121.10789208975925,47.21052555042765,177.59514179474752,-113.50144816510668,46.407481184790015,48.95483357317014,-171.22578268958034,1.6186680862485536,-0.0308953544861578,-155.17250081486827,9.951718322714592,53.70750486668326
1.4,-121.12227905495932,48.48761984915391,177.30983959951553,-113.41627173676991,48.05739336361755,48.475931080731065,-171.51188287288812,2.042913524057705,0.0497729342121799,-154.93560073317204,10.307223758852688,55.04152524800903
1.41,-120.73864849147724,49.57396991798127,177.37246644073034,-113.44196270790424,49.444524049459055,48.39687947337829,-172.23045793214962,2.60308858322767,0.1633148749777375,-154.66784346279292,10.959239107883166,56.70386454179018
1.42,-120.45936786652624,50.60329923470584,177.2950579561319,-113.58976056966976,50.89096506595399,47.84708923794062,-172.76725400295155,3.2472439914921605,0.3482797599871021,-154.3110619570561,11.657978122378225,57.66611442625656
1.43,-120.24587665718056,52.06623460521154,177.11321509073574,-113.50247808844748,52.32145221911074,47.728923039555184,-173.32789473841143,3.712204473544888,0.3183742989053226,-153.6277250841341,12.514522220554854,58.81958330788869
1.44,-120.06115235909564,52.392687400106624,177.03738775902394,-113.73234671024026,53.11080365550363,47.671143472367,-173.75288728708065,4.249960599026534,0.2213727960549407,-153.5746437382531,12.633425870129509,59.49941297150136
1.45,-120.3133481666908,53.12561640757357,176.86630462529482,-113.7206046492598,53.615228608455006,47.11377884244062,-173.77325361905096,4.792100316571269,0.3500344652231689,-153.44034660981734,12.970452889310732,60.421746538585886
1.46,-120.18830079668412,54.180357108357015,176.8510925049713,-113.69180590730178,55.15054530068207,46.80750807509366,-174.40096624924914,5.262917495486183,0.1226209647624538,-152.9525200462157,13.291557115446558,62.140543245626425
1.47,-119.80307012327768,55.20015159862944,176.70375066499665,-113.78632474694652,56.48755629625313,46.05816540126799,-174.730213565401,5.805907577278005,0.0272703531334631,-152.28884948643784,14.478370033753544,63.65637822889408
1.48,-119.76969127603896,56.07554580470531,176.74536003744316,-113.66396110838198,57.77593549928845,45.72183574686019,-175.10685486972537,6.27119849706132,0.2791872506870162,-152.07570161433452,15.352582806335562,65.2501529069503
1.49,-119.63514683008736,57.12397144790732,176.67119166575517,-113.81732542939974,59.3402095399838,45.25736761053589,-175.95688822330317,7.428606554147225,0.6324986756470815,-151.75774327402442,15.768546948416892,66.98807173502858
1.5,-119.51194774932188,57.99961917712961,176.48230813319302,-114.11720541493574,60.506293664522346,44.35883673783786,-176.53151708159885,7.865726617311511,1.316331784980826,-151.33954351538503,16.848478653363166,69.19848824740508
1.51,-119.57093034185404,58.95216370045566,176.48081651130104,-114.0584780395068,61.79448232059757,43.83601152612992,-177.00551531185698,8.722091038061404,1.7787958499307948,-150.86064635633605,17.60619619630486,71.8264177255778
1.52,-119.41413019444316,60.17841084483016,176.1160095630208,-114.32111527202191,62.64741531654207,43.28318820145721,-177.84168262956734,9.41849593593704,2.510463415360779,-151.23565066202957,18.346705565464667,74.18877416225516
1.53,-119.59689805516,60.931114412542,175.99941120389903,-114.09389766223684,64.0798106858086,42.52551897387345,-178.701945832937,9.589782006539188,3.4518723191297584,-150.95245490585052,19.047803547928897,76.47205538298806
1.54,-119.774850308395,61.711592346205926,175.49402544359145,-113.88693527831256,65.17911890010274,41.70399305737556,-180.10489507331295,10.52106845808026,5.09905446349959,-150.62686177678196,19.862697637042444,78.74322833302391
1.55,-119.80791541443855,62.84283870518385,175.60831014078843,-113.87905638877604,66.1945276824294,40.918345001231216,-181.42132882899327,11.066585743489542,6.531733401695046,-149.94488238413248,20.71027898829477,81.27997679835347
1.56,-119.9200298486422,63.54506613921975,175.2881708113113,-113.85924969029134,67.1429806334978,39.937487019598485,-182.62298620366215,11.76122901337563,8.156853057714757,-149.5129425908995,21.553372006498133,82.47345582893871
1.57,-119.87636516757802,64.44360332421459,175.13739883794074,-113.69812655664524,68.45698219063468,38.88942924674208,-183.74583754716863,12.53894184593076,9.742056931338684,-149.00622056766355,22.477250633259683,84.590145658064
1.58,-120.29138365469504,65.11744123575275,174.87484559014888,-113.54567617376384,69.54386040265202,37.82435024051779,-184.15056714166468,13.199127145539212,11.029428695914412,-148.16639869488048,23.41672294654275,86.79168285307547
1.59,-120.41239118739904,65.8435798630757,174.56425439183278,-113.72147073412872,70.77024806027806,36.70268181152564,-184.94677230271,13.759134407877871,12.42282802204252,-147.4719458267794,24.69052267490561,88.81153965537018
1.6,-120.40594514004614,66.58487297830631,174.02892105101128,-113.73889027715632,71.57347719671849,35.695861239948336,-185.06771589118537,14.494610029304695,13.615973366769047,-146.58567860653667,25.606815413921407,90.90404269529552
1.61,-120.69439529381047,67.20575033773152,173.74105083578718,-113.7786719107193,72.52659567138078,34.63727201135535,-185.60342448958767,15.28426774199107,15.142239266010002,-145.79576372470598,26.27825542061538,92.5997017345288
1.62,-120.37289674865713,67.35190094237177,173.92864678851814,-113.7479819600378,72.80330206481347,34.048563775913514,-185.73534941924103,15.543022670821276,15.935650759685576,-145.3827193788112,26.626712777349024,93.77915105004534
1.63,-120.60711835918468,67.59873703478893,173.81540344321965,-113.91587464648936,73.01971221867399,34.04389421714669,-186.2294487164388,15.824612716378956,16.605965818164893,-145.05025904343114,27.141393398203448,94.72521169558992
1.64,-120.53402550040664,67.90446057230763,173.47986436732683,-113.95323906089789,73.91365872350195,32.670756656810504,-186.7903895784297,16.56187145863947,18.14839539270038,-144.1356179851523,28.066414352540843,96.16869352568244
1.65,-120.40973136303836,68.5669696062159,173.26000911235627,-113.88332687725205,74.89195624256082,31.047222713959066,-187.7067836293284,17.320818767722397,19.968421700699142,-142.71202586296795,29.125498283339365,98.20160113924324
1.66,-120.48835530245708,68.96169036532052,173.18538022574717,-113.80155358653975,75.53384510079107,29.86537346445585,-187.85005579071105,18.19658950347721,21.307211884232785,-142.09499346831464,30.142397198757703,100.0042540654248
1.67,-120.5830820409656,69.36884916107714,172.96427332115096,-113.97697530515497,76.3521325499276,28.814684086312084,-187.93135468485005,18.7816379949896,22.58049372391552,-141.6012674577131,30.590577448696493,101.9738296138609
1.68,-120.65385301669389,69.89330140392542,172.52648533556268,-114.13947907756206,76.88811452781866,27.152409845185748,-188.1523243766381,19.20220744819772,24.2145719505464,-141.16282357118453,30.73845829333526,103.70393377775196
1.69,-120.387408423906,70.23621795611415,172.02303439870025,-114.14105509000046,77.822980018684,25.490897480146103,-189.10280596714736,19.47210078582146,25.547627389624125,-140.3889131520569,31.574691816246716,105.64280716802944
1.7,-120.60830607553828,70.7504704840184,171.43571684450092,-114.25259173457346,78.21573092813705,23.767332717177133,-189.85240822032551,20.298637814112432,27.32025261970997,-139.46424503342627,32.12954116327633,107.9328744446654
1.71,-121.12253033733688,71.04671374893734,171.11271236197803,-114.43415599221686,78.73375124495551,22.4990248002108,-190.00421313952185,20.67009421553748,29.05097438486129,-138.57449298962698,32.493690109133766,110.14832664435514
1.72,-121.2092516992439,71.26134800355796,170.77921500921036,-114.51153953119363,79.56944459849991,20.35949364156754,-190.7634015945124,21.02909518717973,30.83914907514079,-138.10045633650736,32.8744474253542,112.57951825518272
1.73,-121.3892961692512,72.03009053743685,170.02974230002496,-114.62471184721308,80.26217240141204,18.015847854031783,-191.1933547292676,21.27172469898456,32.471346380007965,-137.1799477842468,33.19495947214322,114.69566875122948
1.74,-121.49547750202916,72.16417948807796,169.886899229825,-114.6222827281454,80.33269547287976,15.740569553965358,-192.00540931331932,21.31449464171684,34.35265453427034,-136.2946159116578,33.49611814867551,116.57677023559135
1.75,-121.72157058179512,72.4955280662681,169.44313267093028,-114.67888673013944,81.19267643146947,12.808072945118347,-192.68897219651063,21.74042243852437,36.3712825031731,-135.60888213658578,33.72675863024619,118.37980654828256
1.76,-121.99909850288226,72.77700518980606,169.1877740186467,-114.81968772837531,81.32477106634505,9.909095859757064,-192.9463530530506,22.33211157665828,38.08833617651156,-134.8760937361042,33.78105895263684,120.10874060544715
1.77,-122.08581668574018,73.15719839742202,168.61393346555872,-114.73719111372624,81.73260350100122,7.507881492409743,-193.01641893000084,22.673375612642864,40.12899609375984,-133.80962395034354,34.49276380037903,121.9902790184526
1.78,-122.35579290552212,73.31187497804865,168.14083291984463,-114.78804670008626,82.29610725985899,7.545587694630812,-193.3655462030176,23.098420904361312,42.42261803331099,-132.16692100002402,35.266852239054,123.62451615899548
1.79,-122.58071443255092,73.57787757751012,168.04131270311052,-115.1110732079188,82.64600875523021,7.482421664566873,-193.32443140047465,23.666978002199397,44.10283959227356,-130.74849263017455,35.88910186136484,124.77223970613188
1.8,-122.6806362484861,73.6656066127047,167.6451664397863,-115.079701548429,82.76948138701057,6.021879177489041,-193.3114917023059,24.17098689682064,44.89243520247463,-130.07889957942857,36.028628691082794,125.28869749523204
1.81,-122.70225279729932,73.76836493270426,167.3648792724412,-115.17180259106584,82.75029435788137,4.585319167322715,-193.40435374982243,24.63295056290029,46.01732383658918,-129.91444984220166,36.22178628255239,125.776867089926
1.82,-122.9648972122209,73.84615884036869,167.2641120054048,-115.18061934507548,82.94258027786701,2.2647327194737663,-192.8873172393211,25.65622937959232,47.64025844327391,-129.32452045685514,36.705963105900544,126.91212893320947
1.83,-123.2221336756474,74.0023114024833,167.0332921942309,-115.2995112081555,83.22893702268404,2.217890418791117,-191.92056967147187,26.30342463851538,49.020794386130525,-128.86922074379586,36.79908418157072,127.56223753542248
1.84,-123.78947997909818,74.33468446324649,166.63630826545864,-115.56952412331265,83.39949816092287,2.2482625451386027,-190.9275588767088,27.45385314378613,50.4905112807362,-128.2473848451064,37.380423082160746,128.51558977062572
1.85,-123.81475307653704,74.50391936306026,166.4734417803164,-115.64511386174937,83.75445392510954,2.313821363393178,-190.1764075154426,28.30847519832733,51.992861837037005,-127.5344616285688,37.764550327027166,129.52751441453117
1.86,-123.99633004865476,74.85603404509726,165.7310723799754,-115.72004922220144,83.68652294172999,2.5239424992554285,-189.3090344819701,29.545054071606103,53.60362406245481,-127.20151938115828,37.98035620868465,129.9479109784067
1.87,-124.20311591161098,74.99713805264426,165.32971530406613,-115.5023136392129,83.66776121025156,2.6401994549189767,-188.39152671250727,30.10690410300152,55.59460699029752,-126.58858410833967,38.54046151439142,130.3077808675121
1.88,-124.40446329189044,75.05294570583422,164.61693992830587,-115.69511385401718,84.06331556580754,2.7728356543779933,-187.54528931021105,31.16997482439293,57.270251528544456,-126.82556893553902,39.05757555816633,130.92162994354106
1.89,-124.34203021065824,74.950771185221,164.1083701008838,-115.89206161868366,84.36800979193767,2.8377392967962045,-186.61224643755816,32.11684951429282,58.95501270416881,-126.78843543001656,39.27514167631711,130.8947370702893
1.9,-124.67259047503768,75.09392495454027,163.2879066414602,-115.84869806115402,84.27909581068994,3.0501663731397075,-185.6794963760082,32.86875903907398,60.76286389423025,-127.03878859447391,38.91827374180208,131.12861249636268
1.91,-124.87190231458236,75.39231340464254,162.28604254152498,-115.83050893713845,84.48003118511498,3.0588716993546496,-184.78706682901924,33.6044531506721,62.446110558506746,-127.5854514816903,39.16524876328995,131.30349285357394
1.92,-124.93773662172848,75.39800859928613,161.30759943158347,-116.08130102551438,84.52272469831908,3.249481625109623,-183.24323003193933,34.23557119827026,63.92763766803623,-127.97315994480444,39.1925642239363,131.49481436066293
1.93,-125.08451577636158,75.56184115658613,160.57472511952682,-116.14230405078678,84.71075483924558,3.367303049788968,-182.44879148271076,34.68138442284656,65.33063397619779,-128.31789506570425,39.13439932923826,131.52942832868536
1.94,-125.3845971194356,75.47535984771929,160.08288258379213,-116.05069932776198,84.91170382575902,3.656955644049932,-181.63173265831807,35.02210775734273,66.99255727966158,-128.4046735803213,38.788456622151074,131.73893957960377
1.95,-125.03641554254632,75.32986914240321,159.48609448943895,-116.0358040160798,85.06800975343178,3.825377851346236,-181.19607374470823,35.3383095771341,68.77198088050389,-128.9277988476539,39.10010595271603,132.12462653436666
1.96,-124.97126458361252,75.65064568659281,159.28369408918994,-115.74989277430686,85.30920395997337,3.753061106830133,-180.38611136480333,35.37385845814054,70.85528216181164,-129.69117496295897,38.907805125844064,132.37297239331218
1.97,-124.95597550371846,75.80618012340081,158.83776559028425,-115.66619655739068,85.07323088327945,3.941625748658668,-179.16041919152454,35.75208096676086,72.2878524537355,-129.61342434870568,39.12629303069218,132.3841419513931
1.98,-124.88373737057896,75.86182370126419,158.22690656744143,-115.67429565044164,85.27814302019728,4.071299198597108,-178.82634131490465,36.27420332092027,73.25657823553061,-129.37464474364396,39.28088120873939,132.3373882740409
1.99,-124.81535708166643,75.99783804782184,157.97281698539268,-115.78007455833207,85.33601180093208,3.8706664848715415,-178.50065562899255,36.38852411283964,73.83904689110342,-129.25541347451534,39.45701570228432,132.46362963182924
2.0,-124.80816654465708,76.18535490722277,157.2796918345578,-115.21922263923229,85.17725090570465,3.9266864149404106,-178.06256620387978,36.85222382567493,75.62873646227386,-128.38916381474942,40.22422853790997,132.6295686772159
2.01,-124.32134654811242,76.5536183069665,157.58533544052983,-115.16423617755184,85.1848684044229,4.130474222854784,-176.55102162614605,37.67732841467998,77.03395443051043,-128.14399397195882,40.94300283033024,132.59446917728408
2.02,-123.90351448403486,76.63987883735535,158.0249898308072,-115.05605648651728,85.30071669678354,4.201533293925767,-174.4943784049368,39.19760965380683,78.23734751295865,-128.08872837771486,41.243531324142936,132.87790737309817
2.03,-123.12679802801078,76.65432729498158,158.416511949647,-114.83237467911272,85.03752005353358,4.17131485268362,-172.93731377513453,40.11487269502315,79.31778223971767,-127.72578615507518,41.385676877811385,132.7378697909507
2.04,-122.82699888875835,76.57008404667286,159.12334992802627,-114.798293717551,85.15637620939826,4.237213031228083,-171.91878715250527,40.56046670110341,80.67852685041237,-127.79626424330566,41.33259257639263,132.5165690888227
2.05,-122.50515487824518,76.41155062367974,159.3361876733867,-114.75082194344094,84.87981587855955,4.119714838869847,-171.21658702745302,40.74536053975177,81.93532757982796,-127.77617917372586,41.830923415567874,132.34462272735456
2.06,-121.9321619030854,76.28382450938658,160.40471389108012,-114.71345023651136,84.71080407410228,4.159984855918723,-170.52815314477215,40.74228905954049,83.27203732727864,-128.27603419812124,41.9994381791759,132.04857600956112
2.07,-121.7655129726882,76.18221682160456,160.7716370853068,-114.43927581213342,84.72622985843472,4.23569010294218,-169.61926918928648,41.00489596104251,84.35736061916893,-128.54002904915302,41.8346313879893,131.63029223951375
2.08,-121.40178258374178,75.8457379341334,161.1221001017277,-113.80681468201692,84.6514090245705,4.45258640262464,-168.9504797017534,41.24090689629295,85.35012363292344,-128.7971591375879,41.68997903570328,131.18402203894388
2.09,-121.08352914436512,75.79612323644018,161.65167968885348,-113.6530016601058,84.36441162580687,4.224511856962967,-167.95066184143727,41.22181596838509,86.45104195588956,-129.096767556648,41.969918642468265,130.82648129140435
2.1,-120.68746246146546,75.71135943981176,162.53910088119375,-113.42873499321372,84.17776465810277,4.326910004030029,-167.06663225622776,41.48649103326141,87.61004475004209,-129.7857241904233,41.94000946222627,130.52408304120303
2.11,-120.54605345532562,75.43996512290754,163.13014894973765,-113.16654465269536,84.19796901273428,4.042316385779177,-166.11912245928636,41.54059658577221,88.27808171661468,-130.46433024377112,41.81571089919978,130.2705514055359
2.12,-119.9428937522466,75.61512733661169,163.73273475983876,-112.67700255133008,84.10013041136122,4.025994348023523,-166.13668677189898,41.6173650537386,89.23733760345637,-130.6091975208046,41.546696674888494,130.17089951125158
2.13,-119.4419615874898,75.33259230052967,164.47237891846314,-112.04113302267068,83.51078272307365,4.13505387524106,-165.4516321368392,41.24625410096338,89.63834317635704,-130.4979929858239,41.3474991027372,130.1365845261147
2.14,-119.15257412554456,75.1968967839924,165.05132965757232,-111.65862767963743,82.87648678717576,4.326425404073596,-165.289066879025,41.25739542471258,89.26235636389208,-130.8916784929997,40.95903548443184,129.94884148711603
2.15,-118.58134068645806,74.85235655855563,166.14236033317206,-111.26558087421128,82.6631085678155,4.13011060296262,-164.3903715573884,41.76559423103605,89.20303379860272,-132.0472848147743,40.66741427504952,129.79229091298055
2.16,-118.44049561807805,74.73027806345613,166.49613916739952,-111.2485789600099,82.94573911918893,4.476881999730816,-163.37853516412326,42.04159163231944,88.89566687738683,-132.5864974667799,40.17318108857906,129.5488888893911
2.17,-118.27449083570794,74.45173395077907,166.78637647503783,-111.18861411853186,82.94842284210151,4.627003340554535,-162.6987718730893,42.57881932247852,88.81219369289953,-133.04296880156525,39.7643736519505,129.44420994935894
2.18,-117.504527001108,74.47872802330726,167.51464038298627,-110.81013756678188,82.42235656368047,7.047616756614646,-161.93072284441587,43.10077628322026,88.32490465239314,-132.522101989478,39.62949079605602,129.5424967173521
2.19,-116.99659856492268,74.26690848410875,168.0763377030961,-110.45865557333862,81.9889973350605,7.511088410948369,-162.00922115184886,42.750135472380045,88.76401215330957,-131.2417190221096,40.66773558686442,129.64728578360095
2.2,-116.53317657205017,73.99735506086779,168.73887751834687,-110.2410076547913,81.97470429863108,6.406045483707816,-161.66280304920886,42.74696969427435,89.02785526342298,-131.46483821672493,41.19921576711382,129.19971595256754
2.21,-116.0506123937164,74.07781076688616,169.3142614483263,-109.97569604278776,82.12140352426158,5.20802900967504,-160.72682093264723,43.51501906290496,89.17255017992218,-131.76372887251043,41.07014828093078,128.69933964392152
2.22,-115.66296752703626,73.72796124793277,169.84656007323048,-109.83705579426967,81.62674375324036,5.999908750306827,-159.79842580945495,44.02018868627943,89.54669500789983,-131.61710060953232,40.99103451686049,128.70873831951204
2.23,-114.96859803931544,73.40805460298144,170.42654326230212,-109.56367598547376,81.52278220159077,6.877345893476142,-159.0662193801242,44.34215581472084,90.03504611812536,-131.211333399468,41.08561668752385,128.66890594422156
2.24,-114.52294915580656,73.35289837727387,171.006269570412,-109.46962799769872,81.17720539812525,6.401895093348516,-159.51466303326336,44.0905291022968,90.3067957808048,-130.58907924994497,41.38324072330722,129.08807333711243
2.25,-114.17684787197676,72.98976778083994,171.7167511162471,-109.57830105078,80.96318834751763,6.169255335979233,-159.48000213917837,43.95103496821859,90.22802963300856,-131.08882754408066,41.17472081071613,129.25976492305065
2.26,-113.76517083478232,72.90248452293082,171.89032914322613,-109.52753361054124,81.13912275635913,6.381083053059692,-159.33830648833327,44.06511602021024,90.49129266293342,-131.40592971677012,40.79423808138053,129.14455579478405
2.27,-113.878841274657,72.54309402316734,172.09048360891336,-109.435546185221,81.09743533182495,7.811647316147486,-159.2533816165316,43.93215460571227,90.85772555237706,-131.15235898708568,41.07776693807911,129.19329776399934
2.28,-113.76597269159066,72.442636103215,172.30639207242325,-109.37684247695726,80.41658572383217,8.918255470822345,-159.29755996906118,43.71555613886064,90.86688972246246,-129.89568763496266,41.71635230638783,129.87253749812237
2.29,-113.5234380077558,72.48608240501191,172.55497373065202,-109.54891238195304,80.67846535850839,9.401595893120028,-159.1066357548139,44.10863447377325,91.679112435116,-128.73052479473586,42.1310694048855,130.54164345182792
2.3,-113.33113437583482,72.15450806309538,172.74455641824812,-109.73258843600608,80.71468006601458,10.217370276517125,-158.51322370210767,44.34656366464967,92.14689093214116,-128.08042380654027,42.77233191201548,130.72696648618455
2.31,-113.44564315410314,72.10297002019709,172.99169840820088,-109.82985461702891,80.30194212775643,11.356744986664172,-158.13319445578605,44.88043935000457,92.63156314847892,-128.27662354546874,42.67444549498813,130.5654297928847
2.32,-113.17918663993572,72.10625962889377,173.28170634038702,-109.59561993429416,80.15814601670395,11.96747662527291,-156.95603674987302,45.81221141803717,92.84099361073392,-128.8124392855213,42.54210577272054,130.52565268123286
2.33,-113.17985760431776,72.0357365064092,173.57442080566014,-109.31972206098136,80.08549883250721,12.721884087185629,-156.20782186913002,46.22572991352435,93.38321004544764,-129.15740860257702,42.58966521928735,130.32961395310886
2.34,-113.26652668659383,71.91760026237016,173.63177435291368,-109.3111789552568,80.08224949664161,12.973495937057024,-156.15168301206833,46.24514029645271,93.52635021769304,-129.28360744919345,42.44466607154621,130.08297301640204
2.35,-113.16385330919154,71.85182988700826,173.7644359054069,-109.26566830937077,79.9619331592707,13.325478388490586,-156.08101993031778,46.158514577250834,93.73801300912966,-129.5290765805428,42.485920323551824,130.05791384468333
2.36,-113.30067901646584,71.60039540680833,173.76019967611276,-108.99125570246086,79.91626608324617,13.90950007018444,-155.8463982790139,46.09194863154426,93.97061403603182,-129.78293664925306,42.61150374173695,129.66035075225545
2.37,-113.22465932899792,71.63105457351804,173.90781744175914,-108.72977201557856,79.45643573271757,14.013348481176584,-155.58329285748715,46.25373202759478,94.06282377844578,-130.53238503254437,42.80526851703143,128.9560842193401
2.38,-113.23246339425472,71.59253525863414,173.84290808886632,-108.76762251670752,79.73096052803511,14.295845352878652,-155.4995600108526,45.89405421974231,94.47436925448056,-130.88572032088922,42.8157111830498,128.54542243670838
2.39,-113.15006939652314,71.47678771397909,173.81361214008422,-108.85424353132862,79.52616103386403,14.764017647238822,-155.31931642416984,45.82582621423038,95.09092930413412,-131.32123788970617,42.6795209464713,128.44636392613816
2.4,-113.05362290498002,71.43715747523032,173.83272011353844,-108.60068114424038,79.09570596334935,14.876186223540143,-155.21201503008328,46.22346295018003,95.38183940824,-131.36122080172365,42.86238507744362,128.33428945792525
2.41,-112.94035153626592,71.47639198966039,174.3281465899958,-108.29101738015206,79.06770698831801,14.852773785017106,-154.6651585480934,46.37360443128596,95.12186360608636,-132.08517106168537,42.81167967066581,128.1650129501864
2.42,-112.29973931289578,71.3636608380715,174.71903327315508,-108.21184708626345,78.98622787533823,15.218444499005315,-154.376672342785,46.09690861249758,95.44401538992535,-133.06014423639772,42.34724509450355,127.70768078479183
2.43,-111.78289571784428,71.21272699264851,174.80566063836142,-108.09520682596192,78.96803148090298,15.47722665420391,-155.11863128160536,45.26771142508165,95.92595331743176,-133.93548984711845,41.93142999227128,127.30584300633878
2.44,-111.52974166333108,71.17370651016248,174.76338577071917,-108.29710903467294,78.70544047022746,15.60129231529878,-155.3744014826007,45.00116743259797,96.27223232229966,-133.8783328181242,41.67691081575264,127.34682072960402
2.45,-111.3843912149831,71.02842629262311,175.2901824537105,-108.06335287027356,78.56677471771565,15.486517509082775,-155.77402562778622,44.96945308948273,96.41943154244171,-133.6565705233838,42.07632628551032,127.60716546246957
2.46,-111.18438645575036,70.64862305678862,175.38099578382926,-108.24964636284552,78.27083279725726,15.459477497094868,-155.00741723856552,45.49197830654804,96.63563686187838,-133.47921543134615,42.46734970623641,127.4814309842279
2.47,-111.35654729973892,70.81241437276061,175.40803066014473,-108.43625535322508,78.27398318085253,15.127052644282871,-154.27692377551492,45.87140179244078,96.5822339035126,-133.93596182620792,42.08764659134772,127.21172434530476
2.48,-111.3328347355024,70.70913525057888,175.66142421214843,-108.31880063480904,78.06167961963645,15.320891722238558,-153.81306343633383,46.1100253832354,96.64852439313955,-134.58978367340524,41.54651502716485,127.19460362314682
2.49,-111.1012420154645,70.83891273316283,175.6378206537664,-108.3738550938008,77.93941587769201,15.210947623890354,-154.21436654596243,45.86962128410726,96.62684592952766,-134.6064077878694,41.21634405357571,127.25952871717524
2.5,-111.18823696643202,70.53481648561252,175.90524257008553,-108.50353480507164,77.99214661649255,15.27676758693586,-154.8080546918824,44.90927217573491,96.47397719525418,-134.88709960708252,40.775532701438856,127.53721435059803
2.51,-111.2864236393988,70.45035678627538,175.74823409954428,-108.43759686258264,77.96380374688064,15.246716590302167,-155.921415765205,44.533718550858765,96.81893144913168,-135.2467275006789,40.73346163387372,127.411539809046
2.52,-111.29771118352072,70.4587070721375,175.72426027450518,-108.3889748386338,77.90947743589952,15.256368752408186,-156.01871683195395,44.70039407195968,96.92233986064598,-135.29950092585565,40.42931163848094,127.39352344468182
2.53,-111.63433209351966,70.33607940060924,175.725531388533,-108.68986859776012,77.84649863464126,14.998865563741852,-155.92979120690313,44.64043714651639,96.58772008165032,-135.64137086671386,40.25986729278382,127.51484772021908
2.54,-111.53743409081362,70.26565550339207,175.72346372039777,-108.71582541376026,78.1445772026754,14.651499746364848,-155.5753563560105,44.99553162887095,96.41149711255326,-135.59295676913516,39.96973153788376,127.8580586010124
2.55,-111.54212999694693,70.18177128337095,175.6801347324716,-108.80449513994766,77.82091847645104,14.539610165422264,-155.79166883844292,44.94151056177478,96.28016770352512,-134.82257412027278,40.25969739574828,128.0898104235778
2.56,-111.72224777510893,70.42112296342225,175.83245013688128,-108.74138052198067,77.91159581529672,14.522104014482045,-156.2800914384376,44.748159076567575,96.08343593475722,-134.47117219022155,40.11819810644219,128.25308887323615
2.57,-111.49231861793427,70.46298511556547,175.8554807062838,-108.66725592336402,77.9517999766644,14.006626344202392,-156.51097850540924,44.2980549357341,96.0177592365319,-135.2109901849794,39.95986254942044,128.02011216494662
2.58,-111.73966861560828,70.36763142719667,175.64074532692666,-108.64375656907276,78.1417665487238,13.568588493808948,-157.02717871359928,43.97196002839422,95.77096116262356,-135.56774868229436,39.44581556252356,128.31731454888444
2.59,-111.79692512790022,70.62814892560229,175.58441693044324,-108.96867910697055,78.01317169990237,13.346421508652236,-157.27094427879848,43.94227711691519,95.64210905540966,-136.04541331612148,38.92025377437077,128.55979656006318
2.6,-112.03125285261952,70.45704409725285,175.64398197058304,-109.04555227169584,78.03834421048022,12.973037403657084,-157.45479470233727,43.87732932157661,95.5096549947269,-136.00228906584138,38.22308481162914,128.73751323836476
2.61,-111.88409222040458,70.28298480791648,175.6089551107187,-109.16086335680951,78.44455079557687,12.473778989736596,-157.8423131585422,43.82733420077142,95.27689513713186,-135.28103994418967,38.55029895598924,128.9981607104478
2.62,-112.2350930284198,70.3795399758891,175.3403782059746,-109.31708898323146,78.59341138217256,12.151296722515008,-157.601946188136,43.95359565504963,95.05156099810232,-134.93919992761232,38.6850473403334,129.18136574874256
2.63,-112.43118266077728,70.33713328071114,175.53057421721684,-109.35668499930428,78.21539359594709,11.9773592691252,-157.68232065940168,44.07664169061956,95.09270404897474,-135.32519800818926,38.38709387882747,129.00945139824154
2.64,-112.3380280125256,70.29063958674377,175.23857880560567,-109.26711741875988,78.17248804324737,11.917195801506894,-157.8062471132931,44.21986403611357,94.907797556714,-136.14167853913034,37.78835333351064,129.08134902441495
2.65,-112.5804559589677,70.16798015287264,175.24608749458102,-109.24570365388836,78.27009719738172,11.708051999512907,-158.15961005457322,43.85280346092246,94.71528441405049,-136.36537924572147,37.51952018744364,129.48673029239367
2.66,-112.46204225676762,70.38802825899549,175.137811466681,-108.97621303509392,78.5471712358334,11.50354433279572,-158.84739788117892,43.0685926894716,94.53940136141,-136.59467715938027,37.172604190474175,129.27740184124735
2.67,-112.741486980548,70.32135805471601,174.96710332385092,-108.77128216242826,78.40348628183582,11.911759663146794,-159.45248849792742,42.72305536314835,94.53139792216147,-136.1811912119474,36.85486567768409,129.39353703621182
2.68,-112.68163782874365,70.43697685272151,174.91325225788486,-108.78825868108352,78.02459175972913,12.071903870075005,-159.60142404266276,42.8214643856288,94.51019696996184,-135.91032989205672,37.30186207663895,129.86731459911104
2.69,-112.6928420111972,70.40441965126462,175.02547463133263,-108.80841950695904,78.28958111905092,11.384090552912976,-159.3580354438984,43.0954525747308,94.39858760202182,-135.9367782183459,37.08349961206552,129.87915599098466
2.7,-112.66030922823715,70.49742835943066,175.0413552726207,-108.87354188267946,78.09907124458721,11.330347434234753,-159.220535057801,43.0955475246364,94.3422931970918,-136.17889167534307,36.824606833901726,129.8722262973921
2.71,-112.56632386699027,70.44401732745632,175.0904781966578,-108.73814826542062,78.33713059676845,11.04578131394387,-159.55426153537798,43.138918487456216,94.20842633422436,-136.24289542576767,36.97734383156335,130.15081467803466
2.72,-112.57497682213248,70.4256126667054,175.01139696327064,-108.61204801621868,78.21668594805712,11.18118261588126,-159.51142993694373,42.899357040499865,94.13930415001651,-136.4430441072961,36.971041015549936,130.11894464684178
2.73,-112.51648439262726,70.21540066506917,174.88783890639797,-108.515096287524,78.07878352857402,11.23657406157026,-159.83589053460324,43.0181414285057,94.35516323846974,-136.56151109071283,36.59227753478731,130.13342744071423
2.74,-112.45861248756984,70.21351753449628,175.27728297183123,-108.5691226562398,78.02068907205727,10.924921891172335,-160.04916835188968,42.68071479581746,94.2507969042413,-136.42488782597596,36.430438804029976,130.46289463267735
2.75,-112.46435919986024,70.41969506383677,175.06393572610003,-108.51420993727592,78.16128826762932,10.877869437231366,-160.53737853272742,42.51695851443147,94.19146484426498,-136.85359533644527,36.31653139414866,130.45199967219978
2.76,-112.29944299572897,70.2216359589646,175.06388669639182,-108.29906188429273,78.36739013816404,10.974170033922569,-160.63105612946077,42.13601504995938,94.3837553575922,-137.2799880161814,35.9688068883903,130.6390939821109
2.77,-112.41795904201736,70.34102000500798,175.01007397602015,-108.59861972371075,78.4029180444026,10.587848088088514,-160.9125072946858,41.86224070464718,94.3168382267002,-137.60876539230244,35.68668962781145,130.55607709610553
2.78,-112.37614624608588,70.64139874568953,175.1070241772423,-108.61219413040912,78.4497135697278,10.378137637712069,-161.24441765060092,41.39717742450573,94.43250901081196,-137.60081364475354,35.603359597777256,130.75355775466966
2.79,-112.4958805848988,70.60565839989171,174.85806369813125,-108.60074606506484,78.41905066360243,10.20388036532336,-161.66002124282076,41.14014280381573,94.37677099328889,-137.2274156377861,35.70378582920619,131.30140195988758
2.8,-112.62273937774066,70.92093902618736,174.59320585465775,-108.4529551947069,78.63225634890347,9.915477972092104,-161.7619761113839,41.37952992273906,94.05931074416893,-136.9566735746626,35.55698913975116,131.09937644384783
2.81,-112.53550249233454,70.89872652969254,174.59843028550188,-108.395577591795,78.43564899726645,10.05414633392562,-161.42976630250644,41.4436609399009,94.00392229095982,-137.50929373726794,35.29796797093115,131.35166416051544
2.82,-112.78369160024428,70.81075177014583,174.6942479359289,-108.7345144787629,78.55272377490695,9.685861631925489,-161.71107416968667,41.14130800751014,93.8779513590198,-137.7783223374048,34.7601903808257,131.4773753278924
2.83,-112.52447115789032,70.90696410125184,174.6759221486991,-108.54845047157518,78.78451847978957,9.276730912676028,-161.87973172646736,40.76598330573219,93.57788657389663,-137.50634132608013,34.85321885803101,131.7038313111881
2.84,-112.5750301694566,70.96841156677007,174.74301076771482,-108.852723915609,78.5306764411229,9.147143439084106,-162.48442501459724,40.38909528645275,93.66304912123618,-137.0063123263437,34.89253888692962,131.8201640902132
2.85,-112.64918509981092,70.94612761049486,174.5867751794188,-108.83672982290824,78.55283345569461,9.05517834911634,-162.80338952822413,40.320086717471895,93.52172968919696,-136.25950892633264,35.1520064484502,132.41956284136654
2.86,-112.60799919676408,71.09683680977761,174.61399628387093,-108.79609943571656,78.4838524863042,8.845121439594191,-163.0672999994029,40.12177305406272,93.55081565763078,-135.80955123914904,35.24541326381906,132.7743264286878
2.87,-112.72687042723028,71.03661167420469,174.59146816011156,-108.8322752105824,78.62022418606824,8.761097604804089,-163.2596743387525,40.04359523046665,93.24802569814916,-136.32558058382517,35.26005922561454,132.88571362626877
2.88,-112.67597926373918,70.78256682513242,174.5828267717769,-108.90868525429862,78.79143767890542,8.69688492145495,-163.0183374275135,39.9531722342705,93.29984842690158,-136.37139105088542,34.897232142019554,132.85552000806769
2.89,-112.4987070189182,71.25878313676523,174.66214112856744,-108.90276969915926,78.76120722507659,8.303596318389943,-163.01037969692584,40.003911754339896,93.2338084438335,-136.567474213384,34.45296510723384,133.15447979226613
2.9,-112.892823398394,71.34601997993096,174.35503010747823,-109.17950756116178,78.73423999122637,8.331755830375466,-163.25928378908395,40.06191021425546,93.18684181621812,-135.83812387316354,34.72970639768341,133.1172304426662
2.91,-112.9753384838023,70.95615032083813,174.68603350908086,-109.1968258158652,78.93828957440425,8.371122638703406,-163.68375151779904,39.69703662147908,92.965936958557,-134.73094866670962,35.078485788527914,133.58898719750056
2.92,-112.86468019558272,71.20302705628396,174.44673120798726,-109.33388298749875,78.54160724062518,8.456183764504953,-163.8006274914578,39.62777789711437,92.99419617436172,-134.8670519651742,35.378507924353514,133.76013475945118
2.93,-112.7850929048174,71.2599505353681,174.4924009607755,-109.4288691105586,78.6843776904274,8.270569822993245,-163.75326925243675,39.481087800781815,92.96269228494326,-135.1084418888394,35.0545076048136,133.7820001779583
2.94,-112.95275141870316,71.11158515566481,174.38493360728972,-109.3718894197426,78.61907797384502,8.432228864080205,-163.79355188863062,39.54749339977103,92.73363284494256,-135.94000186541018,35.007319844062195,133.6336516817494
2.95,-113.05508313236663,71.35417402587227,174.27114689217046,-109.29217204469904,78.64527874216094,8.38441764732641,-163.89500971340857,39.31369555031402,92.59044449444276,-136.0881228648401,34.88388952066525,133.7545812723191
2.96,-112.94055882445817,71.20468928785284,174.55769017808692,-109.10523556068786,78.80795256553395,8.82765944693636,-164.00524131380593,38.937172769016975,92.93062545019684,-136.1761512975682,34.560041985126645,133.85189537088723
2.97,-113.08749543417592,71.29764933329012,174.198734701034,-109.14159232441682,78.65406063525555,8.908259450314828,-164.22527793003536,38.86300812809615,92.6321423204977,-136.3157400370647,34.50725666344502,133.7696514321225
2.98,-113.16111340835124,71.29004992114037,174.28058716212624,-109.22953360793068,78.60242728357076,8.588681288558368,-164.44654691327224,38.56534693244747,92.70029932712777,-136.73104363130022,34.539975425402034,133.73539280004593
2.99,-113.0879682848543,71.19214482784271,174.0098506776446,-109.1700059863704,78.57761645789199,8.568669699662149,-164.43736069134428,38.25040870749424,92.6754368017836,-137.38757715153372,34.20787005103502,133.67747117668728
3.0,-113.18553421936012,71.26397506101425,174.44812492299624,-109.05069123947176,78.66055832191904,8.732632861340882,-164.71464097899766,37.97449435239058,92.91207124276129,-137.43018065848656,34.132186180127135,133.5095600921334
3.01,-113.28273051709677,71.20526567511494,174.27181525137186,-109.0097480730244,78.62733327279362,8.429334939165814,-165.06274605023737,37.70072501263896,93.14600411835646,-138.12402790128064,33.956848419914614,133.4584707418843
3.02,-112.82224432644132,71.11318175697794,174.19246619699553,-109.00542028477572,78.65809420626456,8.546038685188545,-165.30832849746605,37.577681026256656,93.15762599230302,-138.06861033446168,33.90018711070896,133.587740899262
3.03,-113.13466426906614,71.33256365216715,174.07790633005743,-108.9986544611624,78.60248790390274,8.529600915562744,-165.5097493372982,37.35813135257796,93.18257457845505,-137.83795827374178,33.902538758131975,133.71947979461513
3.04,-113.02566669984849,71.4747789306308,174.13539972204663,-108.7643252745,78.59183321762688,8.652088986134501,-165.8320825017407,37.06775263258567,93.0246592017274,-137.9625437879803,33.96246339920426,133.5296913692098
3.05,-112.87495110223716,71.34093248090511,174.3806545378659,-108.61217824767223,78.58244100592914,8.431022756198153,-166.04209819384562,36.85966555009224,93.17905039466612,-138.31633413176544,33.95460316712355,133.56747943481503
3.06,-112.61412321794,71.40671142658945,174.22087022837934,-108.78883281207582,78.5335071440986,8.800627641806532,-165.93093498145748,36.65622949742318,93.02355661490724,-138.7221604777341,33.8091841765998,133.4292146010272
3.07,-112.7269389998192,71.44164972300065,174.38811956409833,-108.89824417767548,78.44665108397076,8.62399817595412,-166.1136443863841,36.5863659616697,93.22316239029462,-138.8500078250275,33.77112513358663,133.35277714143135
3.08,-112.80035938638116,71.57616274572612,174.30411717407844,-108.8076813791656,78.30856029971731,8.675623833232285,-166.26263517213587,36.37459526444462,93.22947064079068,-139.04100355432337,33.717695834877794,133.50502871530773
3.09,-112.59909414944568,71.5665300256426,174.40891530306158,-109.0833016008962,78.18866492537491,8.640667311177596,-166.57165105036282,36.25065215084146,93.35912930026592,-138.38513827418842,33.95062652339819,133.76262269522027
