0.02,-351.8864375405159,84.11855662800521,5.27632670032915,-0.0296531307859365,0.0188412543687405,-0.0120895106615651,0.0358319826375254,0.0374853090666209,0.118918522029482,-131.6227566971545,85.8680267398265,3.747397397423617,0.0675320509591848,0.2179131642025699,0.0749540712301726,0.0529400966219782,-0.1321144793517008,0.2894129941031073,-166.13588883716633,1.2655163786316594,13.560753856346896,0.1398995100481727,-0.1769782512944545,0.0758196092516615,0.0299807812928263,0.0337109397599555,0.1076846163931657,-161.75472766469127,11.490529344625418,9.09622359390494,0.0885762139099009,0.0589768751065907,0.1849367257565062,-0.0909173302646815,0.0774844813287882,0.292928843995631
0.03,-352.01507010496016,84.14508011222071,5.441817428258358,0.0572157490014974,-0.0664658716768121,-0.0498817235328584,-0.0068042515142151,-0.0181109239151892,0.1608883523404705,-131.85283150881892,85.88086598186078,3.86188481086231,-0.020322313799554,0.1951471210139393,-0.021925634372858,0.2069155902059293,0.0121764101766289,0.0754261304023262,-166.0495924613188,1.3108833364318644,13.484398946954222,-0.050756900616366,0.0045332445240616,-0.040647913591491,0.0726422989857481,0.2723875746643567,0.1564840531806008,-161.49280520489037,11.32476542369306,9.162604364998904,-0.0510209827191767,0.0664401891120169,-0.0262009194905045,0.0561383970629357,0.0912400894745328,0.2367332641209701
0.04,-352.1922867187391,84.21911633056881,5.40842639524888,0.2364904612640501,0.0090798550925322,-0.0236971239405745,-0.0198982294633306,-0.0753538114175086,0.1313511452751185,-131.66596596791626,85.81752293180374,3.808933670440783,-0.0107716714397806,0.1062293699018793,0.0648636318796706,-0.0004312937192257,-0.0127504888310283,0.1642832379678256,-166.0862105041718,1.2989413997434216,13.509026169733517,-0.1036740146950014,-0.0428093580007273,0.0473682930182076,0.1081157175618081,0.3266759674894736,0.0910600260947123,-161.44802397401503,11.57778504934905,9.24876470438636,-0.1019726093441852,0.0179609574213565,-0.0481567579432696,0.0493784865394272,0.1347011589622603,0.1823253863247733
0.05,-351.96451688252,84.07808723911958,5.356973938361223,0.1590513809317337,0.1998775363592756,-0.0094590145405188,0.0180956647241757,-0.1519134715213643,0.1728751135733479,-131.77532463428278,85.97452627746627,3.481586255008309,0.1158435406208581,-0.0252663760667185,0.0870271743344835,-0.1063612738492683,-0.0575325375295668,0.1845041247250652,-165.78661790195954,1.1103024616198072,13.562724367695544,-0.0825328631937224,-0.1793119604996164,-0.0114320032379074,-0.0419939828167215,0.0348386722871676,0.1137860870694621,-161.45712728662517,11.578786380614574,9.431116858359006,-0.0760254486245043,0.0669293647725498,0.0061500578746301,-0.0079375969389469,0.025517202801566,0.0954459844322988
0.06,-351.73620731013773,84.31260981986422,5.289913399114046,0.071526405508142,0.0964116916814896,-0.0962223366514129,-0.0551623132448275,-0.0305076695337309,0.260061951367026,-131.60615627899972,86.18207873434042,3.679674273773418,-0.1160887221079352,-0.0573935965804814,-0.1293954452653535,0.2390315235253448,0.0450592926397621,0.0634246751643582,-165.8437348097981,1.2645023999441962,13.448093068541008,-0.069386050267183,-0.1029940061515295,0.0318730540645247,0.1403403067178004,0.3042082877660489,-0.0629742559816974,-161.66594465914875,11.477529598116524,9.13397490431066,-0.0691226253630651,-0.1422254054780926,0.0382646237876675,-0.100999116562147,0.0656424141548103,0.1302609627343164
0.07,-352.02590169599813,84.30188940892037,5.25328949655541,-0.0457639689354367,0.1012390754597839,-0.0738410169796712,-0.0089920308866836,-0.0984615368229081,0.3043026082413207,-131.59752066118756,85.98115350042667,3.781690228028847,-0.0435044102348421,0.1246165583299008,-0.1508534257087251,-0.2097324871783814,0.0778629124320629,0.2089061481570715,-165.8307138325156,1.084536655150962,13.462982796751602,0.0094048809974447,0.0505468164169607,-0.1121182445071141,0.1094790899471618,0.25042735549594,0.2202548067096713,-161.95392239199185,11.528708564858874,9.271319721126712,-0.1854280361276641,0.0621343465847819,0.0942653672441689,0.1078176122702591,0.1051752490164387,0.0760383909902095
0.08,-352.14232031625505,84.28310916961097,5.204279450953208,0.0017148756794817,0.1209999169511956,-0.0013049096211129,0.1828811406297508,0.0658462294946349,0.3721377470636841,-131.69827740954764,86.0036323195416,3.730834537825192,0.0313371624738595,-0.0537915160199744,-0.1788304843721262,0.1321237224173113,0.0880989966536023,-0.0131855173765245,-165.66671578407852,1.1468271926921565,13.470782257687098,-0.0562987854789494,0.087131523378305,0.0140187951378883,-0.0043277665013209,0.2909416015693333,0.029332488141862,-161.84372458384902,11.40221454561416,9.205185965358565,-0.0114084447698486,-0.0744457765399186,-0.0290556205386599,-0.1300996670448299,-0.102885080965579,-0.0095841178963298
0.09,-352.099173551592,84.39241144353225,5.526985688270026,-0.0603697421862857,-0.1161433462743812,0.0083433584835081,0.0222207562896426,0.1030672078950296,0.1192356065040736,-131.4784866585376,85.95178550587812,3.707205862855844,0.0368759064067319,-0.0211360341337506,0.1752130025405946,-0.0785951670358144,-0.0072585263743599,-0.0968149029093646,-165.8414856222354,1.2929830242388665,13.341963789734256,0.0466028860029529,-0.0557270476443911,-0.0486207547014276,0.0796093137948404,0.2141750298611383,0.1858982427681553,-161.9141348100379,11.570920140790015,9.156402985760172,-0.0551566771601914,-0.063972053335773,0.0253485134173136,-0.0820124290252796,0.0202127349362493,-0.0370824993443315
0.1,-352.3036768682129,84.12056405327318,5.456709195142904,0.2266826356986641,0.0611267368966547,-0.0308672285556007,-0.0737029485199803,-0.0980924678879838,0.1701266884982339,-131.68879278956186,86.09045395978202,3.7522111879647486,0.0187802106880561,0.0571534923833558,-0.1667766181818921,-0.028657225977691,0.2014512178152605,0.0232041843812933,-165.97059922895153,1.2734166907192794,13.409192040437716,-0.0050481625010378,-0.0559745969527177,-0.1072168081583366,0.1065995510286227,0.0060167277333009,-0.0483192793914688,-161.88940165305564,11.688123290399812,9.101487030413557,0.0091029897019118,0.0812427570877412,0.1196249791526858,0.1501966915934161,0.0169027517447769,0.0426795823049013
0.11,-352.0684434907208,84.26317513350834,5.260827603857484,0.1019943065068266,-0.223291151297031,-0.0194193197671818,0.00314132368614,0.0382071428171701,0.3726120998275765,-131.38504967809493,85.95958435511682,3.819707693303221,0.012290868480411,0.1739454449048814,0.2317573151170074,-0.1466241654792924,-0.1457070396303913,0.1952892241297658,-165.88627861840433,1.354101708549186,13.701550338191884,0.0453179668193051,0.1727829352035202,0.0768007587481524,-0.0451829709367366,0.0805823785369947,0.1820705159988208,-161.9117794796395,11.67979321933744,9.307857842688708,-0.0036464385296385,-0.1591565496314928,0.1015287631416043,0.0821480051860086,0.1434373692650081,0.158069968415272
0.12,-352.1675657834036,84.1157451595797,5.447300212255401,0.1824115849947291,-0.1682634161015359,-0.1259879842221274,-0.0638660451476327,0.1169393495834499,0.1740767434032069,-131.689806314027,85.90091975168811,3.702198977795071,0.1204761853946214,-0.0381409053415775,0.066369394537179,-0.0941032681000664,-0.0218430296153102,0.1114377012142147,-165.79337480999067,1.2059945431576973,13.573144070433392,-0.0209098523455132,0.108360270180914,-0.1169274991616083,0.1358617340834051,0.0508162900834522,0.0508582153448942,-162.13836282515402,11.545174394828194,9.275524959521189,0.071236600683889,0.1761631304543788,0.0363411643902201,0.0819825469644756,0.0537883275038715,-0.0649888612575723
0.13,-352.10418890815987,83.9469061719556,5.341995312031092,-0.0860359014688058,-0.1734012000089336,0.1096279278936216,0.0395412006164093,0.1080195523873642,0.1107690017380657,-131.5602602410809,86.0162667199081,3.442997816478074,0.0601791745438787,-0.1197002249674239,0.1100924271584189,-0.0263695996657135,0.0436568584339562,0.039298386200541,-165.91917259316898,1.1769009932505905,13.580215313520917,-0.0576027146271407,0.0632637467833312,0.225944541575217,0.1578944879394014,0.2187557993057601,0.0034986703687694,-162.0870162218139,11.418465573366154,9.187699539599723,-0.0965749152934468,-0.0928105974892806,0.0116651063177228,-0.1798574510127415,-0.0689039065248454,0.1847292743333454
0.14,-352.2217705659483,84.08667499656235,5.409470564655844,0.0005977008303626,0.0127104391692646,-0.0159488804458599,0.0864729013331937,0.0690437567323528,0.1936991742283912,-131.72842642656508,86.0168981529505,3.865918388409912,-0.0760986202835154,-0.2563048141134784,-0.0614721800610106,0.2227608712237512,0.0778605905595453,-0.0415708047205218,-165.9394430505507,1.1222731410049696,13.2757914490822,0.2106652901337935,-0.0720085546393568,-0.040411183631769,0.2864282676181827,0.0853187470461012,-0.0665208326294535,-161.95827494454738,11.519377961693998,9.26192508398432,-0.030014402432806,0.0525170659516652,-0.0788709050294891,-0.1835984246538011,0.0395643216077187,0.2090589271828945
0.15,-352.0336649276757,84.02878128714414,5.2391490330434936,-0.0921122289636501,0.0046597181200438,0.0542728545665533,0.0180226074586996,0.0827990321794692,0.1546489475711968,-131.59231615122843,86.05566421923996,3.702316530948075,0.1763259292461627,0.0704511689085552,0.0492123100085521,-0.0310228629620293,0.0985323639073466,-0.0794183981790033,-166.03156687432104,1.1755191826237028,13.406438994287171,-0.2473172570299923,0.0501356024920891,0.0144026168985789,0.2254388139275988,0.1918921865993101,0.0035797902645226,-161.92184475168085,11.706449828474383,9.213852865562432,0.0073862572018228,-0.1149097114854023,-0.0574968726156787,-0.0030916106891317,-0.128031210725474,-0.0559428172367259
0.16,-352.21278429572857,84.30120677607991,5.300162815935495,0.1051218565699816,0.0095645445242632,-0.1113826364203091,-0.1021583812407104,-0.1231402122098518,0.0677839965035425,-131.63205117963534,86.0525272462815,3.9377265253168,0.0159730697453927,-0.0471412145522131,-0.0015238244633976,0.0072817930530949,-0.0633575022687073,-0.0014207201250615,-165.96441185095762,0.9710252518771028,13.469062574198368,0.0397969866278664,0.0296847171460161,0.096267143566248,0.0463293144758513,0.1790321070750249,-0.0381166313684483,-161.94868370756691,11.455902703450372,9.214418620520936,0.0532136707513262,0.1236645487780736,-0.0210164794445391,0.0144211975998596,0.0145183033026423,0.0323165385915353
0.17,-352.2325688003285,84.09735069329834,5.373598214371881,-0.1391450924326953,-0.0806063515281464,-0.3414012139959297,-0.0230027769843426,-0.0522750470084231,0.2248584956313762,-131.54147750731133,86.06305696097907,3.735666956225419,0.198855778008217,-0.0358181637090307,-0.1295797966301684,-0.2222691713874325,0.040091606032417,-0.1156300523820745,-165.80385714255544,1.0765777186705603,13.50725159832074,0.0999437691918992,0.0836015342172219,0.0754675422784425,-0.1519893448431564,0.1097572828062176,0.013511275976051,-162.04025164250663,11.620133853292147,9.207889401529638,0.0757925344922955,0.0912039245866949,0.0922006773341834,0.063591978479006,0.0296859529459099,0.0996348512063217
0.18,-352.2990547305421,84.07807743102917,5.277677175269446,0.0689453405433471,0.2165614901681431,0.0629423522515321,-0.0413698573546661,0.0042251004681415,0.1783913753292509,-131.65872740036448,86.12865924084251,3.797876691647752,0.1462414280499982,0.0829691017311894,0.0907057920387197,-0.0487619283250509,0.0082299264647107,0.0561588677528273,-166.0747663952041,1.0983610460865356,13.436918977548835,-0.1604602904535573,0.1009162691866737,-0.0436196497158986,-0.0495861785805323,-0.0705155392400587,-0.0484583404988056,-161.90298861121397,11.837514659160584,9.35906785666783,0.0238173180656535,0.0162345871680115,0.0020098222469324,0.1830885881479866,0.1515536265022776,0.0527017131706538
0.19,-352.2402438879141,84.06088598024334,5.348161453781746,0.0213876447165631,-0.0343018117307453,0.1197870590328427,-0.020702934716718,-0.0393210025757985,0.1551903140714126,-131.76066118066555,86.02051898778079,3.839839267846478,-0.0590772695340015,0.053650820799776,0.1185520586453533,0.1415571388639878,-0.1459343738832018,0.0483706434123504,-166.11039291643468,1.0698582528976066,13.378494847773338,0.0516141885280008,0.2032844829439493,-0.0437495181034933,0.1057291828117994,0.1849441744832204,0.0034368015493244,-161.91685520011282,11.409868263457572,9.335306382868232,0.1038492053647267,-0.0772114056276465,0.1828755143435514,-0.0942082953512333,-0.162934621214022,0.0647136372099948
0.2,-352.26091762312086,84.04695815179153,5.345980174083061,0.0878565537754863,0.0383583689454795,-0.0575050817937696,0.1417323538413836,-0.1112112882626354,0.2379781980840193,-131.7712192454133,86.10679380389809,3.693775439675788,0.0394129705631987,0.0389990359447445,-0.1660518324675998,0.1761943179133797,0.0127203283284251,-0.0191831398594597,-165.8697262550913,1.0126391760368287,13.399892357723887,0.0316580151420321,-0.0785350975561101,-0.0755217583018152,0.0568408752590148,-0.0269602999750859,-0.1175888678376838,-162.02955220559147,11.70515663068108,9.320716212717723,0.0641124978333976,0.0009528038786926,-0.0290034289803915,-0.1246245338779851,0.1861829319296938,0.0260050019781529
0.21,-352.2029009077387,84.13996516310013,5.45591892948376,0.1926764114579062,-0.1312217462052368,-0.0067079473460858,0.0327940976491422,0.1597864635012577,0.159010547032297,-131.70808925130004,86.25899870616519,3.756655392774995,0.0468575470819083,0.0431277856733556,0.0425177360037167,0.0167188692862406,0.0017435790740802,0.0222107098443615,-166.06567868044624,0.9686582747066306,13.467126615897488,0.064224170888283,0.0809912769212522,0.060512629213454,-0.0623574191736666,-0.0357646577834047,-0.041031576128958,-161.79919082707335,11.481354943686531,9.185536078016671,0.0609197551822699,0.158190962780935,-0.1436721925165361,0.1021075556700315,0.0863481738643465,0.2578032290365957
0.22,-352.30975144370893,84.10693237534845,5.358819457387616,-0.0410210500518984,-0.1357806505885946,0.0078058398026479,-0.1802695407391266,-0.0231216999427048,0.3146757163573601,-131.90566681050183,86.21335146826733,3.744671371924678,0.0764256814769238,-0.0988408518159943,-0.0449150159266047,0.0740009729790023,0.0666785359876341,-0.1314724112957606,-166.31103988726136,0.9848697563246668,13.294875254350895,0.1036809875413581,0.1563541705703068,0.202128007445159,0.1788754068861625,0.1638427301880306,0.0235304045535126,-162.08714050579698,11.66590461859914,9.246815041781057,0.1317338607464348,-0.0456253969370936,-0.027489344116533,-0.0291489314466874,0.0796222496784544,0.0537033863912766
0.23,-352.4970655816382,84.21729694846155,5.632892475013105,0.0245058170860096,0.0385441247003771,-0.0593231536265221,-0.1044093337107595,0.0063524766300518,0.1993690283824696,-131.72576510855666,86.15010803037116,3.62606063461121,-0.0353110489368144,0.0299861552063451,-0.1442975613091825,-0.0985399618219771,0.1009516636468532,-0.0055919914960273,-166.30007380565812,1.0489062382271768,13.492211189146683,-0.0318243458192224,0.0751381700175041,0.0581156192989953,-0.2045965078846203,-0.1572407286690794,0.0282290460204125,-162.0985520373114,11.825673302195987,9.27880311120574,0.1312876848132631,0.1272558092587201,-0.0439579724203664,0.0678101683292535,0.031190228153698,0.0210863734892525
0.24,-352.22905500627286,84.18992311663757,5.473085026538218,-0.0215367599611745,0.0557332688005527,0.0192866356586812,0.1697209677858868,-0.0505167343595562,0.1287055074485078,-131.8968230717271,86.1346609552659,3.553824239589217,-0.0029596822924166,0.0536834199777341,0.0732427648610975,0.0071351234021229,-0.0302080367464383,0.152547339885012,-166.39237573096602,0.9661467163628888,13.55913112902791,-0.01759455983175,0.0895366733625443,-0.0457391575626913,0.2043707923391525,-0.0062498175129418,-0.087060742784277,-161.7543014359388,11.548473241154587,9.53026055936293,0.1529845742443555,0.0440123400642271,0.0314938109260678,0.1213313611269428,0.1533033553427995,0.0538644793224145
0.25,-352.5194621608879,84.11641249058637,5.328123976196903,0.0010554295914413,-0.1419843243472516,0.0833666984328942,0.1042510938054496,0.1297811914978554,0.2361931826012893,-131.89840154925042,86.16712063768792,3.6970600332641297,0.2389847471443457,-0.0517104708178051,-0.0214801011144953,0.0661741988327228,0.0710153946648561,-0.080039694808665,-166.20132181303612,0.8822663524119447,13.56518785851785,0.1277667190163418,0.1072635408398433,-0.1830826999387477,-0.0103600146360432,-0.0258433814903378,0.0286277085793091,-161.93620522783866,11.500851153260038,9.400739432305688,-0.118167691270252,-0.127634384437483,0.024838720771849,0.1494168054423762,-0.0274349068039709,0.0263160571165613
0.26,-352.3075084426245,83.95426681969437,5.678109098046596,-0.0241539627966137,-0.2316384014799319,0.0967173864345821,0.0367418335389589,-0.0047986182843926,0.1421478034136624,-131.7205068448917,86.06621258018075,3.5254248689852163,0.1169822965785774,0.1602076953918049,0.0383524627231699,0.0438629604290189,0.0856001251335892,0.2177153546032731,-166.20967721526742,0.9870892646425186,13.418648630152363,0.0865988711693969,0.0749130102507633,-0.0321961605666975,0.3591860789589912,0.0434450794451853,0.0914677762273298,-162.06934954803816,11.470472340118617,9.37512768947789,-0.0171084240068944,0.0070247775177501,-0.0031345102970108,0.2003181635881766,0.2308326127896513,0.1626971968351361
0.27,-352.3114775348916,83.94666653699471,5.458682272324669,0.0391934441149898,0.0160993491534898,0.0859512601075015,-0.0252804077621492,0.0380275647460801,0.3808853396341675,-131.98398595761412,86.10608443578174,3.657100974968647,0.0525194348650984,0.0907978714400231,0.0005963221467136,0.1485037793320801,0.0207970401215191,0.1678692811570599,-166.18765286005117,1.1301140144811852,13.50042525728894,0.122555104896972,-0.0297766499538987,0.0326664988901773,0.0201981240169954,0.2137445711407954,0.0810636924836346,-162.04339122536518,11.61914427222538,9.436966682765336,-0.0917888344559952,-0.0301102092583738,0.1237707982326289,0.0246513555864317,-0.0451809612476791,0.0929077045848397
0.28,-352.6906573775667,84.15306360953595,5.445937532360072,-0.1025922119043292,0.2031131254012536,0.002711259648126,-0.0106740440890049,0.1222885242811973,0.1309440456504439,-131.7379400927981,86.07824809669361,3.356472615767232,0.0575763421671397,-0.0272648807681828,-0.1269298892084921,0.0355051549464169,0.1014361860344938,0.0795639503993928,-166.10057958962176,0.9910310956061564,13.489484381862551,-0.0849313429276805,-0.0682826414419325,0.1881681642872612,0.0161250814220827,0.0090869713531075,0.1028450301203032,-161.98897505931873,11.565277235597968,9.401755534159046,0.0026475633382464,0.0042755073153628,-0.0430597565446145,0.117411973520288,0.087780428107166,-0.0584332639822382
0.29,-352.4127878215743,84.0903519397665,5.436933822122847,-0.0086166706347661,0.026398368622764,-0.0315376681512227,0.1315528712953238,-0.0395936033923821,0.1220534518958017,-131.86936784974714,86.10670218552242,3.8037609128252265,0.0408234428218087,0.213362251627477,-0.0549650262534104,0.1294975219667107,0.0480764179859359,-0.0650524328468557,-165.99122157203902,0.8763040282626322,13.399491789658995,0.1085400936243323,-0.0374146394094524,-0.1262315844338179,0.0236662025777147,0.0534162396006622,0.2123240132413346,-162.19544303592195,11.7270152835538,9.511604501222289,0.0418897738074487,-0.1270945894935992,0.0904499570815908,0.2019814267463073,0.0536163106496088,0.081292564982624
0.3,-352.5437411753059,84.1026949040421,5.255928858491384,0.048484879096471,-0.0207875509906871,0.0347786574667186,-0.0173759695653949,-0.0986574955891536,0.1949376463382623,-132.09893381146213,86.14433686774782,3.57257483774128,-0.1111638259762551,0.1043619381566274,-0.0005363743198432,0.0116506490317922,-0.0071298588776074,-0.0235103806844697,-166.05432550289171,1.144289787050396,13.428626317249018,-0.1110081709669624,0.0340455615665542,0.0898394736727292,0.0950985833833016,0.0178468496963355,-0.0270210068750231,-162.2076245676179,11.482722829331928,9.601052580002635,-0.061931884866596,0.1948807402533188,0.1146020896396121,0.1658167470694978,0.0820132240403546,0.0978181586791646
0.31,-352.5220374658488,84.1502523842121,5.265931532178897,-0.0017865801333376,-0.123726084141612,-0.2276773918383002,-0.0141312588957498,0.0054683770351394,0.1170624830249734,-131.96213714770613,86.01740785589007,3.5669918788274155,0.096404271445997,0.1449190767300996,-0.0227633002479007,0.055686587104611,0.3408142686521433,0.1999612484475802,-165.9564994934874,0.9760149178003577,13.5177030808472,-0.0045855904121805,-0.021989349122304,-0.1214836102203547,0.0020606701134249,0.1693294328864502,0.0715728996411731,-161.9960457185592,11.622515334187971,9.360675530904194,0.074874979419104,-0.0997448588489535,-0.0347790281602972,0.0268710759545542,0.0513143763334306,-0.1601216962587844
0.32,-352.56848727400927,84.09363372574919,5.597643861676303,-0.0360260053498368,-0.026550934771803,0.0356076513676301,0.1641952676904308,-0.1746509457663913,0.2226987771729721,-132.06309447610064,86.04191339298977,3.6097219160016265,0.1295952291283209,0.1033787087758358,-0.0090116850496272,0.2205652779255136,0.174297329981954,0.0606264144271954,-166.2224355695457,0.9567965736481564,13.485963029303052,-0.0880556514706537,0.0315788217511189,-0.140759392144498,-0.0009325557397003,0.2000728152106482,-0.0772563900913522,-162.13680776536228,11.556660107063816,9.411550658317106,-0.123308117160381,-0.0738448328533761,0.1173570037475217,-0.0276692799824025,0.0849746165086052,-0.009600030624167
0.33,-352.66179723769693,84.04612584881768,5.386660657119007,0.0484530363304776,0.1325256285185869,-0.1224586824881024,-0.0195313500731951,0.1081407291627325,0.0398600999219347,-131.85677936898514,86.07943142895326,3.653853578245175,-0.0226396408421475,0.2524164155083813,-0.0062323461773737,-0.1520378247725468,0.0091706211103566,-0.0087772033329766,-166.07033751078416,0.7671365507500718,13.464636237464315,-0.0319963741840577,-0.0196175865136024,0.0494611922048701,-0.0514995588912158,0.2178878703744741,0.0426358536158623,-162.27413262864243,11.546000516855328,9.556263124829956,0.0476465862996076,0.0266181875874798,-0.0489232575020595,-0.1362941747970421,0.1313656306965382,0.1344146542381125
0.34,-352.5070889391594,83.86802186745577,5.3857292713046325,-0.0732749325781305,-0.139367367964525,0.0174768433322768,0.0993987083192719,0.0659018984019437,0.2540547999329152,-132.08057777588553,86.30619171921029,3.609645930086403,0.0113424455792243,0.0689948569183907,0.2643146518900787,-0.121698663825209,0.0553711198727163,0.113331161429761,-166.2610393035401,0.8930885987671124,13.495459468953392,-0.016568844785166,-0.0931621334169333,-0.0235768296037174,0.0111255473494712,0.2101388132133685,0.1694418383818157,-162.20125473934775,11.680066765343076,9.305597172361228,0.0442114002723792,-0.0275687789598983,0.1311549705787351,0.1432095428929164,0.0526416645139889,0.0628061742367448
0.35,-352.8370284631456,84.05769316955029,5.348439559835735,-0.1868724133017321,0.136865140702841,-0.2356192309496494,0.0118911092372367,0.1251459175870919,0.2011435465039004,-132.08240697288048,86.20539293600729,3.5700381920628312,-0.1405596421933899,0.11025039689845,-0.0367358842775619,-0.0487316548807357,0.1417262550339066,0.1390001337266573,-166.29988780921371,0.8577716574016275,13.589855625589664,0.1093662013496698,0.2059505460922208,0.0246970717212184,0.0921030259776732,0.0043636114011304,0.1652115344768946,-162.20682035199627,11.717021353228,9.326770764869494,-0.1804299842377674,-0.0145019400656913,0.0907630386081134,-0.1272843246410298,0.2908399177731521,0.0064778787475706
0.36,-352.54584686758363,84.01183346962125,5.352973784589405,-0.0334964526865861,-0.0333246491010443,0.069965584579237,0.0531259476376597,0.0325288967124664,0.0589956892831187,-131.99468804448338,86.30623512293995,3.693780207178615,-0.1127833572903203,-0.0704030798148766,0.0333863398408224,-0.013296365939139,0.1811956586962479,-0.1362613870941765,-166.31933595435171,0.8545878571236944,13.507547484571246,0.191843588952989,-0.0357906993679135,0.0466569346359827,-0.0805674338387696,0.1588575826526798,-0.0016521796320113,-162.33545852912434,11.657631157863737,9.289414552795243,0.0497861304770547,0.0618262129179964,-0.0364170107624573,-0.0004473142553935,0.1287767401103915,0.0408292301963959
0.37,-352.6437849704754,84.01374755821003,5.4835984094286685,-0.0335650252852787,0.0574281507692514,-0.0305163344967227,-0.0511030902430995,0.1183803146633766,0.0956964952060813,-132.11362353358777,86.04438048696097,3.639430947712391,-0.083058908232387,0.1062094197275942,0.0758326352657891,0.0637292468318182,-0.0314462528718842,-0.121070964132488,-166.2944152557667,0.9316014657632616,13.603862721308928,-0.0034690617176703,-0.0561273919179942,-0.0578964199730377,0.0904731204057969,0.0847700346133191,-0.0367485025753722,-162.2453449858965,11.639703997968594,9.15386599445728,0.0086030468683108,0.2343073115552342,0.0744122686100515,0.1030145674658809,0.0945471530443502,0.0812892771929767
0.38,-352.56245018135763,84.11971724454706,5.3446787695273335,0.2436141778386048,0.0031508223076755,-0.0912776340405268,-0.0505827587895332,0.0320976642982888,0.1517943904789808,-131.91857894374957,86.31210817310041,3.6091432602665874,0.2058831743857309,0.0440135085617073,-0.0401707384340742,0.0388532023223257,0.0562259978519825,0.0287614160178757,-166.23467093791788,0.8255502614691604,13.64051505123173,0.0614403001301619,0.1439671519414289,0.1148564677892476,-0.0341536479446351,0.0850737685763337,-0.1428205203449583,-161.97480009287,11.60982444339077,9.272595419602384,-0.0710957163674839,-0.0045675986491562,0.0900825158281202,0.104558176138249,0.2542612561395789,0.2278560069365888
0.39,-352.66396623523644,84.03227983534326,5.339405964211585,0.0097285050501147,0.0745357781791331,-0.1003018511377488,-0.1437353961580526,0.0009579867928021,0.3051445769914421,-132.01676523162035,86.15284055207005,3.448180475650319,-0.2139429968929225,0.0869478205119936,-0.0271685848836692,-0.0353232342707522,-0.1473915968347062,0.0349270134232599,-166.2590980041762,1.0741286171119446,13.619531897573724,-0.0190757111371034,0.0664695911541355,-0.0971808386054375,0.058599441195887,0.2586867084468122,0.1503554772879745,-162.30086870925902,11.64777281372159,9.106549840263824,0.1755286471303576,-0.1573857523593858,0.1689207041470993,0.125442705848698,0.2404444133151658,0.1034329438945139
0.4,-352.7119903020315,83.8941052380258,5.436661517895049,-0.0060765533854948,0.0193126835884063,-0.0265599330011649,-0.0586647632433086,-0.0403829390498682,-0.0743461007022295,-132.16143904802087,86.40457975098582,3.6680285414096137,-0.0081277433460867,0.1941081264412658,-0.167726627082208,-0.1240657790459647,0.0737978934701221,0.1074566526977026,-166.52208355132765,1.0253593684066633,13.67772279822812,-0.0341751882065639,0.0851491451492329,-0.1004197927109899,0.1852734711691698,-0.1350949109566854,0.268019566889902,-161.963884792408,11.875814529309158,9.393929571747057,0.2390472901030188,0.0266402286239433,-0.0058420175364777,0.1154464215401614,0.0218918735700023,0.0851523385333104
0.41,-352.9567352583977,83.83450359416315,5.420424336271728,-0.0896042575839652,-0.123946261625301,0.0308371214401729,-0.1543608452683697,-0.1162805649379492,-0.0537485824483255,-132.0521423819248,86.18044480926095,3.52997488481766,-0.0187205911074046,-0.0320562710663184,-0.0916860249621559,0.0217338036454953,-0.01227048725118,0.1511594700418309,-166.4728099725457,1.1096898245064,13.60926992555089,-0.0107603000405224,0.0002245444508856,-0.0030935257603819,0.0572645607280134,0.2075361420589646,0.0181756170113458,-161.7932044010535,11.721823648234649,9.308760630436216,0.2276602434489085,0.050795473594266,0.1094355245233202,-0.0835613419931383,0.1080269561972719,0.1097667573031426
0.42,-352.81664813218936,83.85720406057615,5.513710229098553,-0.0747301871829919,-0.090117567560391,-0.2395482027669419,0.0726149559885112,-0.0059202827140407,0.0411139179469278,-131.9564091265967,86.27369251601424,3.529422967246028,-0.034427231159699,0.0176780199853659,-0.1545577739900032,0.088250917522959,-0.1002677805289078,0.2256920149693627,-166.1338437626426,0.9336535565454764,13.786929705425871,-0.0725229618866868,0.1643794165624422,0.0945865816998901,0.1156258054828978,-0.0664589126549223,-0.0721965035327147,-161.80985957266742,11.897582106170567,9.105753209982351,0.0671573433701018,0.2130033068280526,0.0429572995643121,0.2017590820755684,0.2029128997965724,0.0678624457051359
0.43,-352.7555614649419,84.02782555779461,5.304956166717351,0.0203538462883154,0.2188787251665065,0.0392355097895728,0.0437117570364242,0.0703612229702924,-0.0485659806763105,-132.0307618743325,86.37806131739181,3.482219184692545,0.291643521556452,0.0747854407890184,0.0351728356928198,0.2501645634588587,-0.085373867113321,0.0509299797204505,-166.33417998400222,0.8138927470672054,13.617727746187036,-0.1008535863091174,0.2302446747480093,0.1827680630646127,-0.0632761590908456,0.1452613693220789,0.0355964270718455,-161.4567569805588,11.826142845446462,9.15746344607704,0.1882576844490751,-0.0492268007059188,-0.0719140552218835,0.1736273000214631,0.2627152199496891,0.2228053657528414
0.44,-352.9379513098306,84.11991779870701,5.192150298586331,-0.0175355833293297,-0.0350231634187385,-0.0435729482842988,-0.1015188387501959,0.0498993850474532,0.0229944634729346,-132.09102198316026,86.2953407556406,3.5851391034428244,0.166171920887948,0.1599715220163124,-5.431733153821866e-05,0.2726712121874775,0.1271442520904779,0.0664313393944071,-166.32865629488066,0.8744959745164904,13.659169332742865,0.0911313610575682,-0.044446504837403,0.0677985038258807,0.0084999850212323,0.2864818718900356,0.0247413910408777,-161.4767838366055,11.891787742720693,8.97586151834595,-0.2328995208603711,-0.026608279013894,0.0770238464980753,0.1634133068463982,0.1621510090168569,0.0079200251182564
0.45,-352.65844171158847,83.980218102555,5.280792593464053,0.0741460655246989,0.1118000909912764,-0.0457335009997243,-0.1337538600687452,0.0802837634649663,0.1295327984463788,-132.1674711683001,86.21382916975524,3.6657335776510975,0.0194510734839006,-0.004850635812976,0.0327239949388444,0.0765989488422281,0.0105153288396287,0.0109310911838946,-166.35778786495834,0.780028464916307,13.44693129064662,-0.0571067693216481,-0.0372640586367283,0.0473583000375151,0.0972345581792604,0.0100806324599511,-0.004679356958186,-161.44117225995276,12.03042280692924,9.23294450341164,0.0198520393256787,0.0506216456194745,0.1815315328065813,0.0258160755530469,0.0163130407745925,0.2426143042728657
0.46,-352.78232078574183,84.12001560500784,5.33544087552015,-0.0468611356299061,-0.0690255774036776,-0.15277789575679,0.1386421530900618,0.1502911312729529,0.1618429095235362,-132.15177673073256,86.4861346631176,3.634463463873722,-0.0579390370110075,0.059747501386254,-0.0183064185780544,0.073108974568684,-0.2308422129369739,0.0590186389057819,-166.3413083342897,0.8510846024697992,13.626769897055713,-0.0197945939123233,-0.204424952012706,0.1081010998644123,0.064287198682598,-0.1305420983396442,0.165050686290555,-161.28939885237978,11.869947449361574,9.189501425584815,0.0407052129185032,0.0558975654845001,-0.0644020355189748,0.0610742253038409,0.1487657271197344,0.2563543620427347
0.47,-352.8506044951799,83.89314047259623,5.673767495444839,0.0077857829549532,0.1997147675306355,0.0628256678992927,0.1343934116298887,0.1504564349183152,0.0920342617883033,-132.23836290902943,86.17295780630128,3.614605002020804,0.1656505340430622,0.3560560997681424,-0.0668257367006313,0.2300154142741457,0.1737780172684685,0.1490485460654312,-166.26169609351518,0.6753172220870409,13.59211997138638,0.0508323676019275,0.022205489235689,0.007851927916419,0.317458841215253,0.0459715842148363,0.1069752613249173,-161.3919966732294,12.023802989382483,9.13952621014943,0.0683990937467331,0.031611599212609,0.174296426881356,0.2747609388503932,0.1449921425517659,0.2498296924664578
0.48,-352.8240578496724,84.20547462332371,5.240962558798084,0.1735710840188305,-0.1525829104985681,0.2756733789435953,0.262204363439638,0.1391199456840532,0.1919804622283618,-132.33758212796346,86.26219707579199,3.570174769814576,0.1496841176684025,0.3164867550230511,0.059842001824349,0.3035042604679209,-0.1173529485902142,0.3302223486898549,-165.98264137406568,0.8732611100260821,13.622239315469043,-0.0175729715816743,-0.1241451056149402,0.0153741282500454,-0.0166778511272685,0.3134060982105245,-0.0334951289454545,-161.3332107230485,12.14049941483185,9.038575429624156,0.0550736270054647,-0.0756306942963619,0.0682814217360997,0.4739477834370875,0.0596507252161226,0.4041737191257545
0.49,-352.8509478571825,84.06530155786224,5.43811025533831,-0.0147949561217452,-0.0506008570626524,0.0070299200464094,0.0174785961672092,0.1978788888464466,0.3043229648400012,-132.59218156151994,86.22131655072987,3.588662422546092,0.0523903562374406,0.2220211973301753,-0.1293901466360701,0.5240919885078337,-0.0237447717666836,0.3484092290195358,-165.99570011410933,0.7228922687487009,13.807281357979583,-0.0131258372600914,-0.0074174136713668,0.0661715739032113,0.1211454725216356,0.2433586797046252,-0.0308689379483033,-161.19206986427133,12.064621257447904,8.981685722595747,0.1659162558489084,0.1632976584417705,0.2109469364359726,0.1768268927465192,0.0009768466176089,0.3952609506005054
0.5,-353.0048225757286,83.88923717085083,5.517135605992075,0.0409431436222722,-0.0999555438525993,0.0164887514188612,0.0057674548442004,0.0297913274296952,0.3503468303599531,-132.53727399865087,86.10885375278356,3.704631710350661,-0.1563072869153298,0.2590599510236405,0.0514012792207081,0.380325979656337,-0.0933725125300124,0.3626377274270397,-165.90416061888857,0.5512375151416009,13.645382588541324,-0.0375470793464365,-0.1190877903221118,0.0103229424958752,0.1365838773064778,0.071691091821721,0.123621529082194,-160.81261408882,12.110006121386007,9.040159285106364,0.0227086471322852,-0.00188265372818,0.309378791595115,0.1961647182324772,-0.0077558981888477,0.5222435913287542
0.51,-353.24026515341046,84.06851153487537,5.182393759485307,-0.0447620019353152,0.1348687111888332,-0.0131223588923746,-0.0065914311332672,-0.0902011600185756,0.3199124515184021,-132.62149264187326,85.9885393655045,3.785589119580844,0.0012159272349359,0.428005774038657,-0.0524005630517458,0.37937644508992,0.084464486644564,0.5323491525740571,-165.9560031795074,0.5189090824860945,13.901429987017302,-0.0543818438121172,0.1100219267851965,0.1376748447054746,-0.0400390714172642,0.003023525299346,-0.0876739144729172,-160.74603046703604,12.081060368917909,8.896551639718608,0.0659287213211944,-0.0250868822421538,0.1151964894874079,0.2291637418590346,-0.0258081790345976,0.5048184804742992
0.52,-353.1649929753891,83.96598233885092,5.51130433078644,-0.1077902536416527,0.0028983938625962,-0.0080726540538722,0.0013757491562985,-0.0022766691244523,0.4064271297977464,-132.83593287760678,85.58054466598207,3.770123899927016,0.221285479544447,0.5538625171134804,0.1605976480202833,0.3299679446148952,0.1411682797521752,0.3385929240288584,-165.95845348748696,0.5706009685084,13.650219016258951,0.0170893572363105,0.0289494485485269,-0.1694038817847036,0.002818866856479,0.0428558458354682,-0.0010830702109756,-160.58877908364192,12.091763303116291,8.387448120477334,0.0556066894258825,0.1005689570428722,0.2613048139249991,0.0051637978243691,0.1538697328561404,0.746737110903008
0.53,-353.1665365535003,84.12548924101363,5.418066710986447,0.0973070038318847,0.1322715801181843,-0.1134323761037631,0.0190627043511576,-0.0671181593386374,0.3851932066169456,-132.79057653775365,85.5367950492234,3.615967414280151,0.288610178667672,0.5591275422143298,0.0907189691890902,0.4999380452370954,0.1381375108699781,0.302925480142319,-165.98965058989106,0.5863333946071693,13.71979261996986,0.1851549388877212,-0.0797908616365557,0.1880082010073311,0.1707590647432363,0.1847566991106542,0.0389940087704544,-160.2194253566512,12.209659404280185,8.287114707826195,0.2221943758236644,-0.0001236011551174,0.1633282951382887,0.0232961673295563,0.2229040938896912,1.006375885762299
0.54,-353.2453003089957,84.09461913192644,5.353794795405925,0.0689294434414092,-0.0384552000049672,-0.0029307884346666,0.0143010632094775,0.1024292255971329,0.4777813923999819,-132.9362688473075,84.94968521513466,3.595059518938688,0.049087140358644,0.6755791598254774,0.1633995971303941,0.4337387068871332,0.2183998791316739,0.1883515636252662,-166.05134462868867,0.3379080355021603,13.47645275422944,0.1026464765797592,-0.1346251956065174,-0.030492872990788,-0.0230088985373901,0.1662294661624024,0.2053920313488816,-159.9001565476387,11.991983573127996,7.902453348612314,0.1501408210261033,0.0325764662286106,0.4129856149970722,0.2603077664564036,0.2119578787535654,1.5215818997780195
0.55,-353.2247225465247,84.28612034851048,5.413590796527123,-0.2281272169484766,0.1684213933934282,0.0520930397973847,0.0457699324529591,0.0266304494521496,0.6135384219246889,-133.0445991559538,84.93712356486579,3.586384853670358,-0.0119462904470147,0.8098268688387879,0.0413200999152169,0.5978611423950171,0.091185399444914,0.5669631680889003,-165.81991885556863,0.3770632152285968,13.147478095380013,0.0314436957151371,0.1289702611743983,-0.0064563863591146,0.0771427473728504,0.2961162768390638,0.2113339618397388,-159.6935145074764,12.013687637393977,7.81130432717371,0.1998153773912911,-0.064790280715042,0.2367185986588405,0.3125268307410919,0.1068763367042951,1.732839693940989
0.56,-353.3185699689112,84.34970852095202,5.298138112630596,0.0038185454448391,-0.1282639351110997,-0.0985727098615407,0.064955302451725,0.1560049230190585,0.7024023834596572,-133.12940676161105,84.122835682027,3.598932491704718,0.0179270107142386,0.8852998512192783,0.0579906437575993,0.9229509794181824,0.1085207596213206,0.3878962283129454,-165.7823157769358,0.3279861706642601,13.161486197738611,0.1461555247249355,-0.0283880318189565,0.1941717995745239,0.1554874048866643,-0.0156116866408162,0.3351387942240059,-159.43774089050274,12.048617085633436,7.669898033643541,0.0580722885170954,0.0536432472859567,0.1825850406553668,0.2163154507061189,0.1672580480023492,2.067842267707039
0.57,-353.3855253511311,84.14514207001416,5.297784166665234,-0.1547641640191376,0.1898687526390042,-0.0513259188331528,0.2159671390064761,0.0930220237416221,1.1492711578093135,-132.97106595327156,83.39508273290946,3.84325047551201,0.000422775496545,0.942395698857526,0.0886450421197737,0.8134338878071922,0.1132669613857495,0.1187024984306953,-165.60178355518798,0.4032736460955775,13.296512088156492,0.2102645875204417,0.0602055179990117,0.0722449740812172,0.2180254576096847,0.0166667362339604,0.274844014668518,-159.21638140149554,12.299165522925568,7.282929211784994,-0.0547648470607676,0.1144007551324912,0.054209621249722,0.3120107247300182,0.1260723797195371,2.3962224504832945
0.58,-353.259140911147,84.25232803304529,5.27131536557456,-0.0356599400535058,0.0455976040349122,-0.0333611746585766,0.5759293972808993,-0.0541243009917244,0.9333102052370752,-133.04468616933505,82.48823421642328,3.7577775671449856,0.0952427625997554,0.900143243808847,0.0895870474814444,0.849371209419806,-0.0208176818137367,0.4576083513743099,-165.52694636010452,0.3389617665353735,13.055151375074855,0.1844497763167016,0.2023807646172074,0.0789029510943999,0.0284301379838952,0.0633736427558511,0.4459792597613919,-159.1830724454852,12.093307987564527,7.4798517670059805,0.0307309962085698,-0.072311997636346,0.2148437450998193,0.1983168148374982,-0.0040753521154161,2.373003903263018
0.59,-353.1795248058592,84.27576232361335,5.373415646450133,0.1163806669919327,0.2517160615760548,-0.0076358966473313,0.975718824139452,0.3191113480582937,0.3393533101490675,-133.2317332888,81.37113079700642,7.608100698474894,0.0836835613708301,1.01360743228782,-0.0131815579942799,1.184400076066652,0.2277245485818631,0.4792688815043597,-165.56303507637548,0.3644815051122888,12.74271111148435,0.4523311574993526,-0.1393994516330348,-0.0436856942371512,0.2325789350043682,0.2208686445231907,0.2932076401174641,-158.75255865239552,11.927950285485618,7.246641879322244,-0.0261311993419989,0.0759344674436821,0.3879025143002151,0.4227700888379413,0.1205043018261244,2.2082003124793377
0.6,-353.3282966808269,84.44739723568848,5.404349666933609,0.1372710799736544,0.3280472242552325,0.1381105960074461,0.9260879945626715,0.5986156681093984,0.4094184160688946,-133.1502932747647,81.07510639184605,9.509398632796955,0.2138195388105309,1.2773397226210457,0.1339956057674372,1.4475010663789345,0.185379839463066,0.5069117000566679,-165.58577172947926,0.1237335121679196,12.531102349509151,0.3307973879514128,0.0701773654072074,0.0915020317763886,0.2385015924794708,0.0215449121097608,0.652081602915561,-158.72525471762464,12.05117810028003,7.261399485275279,0.0353238647853321,0.052100362942234,0.2813826626448038,0.6323250577941177,0.0496128633336406,2.0282858024029933
0.61,-353.2460186549084,84.5561779836248,5.483062061283102,0.1157096916790474,0.1911481641827998,-0.0653492137497144,1.1661947451428696,0.3325902119315959,0.2625606071700533,-133.02770177557514,80.57208856138871,11.187129613560632,0.1693452636908615,1.2353757745035991,0.0817383263835042,1.5953891269244729,0.4705870003558893,0.2779550249608943,-165.46960260114608,-0.0159441178430859,12.522934836619935,0.1586550225565407,0.0407328951741094,-0.1197198682251433,0.23329886413164,0.1597230346006188,0.4073434015002273,-158.65036533600576,11.913769944797464,7.260554069622097,0.1050638085084114,0.3642300094261957,0.2924283236163497,0.5598755281891296,-0.0510291235162915,1.7314443316989478
0.62,-353.2403387077255,84.64416947966721,5.749097502353629,0.1584217680418068,0.3851068511042138,0.2000597852079101,1.7014988528230022,0.7984060816189076,0.6709076058717198,-133.00723389834047,79.02732946224887,14.678292437666512,0.0210292160639544,1.4215894406131926,0.1674173898817819,1.7255210981183922,0.4680704881928019,0.2486783821052765,-165.5186703383662,0.040769524170748,12.209347285466627,0.1415251849516417,0.0298350541297197,-0.1687644138203728,0.23692386971388,0.0492769595826295,1.0187239207663648,-158.18574931009874,11.770535681568736,7.029914438290553,-0.2102516409754741,0.0976728645022395,0.4822069226140538,0.4772102511364192,-0.1791225941332415,2.171342696663998
0.63,-352.98165035374524,84.2580894192538,5.508345803464563,0.0115613591549841,0.8160431045525147,-0.033608458223233,1.6949014942338732,0.4977985714063109,0.7757158735018416,-132.72991725512614,77.44350344998539,17.701975340529266,0.0683438160296076,1.6101767116954169,0.1936300197186671,1.934156951785374,0.1411186336623232,0.575176320969184,-165.37330104082258,0.2575370774362087,11.88669022353223,0.2705128324911195,0.1088808977124205,0.155661387425285,0.1670823274554415,0.1721444358167647,1.3738778977233386,-157.63163450667085,11.852021732631538,6.928339232545799,0.0521404074946116,0.238144677857054,0.2688275503552075,0.3510663215886185,0.1149783311640417,2.251116347931616
0.64,-353.3212780655758,84.1517996175508,5.644323992477204,-0.0439098359149233,0.833673655350494,-0.0885509211318495,1.7653379957456137,0.2753938542506909,0.3636632765280699,-132.65720747205057,75.88914208413173,20.09143315971908,0.2099058685208514,1.4899296373338975,0.1380760058732017,1.6961844550130472,0.349117717722162,0.5632520093253932,-165.15297148891807,0.2009419184597551,11.199837201492535,0.0696514122147563,0.2006976801928982,0.3291015842326552,0.312179651204137,0.1009964700546794,1.4346924993679102,-157.41967594442335,11.48358022950818,7.024130560080641,0.2169068135246707,0.1627304287334848,0.3672378495048852,0.1708225543999925,0.1360110340382298,2.1357989398994324
0.65,-353.12812924295383,83.78473159911033,5.464367468327606,0.3211531179828816,0.8725612841131304,0.0505248381960814,2.205898801407618,0.1243306302045918,0.4080041318770608,-132.66101554067242,74.0553053796482,22.026259298413457,0.0022840460599205,1.52862738667063,0.4200540072204772,1.4864940223855672,0.0263358682121316,0.1914945606243797,-164.8541591579983,0.1414614480017342,10.926687829136622,0.3274287832864261,-0.1243839420388046,0.122124871685746,0.2864693536036617,0.3239204362526545,1.8712492888942829,-156.84250683182643,11.604603900837848,6.855492670638455,-0.0022261972754839,0.1355780904319065,0.1700211886799095,0.4298855290320776,-0.2164355922499332,1.1626376414114092
0.66,-353.3884584237238,83.40476687855772,5.374590860294937,0.2032145203248077,1.0391642153230087,0.1806012297017989,2.115621218098698,-0.0183204040459525,0.1561362619203437,-132.64009568723012,72.34079649096277,23.771921693739717,0.0555893654204291,1.6469476512733885,0.2094055445968434,1.684831019162227,-0.0069749411838192,-0.0033199757056622,-164.85976799563898,0.1570913112742947,10.488791923764628,0.5086391625506546,-0.1086148932514534,0.1113428299872142,0.335016536339492,0.1788547419740531,1.9306906425422263,-156.48146810560087,11.26149800024656,6.848740821968652,0.2248387133849959,0.0124354096476268,0.4952469099463973,0.4531728927416755,0.0160158738394366,1.1158430531229904
0.67,-353.4681405440023,82.55861499124318,5.556046774887758,-0.0254453914868412,1.2594532441118382,0.198932814078616,0.8095447951432286,0.0342808143996305,0.4612016852348376,-132.6788890000812,70.28001476601882,25.21852682775225,0.083233129113129,1.6109217394088984,0.349598101032201,1.853459011366752,0.2078038984498651,0.0610014173670173,-164.55963497255814,0.2976815689544582,9.932065685850162,0.3763899874661606,0.2158071358458662,0.0615151661875348,0.1553698767630545,0.4441880712334846,2.495412806209713,-156.02933625854865,11.19901337981323,6.521203270903211,0.1636603050082169,0.1355152529267535,0.2877666076017602,0.6408810606207406,0.4609938704113065,2.164668740011971
0.68,-353.68732078169256,81.62161510073265,5.686898372399291,0.1954354191580427,1.250891761863674,0.2066202388432768,0.8488601322104261,0.0205816696311662,0.7006594976878016,-132.27042597789804,68.74408631360903,26.10872006972389,-0.1610280482459714,1.467811455505536,0.2084006082259092,1.9664429059806965,0.0348296249490052,0.0542316760429985,-164.51469697208,0.3874878012333305,9.467175878425454,0.3713272732255631,0.0679859621292213,0.1988233151054612,0.272410625498721,0.0202052320000483,2.077679431508911,-156.13033863664748,11.250831538817948,6.421822552937709,0.002711541323597,0.0515851453966694,-0.0197164387418765,0.4473286775405332,0.1990157412017399,2.1972219184242507
0.69,-353.8686497488657,80.60699724609533,10.529066648737007,0.0322718538488389,1.17877537738246,0.0645480141345652,0.9116059693943576,0.0928185174757086,0.6236974177692223,-132.13303308959695,66.82723827003502,26.997140776102977,0.0507774232237253,1.769488585412247,0.1070703262382953,0.8981501699449732,0.580485519499595,0.2301633393651958,-164.32833847978037,0.3002199233228712,8.901527501949086,0.3908595371033235,0.2467243288554474,-0.0024298456135999,0.2145323574346318,0.1220502602320271,1.8625477258525192,-156.27464638530677,11.275916984479627,6.4004592644804905,-0.0002585285580252,-0.027585214425322,0.1129619995260053,0.0997878293873938,0.2278449327558427,1.9675551974633017
0.7,-354.2401230941709,79.62849362571856,15.220952795252105,0.0742827868899752,1.1828095442345297,0.2615995490507635,0.3090387801262428,0.74166801956728,0.0012055812402474,-132.42277367746098,64.97927323716829,27.616601228613508,0.1248213545923839,1.6378585666912089,-0.0415186705396982,1.1485171820549307,0.7239466382403327,0.0942691421003492,-164.26757267323674,0.6246273231444013,8.12905828635216,0.574070012917959,0.0600590947873943,0.0379874549665251,-0.0196536651830065,0.4012841460919273,1.7280086681655715,-156.65547115700934,11.234597232293057,6.380525236413787,-0.0770958701822158,-0.0035031057610712,0.5057115698746624,0.1198857931343331,0.3938456856046677,1.5027674231181951
0.71,-354.60508418754665,78.59947686202229,19.005292486703876,0.0825559321248554,1.1926399835595984,0.1118795805909957,0.6079452037799542,0.5755095742244505,0.1317711172847621,-132.95158855220512,62.85036474498256,27.95673483489836,0.16277746589015,1.5586982486337169,0.014684492030845,1.3389675611258889,0.3429817876777399,0.3162995807596896,-164.43851835204546,0.6250122951391494,7.522044197562746,0.5164776976166494,0.2613340544486606,0.1138854644786665,0.0328033881439526,0.2728937976464884,1.9988026631938909,-156.8406540907724,11.06669802928849,6.34123133856547,0.2220990511306422,-0.0359271980604335,0.1614610209199757,-0.0670818890396267,0.1709084371951232,1.4275302389557238
0.72,-354.8931085076116,77.58229243607435,21.842100544496,0.1410352383394963,0.9652396357172468,0.1762748928692926,1.042855780235978,0.6622801583932589,0.4309964045580537,-133.27670506788192,61.053944993112246,27.7946502139066,0.3431296816482316,1.7570099494879352,0.0642575194408489,1.5717587143741136,0.2228556109729911,0.6672926796584961,-164.85327597843357,0.7734888097429601,6.888376020988265,0.7579781235798745,-0.0970279051360238,0.4259975984953496,0.1247928704760032,0.0738477048513385,2.217776043231965,-157.28261828333115,10.89715433416804,6.903031311620041,0.2813067637224742,-0.0115396908915484,0.2265944427926496,-0.0922840435836428,-0.0324618166165449,1.2158109906575634
0.73,-355.2186385497308,76.85000900031592,24.70616170072969,0.3664727420809054,1.2202551642388044,0.0965517794117335,1.233185313584231,0.3399454869284403,0.3724116577779303,-133.8749627485451,59.31658035356425,27.9796160209634,0.0920799619990836,1.751345408504223,0.0053010685501375,1.0744585917255074,0.0992428249942915,0.3427569333360924,-165.0379734734253,0.8029275845319968,6.428005126267618,0.5657761769128828,0.0576610059508124,0.3702926875552548,0.1780825701240595,0.7189349584943163,1.999940351129117,-157.306632861428,10.813684630233272,7.291621205589182,0.3805803318799853,0.0618136922009472,0.1194453944858191,0.2540040419000851,0.4153816534931702,1.3784729783300622
0.74,-355.7317638970931,76.01049033397392,27.360315484645177,0.1993659374556997,1.034669324154786,0.1135250910552326,1.3301692785705914,0.0426011584878194,0.1659613409260825,-134.61922694664423,57.28002525894399,28.213470159689432,0.3186148359497081,1.5437260173260363,0.2032236657385054,1.2051727854203078,0.5531260758592178,0.1293411665927689,-165.20792176951048,0.8821938320785142,5.8593279246852905,0.5442413124224921,0.0864111958801026,-0.0514219765692062,0.6466024075493322,0.9120940275546722,1.433250104726293,-157.29369184309087,10.786810198191349,7.819847870756904,0.379626501463754,0.0568006454619799,0.2084538675170026,0.3480251880736496,0.6911866844190119,1.9432804525061784
0.75,-355.89135447300634,75.32258620632032,28.316723971829628,0.3467172844294226,1.0209697420132196,0.0877213761988134,1.107598313104586,0.2996970661863397,0.2941849649804064,-134.75843296843408,56.25590389194797,27.996388790008623,0.043010495101373,1.5536842361555745,0.1817927932555316,0.9788742461544326,0.5483260100909261,0.5514153243238988,-164.92875297166566,1.104046882602893,5.50966306565397,0.4153653670913466,0.142072586512684,0.1820855580489602,0.6170769916063021,0.4724760800336587,1.8120236707700568,-157.40310307569473,10.701900127902356,7.91287883400525,0.5230396167014414,0.1297638595992988,0.1081017009792643,0.3386859708530649,0.516566566839456,2.0042708734867687
0.76,-356.07582817784737,74.97552182225792,29.374136263830383,0.2898916092114514,1.376120886777955,0.0133008210563959,0.7671105614800118,0.3281351699974769,0.3396856923856795,-135.210603452823,55.29971751615464,28.15666269973913,0.1642601230356528,1.684185706156187,0.0375801209980667,0.7109060939521764,0.1913033643046355,0.647594196758677,-164.6508000071193,0.9506270666447876,5.409428958833656,0.4017257586793153,0.1482919792681917,0.3127037529750724,0.537231506780618,0.2992310710978024,2.038003400631814,-157.5234133111555,10.57685110026386,8.337272169326887,0.6281858332678683,0.010019427078356,0.2694484761617977,0.2693010515665227,0.7542301964513423,2.062191680884716
0.77,-357.00051801589746,73.67936511444326,30.628388158962423,0.4457744371088772,1.0560409094308936,0.2155463643753344,0.6554978294411059,0.1510528163481996,0.7203215382425775,-135.63842602208112,53.320638583223285,28.057746808066568,0.2333817310384071,1.793304702800969,0.1802047463022689,0.1885653871053958,0.0367192613098538,1.2390803478289238,-163.97447646725337,1.280366797037825,5.007462888007987,0.2584352115434717,0.2424473164592876,0.4930455189880398,0.50183493123209,0.4170879295793324,2.064670494858168,-157.6331199404819,10.576990973504564,8.807707814074583,0.7652212115283953,0.1725594150456246,0.223475866259035,0.1128296768202677,1.0278960503596402,0.7124801858016659
0.78,-357.7813156519939,72.82230523659598,31.146851617566792,0.4684236949362296,0.750640454524036,-0.031772032440671,1.970430566522374,0.514129633718352,1.7372472782832582,-136.62103126517366,51.741390433487965,28.265083797800244,0.303080804281104,1.9415592706338776,-0.0207972157201875,-0.0710165065981798,0.1418903130806254,1.9755136407909144,-163.14144684801738,1.4497635183377913,4.435665767431297,0.0529456455798682,0.3135168034417425,0.5632702963178156,0.1429250294909549,1.0819685679747983,2.435808477397008,-157.9210956464426,10.471791729558005,9.448169291612407,0.5569870238676882,0.2236758504830773,0.2998134299326025,0.1989003302439859,0.6990251462894158,0.6440393575425523
0.79,-358.6029905512419,72.0530548515301,31.857039322391277,0.2291997613005338,0.7059386737698135,0.0440310986584045,3.3896682508636307,1.0867418610404689,1.9645478104568288,-137.1829465096059,49.48317452883427,28.089109134552945,-0.0130792205533012,1.91482232296374,0.0222993664735734,0.2965886977426105,0.4286580022183702,1.570035363728432,-163.24849681667752,1.6424638793875697,4.360300481119215,0.2618222190297833,0.2455100527170028,0.043174209414986,0.2714738289706225,1.1123296059455063,1.5742386037805771,-158.24569428273222,10.340361117402296,9.811959073148472,0.365767705958106,0.0481055650319607,0.4830018884703987,0.1339314600274928,0.3860785952799871,1.039808052251097
0.8,-358.88999437395825,70.97112171875054,32.94503219074241,0.4588587838862203,0.9890838714029224,0.0613126064866328,2.918810981571036,1.5546152414079095,1.4302701591838982,-137.78064362594714,47.67259502031531,28.05279246562809,-0.1499342984819281,1.557515760845984,0.1182212496938829,1.3242772909783214,0.1022928905349694,0.6707642716572421,-162.8404003131972,1.841264564033616,4.2273822530674,0.2477099746768012,-0.0122700051062654,-0.1490565057726693,0.1007735408598615,0.7605934502834721,1.459926248793027,-158.7468854984582,10.219805003243366,10.412356902043658,0.3547456099797098,-0.1285836121862322,0.4198982609031496,0.1667612408025268,0.3120145721909111,1.1750112665379011
0.81,-358.9200917000028,70.56243868098508,33.959849972362754,0.1375069383651362,1.670629422898678,-0.0050125315528297,0.600218940588338,1.060408653956764,0.966788961999891,-138.09582753209847,46.18518475636797,28.299469441459284,-0.0623458552379069,1.2821198397942517,-0.0230973802165281,1.1448934366707852,0.1386191630368664,0.5441556320157158,-163.02986865504093,1.985378641803937,4.026068311565266,0.2794939045061301,0.0216612404397351,0.0049771137139864,0.374847827192626,0.6338303256039957,1.2465108901371291,-159.23365683591766,10.093580277515365,11.337355233470731,0.60421271059532,-0.0422501142698709,0.5289097355967599,0.1756761340095541,0.6251380719692318,0.7722822121181014
0.82,-359.4907413247481,68.80777181064408,35.91269005270998,0.0184653746675486,1.7456688628854595,0.1075323938155942,0.7904080829942921,0.9629274266136132,1.3972882896429355,-137.99776363289078,44.66700312141396,28.57490413948133,0.0319078579992776,1.386350817637011,-0.0527801630882735,0.1418885928166038,0.1239544507633524,-0.052191453634877,-163.08202756639838,1.834921551289599,3.666291403416353,0.2411140793371166,0.0715552729864064,0.0909915936877089,0.5372883223307876,0.5501028483663749,1.1947206161738526,-159.63833528111985,10.063134393916489,11.887747065773274,0.6793583306425366,0.0520853273899556,0.4293270972068003,0.2800251030563886,0.7350595599764395,0.5471201901363357
0.83,-360.01842073139386,67.25636290091677,37.32871133811237,-0.0689821960520116,1.2299210122173208,-0.0124472130421344,0.3835565218223629,0.1015280790692363,1.576345276252297,-138.0997861466043,43.16263537178082,28.626906836645464,0.0464118768801129,1.2967167276507927,0.1970120857686036,0.3524974979369044,-0.0748935073303635,0.247797630927129,-163.25743203058175,2.008337496402238,3.2042972152840723,0.5352723264985388,0.1044122041032194,0.1032806998286983,0.4281560948031546,0.8435662363923875,1.876029027813716,-160.20747498165508,9.968364178771765,12.749201203164327,0.7111134973820628,0.1727952639012664,0.4317806781124064,0.0897416994375802,0.6427382883094768,0.5561260633312726
0.84,-360.2005999258772,65.96016298455395,38.15087397094007,-0.0362957676091785,1.063962085157672,0.2083554634208009,0.3647173349823798,0.1305344167420901,1.2602141476354325,-138.19325534423098,41.58248050122007,28.45447710335896,0.0670426146593573,1.365132890150483,0.0527418397957202,0.1462226837523187,0.1073290296253392,0.1550985673674424,-163.40988141818983,2.140815208852304,2.938956114982763,0.4978088253862395,0.0731974165121062,-0.0887235250392113,0.6439368485805668,0.7399856652360204,2.119681976449418,-160.8324436493227,9.653874119425412,13.563965066013337,0.7895672678612877,-0.0692759608113396,0.827138958028411,0.1778857124616882,0.2558566103448755,0.4946599223443104
0.85,-360.20367941452844,65.0019043421551,38.76352064630797,0.1292667378976933,0.792894515676159,0.0527076117680305,0.2289433477958312,0.5119281797331512,1.200439007303173,-138.1423169943357,40.10372181972801,28.69313747574241,0.2527978186822112,1.0020582908813538,0.0199171423643934,0.286576542667347,-0.0443523649296902,0.4474692454126026,-163.20873137239258,1.9105477008340543,2.181925156622827,0.4358164237692506,0.0435234404362516,0.184547555836562,0.4387253138940751,0.2919110340028574,1.8917722503170216,-161.51905066804588,9.443872517783223,14.414012185472911,0.5892276217282222,0.0019833005578736,0.6942533225172649,0.0916390356352889,0.2274496840808491,0.1932587318062783
0.86,-360.8041263196912,64.21058268383771,39.11406071185,-0.0661505086505925,0.7996658823957297,0.0709622272821954,-0.1570265370253279,0.659126827950736,0.9685536288158768,-137.98120275646522,39.028864415087305,28.85544574966784,-0.033992844045092,1.248716764795576,0.0215154443727658,0.3794950194475285,0.4500692962576726,0.3097165945187274,-162.95893635398775,2.122801736128573,1.7759072667192877,0.4470965135428658,0.0460609258313711,0.1312074390597519,0.3966151062586612,0.1789450364170963,0.8678502512730707,-162.37721210909996,9.022117405513365,15.083779402535257,0.4325763906807835,0.2154083091912573,0.8005292210462684,0.0447999207730084,0.2073302077447708,1.0932808586454792
0.87,-361.1066535226182,63.3177244352385,39.44460261220684,0.2462870761289292,0.6501308997607466,0.0373858245697333,0.6049479535946064,0.6718165575726542,0.5681997988193188,-137.7719636639365,38.443769396086616,29.11478150051277,-0.0614103408980043,1.032502543213516,0.1788020503439554,0.0010346026754799,0.4994271168219155,0.3744755376599412,-162.618645113063,2.240290156388961,1.3332430498980994,0.3855036778243595,0.0287879342896104,0.4023362352604798,1.0899397923740972,-0.0375318092970279,0.3102560701590651,-163.35124433746003,8.892501363584032,16.04262035793315,0.7186137714933719,0.0489394127417257,0.8438005493007847,0.2245084317575157,0.6471707716559372,1.0425447889861938
0.88,-361.604412433761,62.48448415939671,39.71096895946488,-0.0391451078873,0.8153154976538765,-0.0025434924262315,1.2707967485737774,0.3825804545753208,0.0995973660810439,-137.9760268492564,37.3387255830048,29.007527442877663,0.0830337395642344,0.9518459235546056,-0.0679604486424124,0.1011833679448093,0.6360550771992063,0.4187641776501369,-161.94760575485208,2.623319423241042,0.9774920548592668,0.3056597481242355,0.0847319221519611,0.5417024428996333,0.7878600039725084,0.7671975096499767,0.3450838914917059,-164.37807911473945,8.530638264303889,16.960348315266618,0.3990714782247778,-0.0155997605379778,1.0296067975172198,0.1745638706915565,0.7614795363754414,0.4445302006290635
0.89,-361.73626594742495,61.59951285991285,40.55995101377255,0.0608277313994589,0.7265106184148071,0.0308590797043208,0.8556931817875998,1.1351425087636504,1.2249379686065982,-137.85267989636571,36.13413416298224,29.219671377862493,0.4398970931764392,1.178307642810834,0.1929120407506279,0.6810943419417725,0.8521054023618418,0.9631051657306088,-161.42094519465303,2.676496579802332,0.6253079922599115,0.3908468370817303,0.1476004373647488,0.3921127750752295,0.3480926982184088,0.6951557929320925,0.2151965903142668,-165.134409612563,8.004982920426144,17.469472064812177,0.5433675451710751,0.0948965274625629,0.9337797326531284,0.5264484793096673,0.8925682038781665,0.615938349140762
0.9,-361.5537364692312,61.30519899152223,40.92813058820292,0.3144103705640071,0.7780562272907667,0.07079154013063,0.5544654633278682,1.4234299062527591,1.4677102448229198,-137.61979370221044,35.36228001086225,29.50179660698832,0.3872308359066451,1.4395511040904705,-0.0599478217142327,0.8443721640876447,0.4449074326334181,1.061482881676813,-161.22338253608189,2.643309776110495,0.4683181824534968,0.4617836540156579,0.4217484067851491,0.2188295384891752,0.6145128417534735,0.5480643265488052,0.3708703955475441,-165.97496573304844,7.968935458385743,17.93321245612763,0.441399280944907,0.0878064054753368,0.8550964293918487,0.6638918495092696,0.7091912685587337,0.6045908496183025
0.91,-361.5919782588551,60.952806171084745,41.15769432683121,0.420154550203379,0.7330200022963242,0.2476986696393012,0.0812263461649198,1.5688724100857414,1.845161364911644,-137.4279348873258,34.70758181668283,29.726307721977264,0.6036237892676719,1.1580735194277871,0.0854582731208402,0.8655174800379845,0.019032315985049,1.1461239242555918,-161.1506859962444,2.970432653712588,0.334668586522333,0.3229739840740798,0.0155329288261397,0.2523208976098639,0.3088035437017355,0.4585283345755729,0.698508490721552,-166.63229344946825,7.659273965521747,18.37148946459638,0.2455382562749516,0.1079718771945906,1.1271651983501827,0.6550948627456239,0.7008610692250662,0.6802336622084852
0.92,-360.6233034956836,60.485042799601416,42.455199805976726,0.4792545978095627,0.4337845251422517,-0.0031743209915486,0.3341337371364679,0.2771647099767597,0.8407529073650053,-137.30405064246742,33.63063057736391,30.001994340485854,0.2158610003288886,1.2401102967609183,0.1463679752466637,0.7206724787480407,0.0287115530936051,0.3847280427291699,-161.02591059584935,2.973915832526995,0.2179175845111739,0.2811224241181134,-0.0084861719246582,0.1080496071382582,0.0661696226148271,0.7473876964795466,0.7361676054084129,-167.04577247095523,7.721924401887453,18.695127441654204,0.4382569599338531,-0.1964519209630645,0.4919162167488831,0.2443573055209914,0.6661241049569797,1.0990052895569469
0.93,-359.5150555042287,59.7430226929494,43.624499624931815,0.2839334841055442,0.7078721313960558,-0.0598565080233642,0.9474228525793196,1.0371142249146723,0.7135754538633767,-137.35838913793808,32.50142904247285,30.02685509636717,-0.0719783567501735,0.7239910072693488,0.1101058475776263,0.2266898675736295,0.2461325087721817,1.1156078215482796,-161.06600196968478,2.836643486599,0.5308630245341738,0.494936772285673,-0.2720952501592463,0.2098078425664085,0.2027179912498969,0.4784605600037081,0.9108612587871932,-167.09509624020606,7.619515350549682,19.146717577763848,0.179020906817269,-0.0229475110024695,0.2047449252340189,0.4775742882728004,0.815204613508928,1.3007968811951458
0.94,-359.16231006532354,59.015075046160206,44.308000583239,0.3884625770675078,0.797581996523757,-0.1104177388640784,1.4681335221618954,0.4788010052474659,0.4985872858914552,-137.44313741779698,31.51802531191733,29.97976289608105,0.3988761589620446,0.7790085913836556,0.1551219199798947,0.3171576476689899,1.1493022597167282,1.4197098397987482,-161.3036366795975,3.2416336902072813,0.9776295507819484,0.4753060581428163,-0.0817653778931347,0.3967969890216488,0.0832894977749978,-0.0680192131207387,0.6643142115848008,-167.35425452846906,7.377944741389029,19.35179121438218,0.4949333050311809,-0.1276066585071505,0.2196130363444311,0.4330567039246622,0.3687489031266517,1.2711733772571925
0.95,-358.66176122771617,58.33547714171114,45.03556914281579,0.4979030021565723,0.9760560022984264,0.3186159743018409,1.0267655893698633,0.5860770778524118,2.3095813564622665,-137.07291843144714,30.54830990279459,30.7472431136194,0.7895925385702441,0.7703755946626758,0.0978891034436219,0.4540071241890901,0.8292896023914552,0.1695954988156072,-161.67714936236737,3.2864914876579725,1.3113770322576634,0.1085043596044743,0.0046036681541815,0.3002106867835244,0.268501763533011,0.5099728440252728,0.2402396478943255,-167.23711913479207,7.563304004999504,19.92761954607006,0.4875200370346452,0.0044993669734769,0.2187723272142435,0.6336156368705181,0.1886372687148043,1.429256199027031
0.96,-357.4972402855632,57.38127001376607,46.41860692074932,0.5117084795521873,1.0455281530214782,0.2953101221190533,0.3760961077483309,0.9823303658918298,0.7519032567250162,-136.95624147655013,29.633064207613334,31.431553682453814,0.5410749518532089,0.7757923106003072,0.1501232635543294,1.5487495433453071,0.1862458638534199,0.1722317217111744,-162.18179758232776,3.19547870863838,1.2949910975123415,0.1831893202948787,-0.0291041351173684,0.109073690041884,0.2726024488220128,0.6603126605741041,0.2478207995156575,-167.19317176605043,7.6212507261004925,20.21038062814146,0.5331283459488527,0.0166900279525936,0.1808839952843641,0.589230690949462,0.4867130886090656,1.1675065238205222
0.97,-356.35921950118563,56.47483704118488,48.01977311344659,0.4354266039964702,0.8054776213218626,0.3591251526790715,1.2458327742941082,0.0091787455264242,0.1730888506349507,-136.7257503923376,28.85653937866972,31.50212037281421,0.1150209762037789,0.8588759216951007,0.175798338034149,0.7754675102107813,0.5981510020085998,0.8920720709119269,-162.21016105259838,3.525798546684576,1.8750500920807025,0.331282353843464,0.0917301133538563,0.2430509886861073,0.2038521754101111,0.0858553914761817,0.4783225673040278,-166.72024257796937,7.801074555092203,20.66001067335689,0.496807696953873,-0.1352769178294324,0.5361905124575217,0.0154614429494272,0.5971413762795926,0.8804987456185455
0.98,-355.8019966576732,55.80340575280631,48.62221785775002,-0.0265202568328646,0.8292456307594596,0.3720786028667702,1.9100575506476607,0.9854445388154628,0.0027125034853398,-136.7165225761551,28.045937280724782,31.565098715963583,0.1064535055798734,0.7074226142578843,-0.0203808160156849,0.3573361034142241,1.0289042698420745,1.458977959768436,-161.95533868365564,3.582160321106128,2.378301350149805,0.5147562285792643,0.0875185602836567,0.0149106463309829,-0.1042377122012041,0.6695156854349327,0.7777746843761946,-166.1573808420091,7.561277310961081,21.143724091106524,0.4311966729140361,0.3310392057313215,0.5710359298516526,0.2210480254491352,0.1808394330828492,1.292338873406363
0.99,-356.05611438831886,55.03217867665269,48.9959180857056,0.1349378066205432,0.8510441210096771,0.2855307072616612,1.320661232219413,0.4008421073568635,0.1234609406058703,-136.49020340608573,27.34853334226098,31.840287241773087,0.0917235542382128,0.8637321664161826,-0.209211014302391,0.8774530640945992,-0.1262085738309465,0.7131173683087944,-161.6825618281096,3.796257426819574,2.8585694329548503,0.348304184712568,0.183331958722019,-0.1061051406181897,0.1734768561507893,0.8963848664266374,0.755320992364649,-165.6134697164963,7.634543915284836,21.51001596875312,0.4511022155678219,0.2138498049145122,0.5097252212801058,-0.1721172218419818,1.0271675700116871,2.4789368612815474
1.0,-356.03147055394845,54.009803984517546,49.17908688503918,0.0375207335579469,0.6227446401304197,0.1282305843518223,1.0674044031553096,1.199615588013858,0.2685076815894653,-136.42339238385057,26.35926386527723,31.87778716354148,0.2139926535474264,0.6926192017229946,-0.0651309569562337,0.9816423944154816,0.2150437111634567,0.7763105886631745,-162.07668229497588,3.9245648509852806,3.52596138622088,0.2254368956461271,-0.0971015738874316,0.581863987480447,0.4353410523542113,0.0874252202821417,1.1204054753928658,-165.07491831146606,7.481554256112051,21.87357224235417,0.3295760547723674,0.2396681715093294,0.8441697074538413,0.2432092737700247,1.462634932128569,2.508810382505472
1.01,-355.8652078300397,53.69666369443423,49.41985759096679,0.1003861214158925,0.4370227141636881,-0.0088336772187611,0.7062972485659783,1.323361881082525,0.0391017069863497,-136.6253302942448,25.64288405397172,32.06091002366522,0.2033349885156096,0.34954637224352,0.1463568449393054,0.6229871886302443,0.1391560728983875,1.0599014155971187,-162.6149961251615,4.084633858516214,3.617398410287414,0.0789924200871951,0.2094682398875664,0.5641854456088866,0.0927084900222574,0.4644248884385491,1.348298797475257,-163.6871297110941,7.631117452291488,22.383347451143408,0.7264105977977321,0.3782753977627486,0.7686528486831522,0.7233716525883943,0.2336693180215786,0.816321881460507
1.02,-355.37436622201744,53.239843368482006,49.94399970907919,0.0923541904264816,0.3343723147682781,0.2017170037136809,2.0996689711476333,1.137358654478321,0.7759984196988343,-136.6413863980487,25.56815870819305,32.372981129901106,0.4413952562337712,0.2627335784223961,-0.0709078476349946,0.4916597865053517,0.5137748371769546,2.599554571643302,-163.02035779552054,3.921026878270089,3.4834474057016185,0.0607292785070099,0.0526498810791733,0.3932506676695678,0.1057201297354072,0.0751586644419131,1.3545526829978105,-163.09819609854043,7.5543746777803396,22.949730823734875,0.6170628690957739,0.4260956237205243,0.7564597042356435,0.4507506963028203,0.1480611387637262,2.2568121616210157
1.03,-355.0462855686499,52.61914915163814,50.47821001194807,-0.1214568982070886,0.5892599376691109,0.2308619523742784,1.9092312459601448,0.8871267359173846,0.4893878700600715,-136.19847373005453,25.399010557171056,32.47700027060634,0.393853101020763,-0.0827906239271516,0.1751418258064933,1.3898433997307449,0.130424298426728,0.5771915398835038,-162.81308226980977,3.5818407073144902,4.014113459879991,0.2325226469096715,-0.1203678054517096,0.2900921303491534,0.0009418015574526,0.3914929932123354,1.199660233959147,-162.25579968542905,7.243576288830891,23.871495943951523,0.5870461374033247,0.6057605100114264,0.4019426311600701,0.2383486764737573,2.075950937729541,2.2281237879043343
1.04,-354.96237613819386,52.166534554012095,50.95577004961751,0.0302839653139018,0.3947719324431114,0.2396477960149883,1.379330535043391,0.3162008668144841,0.8222045128114146,-136.1061099763922,25.382447795803028,32.46648980526286,0.1773443358419631,0.6664903742528473,0.1972431342404099,2.2170386515140224,0.8884874606133266,-0.0876858997740715,-162.26075446645137,4.1858631519587215,4.307985842078631,0.2017963231703217,0.1201818266988424,0.2584220139707152,0.1153495527472765,0.2016840162693652,1.4863783462149902,-161.4418719350248,6.951865593487454,24.423142778391583,0.4270588712588493,0.621752315696976,0.4478337249382614,0.5950641514177429,1.30999469557084,1.3733420368251672
1.05,-354.7931484441453,52.05028756863232,51.06982184245359,-0.2653281464850481,0.0953775241158584,0.1913042412067374,1.0022504403689592,0.1343531657462696,0.6318520245167776,-136.30516479129162,24.85499166069265,32.39284872467105,0.2987460415997782,0.6600117020531198,0.2053323522840549,1.851515466471701,0.7600501749258821,0.6254807408595198,-162.03693913157397,3.872044953918661,4.3358743539762745,0.2465487678952976,0.0017266518722648,0.2627503926831073,0.247334653989829,0.4468598018988523,1.4072551419678614,-160.89119933407753,6.842591809229406,24.33303504872297,0.5771252021933346,0.3829141005630292,0.7155299214314164,0.4942348290512946,0.9799302450960652,1.5134952214552213
1.06,-354.6224126678124,52.1574609980365,51.11539197603029,-0.21717535006618,-0.0933160748178027,0.3381032034042726,0.4982982912399939,0.2631145520839962,0.7653251623783666,-136.2729881419577,24.568677571755643,32.34302051387014,0.1809443813932818,0.7559197545857591,-0.088686251164687,1.6008868402751253,0.7868337749716556,0.9328974604520184,-161.99991112817602,3.8924163092768,4.427230284394785,0.2699295248578151,0.1179126661979621,0.2796649461142523,0.6274220040596677,0.676394093263583,1.1966764031049435,-160.4801391778865,7.206747886782156,24.98380677647754,0.5444166533786288,0.2092756827999952,0.8904182649143672,0.3281981903039282,0.6824698827169102,1.502596681222342
1.07,-354.910617116284,52.106720549218906,51.23491987017308,0.1703766640030032,0.1249773655210182,0.3709699047833658,0.8182013336925985,0.1963709021122832,0.5093425779117852,-136.3053123123249,23.85957308889614,32.11731604442888,0.4266421824123459,0.675745423628378,0.1187472050456461,0.6839480477836538,1.0886011116687144,1.83169195404105,-161.73249270665187,3.9802372892778015,4.9848059524279895,0.3961754630845593,0.1399779966474312,0.3041370591246859,0.6421731354233363,0.7211633103804124,1.1925088799851418,-159.1154095162757,7.342205909250249,25.286123063334525,0.4890425522964488,0.3275660612535906,0.8922985934866517,0.697110399865885,0.8782443918753327,0.9450664276623644
1.08,-354.77147588958803,51.88212638257062,51.26411532476746,0.2739234049169424,0.2265191606840347,0.1936762217177617,1.5213473234476207,0.3389439193565426,0.02082034810863,-136.26311576089333,23.442996511938556,32.288267809113044,0.2982958506540429,0.2046837189347677,0.0303221004874994,1.06584635011799,1.3033237806653823,1.007064751219483,-160.87579656726462,3.8510630532564174,5.376615266289943,0.3951788940812457,0.1814895330301945,0.4301225460118595,0.4047206378671836,0.1361833224673726,2.2075782857743875,-158.24683406853225,7.301448768367926,25.528748627620764,0.3394857764306657,0.3185854664175481,0.8473830885162004,-0.0114702228391459,0.9431044678531536,1.2913521694499068
1.09,-354.48644094587144,52.174819698191286,51.95460231872027,0.0202082033062484,0.5541775802898966,0.6786326483322764,0.2509808935339874,1.075907017731302,0.5090038249153988,-136.13790957513453,23.178251784807923,32.43793406516071,0.3861371158050421,0.1189522452372755,-0.0295946449340338,1.9998696285787751,0.5123268902735236,-0.0082531605699604,-160.3445685402242,3.63058936619066,5.831681530264314,0.2395252111827352,0.1880393668682761,0.2628740738661742,0.7526099940102786,0.1391321152872678,2.3681393431871904,-157.14026885427808,7.310963522123612,25.86436465167548,0.179974122629496,0.3159680160439281,0.1330549398975662,-0.0277389131696233,0.0658063585917601,1.0989748792440048
1.1,-353.8119950363045,52.70766091419784,52.38112870391367,0.0381604293325467,0.3727996627572033,0.3143185762158518,1.101044065388178,0.9820353655234246,0.700993081246306,-135.94659571840492,23.19845880515451,32.20701187077005,0.0527591691528181,-0.0115991876619727,-0.0648102255809766,0.8712599197134964,0.6827809630238293,1.9142619713568132,-159.85983887345267,3.512149015266173,6.141966600429799,0.3368813008382431,0.0371338604861526,0.3364658447841687,0.0907387474340238,0.0352404822561277,1.3419254804651692,-157.13690069950425,6.775107267208373,26.126948092824307,0.4281255421040011,0.3767536323232919,0.1316675560308856,0.6211304382087469,0.3280458103680431,1.3096743029753724
1.11,-353.1913514257496,52.79364568373613,53.28039819359432,-0.1194325009600219,0.5394661759311887,0.1716655312637856,1.8650355496488105,0.672590265549876,0.8734545874536832,-135.92226629380323,23.33273490457907,32.0989243631216,0.2793875033835562,0.1814729443928953,-0.0739246904045789,0.3252226081941728,0.2930026281909095,3.189991424859663,-159.33277162271003,3.4371470090337968,6.795580031661884,0.5396825311173788,0.0034955919799577,0.3069010340883149,0.1504941838886043,0.003133924003218,1.0187421361958433,-157.5027943431298,6.113995937361231,26.51575433377537,0.4298050708205223,0.4086125778344484,0.2587240171569083,0.1962244537141626,1.3870327972594465,1.6346585758191925
1.12,-354.01224019222974,51.48992299150699,52.91335454191127,0.5475109600356377,1.248446835009409,-0.0090119366884394,2.663715784868649,0.383139644022723,0.413498369708171,-135.82013660916095,23.643141132555343,32.060869506995914,0.2853621324423908,-0.1819389003440232,0.074949047230196,0.1493015730381695,0.3194733778078404,3.227773911173921,-158.80278661836812,3.527278048214308,7.298940719431028,0.7023070837597327,0.0254007131726322,0.7402705885010882,0.1141120109739431,0.0921974163233746,1.0649272637765304,-158.23355951384735,5.597538486640599,26.91465856322688,0.3348389512606292,0.5635400636281458,0.4724982078312927,0.1180697154800225,2.284049687620989,1.9678665546367256
1.13,-354.4429321825872,50.93343741327456,52.96258723369271,0.1812322739343486,0.1897972251369269,0.1395864900874512,2.2214476568316788,0.3298465793096555,1.4085720435323297,-136.08899647748888,23.493780557646645,31.887638218029792,-0.0445438405348018,0.1357602171669663,0.0562492005432886,1.0651380474983518,0.7429116204482893,2.4362636944002687,-157.83234798316815,3.4769745416797524,7.727782284074488,0.4654833929198453,-0.0089351586891902,0.517534803818012,1.293296276034447,0.1501482716014064,2.4461719664620367,-158.90920527202437,4.914353026183141,27.435674031546377,0.565867641353607,0.340528145948938,0.4872466445734776,0.0759013335578276,2.2792603027811262,2.06038274452152
1.14,-354.75168806558975,50.87687829955517,53.002821069334566,0.1106040363479725,0.008834532218115,0.1985903266136492,2.2961445277889085,0.4732934444035492,0.9603830244534112,-135.9306899262125,24.190446734639565,31.48319425130648,0.3469541648175586,0.4594343260135732,0.092157967673895,0.9326642335211144,0.5829685978549637,2.250780793796423,-157.29149892586156,3.580691554088824,8.162625016161929,0.1945179875017337,-0.0182423236910646,0.2370394069195857,1.0545245361689763,0.8765242556771495,1.477367545499775,-158.50521369649368,4.4286794685409445,28.2527093230856,0.5709336290505072,0.5110934022492405,0.3537261190256281,0.2692851075959679,1.6146206568016763,2.0361496521505997
1.15,-354.5516443380319,51.09665141020809,53.15653584515558,-0.05074294625084,0.1256474299252491,0.1874499394893993,2.2230667166365152,0.1715513591327456,0.7158373290223019,-135.9689211413563,24.80995932951453,31.50290757301625,-0.04619094491949,0.5631700748865076,-0.0669745508010906,0.926384764467366,0.262820616573199,2.538418249269736,-157.04003606581944,3.494549040170828,8.382403105540979,0.3652612023938374,0.2368797677667719,0.4415731103342264,0.8017870689372975,0.8093586396627415,1.3104775165134384,-158.54150636414343,4.304104843364397,28.5976822400081,0.7699913601071808,0.4774112398657681,0.1879270896601956,0.0137656691808362,0.5180399140321975,1.4686548901115533
1.16,-354.3290742317069,51.28693102783172,53.11790626074895,-0.168323822434115,0.0661555402001644,0.0971657203177572,2.169621177577497,0.121381033895605,0.4507211118352791,-135.88971656546255,25.04890656118633,31.399330709105605,-0.0161861434885665,0.5417326974641281,0.004733098689675,0.8113154939102044,0.2404789379365402,2.13536819831102,-156.78128749221065,3.479551222284945,8.480728909787533,0.0604805202159988,-0.0431871139292372,0.1421475373710628,0.9366133679310648,0.2177696501748316,1.9410696287521516,-158.568560938991,3.3847171322619105,29.683896458846974,0.8295665464307018,0.575893168701482,0.6849856943988452,1.0282728815161324,1.3048839614429997,0.2315320940807057
1.17,-354.3864667865384,51.60977525500935,53.18495436462488,0.0988528182512283,0.3872901735153431,-0.0469504505694908,1.9217124753884127,0.130856889288568,0.7451347850224912,-135.99713086957408,25.159865504196627,31.430417731925008,-0.2424281626984906,0.3437866967878551,-0.0015702257970795,1.0822825414053527,0.4562326067896439,1.870167092985014,-156.54692644055342,3.484598201261876,8.311772220513665,0.1243100136166166,0.0492046647542202,0.2345837410743028,0.8184178569758537,0.4212621518131871,1.6898598976190582,-159.17495450133467,2.610700480491359,30.534228153615047,0.6388449757215601,0.2612918215526407,1.4632572060771187,1.1155356105815275,6.637489812326504,1.237484227317464
1.18,-354.5193744423484,51.7250400060068,53.48045667004246,0.2928533289387928,0.4364381513183999,0.2130060319632166,1.553838201302718,0.0996599414934392,0.2743390751805318,-136.16423834391816,25.73840111179271,31.49577549246682,0.2837935189539754,0.5195134509369584,0.1759876594440157,0.0978868508184505,0.6123833459868364,3.2372161254099923,-156.41198157315364,3.562144627704955,8.31846337553115,0.3115409727625157,-0.0277358884066443,0.1913641078719763,1.1124554008506669,0.5339380479569682,0.5901529837618643,-161.20754254689288,1.133515010951093,31.40407575504284,0.5847217356541718,0.0662985863291549,2.3727237911622865,0.7963418412718484,2.832956182317782,1.116270459636772
1.19,-354.6365827732876,52.27718812258764,53.52694220467341,0.1250832537162721,0.3471286055228046,0.0752837511421927,1.1519478303754438,0.0606166122209096,0.3503427020875255,-136.2903943414046,25.803230290058035,31.569659998388435,0.1123517717225426,0.2652608613837051,0.146496761653342,0.1380938667486956,0.2860842348149672,2.157407555536923,-156.07733463018485,3.557853588028487,7.959338787384109,0.2532294984858012,0.008282858313712,0.2362941211737659,0.5314132552522821,0.067114082940993,1.912047446253172,-163.61863222362,0.2529073216590671,31.76701491527439,0.199127972383668,0.2586319765844661,1.2110956254175496,1.8461890040747024,3.957631998597445,0.3298573461808206
1.2,-354.5174684738446,52.34054282500694,53.4711495221226,-0.1385502809120513,0.2865189543659398,-0.0485638346181642,1.272367044298456,0.0354222603403103,0.1936652273499987,-136.31273983074044,25.81474776872989,31.639370791477315,0.3628062006577794,0.1044197767305046,-0.0704714624563996,-0.0223041626907502,0.2264083788256982,1.4887530984989454,-155.74343984141876,3.845644072681497,7.92520664268923,0.4192821431167338,-0.0119641672718796,0.3812613243974362,0.4629017100031403,0.0915427610751469,1.9917564358044764,-163.8414216836705,0.4445768295482527,31.93924856293063,0.0995412421219679,0.3148183819012604,0.8181228738368274,1.764480481289736,2.3797023425263246,1.0537436833341547
1.21,-354.30499088386483,52.55770002312564,53.37967652021214,0.0278192854293639,0.3170804111328826,0.2166102550367118,1.3372883413803411,0.0149716966128389,0.1398229727838962,-136.2571858957381,25.762247786569848,31.389534031807592,0.1858552400420899,0.127973692028361,-0.0767335648414169,0.2535552642960383,0.0529620213817045,0.9709825557810792,-155.38820168457102,3.8903955852211256,7.686515008522142,0.2737713333345091,0.3052050643584487,0.2959305777605572,0.1586240803630551,0.0482868682916169,2.1531615947989264,-164.4823460403272,1.034039426703702,31.865547729786748,0.3303472835972912,0.035527576262177,0.3150397775925133,1.300951122202309,0.6791581237792921,2.030527946152733
1.22,-354.0525040153686,52.894519258799626,53.58737206421959,0.0245147316083759,0.2268294284189783,0.2006317787452198,0.8005128587322448,0.3938866060955201,0.4256924864767851,-136.4891201834401,25.47239661179332,31.6392776250108,0.0582008856456176,0.1726461626351027,0.1291946411900753,0.2600246193953304,-0.1081906066578498,0.1374350500680305,-155.39393147583596,4.002850844535491,7.176335367368645,0.2541234038416117,0.1213347360377413,0.3105748153448227,0.4518839173056554,0.488784587313411,1.6692399620899026,-163.7142754838586,0.413081305841055,32.480261606832975,0.5058023396618694,0.093273641715033,0.5974259537578978,0.0896624348950008,1.217012809740724,0.170393233618439
1.23,-354.1012976321955,53.20217466496785,53.69255016770335,-0.0600709248222122,0.2438293056781537,0.0833579938153332,0.329581106147533,0.0117555513151236,0.0138121441990187,-136.58722744014702,25.35952804275698,31.5243685826895,0.0787290873800747,0.6099540301977248,0.2604501427235025,0.0422783102074186,0.1998174856415775,0.1514152827351138,-154.86360574853433,4.10910316818684,6.909439475110651,0.4208573899557976,-0.048385601876474,0.3005064715655137,0.6661029961364103,0.5972854735810746,1.7805181714085478,-163.28993987369336,0.2953542787541999,32.77296993102629,0.4805477341915616,-0.0988709425678353,0.5656296150479003,0.9422885467208532,0.492466707585576,0.5233325669372039
1.24,-353.81170603538146,53.40664059889189,53.66437467372513,-0.0103498244523542,0.2087804744214815,-0.0739378489092149,0.0541836531327945,0.0428920926726989,0.2259876121261013,-136.50144617005006,24.86390839437572,31.633319370366653,-0.0274278718305864,0.167895447439676,-0.072351133681898,0.1743725100999705,-0.0097840884108704,0.4993786465016821,-155.27770112434345,4.277684388252559,6.337909079514417,0.4122630927739411,0.2205842182596976,0.1820214064988376,0.4976865091604229,0.0543872249113041,2.0330745735829168,-162.86403616942192,0.351168245269191,33.581631625889386,0.2523364779504581,0.2083318623453343,0.1201974154503322,1.88770092619811,0.3480785592276015,0.8419685275884481
1.25,-353.61131003568585,53.53563911469487,53.989886633394526,-0.0394128371819876,-0.0267211961243027,0.153063734642364,0.3178540468029558,0.1698447448995306,0.3960734437706657,-136.8170252796023,24.474295390060767,31.545686684587817,0.0154691329892334,0.4349066155956482,-0.1516635838210498,0.0381206771284709,0.1709620709507543,1.2196702809440647,-154.9578311183123,4.111709907860911,5.697104249373667,0.4427804854061167,-0.0345210029015449,0.1039823019364938,0.928493315962302,0.9850664370231504,0.5900579669223925,-162.47051237432038,0.1339280923958503,33.93588165620013,0.3244118926217145,0.1175528460618391,0.3028252579324338,0.7411901023010484,1.184462453035247,0.3781500993127385
1.26,-353.7644770718352,53.39209967043538,53.85728080790625,0.0547867279263155,0.0895142956292139,-0.0132229303816169,-0.0408163312823968,0.0486432049232462,-0.1057204096530188,-136.8601755483559,24.226544445177176,31.43422441860349,0.0417107267293867,0.2488734860849838,0.0868315321707874,0.3474883608151955,0.6276305727458178,0.1695280643281501,-154.8180621744726,4.033136825726302,5.3136713491610825,0.4464049148501132,-0.1017923632021563,0.2214841679573362,1.147052237133863,0.4795919495807466,1.0744289355405765,-162.1289512712194,0.0452617569528449,34.30605573323153,0.34769399655936,0.0942317584465623,0.2558341252043778,0.2858927043627806,1.7114101190593434,0.3527637774677379
1.27,-353.59439816661364,53.38429703816215,53.795015528387474,0.0076226810437786,0.0819098936340002,-0.0387951551865628,0.2729081601665752,0.1833473557148346,-0.0262302913943462,-137.01204255858238,24.28570961374831,31.47577996774641,-0.1919977277190586,0.1031845820914847,0.0591592708575698,0.3129028118833784,0.4797132929546672,0.0049707329131604,-154.68052851531857,4.617578801277974,4.591098680539529,0.4858896217294418,0.5560281558845387,0.2481479789079023,1.4822238136318449,1.8531719168218497,0.7514443073298493,-161.76800958197538,0.3437256927608787,34.49972773374994,0.2710961296457901,0.015647327135251,0.3556685928769432,0.4018584352913164,0.272050932203684,1.3357145752841997
1.28,-353.5086070495318,53.28717148678763,53.92241336168559,0.1221449357327395,0.1949543581931848,-0.0586004554381625,0.1942165019280904,0.0964467282033404,-0.0089604527650516,-136.9206074445309,23.80054197938832,31.344106945979263,0.0627613541421117,0.3663999423549913,0.1127721555506615,0.295200453377994,0.2394751122426841,0.4906817841770524,-154.540578977331,5.463096446403834,4.368909365837324,0.2091443273611282,0.6826359227237725,-0.0318890130811294,1.0418019036903443,1.5186778992555745,0.2687772420191261,-161.43362666963466,0.5037908021982413,34.978927158278275,0.2651380040439614,-0.0737853827152881,0.2287173490615009,0.2343614113941589,-0.010812960732387,2.129679940346357
1.29,-353.7095426325649,53.22415371759336,53.84619976260831,0.113520762688102,0.3701995788808599,0.1017277641394012,0.5028024189889835,0.2932596875020306,0.2445094510231623,-137.22101266764312,23.629823223047158,31.39462620449525,0.4246139243075005,0.5515900546226908,0.1848740769149379,0.1939084263961596,-0.0860961352270657,0.5041798411584146,-155.08558827336117,5.473588470483531,3.824413971322531,0.4330280865537675,0.0740918134566688,0.6126400434991652,1.0796599765102386,2.8176439428495352,0.0396148075453158,-161.35534259603094,0.6958166685535456,35.47868493834084,0.4092515950761628,0.0820911239394889,0.1686723385009482,0.2873203849561338,0.3740482768327178,1.6264404031642972
1.3,-353.78864703204346,53.09822855803479,53.76453860409298,0.1388286224510993,0.52902375813825,0.1002730494289175,0.9173963828972428,0.1879876473708122,0.2840512915249026,-137.23689051711725,23.139246318742963,31.449076670887088,0.1080884469388558,0.2058655190199414,0.2355439953034865,-0.1230081124949642,0.2606953218589191,1.0965618903721783,-156.22862344974797,5.502367543061645,3.795856562674496,0.024987264916053,0.0485939178659801,1.1610152388741954,0.3628108346181355,0.4462975407787551,0.8116529217606887,-161.60228775919256,0.8191989887087125,35.96966956687143,0.7286595412051778,0.0585046926434336,-0.152815637356545,0.3482372922451572,0.4958480073484398,0.3057195720265898
1.31,-354.06083060692,52.60741344810413,53.77577251701975,0.1816764753543657,0.5229308319001591,-0.0475557277449649,1.286120365656177,0.0523770973190306,0.8006157587285182,-137.307916111429,22.8486653002076,31.371978061839407,0.1199144314452918,0.3491126230785304,0.1364188271009846,0.1757768482548187,0.3779513681082295,1.4981500424554235,-157.2652817114783,5.278454348849151,3.700428487210121,0.0605656496189272,0.0981432921853146,1.0804537499470204,1.0598610685849843,2.3155718188674004,0.2213298552868824,-161.50586884498753,0.8688019842300482,36.48320682121419,0.3222959872952525,0.1055892680940166,-0.1254181117465312,0.5860079418338824,0.8342484930314725,0.2936505717271273
1.32,-354.47711517453456,52.14546538286081,53.84074181390088,0.0299309904909329,0.4282177389965888,-0.0308857342174591,1.030909932083396,0.0287682115136752,0.1827967222960632,-137.37170384870234,22.73991495397004,31.27156337829156,-0.0014230968960536,0.4343844862500669,0.1199572316502671,0.3175865916938283,0.2797544360429443,0.7443265975736472,-157.3839154077106,5.1538791260498185,3.45615770202267,0.1218739614681266,0.195570207872795,0.5141686751996454,0.7716325334791148,1.581690635081606,0.922491620047634,-161.34941329295745,0.5912511501553968,36.80213109356949,0.2867865154174844,0.0404520957643607,0.1401012193033731,0.9154385489567484,0.3191318265747555,0.9233721840996622
1.33,-354.1386943338088,51.89221107667416,53.97429713427725,-0.1006162513002165,0.2118757736473384,0.2049805794286141,0.6109750860836126,0.069896089393796,-0.0206793730886546,-137.51405667787955,21.7533658494922,31.311166690188298,0.2156879181916496,0.5594495673616746,0.1638884260761755,0.9963383305590408,0.0055551219488596,0.0721575366915034,-158.159097282824,4.888774208567434,3.6651580231124967,0.0725812417559121,0.1407220092342913,0.2901655169915537,0.2792716053647873,0.9410429231651736,1.2142436029350483,-161.68417603467978,0.8232877931889736,37.4187369132094,0.4004689967495441,0.2624401787248865,0.0777390323246715,0.8033119763398516,0.5098442894689441,1.6127360155767143
1.34,-354.14007225572226,51.50084801707496,53.89723070175015,0.1128219854292171,0.303758034569336,-0.0317836120804708,0.6690695895871233,0.1057869353684011,0.0332522747873599,-137.74768467480365,21.04937685479004,31.36780341035988,-0.1456609506462858,0.5683254182272718,-0.1615537211641685,0.44806811697463,0.1280047865718868,1.122546619361022,-157.7698736014854,5.034898615586825,3.3120263827800467,0.0507389268703674,0.2024395853631887,0.5754941163062388,0.2793815923933147,0.1807089416313553,0.8416402320623309,-161.53747396893428,0.9075057653682423,38.08864130123205,0.8013107931261229,0.4400954215695122,0.0421561462855295,0.4749541908969253,0.8771493833341396,2.253848676737252
1.35,-354.16369683929906,51.41473833655054,53.910480627762766,0.2532826309307444,0.4691015509591011,0.0134679042669346,1.069244635761447,0.0690508855392418,0.3089539777869526,-137.6993958845606,20.699859095418727,31.135665825813145,-0.0020174425071893,0.5653512686462766,0.1450177953231763,0.2430184287571061,0.3435563391944822,1.906013802909975,-157.47558956209505,4.969710145904406,3.4600697786477843,0.0731435918436601,0.0062261839629335,0.3934893583310191,0.2082955312785139,0.1873475709660338,0.9529873857083144,-161.89956452313334,1.0235439639943271,38.51233450228465,1.009124439775347,0.1839762689589812,0.1209270813313285,0.5195331951261275,1.2049892450577782,1.8791834061081087
1.36,-353.9949295734636,51.26832380211136,53.94460085513852,-0.0701275485527686,0.1738512277163141,0.0762502907793551,1.4289327089124462,0.3901766891951462,0.5099117905006446,-137.54796480535782,20.33720682686733,31.38815833110664,0.0644241926645732,0.4903210661115772,0.0037720902173007,0.0230163765597873,0.6262459848939376,2.751094975905097,-157.2750622947754,4.582787739446714,3.224820959835621,0.1465815544477648,0.2310041839872401,0.4419864379711388,0.12507264568296,0.3259772199367496,1.1963086581305098,-161.7923966996295,1.2342246702751285,38.85909980989085,0.8784107339064147,0.1861156068210992,0.0547664663319975,0.3550157849644123,1.3682847615518303,1.7231799192415207
1.37,-354.48694926012786,50.66114867784638,53.844128045442034,0.1087355318846984,0.6449822877993375,-0.0520200998477483,1.3394909810172535,0.0189912826266674,0.7775619847662552,-137.78007762070237,19.6039694407142,31.150593173480186,0.0967771234074532,0.5879858836504892,0.0275065990046243,0.3155481884987818,0.5152078802268093,1.303969532049832,-156.603818289068,4.4368004799586105,3.1029802945800453,0.236439835326665,0.4870841075980077,0.278622357469744,0.899051657525184,1.0804052140738194,1.2242790981792622,-161.53489289348286,1.5889974805810478,40.219052624168775,0.966068917956405,0.0446485869891799,0.3740817576713335,1.6915866518805704,2.195667853626431,2.066150588912372
1.38,-354.5340146580023,50.19171983382379,53.81632133125634,0.2370302712740204,0.5064381659802999,0.0234802478142181,0.8183120302823417,0.1218315245097915,0.3737248272118524,-137.70734426377305,18.91768356512383,31.04173830543578,0.0570216803689613,0.5535691902393285,0.092167458928528,0.7111055466963677,0.580498577377774,0.0957413572849776,-156.13029180631742,4.033871552656349,2.8280335467358952,0.1547761463171131,0.0956520251018632,0.1976981199952312,1.1828786326564744,-0.0389696448101892,0.6134605296277497,-161.34299182548222,1.683209725821224,40.75149791752988,1.0948750294060234,0.2934862517113549,0.1908599525916529,0.0474402792549308,0.2096610468644138,1.9692703523807027
1.39,-354.6252121407357,49.79950863875488,53.60477185191117,0.2064256823988291,0.1689781517296723,-0.0115545355289166,0.4987257529741723,0.2941338500474824,0.3291832463513226,-137.76892942420287,18.18246377838107,31.04926603378505,-0.0355675964867675,0.4455254786586455,-0.0041465117452549,0.5430719188752288,0.4590262439844536,0.471892718982407,-156.1715013306552,3.829910791934567,2.810790740533824,0.1877667772062736,0.2288198817263297,0.2224769381914766,1.1128320024251863,0.1497604304673696,0.8085600619077999,-160.96435728663675,2.1237084353654967,42.12604012869628,1.1683601695298018,0.3537781517979842,-0.0984800960299801,0.4628619131388695,2.8744600269636584,1.4944802799557586
1.4,-354.7782966391071,49.733626490365616,53.64520325769252,0.0514979473694269,0.4214372918570053,-0.1787013363601889,0.6962643490504246,0.1340478791779623,0.2188801821050884,-138.00452013637204,17.883168150293834,31.16989093579752,0.0939727906305944,0.3640390665614484,0.0172417883172665,0.5745620749667841,0.111149772240031,0.629911088053615,-155.7106957923366,3.5049271551813965,2.659812423524071,0.2766408806738245,0.3790812438050592,0.2027311837417188,0.2454271067931553,0.4440581657609339,1.4883972032232264,-161.00999966899536,2.328094181713133,43.16220174458201,1.3782934506769298,0.1267606112333016,0.2967036030501757,0.0570426573573202,4.027531164713619,1.9710654473635596
1.41,-355.0006252107496,49.55015038457566,53.69273988174927,0.0265640433521396,0.3650350791063053,0.1743023836759686,0.73465281807417,0.1466564355387034,0.0950458246993648,-137.66634925815015,17.66172902007659,31.063370417558207,-0.0257909669605371,0.3597531662944703,0.0041889022280668,0.7714776193096805,0.189300485422866,0.6371049375028137,-155.6012634175437,3.1987302545127623,2.2547530966949627,0.2518541475572697,0.6514889671565733,0.0543392254195684,0.7813714093847245,0.0094173827223885,0.4017772033792583,-160.62171457312365,2.7614679572424774,44.82588591437783,1.559694848823422,0.1555136548664204,1.0203566853671762,0.5249255331024241,-0.0586546238018335,2.170960692606442
1.42,-354.8462361393496,49.25845336014741,53.61747662335611,0.0003700027413053,0.1437579029817961,0.0926834599862815,0.850682255488417,0.0204352124225606,0.2650262183002079,-137.9516847736671,17.644156461509596,31.21198408416612,-0.0747497638451901,0.2085922354049441,0.1015112476552883,0.835317497131625,0.2504715824798255,0.8826129639150642,-155.52608121618775,2.8651227640251355,2.0821018003033083,0.2372089699226713,0.2375169760622725,0.2048875967444276,1.552833315489363,0.7172193790220542,0.7307491537128632,-159.6988519739584,3.561178883813852,46.21921911888583,1.4475347268376224,0.0366463258932345,0.7077777015590161,0.7844917286994404,0.8023636186308133,1.4242831085465293
1.43,-354.8615408123039,48.95858234365924,53.54080573316637,0.0458568747657345,0.1219909061804822,0.0651640476826133,0.9306535325573216,0.2182312480041004,0.0917716483665566,-137.95337022607873,17.592684757468383,31.209845458849788,0.1091978524425223,0.3228468621550049,0.1978919376316939,0.8642676977286478,0.235032483226167,1.3241018819281094,-155.2633760230241,2.739796562915602,2.0357103635618308,0.2481932629832025,0.2499149655483667,0.0610628421082537,1.018237244313429,1.662231837395955,0.8543384659041613,-158.8839126987474,4.241931425029618,47.75736780863326,1.3065239973828329,-0.1211158082964572,0.5036751856908275,1.357139728008668,1.925852451924116,0.768267205168668
1.44,-354.9880945073015,49.08122055961455,53.41935525525381,0.0629174341468286,0.1474181432289742,0.2080484464104459,1.2029702294537,0.3106286181258819,-0.0346497681355112,-138.31201677067935,17.822388882083903,31.193263511729132,0.3033031992728948,0.4716638250272009,0.2291056769918645,0.602181688657771,0.1511734836312431,1.4341037093697877,-155.2036363541538,2.8442565681649303,2.066675338652264,0.098225767628065,0.0367170981945337,0.0189677321226666,0.4770369745333349,2.791335116201016,1.3054362469074985,-158.4032765196009,4.7999540587803935,49.31342713440603,1.7147445908047974,0.1491736684633868,0.4081516294333223,0.2007232301393514,1.980851721660164,1.5945664173849912
1.45,-355.25266088147794,48.921649793571085,53.47772166092268,0.1196573409060589,0.1819476051564995,-0.0110040385494012,1.3812972045662164,0.0672376925565528,0.0604073682034991,-138.35823828376718,18.149035465028536,31.37248340660509,0.1426790520454376,-0.0709901156805103,-0.0053791401272036,0.6994408547817046,0.0304396920333292,1.1907603488269438,-155.557481295935,2.540714224856073,1.841216230215715,-0.1655084233869878,0.0814991644621433,0.7761172448057826,1.010011772515956,1.5317190087363288,2.497100941286781,-157.39515245187843,4.5845701592517365,51.16925147522706,1.7576978543516026,0.2868402298547634,0.457019092172651,0.282710325034976,1.1425641568177494,1.4409545808630468
1.46,-355.5882679591628,48.40551823662735,52.92312363766639,0.1043962650563044,0.3092475111812234,0.1126632808152719,1.4535279008105322,0.139274133820921,0.2931459515468854,-138.38378588285366,18.347978312343415,31.694134055585973,0.1290506196890805,0.2289301075381253,0.0658095211320239,0.8214796289980184,0.2962161299508091,1.3888522092066529,-156.48057500864866,2.4739866919239804,2.037503716963878,-0.0583728332704043,0.4814782037322376,0.831996709803095,0.2381981882540644,1.2944926716027616,1.739297498650054,-156.8160016891859,5.063987404930511,52.95563567274455,1.4280832376036716,0.1459568204127717,0.6441773682095719,0.5646821081090254,1.3437993102893724,1.2034077138552304
1.47,-355.6443321512614,48.203937417288174,52.93847941076283,0.2777624300894982,0.0039029837374506,0.2286702490693789,1.0090041723258825,0.1334329942788341,0.1110760638562579,-138.27891653973097,18.50956494408561,31.24420707371213,0.280398811905062,0.3671392406898249,0.0548300131068038,0.6944647238430258,0.1905106235350634,0.851465373693347,-157.06001277257914,1.856745433106044,2.17421783571098,0.063761365088221,0.3844394277081299,0.4946051343875956,0.0566329470301567,1.146007213251226,1.7146615939506684,-155.66307751324402,5.639688960587202,54.63900187540028,1.5497950119391397,0.139303651348801,0.5650047651005221,0.8513094332986958,0.1991865604229107,1.4793282570711286
1.48,-356.0837098831629,48.38659276003659,52.83573604364467,0.0061731312502588,-0.0411125102655765,0.1318028460695495,1.5132833833248585,-0.0054393974185409,0.1534554709520059,-138.4872075864658,19.071654877391744,31.08357063133735,0.0378537145801827,0.4762911661344622,-0.1514698378645487,0.9911084799925756,0.3904476781343433,0.7483384161257904,-157.50203906027258,1.5613419626865574,2.127740148098617,0.0101561190789549,0.2954896865228398,-0.065878949265651,0.3692153463835817,0.0527064436317433,1.8564757473136129,-155.00466312570643,6.057874918187997,56.30653245594237,1.5620457673471235,0.2397610032224911,0.7289274274468349,0.7977666790353479,0.9816384545365212,1.3218274747872103
1.49,-355.96585301429667,48.740202361903854,52.779547804215646,0.036467351276321,0.2653161338264654,0.002931573050797,1.243491228120902,-0.0400094944913135,0.1909245827106921,-138.1266369768722,19.532198349361853,31.025121730887804,-0.0650307781796427,0.5225449384615598,0.0381282481618686,0.9123880834719948,0.5859375921376406,0.752701269072974,-157.2783533586333,1.122134491246489,2.1065052579547863,0.1843159158996015,0.377250378025779,0.0556591390763449,0.4892007421080815,0.1294359382157566,2.000333904497986,-153.6554553748172,6.72303209914613,57.83163581802638,1.5528023129017186,0.2500206264060313,0.8136283457644303,0.1783558950937455,1.7816666241974766,1.5270231257376174
1.5,-355.7122793408017,48.89414937668077,52.76737958554357,-0.0460727823140309,-0.080283154972839,0.0749641022715725,0.9598586597992278,-0.1259360124582559,0.46997066877409,-138.42216890975385,19.872346310257377,31.169733834150875,0.1658050920573903,0.3856927933241848,0.1353629182923859,0.5649383768096946,0.4167709261321943,0.7628057917542677,-157.26076437856142,0.9612422541726612,2.423039905584321,0.3821521068716001,0.2579710952656607,0.1864057599074365,0.3671595230889372,0.466967469184798,2.2733522154487487,-152.95818732249768,7.161796290156334,58.72841817062347,1.5010116873005004,0.1831403527018104,0.71864381018539,0.5314485562702332,1.2205216338332368,1.065851605335152
1.51,-355.65579271217393,49.22271609722375,52.72608566863679,0.0816182370069291,0.1684135706006545,0.0033743458435242,0.9388596561642376,-0.0162955657036488,0.5037319008741686,-138.04526283065306,20.05235680401578,30.828550713393508,0.0857660024409106,0.4319304671102699,0.1425352398858439,0.6927324012166537,0.564845380850492,0.7602023825559866,-157.30235880062068,0.7959233767188161,2.218292249251953,0.1351290073135196,0.1717889563718547,0.2710081689187283,0.1820013056246792,0.5411149822164365,2.7580081727944865,-152.5092803713893,7.477943430122513,59.36832439258426,1.532940899479757,0.1580381532840259,0.9242364720384202,1.1177647621377282,0.4477840372873,0.56872207247499
1.52,-355.7570395993927,49.38468109938067,52.66903917626577,-0.0446641553652703,0.0957900270843671,0.331877382594171,1.3505580092245402,0.4909363827630796,0.3001120356340879,-138.4221004160205,20.809936610311865,30.643856504708307,0.2101088058108928,0.6792336693570186,-0.1643814523353378,0.5270666563834865,0.3864301393853113,0.96200866655504,-157.17527069521543,0.578805043910474,2.5375499153814114,0.2639557212700151,0.1559117227182279,0.0308172929104808,0.2585598582327404,0.1635649978624064,1.9769124530502893,-151.40068772063566,7.960885136694785,61.05252870127254,1.396756512527383,0.4580089969626228,0.8895574797983749,1.0518639455095578,0.3180699881620252,0.866050419268842
1.53,-356.1442845944296,49.49566965024831,52.17522576441128,0.1718051698739931,0.1019594558929136,0.2954309517968657,1.6958330804355126,0.4100483020473545,-0.056908623142639,-138.38189310213647,21.458883594354965,30.591059497100865,0.1681538528279985,0.5633640245993978,-0.1545277404389541,0.4636183038030506,0.2121921630437908,0.6713656577029516,-157.19737762667634,0.1001304144225767,2.7650555405141426,0.2040867148077775,0.4551441260359063,0.2631344229082559,0.3291825336021759,0.5990598956183232,0.7774798925322719,-150.25965196126953,8.511560760636286,62.47124009985184,1.428902981172811,0.3826607425081925,0.7351169944220552,0.8690996029568888,1.268743116760041,1.5237116522628305
1.54,-356.5484507971888,49.687399454525874,51.85535717000388,0.1309762304149535,0.4749601399209707,0.0772345750333828,1.358528542026893,0.0640003815505707,0.3117047409520794,-138.16211200416578,21.88562728962897,30.462293068333977,0.0052793254115953,0.5771651999851212,0.2180950070320581,1.1779352412869593,0.6277655320206562,0.8533855918610335,-157.21164325596837,0.4268682903250154,3.2973931686145894,0.2474814846534286,0.3322396064656766,0.203895786679642,0.0789327189865318,-0.0109137170550645,0.5940847490288582,-149.33952358541816,9.006276234996449,64.04111840248689,1.3728553094517608,0.2665281848320155,0.868604149661873,0.5985104852741955,1.9738055036086108,1.9096587078044276
1.55,-357.306898943837,50.32827979207699,51.56686438441759,0.1474193893857916,0.5509941572848605,0.0248922978442244,0.9985636643970222,0.1651024872351327,0.3405959759663259,-137.96970675742193,22.641915310771235,30.77276629064729,-0.0240849528205493,0.6731728803742393,0.1662406586779154,0.6795511261992548,0.1221779520723076,0.8593336263736965,-157.43667307916266,0.7304210560517397,3.5782777847567377,0.1250047362330952,0.2500036121116053,0.0381421752805775,0.4904579989467548,0.3884613470339738,2.253041574606942,-148.05724534260824,9.906840444779682,65.7258911544632,1.5869748454972212,0.3293845324658567,1.0512484087402818,0.5900371911719836,0.1088154405097803,1.1094819858112264
1.56,-357.1489811693454,50.92672697113157,51.33295877344248,0.1210040252118271,0.6534841198716996,0.2293642267065795,1.3243043068238491,0.1982484336113031,0.1075878771209049,-137.94818299980923,23.639985295151565,30.602698696028277,0.1649438921596726,0.9022754576628768,0.1037024111972313,0.7683392826073298,0.118650475792407,0.6734863532744938,-157.3250211802893,0.9258133347534494,3.5201449162627827,0.1692511015513876,0.265855486233754,-0.1529967018198633,0.1903088362364522,-0.0275926068984966,1.975344457316872,-146.7469169231041,10.464160530832984,67.09778663803807,1.548193799927254,0.353077170276154,0.7402501624312241,0.3560854347479937,1.4085336071396577,1.0344454141674175
1.57,-357.3284690097804,51.803448596769705,51.031970744518624,-0.1281026086552371,0.9736551947752552,0.3986000619939586,1.8598870817215851,0.2994379664601152,0.6730793146276255,-137.9400770004184,24.42745053412421,30.64707826392172,0.1278787787651105,0.780150553840246,0.1915565865079468,1.0272701283708257,0.4626855674090497,0.5633848903495549,-157.30532132239654,1.3774682950759929,3.7381173284907616,0.0794776176024565,0.4262622167819737,0.093987736994598,0.3331065683220934,0.2265384124784179,1.2068966659369198,-146.20255336095508,10.611534238525762,68.94485122513433,1.5768920779749271,0.2797187768980546,0.7550551273521056,0.4211316014283472,2.7031947992560585,0.6140625785753746
1.58,-357.5246354657523,52.78815551465968,50.615901275984,0.0597457196137928,1.0228417078158016,0.2500450504426205,1.4288385291499883,0.2296302154664423,0.1248246712731211,-137.83287767083368,25.45216165217756,30.846858474768656,0.1752518242601188,0.9071864674913954,-0.1712674391697264,1.2321529128965738,0.279733922844618,0.2514960927876312,-157.2003374781413,1.424264049480222,3.874147361363372,0.3566462772688155,0.2339602243951361,-0.0122911475797525,0.1974431731651037,1.434980831521062,1.1715058657851545,-144.1479988570129,11.6718120439736,70.65685158747044,1.7435157098787917,0.6504585873156606,0.7774077361099516,0.4142618777180076,0.7966713720135846,1.0616600462130812
1.59,-357.6673812438174,54.22037095794679,49.76567955818821,0.0603765070206195,1.2347809846238078,0.1126726581979586,1.087668952814934,0.2310477204104924,0.4651057555423731,-137.64504835286678,26.770607165441007,31.02669792100623,0.0828911543290851,1.1126562179502593,0.2788980697802267,0.93553478784669,0.157052428757526,0.7946344383016749,-157.1837770173202,1.7683558141065918,4.237906585416529,0.3237830194265216,0.3347304654477611,-0.161675705821008,0.5022867212337818,1.1254780049422792,1.9986066454466032,-143.0109641073001,12.234529120482271,71.77161332555949,1.4097391049247832,0.5971346854302672,0.6716421373870216,0.570307088437981,-0.1207258541327104,0.6992919794848793
1.6,-357.55167421435755,55.20872694260408,49.34630315584072,0.0784316733801746,1.2076734445014985,0.1046773759848658,1.77142482009465,-0.0068453109442058,0.4144364036918763,-137.58635421459417,28.07389487621183,31.31785377568426,0.1855455776971984,1.3710543243159583,0.0270233281252723,0.8262863661382736,0.2403964050567084,1.0690681721221356,-157.13759075197828,2.511122698907796,4.52564075744258,0.3567511336029167,0.5836403386720894,0.2697046592371548,1.0176585440826769,1.141038580296275,1.184054410332802,-142.11269533461044,12.319919218957814,72.7385227028515,1.6341185310790354,0.3339307313683918,0.7010927118738858,0.6068921657346172,2.7082383395387097,0.9085761416152386
1.61,-357.760392898339,56.72082511031097,48.681469040966206,0.0682374621166131,1.1148797836550797,0.0147412289436411,1.4358863870696088,0.3352319558462935,1.0071350310425164,-137.29775881160396,29.58390687007274,31.329535815291344,0.112431621544182,1.212244450906186,0.0283646973336264,1.3667355432339727,0.7112758713283376,0.5756033605230808,-156.7054884482101,2.662994270393354,4.646272196038186,0.2406408366392136,0.3489305973510743,0.3405106296527289,1.3456988585160483,1.6451390022729502,0.4157156677758959,-140.72035625285378,13.054173045384733,74.3286438977533,1.8116646041954572,0.5095873712539553,1.1605401742897807,0.3167221270782539,2.210774321989833,0.6399838701732677
1.62,-357.98969963715274,58.24467344873331,47.90828231061114,0.0838600194284766,1.531606865448178,0.2661087883798164,1.2476393635486924,0.4585233984383879,0.8524360332628942,-137.12766600195002,30.67794668893381,31.18616256824574,0.2868307413564287,1.3910654825691842,0.1365637928989695,1.2253914129977106,0.3104583382642992,0.2507150983706385,-156.4114350468479,2.818273767064454,4.96220974452773,0.3904796463799274,-0.0092045386945422,0.217196595448359,0.5682517824606607,2.345016900707548,0.980489136170684,-138.7999428125212,14.081539911705423,76.2041683895046,1.7220500218959671,0.2368984541581,1.1645573085574257,0.922330960917736,0.3537261855084782,0.7782851006502076
1.63,-357.830499644575,59.74985305555987,47.3190719481567,0.0566608299274711,1.6404293438342192,0.3201786883810505,1.233440606690431,0.3723182421875761,0.6287888979812786,-137.03919798650995,32.465294859312536,31.061866890035944,-0.0614579744444474,1.3906349714272592,0.0636919362618943,0.8023873312895365,0.160158172553589,0.0737781126570719,-156.32812179797287,3.0899470367044706,5.294866469771343,0.2353914058449169,0.0223940992976331,0.07287947818153,0.2049765844926868,0.0799691613577762,2.011811680032038,-136.80143686987847,15.40721699938855,77.9309122180396,1.5886154648042707,0.1328490627823013,1.0921968705746623,0.442790953560355,0.8288236411358458,0.3380062183111058
1.64,-357.67884758270213,61.26272536713192,46.441150309506085,0.1652082277160447,1.5500594779748569,-0.0100461055246054,0.8616138242901817,0.0981789375037917,0.8159949848644351,-136.86759065538095,34.100094061309775,31.10245158207253,0.1170569758949208,1.5487144816832683,0.2200066021014869,0.7794754946375371,0.6437801500145919,0.9974929039169392,-156.52864615659578,3.4915466800549093,5.720404279266031,0.1536750686181778,0.318541341620104,0.462248828972196,0.0015231920562002,0.1799999470912338,1.3215755212669154,-134.9968237405958,16.39520524233285,79.86491195579673,1.526992098301619,0.3893978521705277,1.003116046131597,0.2708379366966067,1.4980153921027932,0.4344440195161477
1.65,-357.1366928727459,62.35890157553832,46.17937680230418,0.2179057199774782,1.6737412745863078,0.2344462670520393,0.8358892516284032,0.1171233900689318,0.7016146764593764,-136.79777810129093,35.32079565324238,31.064075115625474,0.3779593592187741,1.6584899474101675,0.1775398752362844,0.789956771498395,0.5690913144517274,0.8119990478130332,-156.54664716040946,3.673024869549842,5.475249547456863,0.3283411743957511,0.3956938754214828,0.1945671010915732,0.2589805838223369,0.131610060511964,1.4720761625310754,-134.33231836165052,16.78122995074237,80.72864660358404,1.6527716404436226,0.3968832273275235,0.7990245669755738,0.0599905608553865,2.1935573330334,0.3011260443353066
1.66,-356.9024149644915,63.25679555588916,45.85104495447738,0.161564049967545,1.5174425641005556,-0.0181033155528039,0.9470554661158012,0.0826702150078383,0.8808938440421444,-136.61956664148758,36.118172389175584,30.970371510833164,0.27898372627619,1.542068152439876,0.2190619618077618,0.5877119487618985,0.6292068951517291,0.7074255307338867,-156.77447408177758,4.120843736258972,6.064059347821033,0.1921879189213887,0.4835749441585668,-0.1666693736847749,0.6770824179851394,0.4931848080782133,1.5948306860386705,-133.44744764397268,17.33296737213156,81.81143658000737,1.8662670691512435,0.5446956316435548,0.7383213142248919,0.2582701465496076,2.509526294081234,0.326468874352086
1.67,-356.39824884830927,64.90865808939944,45.24685131182105,0.2926319907133522,1.7438919194879747,0.0733795859975424,0.5658820081257991,0.3271289188476992,1.0806331423137516,-136.07364611581443,37.89425889936224,30.681393042976683,0.3163635142093811,2.0011053141161126,0.3034984320083491,0.1862176583974661,0.5192977415313467,0.3476265353744716,-156.9314311273605,4.287729467092577,6.234243800604301,0.3617114852303252,0.3443509076505626,0.1052747299686913,0.3577876486326586,0.3842500745720104,2.1110977342523367,-131.23128598908716,18.42170065977776,83.5513928610323,1.9374683002338615,-0.1120376863849784,1.587112341860751,0.1240326987963059,0.0261935089349783,1.3140928600358646
1.68,-356.1179983971273,66.40564451199019,44.61700214710415,0.3006906977092057,1.5185055979925015,0.0207213427473443,0.9550308689151908,0.3126049115286187,0.8173097483402106,-135.68051797609607,40.05219470875205,30.6914275789927,0.0465715963861146,1.866436746798112,0.38322503985412,0.7052346186354141,0.1688551861689802,0.2673773113176311,-156.7821677295808,5.051101963457126,6.26374179910062,0.3318160217354822,0.2974574155641535,0.2102509977670112,0.5903642068445085,1.0603316947656891,0.9666251118154446,-129.05016401392905,19.77824867547917,85.41979302272057,2.0283479090892644,0.0975125267050816,1.220240975246073,0.9166082343451536,0.6720576327739528,0.7795528235528686
1.69,-355.2010519132659,68.03295328489286,43.87533847147601,0.3695625311905745,1.400619249891628,0.0088032883913995,0.7211370594223514,0.1381852842412487,0.5403949977650515,-135.37141721618022,41.62826945149029,30.75917049460022,0.3669206229522881,1.861608028826288,0.3031772166168837,0.6737641609730066,0.1066515485526991,0.2865862858858826,-156.71731236404156,5.5034483813249295,6.511538514807127,0.3405902438584389,0.5912250445724541,0.0907919701051746,0.5950927432390365,0.7645670692292761,0.049799726749569,-127.4382759681718,21.51394613215899,87.58677266985902,1.9838962969654288,0.1022165399575508,0.7197547474019323,1.8655500413611048,1.0342741296180202,0.3638903578698252
1.7,-354.7925721081726,69.65292707082062,43.1375974915686,0.2367387337601801,1.6118141381551787,0.1084526009414449,0.5913595884860813,0.469696270990008,0.7217100738223945,-135.1311711771495,43.430110412394576,30.69271117957573,0.2505671382035355,1.991805482381588,0.1489509609378992,0.2570532808123506,0.016386155225364,0.1969905186920792,-156.46587961742864,6.000624830542353,7.033961695289378,0.3675466796356894,0.4737555123189889,0.5200446963657894,-0.0284092613982305,0.2590023397451357,0.2542429392231369,-125.64379325433072,22.32814790161087,89.83280456456852,1.8989169562529613,0.0464797120182731,0.9012939079843596,0.1018500790454706,1.2457406182159263,0.2739319114404597
1.71,-354.24163261957625,71.18542491861066,42.01603398096188,0.3395772454404729,1.3345348373623125,0.2335638629328805,0.2203651120308515,0.3488085036065697,0.8298681684481578,-131.20913956526252,45.83156437725167,30.583638799493077,0.4023568508606174,2.2192515178915726,0.2009722125327128,-0.0538140220556038,0.5456201040353353,0.3673727431491758,-156.07602395892087,6.408001239685682,7.415152146287411,0.0865318125542467,0.5726320687877019,0.3772499917775995,0.72154794502056,0.6665583029491038,1.9395086494180025,-123.83814757543436,23.348973411534967,91.7728837703973,1.7720820549552734,-0.0064845991698727,1.4103413252513366,0.4904497584759923,0.1727966566899698,0.6854467187018425
1.72,-353.79630745031346,72.81507084075683,41.03517738363627,0.3675839000892543,1.3850040586185648,0.1352068820585215,0.279220227794204,0.7271633547876252,0.8423923814188379,-130.62276473093215,48.039262736105975,30.49213074707925,0.2081256673009853,2.056864828936196,0.2522164169024183,-0.0142153676486809,0.5163296371253818,0.45314838738454,-155.9332853259756,7.234073330743525,7.2620385192339,0.1546642866793947,0.7419646258492407,0.0464204975251438,1.2007005532498685,0.2403906229995619,1.1680243637998808,-121.11703219885602,24.9454237389954,94.01099309813377,2.067178052077701,-0.0906791318463696,1.3656252884876854,0.9191930386364052,1.757809691044191,0.3385789976900237
1.73,-353.0021374723773,74.39047399439303,39.28467076849402,0.5950602288718089,1.4534747852066117,-0.0218158760865089,0.1592666311521469,0.3195808081721449,0.4487172718897817,-130.41380321625198,50.5503118836933,30.51904080247377,0.2300959434089929,2.013179362070499,0.2853368367315104,0.2880313636186238,0.3435634130255563,-0.0856196172025157,-156.56961736762554,8.171610856868393,6.804946273556737,0.1840886998389637,0.9314045604794278,0.4800164519016516,-0.0296345097167565,0.0168838701033257,0.5437177202118898,-119.25724183556432,26.193046928429567,96.2511725062254,2.0297170414453016,0.0668777989574927,0.922559304404062,1.990614946977151,0.857251033201341,0.7909207001062148
1.74,-352.311206149703,75.74038237262192,38.12879243428337,0.3628170950361045,1.568371329103927,-0.0823935544072647,0.3009259472784159,-0.0224706326957083,0.0136915455050042,-130.69046330231902,52.52761169677834,30.681322048981077,0.444868359346046,1.805411236703877,0.3397561656035039,0.0131193500831358,0.5731954707954153,-0.0816353494601114,-156.88658437890854,9.324267503261302,6.60743469168088,0.5602968754250994,1.0469459823117389,0.4040564679493429,0.1869496100606658,0.4677477064936247,0.172849378650333,-116.87284173789251,27.47769265172313,98.66648248170212,2.324843701915391,0.4537825641488567,0.843069853629068,0.1210929004598603,1.9473420092226288,0.0494516088508515
1.75,-351.4879249598819,77.5058286610361,36.41302716240008,0.3054840553779747,1.70314736084768,0.0367373744110179,0.5864428026111586,0.0973658597679761,0.817317380011487,-130.83045676500493,54.71336483158338,30.831085828086405,0.4489360130588957,2.2872851697042105,0.3959584603863178,0.2999336476489261,0.8936732729856082,0.095987469335305,-156.98774993739872,10.44663649425888,5.638221053710044,0.5627204778828401,0.701822643021457,0.1360618837057949,1.1888070949349612,0.2218758174976982,-0.0438657919329889,-114.55444928531251,28.158065507303174,101.12566180392533,2.271193326776105,0.1860916992218434,0.5737618011074302,-0.130762824475103,0.7038340209225585,0.2346992141657808
1.76,-350.9748946519491,78.9814582987922,34.18961261468455,0.3132345638198426,1.4326761880875785,0.1748160943666264,1.020586025767036,0.0584216295740832,0.6684455070434824,-130.54407743581834,57.102691753227376,31.0695945894198,0.5081136241378602,2.2869997278355263,0.3894655676341848,0.6391136550971621,0.0897305457546539,1.0552896884673608,-157.2509437359387,11.077566640585744,5.222549347407683,0.7729425658916007,0.922279785751508,0.3717094010076153,0.7667110947848235,0.1750348548201589,0.850103448483112,-112.57020857218106,29.112028442813383,103.76344401006472,2.228114697535499,-0.0206977456045494,0.9978487775880952,1.06859484995505,2.275581558951076,1.2185097149897302
