0.01,1.25,86.06,176.06,9.58,0.62,0.04,0.00,0.00,0.00,84.50,53.38,22.25,0.20,0.04,0.01,0.70,0.06,0.71,0.01
0.02,1.25,86.06,176.06,9.60,0.62,0.00,0.00,0.00,0.00,84.75,51.50,21.75,0.17,0.04,0.05,0.70,0.06,0.71,0.01
0.03,1.25,86.06,176.06,9.61,0.64,0.01,0.00,0.00,0.00,84.75,51.50,21.75,0.16,0.02,0.04,0.70,0.06,0.71,0.01
0.04,1.25,86.06,176.06,9.60,0.66,0.05,0.00,0.00,0.00,84.06,51.06,21.75,0.17,0.03,0.03,0.70,0.06,0.71,0.01
0.05,1.25,86.06,176.06,9.59,0.64,0.02,0.00,0.00,0.00,84.06,51.06,21.75,0.18,0.00,0.01,0.70,0.06,0.71,0.01
0.06,1.25,86.06,176.06,9.60,0.63,0.03,0.00,0.00,0.00,84.06,51.06,21.75,0.18,0.03,0.02,0.70,0.06,0.71,0.01
0.07,1.25,86.06,176.06,9.60,0.65,0.05,0.00,0.00,0.00,84.06,52.88,20.19,0.17,0.01,0.00,0.70,0.06,0.71,0.01
0.08,1.25,86.06,176.06,9.59,0.64,0.04,0.00,0.00,0.00,84.06,52.88,20.19,0.19,0.02,0.01,0.70,0.06,0.71,0.01
0.09,1.25,86.06,176.06,9.60,0.64,0.02,0.00,0.00,0.00,84.37,51.06,21.37,0.16,0.00,0.03,0.70,0.06,0.71,0.01
0.10,1.25,86.06,176.06,9.60,0.64,0.05,0.00,0.00,0.00,84.37,51.06,21.37,0.17,0.02,0.00,0.70,0.06,0.71,0.01
0.11,1.25,86.06,176.06,9.60,0.64,0.04,0.00,0.00,0.00,84.37,51.06,21.37,0.17,0.02,0.01,0.70,0.06,0.71,0.01
0.12,1.25,86.06,176.06,9.59,0.65,0.03,0.00,0.00,0.00,84.06,52.56,21.00,0.19,0.01,0.02,0.70,0.06,0.71,0.01
0.13,1.25,86.06,176.06,9.60,0.65,0.02,0.00,0.00,0.00,84.06,52.56,21.00,0.18,0.01,0.03,0.70,0.06,0.71,0.01
0.14,1.25,86.06,176.06,9.59,0.66,0.04,0.00,0.00,0.00,84.37,50.75,21.37,0.19,0.01,0.01,0.70,0.06,0.71,0.01
0.15,1.25,86.06,176.06,9.59,0.62,0.05,0.00,0.00,0.00,84.37,50.75,21.37,0.18,0.04,0.00,0.70,0.06,0.71,0.01
0.16,1.25,86.06,176.06,9.61,0.65,0.04,0.00,0.00,0.00,84.37,50.75,21.37,0.16,0.01,0.01,0.70,0.06,0.71,0.01
0.17,1.25,86.06,176.06,9.60,0.62,0.03,0.00,0.00,0.00,84.37,52.56,20.56,0.18,0.04,0.02,0.70,0.06,0.71,0.01
0.19,1.25,86.06,176.06,9.59,0.64,0.03,0.00,0.00,0.00,84.37,53.25,20.88,0.17,0.01,0.03,0.70,0.06,0.71,0.01
0.20,1.25,86.06,176.06,9.59,0.63,0.04,0.00,0.00,0.00,84.37,53.25,20.88,0.18,0.03,0.01,0.70,0.06,0.71,0.01
0.21,1.25,86.06,176.06,9.60,0.65,0.02,0.00,0.00,0.00,84.37,53.25,20.88,0.18,0.01,0.03,0.70,0.06,0.71,0.01
0.22,1.25,86.06,176.06,9.59,0.64,0.03,0.00,0.00,0.00,83.00,50.75,21.37,0.18,0.02,0.02,0.70,0.06,0.71,0.01
0.23,1.25,86.06,176.06,9.61,0.66,0.02,0.00,0.00,0.00,83.00,50.75,21.37,0.17,0.00,0.03,0.70,0.06,0.71,0.01
0.24,1.25,86.06,176.06,9.60,0.64,0.02,0.00,0.00,0.00,84.37,53.69,20.88,0.17,0.02,0.03,0.70,0.06,0.71,0.01
0.25,1.25,86.06,176.06,9.60,0.63,0.07,0.00,0.00,0.00,84.37,53.69,20.88,0.18,0.03,0.00,0.70,0.06,0.71,0.01
0.26,1.25,86.06,176.06,9.59,0.64,0.01,0.00,0.00,0.00,84.37,53.69,20.88,0.18,0.02,0.04,0.70,0.06,0.71,0.01
0.27,1.25,86.06,176.06,9.59,0.65,0.03,0.00,0.00,0.00,84.75,52.88,21.75,0.18,0.01,0.02,0.70,0.06,0.71,0.01
0.28,1.25,86.06,176.06,9.58,0.64,0.03,0.00,0.00,0.00,84.75,52.88,21.75,0.19,0.02,0.02,0.70,0.06,0.71,0.01
0.29,1.25,86.06,176.06,9.58,0.63,0.02,0.00,0.00,0.00,84.37,52.25,22.06,0.19,0.03,0.03,0.70,0.06,0.71,0.01
0.30,1.25,86.06,176.06,9.61,0.65,0.05,0.00,0.00,0.00,84.37,52.25,22.06,0.17,0.01,0.00,0.70,0.06,0.71,0.01
0.31,1.25,86.06,176.06,9.58,0.65,0.02,0.00,0.00,0.00,84.37,52.25,22.06,0.19,0.01,0.03,0.70,0.06,0.71,0.01
0.32,1.25,86.06,176.06,9.61,0.63,0.02,0.00,0.00,0.00,83.69,52.88,21.00,0.17,0.03,0.03,0.70,0.06,0.71,0.01
0.33,1.25,86.06,176.06,9.60,0.62,0.04,0.00,0.00,0.00,83.69,52.88,21.00,0.18,0.04,0.01,0.70,0.06,0.71,0.01
0.34,1.25,86.06,176.06,9.60,0.62,0.03,0.00,0.00,0.00,83.37,52.56,21.75,0.17,0.04,0.02,0.70,0.06,0.71,0.01
0.35,1.25,86.06,176.06,9.60,0.63,0.04,0.00,0.00,0.00,83.37,52.56,21.75,0.18,0.03,0.01,0.70,0.06,0.71,0.01
0.36,1.25,86.06,176.06,9.58,0.62,0.03,0.00,0.00,0.00,83.37,52.56,21.75,0.20,0.04,0.02,0.70,0.06,0.71,0.01
0.37,1.25,86.06,176.06,9.60,0.64,0.05,0.00,0.00,0.00,84.37,52.56,20.56,0.18,0.02,0.00,0.70,0.06,0.71,0.01
0.39,1.25,86.06,176.06,9.61,0.62,0.02,0.00,0.00,0.00,84.75,53.69,21.75,0.18,0.02,0.00,0.70,0.06,0.71,0.01
0.40,1.25,86.06,176.06,9.58,0.63,0.04,0.00,0.00,0.00,84.75,53.69,21.75,0.17,0.03,0.00,0.70,0.06,0.71,0.01
0.42,1.25,86.06,176.06,9.60,0.64,0.04,0.00,0.00,0.00,84.06,52.88,20.56,0.18,0.02,0.01,0.70,0.06,0.71,0.01
0.43,1.25,86.06,176.06,9.58,0.63,0.03,0.00,0.01,0.00,84.06,52.88,20.56,0.19,0.03,0.02,0.70,0.06,0.71,0.01
0.44,1.25,86.06,176.06,9.60,0.62,0.01,0.00,0.00,0.00,83.69,52.56,21.37,0.18,0.04,0.04,0.70,0.06,0.71,0.01
0.45,1.25,86.06,176.06,9.61,0.63,0.05,0.00,0.00,0.00,83.69,52.56,21.37,0.17,0.03,0.00,0.70,0.06,0.71,0.01
0.46,1.25,86.06,176.06,9.59,0.64,0.03,0.00,0.00,0.00,83.69,52.56,21.37,0.19,0.02,0.02,0.70,0.06,0.71,0.01
0.47,1.25,86.06,176.06,9.60,0.64,0.02,0.00,0.00,0.00,83.69,52.56,21.37,0.17,0.02,0.03,0.70,0.06,0.71,0.01
0.48,1.25,86.06,176.06,9.59,0.64,0.03,0.00,0.00,0.00,83.69,52.56,21.37,0.18,0.02,0.02,0.70,0.06,0.71,0.01
0.50,1.25,86.06,176.06,9.60,0.63,0.04,0.00,0.00,0.00,84.06,52.88,22.50,0.18,0.03,0.01,0.70,0.06,0.71,0.01
0.51,1.25,86.06,176.06,9.59,0.65,0.05,0.00,0.00,0.00,84.06,52.88,22.50,0.19,0.01,0.00,0.70,0.06,0.71,0.01
0.52,1.25,86.06,176.06,9.59,0.64,0.02,0.00,0.00,0.00,84.06,52.56,21.00,0.18,0.02,0.03,0.70,0.06,0.71,0.01
0.53,1.25,86.06,176.06,9.61,0.62,0.02,0.00,0.00,0.00,84.06,52.56,21.00,0.17,0.04,0.03,0.70,0.06,0.71,0.01
0.54,1.25,86.06,176.06,9.60,0.63,0.03,0.00,0.00,0.00,84.75,52.88,20.56,0.18,0.03,0.02,0.70,0.06,0.71,0.01
0.55,1.25,86.06,176.06,9.61,0.63,0.02,0.00,0.00,0.00,84.75,52.88,20.56,0.16,0.03,0.03,0.70,0.06,0.71,0.01
0.56,1.25,86.06,176.06,9.59,0.63,0.01,0.00,0.00,0.00,84.75,52.88,20.56,0.18,0.03,0.04,0.70,0.06,0.71,0.01
0.57,1.25,86.06,176.06,9.61,0.63,0.05,0.00,0.00,0.00,84.06,52.88,21.00,0.16,0.03,0.00,0.70,0.06,0.71,0.01
0.58,1.25,86.06,176.06,9.61,0.64,0.02,0.00,0.00,0.00,84.06,52.88,21.00,0.16,0.02,0.03,0.70,0.06,0.71,0.01
0.60,1.25,86.06,176.06,9.61,0.63,0.03,0.00,0.00,0.00,85.06,53.25,20.88,0.19,0.02,0.00,0.70,0.06,0.71,0.01
0.61,1.25,86.06,176.06,9.59,0.61,0.02,0.00,0.00,0.00,85.06,53.25,20.88,0.18,0.05,0.03,0.70,0.06,0.71,0.01
0.62,1.25,86.06,176.06,9.60,0.67,0.02,0.00,0.00,0.00,84.37,53.69,20.56,0.17,0.00,0.03,0.70,0.06,0.71,0.01
0.63,1.25,86.06,176.06,9.59,0.63,0.02,0.00,0.00,0.00,84.37,53.69,20.56,0.18,0.03,0.03,0.70,0.06,0.71,0.01
0.64,1.25,86.06,176.06,9.59,0.65,0.04,0.00,0.00,0.00,84.37,52.56,21.75,0.17,0.02,0.03,0.70,0.06,0.71,0.01
0.65,1.25,86.06,176.06,9.60,0.63,0.05,0.00,0.00,0.00,84.37,52.56,21.75,0.18,0.03,0.00,0.70,0.06,0.71,0.01
0.66,1.25,86.06,176.06,9.61,0.64,0.01,0.00,0.00,0.00,84.37,52.56,21.75,0.17,0.02,0.04,0.70,0.06,0.71,0.01
0.67,1.25,86.06,176.06,9.61,0.62,0.05,0.00,0.00,0.00,84.06,52.88,21.37,0.17,0.04,0.00,0.70,0.06,0.71,0.01
0.68,1.25,86.06,176.06,9.60,0.63,0.01,0.00,0.00,0.00,84.06,52.88,21.37,0.17,0.03,0.04,0.70,0.06,0.71,0.01
0.70,1.25,86.06,176.06,9.60,0.64,0.04,0.00,0.00,0.00,84.37,52.56,20.56,0.18,0.02,0.01,0.70,0.06,0.71,0.01
0.71,1.25,86.06,176.06,9.61,0.64,0.04,0.00,0.00,0.00,84.37,52.56,20.56,0.16,0.02,0.01,0.70,0.06,0.71,0.01
0.72,1.25,86.06,176.06,9.60,0.63,0.03,0.00,0.00,0.00,84.37,53.25,21.37,0.17,0.03,0.02,0.70,0.06,0.71,0.01
0.73,1.25,86.06,176.06,9.60,0.64,0.04,0.00,0.00,0.00,84.37,53.25,21.37,0.17,0.02,0.01,0.70,0.06,0.71,0.01
0.74,1.25,86.06,176.06,9.59,0.64,0.02,0.00,0.00,0.00,85.19,52.88,21.37,0.19,0.02,0.03,0.70,0.06,0.71,0.01
0.75,1.25,86.06,176.06,9.59,0.63,0.03,0.00,0.00,0.00,85.19,52.88,21.37,0.19,0.03,0.02,0.70,0.06,0.71,0.01
0.76,1.25,86.06,176.06,9.61,0.64,0.03,0.00,0.00,0.00,85.19,52.88,21.37,0.17,0.02,0.02,0.70,0.06,0.71,0.01
0.77,1.25,86.06,176.06,9.59,0.65,0.02,0.00,0.00,0.00,84.06,51.50,20.19,0.18,0.01,0.03,0.70,0.06,0.71,0.01
0.78,1.25,86.06,176.06,9.58,0.65,0.04,0.00,0.00,0.00,84.06,51.50,20.19,0.19,0.01,0.01,0.70,0.06,0.71,0.01
0.80,1.25,86.06,176.06,9.60,0.63,0.06,0.00,0.00,0.00,84.75,52.88,21.75,0.17,0.03,0.00,0.70,0.06,0.71,0.01
0.81,1.25,86.06,176.06,9.60,0.63,0.03,0.00,0.00,0.00,84.75,52.88,21.75,0.17,0.03,0.02,0.70,0.06,0.71,0.01
0.83,1.25,86.06,176.06,9.61,0.63,0.03,0.00,0.00,0.00,84.06,52.56,20.19,0.17,0.03,0.02,0.70,0.06,0.71,0.01
0.84,1.25,86.06,176.06,9.60,0.65,0.01,0.00,0.00,0.00,84.06,52.88,21.37,0.17,0.01,0.04,0.70,0.06,0.71,0.01
0.85,1.25,86.06,176.06,9.60,0.64,0.03,0.00,0.00,0.00,84.06,52.88,21.37,0.17,0.02,0.02,0.70,0.06,0.71,0.01
0.86,1.25,86.06,176.06,9.60,0.63,0.02,0.00,0.00,0.00,84.06,52.88,21.37,0.18,0.03,0.03,0.70,0.06,0.71,0.01
0.87,1.25,86.06,176.06,9.58,0.62,0.03,0.00,0.00,0.00,83.69,51.06,21.37,0.19,0.04,0.02,0.70,0.06,0.71,0.01
0.88,1.25,86.06,176.06,9.60,0.63,0.03,0.00,0.00,0.00,83.69,51.06,21.37,0.18,0.03,0.02,0.70,0.06,0.71,0.01
0.89,1.25,86.06,176.06,9.59,0.63,0.04,0.00,0.00,0.00,84.75,52.88,21.00,0.18,0.03,0.01,0.70,0.06,0.71,0.01
0.91,1.25,86.06,176.06,9.61,0.63,0.01,0.00,0.00,0.00,84.75,52.88,21.00,0.16,0.03,0.04,0.70,0.06,0.71,0.01
0.92,1.25,86.06,176.06,9.59,0.64,0.04,0.00,0.00,0.00,83.69,52.88,21.75,0.18,0.02,0.01,0.70,0.06,0.71,0.01
0.93,1.25,86.06,176.06,9.60,0.63,0.06,0.00,0.00,0.00,83.69,52.88,21.75,0.17,0.03,0.00,0.70,0.06,0.71,0.01
0.94,1.25,86.06,176.06,9.59,0.64,0.02,0.00,0.00,0.00,84.75,53.69,21.00,0.18,0.02,0.03,0.70,0.06,0.71,0.01
0.95,1.25,86.06,176.06,9.61,0.63,0.05,0.00,0.00,0.00,84.75,53.69,21.00,0.17,0.03,0.00,0.70,0.06,0.71,0.01
0.96,1.25,86.06,176.06,9.60,0.65,0.05,0.00,0.00,0.00,84.75,53.69,21.00,0.18,0.01,0.00,0.70,0.06,0.71,0.01
0.97,1.25,86.06,176.06,9.59,0.64,0.03,0.00,0.00,0.00,84.75,53.25,20.56,0.18,0.02,0.02,0.70,0.06,0.71,0.01
0.98,1.25,86.06,176.06,9.59,0.66,0.04,0.00,0.00,0.00,84.75,53.25,20.56,0.19,0.00,0.01,0.70,0.06,0.71,0.01
0.99,1.25,86.06,176.06,9.61,0.66,0.02,0.00,0.00,0.00,84.06,52.88,21.00,0.17,0.00,0.03,0.70,0.06,0.71,0.01
1.01,1.25,86.06,176.06,9.61,0.64,0.03,0.00,0.00,0.00,84.06,52.88,21.00,0.17,0.02,0.02,0.70,0.06,0.71,0.01
1.02,1.25,86.06,176.06,9.59,0.64,0.01,0.00,0.00,0.00,84.75,52.88,21.00,0.19,0.02,0.04,0.70,0.06,0.71,0.01
1.03,1.25,86.06,176.06,9.58,0.64,0.05,0.00,0.00,0.00,84.75,52.88,21.00,0.19,0.02,0.00,0.70,0.06,0.71,0.01
1.04,1.25,86.06,176.06,9.61,0.62,0.03,0.00,0.00,0.00,84.37,51.06,22.06,0.16,0.02,0.02,0.70,0.06,0.71,0.01
1.05,1.25,86.06,176.06,9.60,0.61,0.03,0.00,0.00,0.00,84.37,51.06,22.06,0.18,0.03,0.01,0.70,0.06,0.71,0.01
1.06,1.25,86.06,176.06,9.59,0.63,0.02,0.00,0.00,0.00,84.37,51.06,22.06,0.19,0.03,0.03,0.70,0.06,0.71,0.01
1.07,1.25,86.06,176.06,9.59,0.63,0.00,0.00,0.00,0.00,83.69,52.88,21.00,0.18,0.03,0.05,0.70,0.06,0.71,0.01
1.08,1.25,86.06,176.06,9.60,0.66,0.01,0.00,0.00,0.00,83.69,52.88,21.00,0.17,0.00,0.04,0.70,0.06,0.71,0.01
1.09,1.25,86.06,176.06,9.59,0.63,0.02,0.00,0.00,0.00,84.06,52.88,21.75,0.18,0.03,0.02,0.70,0.06,0.71,0.01
1.11,1.25,86.06,176.06,9.57,0.62,0.01,0.00,0.00,0.00,84.06,52.88,21.75,0.20,0.04,0.04,0.70,0.06,0.71,0.01
1.12,1.25,86.06,176.06,9.60,0.63,0.02,0.00,0.00,0.00,84.75,53.25,21.75,0.17,0.03,0.03,0.70,0.06,0.71,0.01
1.13,1.25,86.06,176.06,9.58,0.63,0.03,0.00,0.00,0.00,84.75,53.25,21.75,0.20,0.03,0.02,0.70,0.06,0.71,0.01
1.14,1.25,86.06,176.06,9.60,0.64,0.00,0.00,0.00,0.00,84.37,51.50,21.75,0.18,0.02,0.05,0.70,0.06,0.71,0.01
1.15,1.25,86.06,176.06,9.61,0.65,0.06,0.00,0.00,0.00,84.37,51.50,21.75,0.17,0.01,0.00,0.70,0.06,0.71,0.01
1.16,1.25,86.06,176.06,9.58,0.66,0.03,0.00,0.00,0.00,84.37,51.50,21.75,0.19,0.00,0.02,0.70,0.06,0.71,0.01
1.17,1.25,86.06,176.06,9.59,0.64,0.04,0.00,0.00,0.00,84.06,52.88,22.06,0.18,0.02,0.01,0.70,0.06,0.71,0.01
1.18,1.25,86.06,176.06,9.61,0.62,0.03,0.00,0.00,0.00,84.06,52.88,22.06,0.16,0.04,0.02,0.70,0.06,0.71,0.01
1.19,1.25,86.06,176.06,9.59,0.65,0.04,0.00,0.00,0.00,84.06,51.88,21.75,0.18,0.02,0.01,0.70,0.06,0.71,0.01
1.20,1.25,86.06,176.06,9.61,0.66,0.03,0.00,0.00,0.00,84.06,51.88,21.75,0.18,0.01,0.00,0.70,0.06,0.71,0.01
1.21,1.25,86.06,176.06,9.60,0.63,0.01,0.00,0.00,0.00,84.06,51.88,21.75,0.17,0.03,0.04,0.70,0.06,0.71,0.01
1.22,1.25,86.06,176.06,9.61,0.62,0.03,0.00,0.00,0.00,84.06,52.88,21.00,0.16,0.04,0.02,0.70,0.06,0.71,0.01
1.24,1.25,86.06,176.06,9.58,0.64,0.05,0.00,0.00,0.00,83.69,52.56,21.75,0.19,0.02,0.02,0.70,0.06,0.71,0.01
1.25,1.25,86.06,176.06,9.58,0.64,0.05,0.00,0.00,0.00,83.69,52.56,21.75,0.19,0.02,0.00,0.70,0.06,0.71,0.01
1.26,1.25,86.06,176.06,9.59,0.64,0.04,0.00,0.00,0.00,83.69,52.56,21.75,0.18,0.02,0.01,0.70,0.06,0.71,0.01
1.27,1.25,86.06,176.06,9.60,0.64,0.03,0.00,0.00,0.00,84.37,51.88,20.56,0.17,0.02,0.02,0.70,0.06,0.71,0.01
1.28,1.25,86.06,176.06,9.59,0.62,0.04,0.00,0.00,0.00,84.37,51.88,20.56,0.19,0.04,0.01,0.70,0.06,0.71,0.01
1.29,1.25,86.06,176.06,9.61,0.65,0.04,0.00,0.00,0.00,83.37,52.88,21.75,0.19,0.02,0.03,0.70,0.06,0.71,0.01
1.30,1.25,86.06,176.06,9.58,0.63,0.05,0.00,0.00,0.00,83.37,52.88,21.75,0.19,0.03,0.00,0.70,0.06,0.71,0.01
1.31,1.25,86.06,176.06,9.59,0.62,0.02,0.00,0.00,0.00,83.37,52.88,21.75,0.18,0.04,0.03,0.70,0.06,0.71,0.01
1.32,1.25,86.06,176.06,9.60,0.62,0.02,0.00,0.00,0.00,83.69,53.25,21.00,0.17,0.04,0.03,0.70,0.06,0.71,0.01
1.34,1.25,86.06,176.06,9.59,0.64,0.04,0.00,0.00,0.00,84.75,53.25,22.06,0.17,0.03,0.02,0.70,0.06,0.71,0.01
1.35,1.25,86.06,176.06,9.62,0.64,0.05,0.00,0.00,0.00,84.75,53.25,22.06,0.15,0.02,0.00,0.70,0.06,0.71,0.01
1.36,1.25,86.06,176.06,9.62,0.63,0.04,0.00,0.00,0.00,84.75,53.25,22.06,0.15,0.03,0.01,0.70,0.06,0.71,0.01
1.37,1.25,86.06,176.06,9.60,0.64,0.02,0.00,0.00,0.00,83.75,51.50,21.00,0.17,0.02,0.03,0.70,0.06,0.71,0.01
1.38,1.25,86.06,176.06,9.60,0.63,0.04,0.00,0.00,0.00,83.75,51.50,21.00,0.18,0.03,0.01,0.70,0.06,0.71,0.01
1.39,1.25,86.06,176.06,9.61,0.61,0.02,0.00,0.00,0.00,84.37,52.25,22.87,0.17,0.05,0.03,0.70,0.06,0.71,0.01
1.40,1.25,86.06,176.06,9.60,0.64,0.02,0.00,0.00,0.00,84.37,52.25,22.87,0.18,0.02,0.03,0.70,0.06,0.71,0.01
1.41,1.25,86.06,176.06,9.61,0.63,0.02,0.00,0.00,0.00,84.37,52.25,22.87,0.17,0.03,0.03,0.70,0.06,0.71,0.01
1.42,1.25,86.06,176.06,9.60,0.63,0.05,0.00,0.00,0.00,83.69,53.25,22.06,0.17,0.03,0.00,0.70,0.06,0.71,0.01
1.44,1.25,86.06,176.06,9.59,0.62,0.03,0.00,0.00,0.00,85.19,52.88,20.56,0.18,0.04,0.02,0.70,0.06,0.71,0.01
1.45,1.25,86.06,176.06,9.60,0.62,0.07,0.00,0.00,0.00,85.19,52.88,20.56,0.17,0.04,0.00,0.70,0.06,0.71,0.01
1.46,1.25,86.06,176.06,9.58,0.64,0.03,0.00,0.00,0.00,85.19,52.88,20.56,0.19,0.02,0.02,0.70,0.06,0.71,0.01
1.47,1.25,86.06,176.06,9.59,0.64,0.04,0.00,0.00,0.00,84.06,52.56,21.00,0.19,0.02,0.01,0.70,0.06,0.71,0.01
1.48,1.25,86.06,176.06,9.60,0.64,0.04,0.00,0.00,0.00,84.06,52.56,21.00,0.18,0.02,0.01,0.70,0.06,0.71,0.01
1.49,1.25,86.06,176.06,9.59,0.65,0.02,0.00,0.00,0.00,84.06,54.06,21.37,0.19,0.01,0.03,0.70,0.06,0.71,0.01
1.50,1.25,86.06,176.06,9.59,0.61,0.04,0.00,0.00,0.00,84.06,54.06,21.37,0.18,0.05,0.01,0.70,0.06,0.71,0.01
1.52,1.25,86.06,176.06,9.58,0.65,0.01,0.00,0.00,0.00,84.06,53.69,21.00,0.19,0.01,0.04,0.70,0.06,0.71,0.01
1.53,1.25,86.06,176.06,9.60,0.63,0.02,0.00,0.00,0.00,84.06,53.69,21.00,0.17,0.03,0.03,0.70,0.06,0.71,0.01
1.54,1.25,86.06,176.06,9.59,0.65,0.03,0.00,0.00,0.00,85.06,53.25,21.75,0.20,0.03,0.04,0.70,0.06,0.71,0.01
1.55,1.25,86.06,176.06,9.60,0.64,0.02,0.00,0.00,0.00,85.06,53.25,21.75,0.18,0.01,0.02,0.70,0.06,0.71,0.01
1.56,1.25,86.06,176.06,9.60,0.64,0.03,0.00,0.00,0.00,85.06,53.25,21.75,0.18,0.02,0.02,0.70,0.06,0.71,0.01
1.57,1.25,86.06,176.06,9.60,0.64,0.05,0.00,0.00,0.00,83.69,51.06,20.19,0.17,0.02,0.00,0.70,0.06,0.71,0.01
1.58,1.25,86.06,176.06,9.61,0.64,0.03,0.00,0.00,0.00,83.69,51.06,20.19,0.17,0.02,0.02,0.70,0.06,0.71,0.01
1.59,1.25,86.06,176.06,9.59,0.64,0.04,0.00,0.00,0.00,83.69,53.25,21.00,0.19,0.03,0.03,0.70,0.06,0.71,0.01
1.60,1.25,86.06,176.06,9.61,0.64,0.02,0.00,0.00,0.00,83.69,53.25,21.00,0.18,0.02,0.01,0.70,0.06,0.71,0.01
1.62,1.25,86.06,176.06,9.58,0.66,0.06,0.00,0.00,0.00,84.75,53.25,21.00,0.19,0.00,0.00,0.70,0.06,0.71,0.01
1.63,1.25,86.06,176.06,9.60,0.64,0.06,0.00,0.00,0.00,84.75,53.25,21.00,0.18,0.02,0.00,0.70,0.06,0.71,0.01
1.65,1.25,86.06,176.06,9.60,0.65,0.02,0.00,0.00,0.00,84.75,52.88,21.00,0.17,0.01,0.03,0.70,0.06,0.71,0.01
1.66,1.25,86.06,176.06,9.60,0.64,0.03,0.00,0.00,0.00,84.75,52.88,21.00,0.17,0.02,0.02,0.70,0.06,0.71,0.01
1.67,1.25,86.06,176.06,9.58,0.66,0.02,0.00,0.00,0.00,84.75,54.06,20.19,0.19,0.00,0.03,0.70,0.06,0.71,0.01
1.68,1.25,86.06,176.06,9.60,0.63,0.05,0.00,0.00,0.00,84.75,54.06,20.19,0.17,0.03,0.00,0.70,0.06,0.71,0.01
1.69,1.25,86.06,176.06,9.60,0.66,0.03,0.00,0.00,0.00,84.37,52.88,21.37,0.17,0.00,0.02,0.70,0.06,0.71,0.01
1.70,1.25,86.06,176.06,9.59,0.64,0.05,0.00,0.00,0.00,84.37,52.88,21.37,0.19,0.02,0.00,0.70,0.06,0.71,0.01
1.71,1.25,86.06,176.06,9.61,0.63,0.03,0.00,0.00,0.00,84.37,52.88,21.37,0.17,0.03,0.02,0.70,0.06,0.71,0.01
1.73,1.25,86.06,176.06,9.60,0.65,0.01,0.00,0.00,0.00,84.06,51.88,21.37,0.18,0.01,0.04,0.70,0.06,0.71,0.01
1.74,1.25,86.06,176.06,9.60,0.66,0.05,0.00,0.00,0.00,84.06,53.25,21.00,0.16,0.03,0.02,0.70,0.06,0.71,0.01
1.75,1.25,86.06,176.06,9.59,0.65,0.01,0.00,0.00,0.00,84.06,53.25,21.00,0.16,0.01,0.00,0.70,0.06,0.71,0.01
1.76,1.25,86.06,176.06,9.59,0.64,0.02,0.00,0.00,0.00,84.06,53.25,21.00,0.18,0.02,0.03,0.70,0.06,0.71,0.01
1.77,1.25,86.06,176.06,9.59,0.63,0.03,0.00,0.00,0.00,84.06,51.06,20.56,0.18,0.03,0.02,0.70,0.06,0.71,0.01
1.78,1.25,86.06,176.06,9.60,0.63,0.03,0.00,0.00,0.00,84.06,51.06,20.56,0.18,0.03,0.02,0.70,0.06,0.71,0.01
1.79,1.25,86.06,176.06,9.59,0.66,0.03,0.00,0.00,0.00,84.37,52.25,22.06,0.17,0.01,0.03,0.70,0.06,0.71,0.01
1.80,1.25,86.06,176.06,9.61,0.66,0.01,0.00,0.00,0.00,84.37,52.25,22.06,0.18,0.02,0.02,0.70,0.06,0.71,0.01
1.81,1.25,86.06,176.06,9.61,0.64,0.03,0.00,0.00,0.00,84.37,52.25,22.06,0.17,0.02,0.02,0.70,0.06,0.71,0.01
1.83,1.25,86.06,176.06,9.60,0.63,0.03,0.00,0.00,0.00,84.37,51.50,20.19,0.17,0.03,0.02,0.70,0.06,0.71,0.01
1.84,1.25,86.06,176.06,9.59,0.63,0.03,0.00,0.00,0.00,83.69,51.06,21.75,0.19,0.02,0.02,0.70,0.06,0.71,0.01
1.85,1.25,86.06,176.06,9.59,0.64,0.03,0.00,0.00,0.00,83.69,51.06,21.75,0.19,0.02,0.00,0.70,0.06,0.71,0.01
1.86,1.25,86.06,176.06,9.60,0.63,0.02,0.00,0.00,0.00,83.69,51.06,21.75,0.17,0.03,0.03,0.70,0.06,0.71,0.01
1.87,1.25,86.06,176.06,9.60,0.61,0.02,0.00,0.00,0.00,84.75,52.88,20.19,0.17,0.05,0.03,0.70,0.06,0.71,0.01
1.88,1.25,86.06,176.06,9.59,0.65,0.04,0.00,0.00,0.00,84.75,52.88,20.19,0.19,0.01,0.01,0.70,0.06,0.71,0.01
1.89,1.25,86.06,176.06,9.59,0.64,0.05,0.00,0.00,0.00,84.75,51.50,21.37,0.15,0.03,0.03,0.70,0.06,0.71,0.01
1.90,1.25,86.06,176.06,9.61,0.63,0.04,0.00,0.00,0.00,84.75,51.50,21.37,0.16,0.03,0.01,0.70,0.06,0.71,0.01
1.91,1.25,86.06,176.06,9.61,0.65,0.02,0.00,0.00,0.00,84.75,51.50,21.37,0.16,0.01,0.03,0.70,0.06,0.71,0.01
1.93,1.25,86.06,176.06,9.60,0.66,0.06,0.00,0.00,0.00,84.37,53.25,21.00,0.18,0.00,0.00,0.70,0.06,0.71,0.01
1.94,1.25,86.06,176.06,9.59,0.63,0.03,0.00,0.00,0.00,84.06,52.88,21.37,0.17,0.02,0.03,0.70,0.06,0.71,0.01
1.96,1.25,86.06,176.06,9.60,0.62,0.02,0.00,0.00,0.00,84.06,52.88,21.37,0.18,0.04,0.03,0.70,0.06,0.71,0.01
1.97,1.25,86.06,176.06,9.59,0.62,0.01,0.00,0.00,0.00,84.06,52.56,21.37,0.19,0.04,0.04,0.70,0.06,0.71,0.01
1.98,1.25,86.06,176.06,9.60,0.65,0.04,0.00,0.00,0.00,84.06,52.56,21.37,0.17,0.01,0.01,0.70,0.06,0.71,0.01
1.99,1.25,86.06,176.06,9.60,0.64,0.05,0.00,0.00,0.00,84.37,52.88,21.00,0.18,0.02,0.00,0.70,0.06,0.71,0.01
2.00,1.25,86.06,176.06,9.58,0.64,0.03,0.00,0.00,0.00,84.37,52.88,21.00,0.20,0.02,0.02,0.70,0.06,0.71,0.01
2.01,1.25,86.06,176.06,9.60,0.65,0.03,0.00,0.00,0.00,84.37,52.88,21.00,0.18,0.01,0.02,0.70,0.06,0.71,0.01
2.02,1.25,86.06,176.06,9.60,0.63,0.00,0.00,0.00,0.00,84.37,53.25,21.00,0.17,0.03,0.06,0.70,0.06,0.71,0.01
2.04,1.25,86.06,176.06,9.62,0.63,0.02,0.00,0.00,0.00,84.37,51.50,21.00,0.15,0.03,0.03,0.70,0.06,0.71,0.01
2.05,1.25,86.06,176.06,9.59,0.64,0.05,0.00,0.00,0.00,84.37,51.50,21.00,0.19,0.02,0.00,0.70,0.06,0.71,0.01
2.06,1.25,86.06,176.06,9.60,0.64,0.01,0.00,0.00,0.00,84.37,51.50,21.00,0.17,0.02,0.04,0.70,0.06,0.71,0.01
2.07,1.25,86.06,176.06,9.59,0.65,0.02,0.00,0.00,0.00,84.37,53.25,21.00,0.18,0.01,0.03,0.70,0.06,0.71,0.01
2.08,1.25,86.06,176.06,9.59,0.64,0.02,0.00,0.00,0.00,84.37,53.25,21.00,0.19,0.02,0.03,0.70,0.06,0.71,0.01
2.09,1.25,86.06,176.06,9.59,0.64,0.01,0.00,0.00,0.00,84.37,52.88,21.00,0.19,0.02,0.04,0.70,0.06,0.71,0.01
2.10,1.25,86.06,176.06,9.60,0.63,0.06,0.00,0.00,0.00,84.37,52.88,21.00,0.17,0.03,0.00,0.70,0.06,0.71,0.01
2.11,1.25,86.06,176.06,9.59,0.63,0.02,0.00,0.00,0.00,84.37,52.88,21.00,0.18,0.03,0.03,0.70,0.06,0.71,0.01
2.12,1.25,86.06,176.06,9.61,0.65,0.03,0.00,0.00,0.00,83.37,52.88,21.75,0.17,0.01,0.02,0.70,0.06,0.71,0.01
2.13,1.25,86.06,176.06,9.59,0.63,0.06,0.00,0.00,0.00,83.37,52.88,21.75,0.18,0.03,0.00,0.70,0.06,0.71,0.01
2.14,1.25,86.06,176.06,9.60,0.65,0.04,0.00,0.00,0.00,84.37,51.88,21.00,0.17,0.01,0.01,0.70,0.06,0.71,0.01
2.15,1.25,86.06,176.06,9.59,0.62,0.05,0.00,0.00,0.00,84.37,51.88,21.00,0.18,0.04,0.00,0.70,0.06,0.71,0.01
2.16,1.25,86.06,176.06,9.59,0.63,0.04,0.00,0.00,0.00,84.37,51.88,21.00,0.18,0.03,0.01,0.70,0.06,0.71,0.01
2.17,1.25,86.06,176.06,9.60,0.64,0.03,0.00,0.00,0.00,83.69,53.69,21.00,0.18,0.02,0.02,0.70,0.06,0.71,0.01
2.18,1.25,86.06,176.06,9.58,0.63,0.01,0.00,0.00,0.00,83.69,53.69,21.00,0.20,0.03,0.04,0.70,0.06,0.71,0.01
2.19,1.25,86.06,176.06,9.60,0.63,0.03,0.00,0.00,0.00,84.75,53.69,21.00,0.18,0.03,0.02,0.70,0.06,0.71,0.01
2.20,1.25,86.06,176.06,9.59,0.64,0.02,0.00,0.00,0.00,84.75,53.69,21.00,0.18,0.02,0.03,0.70,0.06,0.71,0.01
2.21,1.25,86.06,176.06,9.59,0.65,0.04,0.00,0.00,0.00,84.75,53.69,21.00,0.19,0.01,0.01,0.70,0.06,0.71,0.01
2.22,1.25,86.06,176.06,9.59,0.64,0.05,0.00,0.00,0.00,84.75,53.69,21.00,0.19,0.02,0.00,0.70,0.06,0.71,0.01
2.24,1.25,86.06,176.06,9.61,0.66,0.01,0.00,0.00,0.00,84.06,53.25,22.06,0.17,0.00,0.04,0.70,0.06,0.71,0.01
2.25,1.25,86.06,176.06,9.61,0.63,0.05,0.00,0.00,0.00,84.06,53.25,22.06,0.17,0.03,0.00,0.70,0.06,0.71,0.01
2.26,1.25,86.06,176.06,9.60,0.61,0.06,0.00,0.00,0.00,84.06,53.25,22.06,0.18,0.05,0.00,0.70,0.06,0.71,0.01
2.27,1.25,86.06,176.06,9.60,0.64,0.03,0.00,0.00,0.00,84.37,52.88,21.75,0.17,0.02,0.02,0.70,0.06,0.71,0.01
2.28,1.25,86.06,176.06,9.60,0.64,0.02,0.00,0.00,0.00,84.37,52.88,21.75,0.18,0.02,0.03,0.70,0.06,0.71,0.01
2.29,1.25,86.06,176.06,9.60,0.63,0.02,0.00,0.00,0.00,84.06,52.56,21.75,0.17,0.03,0.03,0.70,0.06,0.71,0.01
2.30,1.25,86.06,176.06,9.58,0.62,0.06,0.00,0.00,0.00,84.06,52.56,21.75,0.19,0.04,0.00,0.70,0.06,0.71,0.01
2.31,1.25,86.06,176.06,9.58,0.64,0.02,0.00,0.00,0.00,84.06,52.56,21.75,0.19,0.02,0.03,0.70,0.06,0.71,0.01
2.32,1.25,86.06,176.06,9.59,0.65,0.02,0.00,0.00,0.00,84.37,52.88,20.88,0.19,0.01,0.03,0.70,0.06,0.71,0.01
2.33,1.25,86.06,176.06,9.61,0.62,0.03,0.00,0.00,0.00,84.37,52.88,20.88,0.16,0.04,0.02,0.70,0.06,0.71,0.01
2.34,1.25,86.06,176.06,9.59,0.63,0.02,0.00,0.00,0.00,84.37,54.06,21.75,0.19,0.03,0.03,0.70,0.06,0.71,0.01
2.35,1.25,86.06,176.06,9.59,0.63,0.06,0.00,0.00,0.00,84.37,54.06,21.75,0.19,0.03,0.00,0.70,0.06,0.71,0.01
2.36,1.25,86.06,176.06,9.60,0.65,0.03,0.00,0.00,0.00,84.37,54.06,21.75,0.17,0.01,0.02,0.70,0.06,0.71,0.01
2.37,1.25,86.06,176.06,9.61,0.65,0.02,0.00,0.00,0.00,84.06,51.06,20.19,0.17,0.01,0.03,0.70,0.06,0.71,0.01
2.38,1.25,86.06,176.06,9.58,0.64,0.03,0.00,0.00,0.00,84.06,51.06,20.19,0.19,0.02,0.02,0.70,0.06,0.71,0.01
2.39,1.25,86.06,176.06,9.60,0.63,0.03,0.00,0.00,0.00,84.37,52.88,21.37,0.17,0.03,0.02,0.70,0.06,0.71,0.01
2.40,1.25,86.06,176.06,9.61,0.65,0.06,0.00,0.00,0.00,84.37,52.88,21.37,0.16,0.01,0.00,0.70,0.06,0.71,0.01
2.41,1.25,86.06,176.06,9.58,0.63,0.03,0.00,0.00,0.00,84.37,52.88,21.37,0.19,0.03,0.02,0.70,0.06,0.71,0.01
2.42,1.25,86.06,176.06,9.61,0.64,0.00,0.00,0.00,0.00,84.06,52.25,21.75,0.17,0.02,0.05,0.70,0.06,0.71,0.01
2.43,1.25,86.06,176.06,9.59,0.62,0.04,0.00,0.00,0.00,84.06,52.25,21.75,0.18,0.04,0.01,0.70,0.06,0.71,0.01
2.44,1.25,86.06,176.06,9.60,0.63,0.02,0.00,0.00,0.00,84.37,53.25,22.06,0.17,0.03,0.03,0.70,0.06,0.71,0.01
2.45,1.25,86.06,176.06,9.59,0.63,0.04,0.00,0.00,0.00,84.37,53.25,22.06,0.19,0.03,0.01,0.70,0.06,0.71,0.01
2.47,1.25,86.06,176.06,9.58,0.63,0.03,0.00,0.00,0.00,84.37,53.69,20.56,0.19,0.03,0.02,0.70,0.06,0.71,0.01
2.48,1.25,86.06,176.06,9.61,0.64,0.04,0.00,0.00,0.00,84.37,53.69,20.56,0.17,0.02,0.01,0.70,0.06,0.71,0.01
2.49,1.25,86.06,176.06,9.61,0.64,0.02,0.00,0.00,0.00,85.19,53.69,21.37,0.16,0.02,0.03,0.70,0.06,0.71,0.01
2.50,1.25,86.06,176.06,9.61,0.64,0.04,0.00,0.00,0.00,85.19,53.69,21.37,0.16,0.02,0.01,0.70,0.06,0.71,0.01
2.51,1.25,86.06,176.06,9.59,0.61,0.01,0.00,0.00,0.00,85.19,53.69,21.37,0.19,0.05,0.04,0.70,0.06,0.71,0.01
2.52,1.25,86.06,176.06,9.60,0.62,0.02,0.00,0.00,0.00,83.69,52.56,21.37,0.18,0.04,0.03,0.70,0.06,0.71,0.01
2.53,1.25,86.06,176.06,9.59,0.62,0.05,0.00,0.00,0.00,83.69,52.56,21.37,0.18,0.04,0.00,0.70,0.06,0.71,0.01
2.54,1.25,86.06,176.06,9.59,0.63,0.00,0.00,0.00,0.00,85.19,52.88,21.00,0.19,0.03,0.05,0.70,0.06,0.71,0.01
2.55,1.25,86.06,176.06,9.60,0.63,0.06,0.00,0.00,0.00,85.19,52.88,21.00,0.17,0.03,0.00,0.70,0.06,0.71,0.01
2.57,1.25,86.06,176.06,9.60,0.64,0.01,0.00,0.00,0.00,83.69,52.88,20.19,0.18,0.02,0.04,0.70,0.06,0.71,0.01
2.58,1.25,86.06,176.06,9.59,0.63,0.03,0.00,0.00,0.00,83.69,52.88,20.19,0.18,0.03,0.02,0.70,0.06,0.71,0.01
2.59,1.25,86.06,176.06,9.60,0.65,0.02,0.00,0.00,0.00,84.37,52.88,21.37,0.18,0.01,0.03,0.70,0.06,0.71,0.01
2.60,1.25,86.06,176.06,9.59,0.63,0.05,0.00,0.00,0.00,84.37,52.88,21.37,0.19,0.03,0.00,0.70,0.06,0.71,0.01
2.61,1.25,86.06,176.06,9.60,0.65,0.03,0.00,0.00,0.00,84.37,52.88,21.37,0.18,0.01,0.02,0.70,0.06,0.71,0.01
2.62,1.25,86.06,176.06,9.59,0.66,0.03,0.00,0.00,0.00,84.37,52.88,21.37,0.18,0.00,0.02,0.70,0.06,0.71,0.01
2.63,1.25,86.06,176.06,9.60,0.64,0.03,0.00,0.00,0.00,84.37,52.88,21.37,0.17,0.02,0.02,0.70,0.06,0.71,0.01
2.65,1.25,86.06,176.06,9.59,0.65,0.03,0.00,0.00,0.00,84.75,52.88,21.75,0.19,0.01,0.02,0.70,0.06,0.71,0.01
2.66,1.25,86.06,176.06,9.60,0.64,0.01,0.00,0.00,0.00,84.75,52.88,21.75,0.18,0.02,0.04,0.70,0.06,0.71,0.01
2.67,1.25,86.06,176.06,9.59,0.63,0.02,0.00,0.00,0.00,84.37,52.88,20.19,0.18,0.03,0.03,0.70,0.06,0.71,0.01
2.68,1.25,86.06,176.06,9.59,0.62,0.03,0.00,0.00,0.00,84.37,52.88,20.19,0.18,0.04,0.02,0.70,0.06,0.71,0.01
2.69,1.25,86.06,176.06,9.60,0.64,0.03,0.00,0.00,0.00,84.37,52.56,21.37,0.17,0.03,0.01,0.70,0.06,0.71,0.01
2.70,1.25,86.06,176.06,9.61,0.65,0.04,0.00,0.00,0.00,84.37,52.56,21.37,0.16,0.01,0.01,0.70,0.06,0.71,0.01
2.71,1.25,86.06,176.06,9.59,0.63,0.03,0.00,0.00,0.00,84.37,52.56,21.37,0.18,0.03,0.02,0.70,0.06,0.71,0.01
2.72,1.25,86.06,176.06,9.61,0.65,0.03,0.00,0.00,0.00,84.06,52.88,21.75,0.17,0.01,0.02,0.70,0.06,0.71,0.01
2.73,1.25,86.06,176.06,9.58,0.65,0.05,0.00,0.00,0.00,84.06,52.88,21.75,0.19,0.01,0.00,0.70,0.06,0.71,0.01
2.74,1.25,86.06,176.06,9.59,0.63,0.02,0.00,0.00,0.00,83.37,51.88,22.06,0.19,0.03,0.03,0.70,0.06,0.71,0.01
2.75,1.25,86.06,176.06,9.59,0.64,0.05,0.00,0.00,0.00,83.37,51.88,22.06,0.19,0.02,0.00,0.70,0.06,0.71,0.01
2.76,1.25,86.06,176.06,9.59,0.62,0.03,0.00,0.00,0.00,83.37,51.88,22.06,0.18,0.04,0.02,0.70,0.06,0.71,0.01
2.77,1.25,86.06,176.06,9.60,0.64,0.04,0.00,0.00,0.00,84.06,53.25,20.56,0.17,0.02,0.01,0.70,0.06,0.71,0.01
2.78,1.25,86.06,176.06,9.58,0.64,0.04,0.00,0.00,0.00,84.06,53.25,20.56,0.19,0.02,0.01,0.70,0.06,0.71,0.01
2.79,1.25,86.06,176.06,9.60,0.62,0.02,0.00,0.00,0.00,84.06,50.38,21.00,0.17,0.01,0.03,0.70,0.06,0.71,0.01
2.80,1.25,86.06,176.06,9.58,0.64,0.04,0.00,0.00,0.00,84.06,50.38,21.00,0.21,0.02,0.00,0.70,0.06,0.71,0.01
2.81,1.25,86.06,176.06,9.60,0.64,0.02,0.00,0.00,0.00,84.06,50.38,21.00,0.18,0.02,0.03,0.70,0.06,0.71,0.01
2.82,1.25,86.06,176.06,9.58,0.65,0.02,0.00,0.00,0.00,83.69,52.88,20.56,0.20,0.01,0.03,0.70,0.06,0.71,0.01
2.83,1.25,86.06,176.06,9.59,0.64,0.06,0.00,0.00,0.00,83.69,52.88,20.56,0.18,0.02,0.00,0.70,0.06,0.71,0.01
2.84,1.25,86.06,176.06,9.61,0.62,0.04,0.00,0.00,0.00,83.69,50.38,20.19,0.17,0.03,0.01,0.70,0.06,0.71,0.01
2.85,1.25,86.06,176.06,9.58,0.62,0.03,0.00,0.00,0.00,83.69,50.38,20.19,0.18,0.03,0.02,0.70,0.06,0.71,0.01
2.86,1.25,86.06,176.06,9.61,0.61,0.03,0.00,0.00,0.00,83.69,50.38,20.19,0.16,0.05,0.02,0.70,0.06,0.71,0.01
2.87,1.25,86.06,176.06,9.58,0.64,0.02,0.00,0.00,0.00,84.06,52.88,21.37,0.20,0.02,0.03,0.70,0.06,0.71,0.01
2.88,1.25,86.06,176.06,9.58,0.65,0.03,0.00,0.00,0.00,84.06,52.88,21.37,0.19,0.01,0.02,0.70,0.06,0.71,0.01
2.89,1.25,86.06,176.06,9.60,0.66,0.03,0.00,0.00,0.00,84.75,52.56,21.75,0.18,0.00,0.02,0.70,0.06,0.71,0.01
2.90,1.25,86.06,176.06,9.60,0.65,0.04,0.00,0.00,0.00,84.75,52.56,21.75,0.18,0.01,0.01,0.70,0.06,0.71,0.01
2.91,1.25,86.06,176.06,9.60,0.64,0.01,0.00,0.00,0.00,84.75,52.56,21.75,0.17,0.02,0.04,0.70,0.06,0.71,0.01
2.92,1.25,86.06,176.06,9.59,0.65,0.04,0.00,0.00,0.00,84.06,53.25,21.37,0.18,0.01,0.01,0.70,0.06,0.71,0.01
2.93,1.25,86.06,176.06,9.60,0.64,0.03,0.00,0.00,0.00,84.06,53.25,21.37,0.18,0.02,0.02,0.70,0.06,0.71,0.01
2.94,1.25,86.06,176.06,9.60,0.62,0.01,0.00,0.00,0.00,84.37,53.69,21.75,0.18,0.04,0.04,0.70,0.06,0.71,0.01
2.95,1.25,86.06,176.06,9.60,0.65,0.04,0.00,0.00,0.00,84.37,53.69,21.75,0.18,0.01,0.01,0.70,0.06,0.71,0.01
2.96,1.25,86.06,176.06,9.59,0.63,0.02,0.00,0.00,0.00,84.37,53.69,21.75,0.18,0.03,0.03,0.70,0.06,0.71,0.01
2.97,1.25,86.06,176.06,9.59,0.63,0.03,0.00,0.00,0.00,84.06,52.56,21.75,0.18,0.03,0.02,0.70,0.06,0.71,0.01
2.98,1.25,86.06,176.06,9.59,0.65,0.04,0.00,0.00,0.00,84.06,52.56,21.75,0.18,0.01,0.01,0.70,0.06,0.71,0.01
2.99,1.25,86.06,176.06,9.61,0.62,0.03,0.00,0.00,0.00,84.75,54.06,21.37,0.18,0.03,0.02,0.70,0.06,0.71,0.01
3.00,1.25,86.06,176.06,9.61,0.64,0.04,0.00,0.00,0.00,84.75,54.06,21.37,0.17,0.01,0.00,0.70,0.06,0.71,0.01
3.01,1.25,86.06,176.06,9.60,0.63,0.05,0.00,0.00,0.00,84.75,54.06,21.37,0.18,0.03,0.00,0.70,0.06,0.71,0.01
3.02,1.25,86.06,176.06,9.59,0.63,0.03,0.00,0.00,0.00,84.37,51.50,20.19,0.18,0.03,0.02,0.70,0.06,0.71,0.01
3.03,1.25,86.06,176.06,9.61,0.63,0.02,0.00,0.00,0.00,84.37,51.50,20.19,0.16,0.03,0.03,0.70,0.06,0.71,0.01
3.04,1.25,86.06,176.06,9.59,0.63,0.03,0.00,0.00,0.00,83.69,53.25,21.75,0.19,0.02,0.02,0.70,0.06,0.71,0.01
3.06,1.25,86.06,176.06,9.60,0.65,0.04,0.00,0.00,0.00,83.69,53.25,21.75,0.20,0.00,0.01,0.70,0.06,0.71,0.01
3.07,1.25,86.06,176.06,9.58,0.65,0.01,0.00,0.00,0.00,84.75,52.25,21.00,0.19,0.01,0.04,0.70,0.06,0.71,0.01
3.09,1.25,86.06,176.06,9.59,0.63,0.06,0.00,0.00,0.00,84.37,53.25,20.56,0.18,0.03,0.00,0.70,0.06,0.71,0.01
3.10,1.25,86.06,176.06,9.59,0.62,0.04,0.00,0.00,0.00,84.37,53.25,20.56,0.18,0.04,0.01,0.70,0.06,0.71,0.01
3.11,1.25,86.06,176.06,9.61,0.65,0.01,0.00,0.00,0.00,84.37,53.25,20.56,0.17,0.01,0.04,0.70,0.06,0.71,0.01
3.12,1.25,86.06,176.06,9.59,0.64,0.02,0.00,0.00,0.00,84.06,53.69,21.37,0.18,0.02,0.03,0.70,0.06,0.71,0.01
3.13,1.25,86.06,176.06,9.60,0.64,0.04,0.00,0.00,0.00,84.06,53.69,21.37,0.18,0.02,0.01,0.70,0.06,0.71,0.01
3.14,1.25,86.06,176.06,9.60,0.63,0.04,0.00,0.00,0.00,84.37,52.88,20.19,0.18,0.03,0.01,0.70,0.06,0.71,0.01
3.15,1.25,86.06,176.06,9.60,0.63,0.05,0.00,0.00,0.00,84.37,52.88,20.19,0.18,0.03,0.00,0.70,0.06,0.71,0.01
3.16,1.25,86.06,176.06,9.61,0.63,0.04,0.00,0.00,0.00,84.37,52.88,20.19,0.16,0.03,0.01,0.70,0.06,0.71,0.01
3.17,1.25,86.06,176.06,9.57,0.66,0.03,0.00,0.00,0.00,83.37,53.25,20.56,0.20,0.00,0.02,0.70,0.06,0.71,0.01
3.18,1.25,86.06,176.06,9.61,0.65,0.01,0.00,0.00,0.00,83.37,53.25,20.56,0.16,0.01,0.04,0.70,0.06,0.71,0.01
3.19,1.25,86.06,176.06,9.61,0.64,0.01,0.00,0.00,0.00,84.37,53.25,21.75,0.17,0.02,0.04,0.70,0.06,0.71,0.01
3.20,1.25,86.06,176.06,9.60,0.66,0.04,0.00,0.00,0.00,84.37,53.25,21.75,0.17,0.00,0.01,0.70,0.06,0.71,0.01
3.21,1.25,86.06,176.06,9.59,0.61,0.04,0.00,0.00,0.00,84.37,53.25,21.75,0.19,0.05,0.01,0.70,0.06,0.71,0.01
3.22,1.25,86.06,176.06,9.60,0.63,0.01,0.00,0.00,0.00,84.37,52.25,21.00,0.17,0.03,0.04,0.70,0.06,0.71,0.01
3.23,1.25,86.06,176.06,9.59,0.65,0.03,0.00,0.00,0.00,84.37,52.25,21.00,0.18,0.01,0.02,0.70,0.06,0.71,0.01
3.24,1.25,86.06,176.06,9.60,0.63,0.02,0.00,0.00,0.00,84.75,52.88,20.88,0.18,0.03,0.03,0.70,0.06,0.71,0.01
3.26,1.25,86.06,176.06,9.61,0.66,0.02,0.00,0.00,0.00,84.75,52.88,20.88,0.16,0.00,0.03,0.70,0.06,0.71,0.01
3.27,1.25,86.06,176.06,9.59,0.62,0.03,0.00,0.00,0.00,84.37,52.56,21.37,0.19,0.04,0.02,0.70,0.06,0.71,0.01
3.29,1.25,86.06,176.06,9.58,0.64,0.04,0.00,0.00,0.00,84.75,53.69,20.88,0.19,0.02,0.01,0.70,0.06,0.71,0.01
3.30,1.25,86.06,176.06,9.59,0.60,0.04,0.00,0.00,0.00,84.75,53.69,20.88,0.19,0.05,0.01,0.70,0.06,0.71,0.01
3.31,1.25,86.06,176.06,9.60,0.63,0.02,0.00,0.00,0.00,84.75,53.69,20.88,0.18,0.03,0.03,0.70,0.06,0.71,0.01
3.32,1.25,86.06,176.06,9.59,0.60,0.03,0.00,0.00,0.00,84.06,53.25,21.37,0.19,0.06,0.02,0.70,0.06,0.71,0.01
3.33,1.25,86.06,176.06,9.60,0.63,0.05,0.00,0.00,0.00,84.06,53.25,21.37,0.17,0.03,0.00,0.70,0.06,0.71,0.01
3.34,1.25,86.06,176.06,9.61,0.65,0.02,0.00,0.00,0.00,84.37,52.88,22.50,0.16,0.01,0.03,0.70,0.06,0.71,0.01
3.35,1.25,86.06,176.06,9.58,0.64,0.05,0.00,0.00,0.00,84.37,52.88,22.50,0.19,0.02,0.00,0.70,0.06,0.71,0.01
3.36,1.25,86.06,176.06,9.60,0.62,0.05,0.00,0.00,0.00,84.37,52.88,22.50,0.17,0.04,0.00,0.70,0.06,0.71,0.01
3.37,1.25,86.06,176.06,9.60,0.64,0.04,0.00,0.00,0.00,84.06,51.06,21.37,0.18,0.02,0.01,0.70,0.06,0.71,0.01
3.39,1.25,86.06,176.06,9.61,0.64,0.02,0.00,0.00,0.00,84.75,51.50,21.00,0.17,0.02,0.03,0.70,0.06,0.71,0.01
3.40,1.25,86.06,176.06,9.61,0.64,0.05,0.00,0.00,0.00,84.75,51.50,21.00,0.16,0.02,0.00,0.70,0.06,0.71,0.01
3.41,1.25,86.06,176.06,9.61,0.63,0.04,0.00,0.00,0.00,84.75,51.50,21.00,0.16,0.03,0.01,0.70,0.06,0.71,0.01
3.42,1.25,86.06,176.06,9.61,0.63,0.05,0.00,0.00,0.00,84.75,52.88,21.75,0.16,0.03,0.00,0.70,0.06,0.71,0.01
3.43,1.25,86.06,176.06,9.59,0.64,0.04,0.00,0.00,0.00,84.75,52.88,21.75,0.19,0.02,0.01,0.70,0.06,0.71,0.01
3.44,1.25,86.06,176.06,9.59,0.64,0.02,0.00,0.00,0.00,84.37,53.69,20.19,0.19,0.02,0.03,0.70,0.06,0.71,0.01
3.45,1.25,86.06,176.06,9.59,0.63,0.04,0.00,0.00,0.00,84.37,53.69,20.19,0.18,0.03,0.01,0.70,0.06,0.71,0.01
3.46,1.25,86.06,176.06,9.59,0.64,0.01,0.00,0.00,0.00,84.37,53.69,20.19,0.19,0.02,0.04,0.70,0.06,0.71,0.01
3.47,1.25,86.06,176.06,9.61,0.64,0.06,0.00,0.00,0.00,84.75,52.56,21.00,0.17,0.02,0.00,0.70,0.06,0.71,0.01
3.48,1.25,86.06,176.06,9.58,0.64,0.02,0.00,0.00,0.00,84.75,52.56,21.00,0.19,0.02,0.03,0.70,0.06,0.71,0.01
3.49,1.25,86.06,176.06,9.59,0.63,0.00,0.00,0.00,0.00,84.37,52.88,22.87,0.18,0.03,0.05,0.70,0.06,0.71,0.01
3.50,1.25,86.06,176.06,9.61,0.64,0.06,0.00,0.00,0.00,84.37,52.88,22.87,0.16,0.02,0.00,0.70,0.06,0.71,0.01
3.51,1.25,86.06,176.06,9.60,0.63,0.03,0.00,0.00,0.00,84.37,52.88,22.87,0.18,0.03,0.02,0.70,0.06,0.71,0.01
3.52,1.25,86.06,176.06,9.60,0.63,0.03,0.00,0.00,0.00,83.69,53.25,21.00,0.17,0.03,0.02,0.70,0.06,0.71,0.01
3.54,1.25,86.06,176.06,9.60,0.63,0.04,0.00,0.00,0.00,84.06,53.69,21.37,0.17,0.03,0.01,0.70,0.06,0.71,0.01
3.55,1.25,86.06,176.06,9.59,0.63,0.07,0.00,0.00,0.00,84.06,53.69,21.37,0.18,0.03,0.00,0.70,0.06,0.71,0.01
3.57,1.25,86.06,176.06,9.59,0.64,0.02,0.00,0.00,0.00,84.37,53.25,21.37,0.18,0.02,0.03,0.70,0.06,0.71,0.01
3.58,1.25,86.06,176.06,9.59,0.66,0.03,0.00,0.00,0.00,84.37,53.25,21.37,0.19,0.00,0.02,0.70,0.06,0.71,0.01
3.59,1.25,86.06,176.06,9.60,0.63,0.00,0.00,0.00,0.00,84.37,53.25,20.56,0.18,0.03,0.05,0.70,0.06,0.71,0.01
3.60,1.25,86.06,176.06,9.61,0.64,0.05,0.00,0.00,0.00,84.37,53.25,20.56,0.17,0.02,0.00,0.70,0.06,0.71,0.01
3.61,1.25,86.06,176.06,9.59,0.62,0.01,0.00,0.00,0.00,84.37,53.25,20.56,0.19,0.04,0.04,0.70,0.06,0.71,0.01
3.62,1.25,86.06,176.06,9.61,0.64,0.04,0.00,0.00,0.00,84.75,53.25,19.75,0.17,0.02,0.01,0.70,0.06,0.71,0.01
3.63,1.25,86.06,176.06,9.61,0.63,0.02,0.00,0.00,0.00,84.75,53.25,19.75,0.17,0.03,0.03,0.70,0.06,0.71,0.01
3.65,1.25,86.06,176.06,9.60,0.65,0.04,0.00,0.00,0.00,84.75,53.25,21.00,0.18,0.01,0.01,0.70,0.06,0.71,0.01
3.66,1.25,86.06,176.06,9.60,0.65,0.03,0.00,0.00,0.00,84.75,53.25,21.00,0.17,0.01,0.02,0.70,0.06,0.71,0.01
3.68,1.25,86.06,176.06,9.60,0.64,0.04,0.00,0.00,0.00,84.37,53.69,21.75,0.18,0.02,0.01,0.70,0.06,0.71,0.01
3.69,1.25,86.06,176.06,9.60,0.64,0.03,0.00,0.00,0.00,84.75,53.25,20.56,0.20,0.03,0.01,0.70,0.06,0.71,0.01
3.70,1.25,86.06,176.06,9.58,0.64,0.02,0.00,0.00,0.00,84.75,53.25,20.56,0.18,0.01,0.01,0.70,0.06,0.71,0.01
3.71,1.25,86.06,176.06,9.61,0.63,0.04,0.00,0.00,0.00,84.75,53.25,20.56,0.19,0.02,0.05,0.70,0.06,0.71,0.01
3.72,1.25,86.06,176.06,9.60,0.65,0.04,0.00,0.00,0.00,83.69,52.56,20.88,0.17,0.03,0.01,0.70,0.06,0.71,0.01
3.73,1.25,86.06,176.06,9.59,0.64,0.04,0.00,0.00,0.00,83.69,52.56,20.88,0.17,0.03,0.03,0.70,0.06,0.71,0.01
3.75,1.25,86.06,176.06,9.60,0.64,0.01,0.00,0.00,0.00,84.37,53.25,21.37,0.18,0.02,0.04,0.70,0.06,0.71,0.01
3.76,1.25,86.06,176.06,9.60,0.66,0.03,0.00,0.00,0.00,84.06,52.56,21.00,0.17,0.01,0.02,0.70,0.06,0.71,0.01
3.78,1.25,86.06,176.06,9.59,0.61,0.05,0.00,0.00,0.00,84.06,52.56,21.00,0.18,0.05,0.00,0.70,0.06,0.71,0.01
3.79,1.25,86.06,176.06,9.61,0.65,0.04,0.00,0.00,0.00,84.06,53.25,19.75,0.17,0.01,0.01,0.70,0.06,0.71,0.01
3.80,1.25,86.06,176.06,9.59,0.64,0.04,0.00,0.00,0.00,84.06,53.25,19.75,0.18,0.02,0.01,0.70,0.06,0.71,0.01
3.81,1.25,86.06,176.06,9.60,0.64,0.04,0.00,0.00,0.00,83.69,53.25,21.37,0.17,0.02,0.01,0.70,0.06,0.71,0.01
3.82,1.25,86.06,176.06,9.60,0.62,0.04,0.00,0.00,0.00,83.69,53.25,21.37,0.17,0.04,0.01,0.70,0.06,0.71,0.01
3.83,1.25,86.06,176.06,9.61,0.65,0.03,0.00,0.00,0.00,83.69,53.25,21.37,0.17,0.01,0.02,0.70,0.06,0.71,0.01
3.84,1.25,86.06,176.06,9.59,0.62,0.03,0.00,0.00,0.00,84.37,53.69,21.00,0.19,0.04,0.02,0.70,0.06,0.71,0.01
3.85,1.25,86.06,176.06,9.58,0.63,0.04,0.00,0.00,0.00,84.37,53.69,21.00,0.19,0.03,0.01,0.70,0.06,0.71,0.01
3.86,1.25,86.06,176.06,9.59,0.63,0.06,0.00,0.00,0.00,84.06,51.06,21.75,0.18,0.03,0.00,0.70,0.06,0.71,0.01
3.87,1.25,86.06,176.06,9.59,0.64,0.05,0.00,0.00,0.00,84.06,51.06,21.75,0.18,0.02,0.00,0.70,0.06,0.71,0.01
3.88,1.25,86.06,176.06,9.60,0.63,0.02,0.00,0.00,0.00,84.06,51.06,21.75,0.18,0.03,0.03,0.70,0.06,0.71,0.01
3.90,1.25,86.06,176.06,9.60,0.64,0.02,0.00,0.00,0.00,84.06,53.25,21.37,0.17,0.02,0.03,0.70,0.06,0.71,0.01
3.91,1.25,86.06,176.06,9.58,0.66,0.01,0.00,0.00,0.00,84.37,51.50,21.75,0.19,0.00,0.04,0.70,0.06,0.71,0.01
3.92,1.25,86.06,176.06,9.61,0.65,0.04,0.00,0.00,0.00,84.37,51.50,21.75,0.16,0.01,0.01,0.70,0.06,0.71,0.01
3.93,1.25,86.06,176.06,9.60,0.62,0.03,0.00,0.01,0.00,84.37,51.50,21.75,0.17,0.04,0.02,0.70,0.06,0.71,0.01
3.94,1.25,86.06,176.06,9.60,0.63,0.03,0.00,0.00,0.00,84.37,52.88,22.06,0.18,0.03,0.02,0.70,0.06,0.71,0.01
3.95,1.25,86.06,176.06,9.61,0.64,0.06,0.00,0.00,0.00,84.37,52.88,22.06,0.16,0.02,0.00,0.70,0.06,0.71,0.01
3.96,1.25,86.06,176.06,9.59,0.63,0.01,0.00,0.00,0.00,83.69,52.56,21.75,0.19,0.03,0.04,0.70,0.06,0.71,0.01
3.98,1.25,86.06,176.06,9.60,0.63,0.01,0.00,0.00,0.00,83.69,52.56,21.75,0.17,0.03,0.04,0.70,0.06,0.71,0.01
3.99,1.25,86.06,176.06,9.60,0.62,0.02,0.00,0.00,0.00,84.75,53.25,21.75,0.17,0.04,0.03,0.70,0.06,0.71,0.01
4.00,1.25,86.06,176.06,9.60,0.64,0.02,0.00,0.00,0.00,84.75,53.25,21.75,0.17,0.02,0.03,0.70,0.06,0.71,0.01
4.01,1.25,86.06,176.06,9.60,0.64,0.05,0.00,0.00,0.00,84.06,51.50,21.00,0.17,0.02,0.00,0.70,0.06,0.71,0.01
4.02,1.25,86.06,176.06,9.59,0.64,0.03,0.00,0.00,0.00,84.06,51.50,21.00,0.19,0.02,0.02,0.70,0.06,0.71,0.01
4.03,1.25,86.06,176.06,9.59,0.64,0.02,0.00,0.00,0.00,84.06,51.50,21.00,0.19,0.02,0.03,0.70,0.06,0.71,0.01
4.04,1.25,86.06,176.06,9.60,0.63,0.02,0.00,0.00,0.00,84.06,54.06,21.00,0.17,0.03,0.03,0.70,0.06,0.71,0.01
4.05,1.25,86.06,176.06,9.60,0.64,0.03,0.00,0.00,0.00,84.06,54.06,21.00,0.17,0.02,0.02,0.70,0.06,0.71,0.01
4.06,1.25,86.06,176.06,9.61,0.64,0.00,0.00,0.00,0.00,85.19,53.25,20.56,0.16,0.02,0.06,0.70,0.06,0.71,0.01
4.08,1.25,86.06,176.06,9.59,0.66,0.04,0.00,0.00,0.00,85.19,53.25,20.56,0.19,0.00,0.01,0.70,0.06,0.71,0.01
4.09,1.25,86.06,176.06,9.60,0.65,0.02,0.00,0.00,0.00,84.37,52.88,21.00,0.18,0.01,0.03,0.70,0.06,0.71,0.01
4.10,1.25,86.06,176.06,9.60,0.61,0.05,0.00,0.00,0.00,84.37,52.88,21.00,0.17,0.05,0.00,0.70,0.06,0.71,0.01
4.11,1.25,86.06,176.06,9.59,0.62,0.02,0.00,0.00,0.00,84.37,53.69,20.88,0.18,0.04,0.03,0.70,0.06,0.71,0.01
4.12,1.25,86.06,176.06,9.60,0.64,0.04,0.00,0.00,0.00,84.37,53.69,20.88,0.18,0.02,0.01,0.70,0.06,0.71,0.01
4.13,1.25,86.06,176.06,9.59,0.63,0.02,0.00,0.00,0.00,84.37,53.69,20.88,0.18,0.03,0.03,0.70,0.06,0.71,0.01
4.14,1.25,86.06,176.06,9.61,0.62,0.03,0.00,0.01,0.00,84.37,52.25,22.06,0.16,0.04,0.02,0.70,0.06,0.71,0.01
4.15,1.25,86.06,176.06,9.59,0.64,0.03,0.00,0.00,0.00,84.37,52.25,22.06,0.18,0.02,0.02,0.70,0.06,0.71,0.01
4.16,1.25,86.06,176.06,9.61,0.63,0.04,0.00,0.00,0.00,84.06,52.88,21.75,0.17,0.03,0.01,0.70,0.06,0.71,0.01
4.18,1.25,86.06,176.06,9.60,0.62,0.03,0.00,0.00,0.00,84.06,52.88,21.75,0.18,0.04,0.02,0.70,0.06,0.71,0.01
4.19,1.25,86.06,176.06,9.60,0.65,0.02,0.00,0.00,0.00,84.75,52.56,20.56,0.17,0.01,0.03,0.70,0.06,0.71,0.01
4.20,1.25,86.06,176.06,9.60,0.63,0.02,0.00,0.00,0.00,84.75,52.56,20.56,0.18,0.03,0.03,0.70,0.06,0.71,0.01
4.21,1.25,86.06,176.06,9.58,0.65,0.04,0.00,0.00,0.00,83.69,51.88,21.37,0.20,0.01,0.01,0.70,0.06,0.71,0.01
4.22,1.25,86.06,176.06,9.59,0.65,0.05,0.00,0.00,0.00,83.69,51.88,21.37,0.18,0.01,0.00,0.70,0.06,0.71,0.01
4.23,1.25,86.06,176.06,9.61,0.64,0.02,0.00,0.00,0.00,83.69,51.88,21.37,0.17,0.02,0.03,0.70,0.06,0.71,0.01
4.24,1.25,86.06,176.06,9.60,0.64,0.02,0.00,0.00,0.00,84.75,52.56,21.37,0.18,0.02,0.03,0.70,0.06,0.71,0.01
4.25,1.25,86.06,176.06,9.60,0.65,0.06,0.00,0.00,0.00,84.75,52.56,21.37,0.17,0.01,0.00,0.70,0.06,0.71,0.01
4.26,1.25,86.06,176.06,9.58,0.63,0.03,0.00,0.00,0.00,84.37,52.56,21.00,0.19,0.03,0.02,0.70,0.06,0.71,0.01
4.28,1.25,86.06,176.06,9.58,0.64,0.03,0.00,0.00,0.00,84.37,52.56,21.00,0.19,0.02,0.02,0.70,0.06,0.71,0.01
4.29,1.25,86.06,176.06,9.60,0.63,0.04,0.00,0.00,0.00,84.06,53.25,21.37,0.18,0.03,0.01,0.70,0.06,0.71,0.01
4.31,1.25,86.06,176.06,9.60,0.63,0.02,0.00,0.00,0.00,83.69,51.06,21.75,0.17,0.03,0.03,0.70,0.06,0.71,0.01
4.32,1.25,86.06,176.06,9.60,0.66,0.03,0.00,0.00,0.00,83.69,51.06,21.75,0.18,0.00,0.02,0.70,0.06,0.71,0.01
4.33,1.25,86.06,176.06,9.60,0.64,0.03,0.00,0.00,0.00,83.69,51.06,21.75,0.18,0.02,0.02,0.70,0.06,0.71,0.01
4.34,1.25,86.06,176.06,9.62,0.64,0.04,0.00,0.00,0.00,84.37,53.69,21.00,0.15,0.02,0.01,0.70,0.06,0.71,0.01
4.35,1.25,86.06,176.06,9.59,0.63,0.03,0.00,0.00,0.00,84.37,53.69,21.00,0.18,0.03,0.02,0.70,0.06,0.71,0.01
4.36,1.25,86.06,176.06,9.60,0.63,0.01,0.00,0.00,0.00,84.06,53.25,19.37,0.18,0.03,0.04,0.70,0.06,0.71,0.01
4.37,1.25,86.06,176.06,9.60,0.63,0.05,0.00,0.00,0.00,84.06,53.25,19.37,0.18,0.03,0.00,0.70,0.06,0.71,0.01
4.39,1.25,86.06,176.06,9.60,0.64,0.05,0.00,0.00,0.00,84.06,53.25,20.56,0.18,0.02,0.00,0.70,0.06,0.71,0.01
4.40,1.25,86.06,176.06,9.60,0.64,0.05,0.00,0.00,0.00,84.06,53.25,20.56,0.18,0.02,0.00,0.70,0.06,0.71,0.01
4.41,1.25,86.06,176.06,9.60,0.64,0.03,0.00,0.00,0.00,84.06,53.25,21.37,0.17,0.02,0.02,0.70,0.06,0.71,0.01
4.42,1.25,86.06,176.06,9.59,0.63,0.04,0.00,0.00,0.00,84.06,53.25,21.37,0.18,0.03,0.01,0.70,0.06,0.71,0.01
4.43,1.25,86.06,176.06,9.61,0.64,0.03,0.00,0.00,0.00,84.06,53.25,21.37,0.17,0.02,0.02,0.70,0.06,0.71,0.01
4.44,1.25,86.06,176.06,9.59,0.65,0.03,0.00,0.00,0.00,84.37,53.69,20.19,0.18,0.01,0.02,0.70,0.06,0.71,0.01
4.45,1.25,86.06,176.06,9.60,0.63,0.05,0.00,0.00,0.00,84.37,53.69,20.19,0.17,0.03,0.00,0.70,0.06,0.71,0.01
4.46,1.25,86.06,176.06,9.60,0.63,0.02,0.00,0.00,0.00,84.75,53.25,21.00,0.18,0.03,0.03,0.70,0.06,0.71,0.01
4.47,1.25,86.06,176.06,9.59,0.64,0.04,0.00,0.00,0.00,84.75,53.25,21.00,0.18,0.02,0.01,0.70,0.06,0.71,0.01
4.49,1.25,86.06,176.06,9.57,0.62,0.02,0.00,0.00,0.00,84.06,51.50,20.19,0.20,0.04,0.03,0.70,0.06,0.71,0.01
4.50,1.25,86.06,176.06,9.61,0.63,0.05,0.00,0.00,0.00,84.06,51.50,20.19,0.16,0.03,0.00,0.70,0.06,0.71,0.01
4.51,1.25,86.06,176.06,9.61,0.63,0.03,0.00,0.00,0.00,83.37,52.56,20.56,0.17,0.03,0.02,0.70,0.06,0.71,0.01
4.52,1.25,86.06,176.06,9.62,0.64,0.06,0.00,0.00,0.00,83.37,52.56,20.56,0.15,0.02,0.00,0.70,0.06,0.71,0.01
4.53,1.25,86.06,176.06,9.61,0.65,0.05,0.00,0.00,0.00,83.37,52.56,20.56,0.17,0.01,0.00,0.70,0.06,0.71,0.01
4.54,1.25,86.06,176.06,9.61,0.63,0.04,0.00,0.00,0.00,84.37,52.56,19.75,0.16,0.03,0.01,0.70,0.06,0.71,0.01
4.55,1.25,86.06,176.06,9.59,0.63,0.05,0.00,0.00,0.00,84.37,52.56,19.75,0.18,0.03,0.00,0.70,0.06,0.71,0.01
4.56,1.25,86.06,176.06,9.60,0.65,0.02,0.00,0.00,0.00,83.69,52.56,21.00,0.18,0.01,0.03,0.70,0.06,0.71,0.01
4.57,1.25,86.06,176.06,9.60,0.64,0.06,0.00,0.00,0.00,83.69,52.56,21.00,0.17,0.02,0.00,0.70,0.06,0.71,0.01
4.58,1.25,86.06,176.06,9.60,0.64,0.02,0.00,0.00,0.00,83.69,52.56,21.00,0.18,0.02,0.03,0.70,0.06,0.71,0.01
4.59,1.25,86.06,176.06,9.60,0.64,0.03,0.00,0.00,0.00,84.37,52.88,20.19,0.18,0.02,0.02,0.70,0.06,0.71,0.01
4.60,1.25,86.06,176.06,9.60,0.63,0.03,0.00,0.00,0.00,84.37,52.88,20.19,0.18,0.03,0.02,0.70,0.06,0.71,0.01
4.61,1.25,86.06,176.06,9.61,0.64,0.04,0.00,0.00,0.00,83.69,53.25,21.75,0.16,0.02,0.01,0.70,0.06,0.71,0.01
4.62,1.25,86.06,176.06,9.59,0.63,0.03,0.00,0.00,0.00,83.69,53.25,21.75,0.18,0.03,0.02,0.70,0.06,0.71,0.01
4.63,1.25,86.06,176.06,9.61,0.62,0.04,0.00,0.00,0.00,83.69,53.25,21.75,0.16,0.04,0.01,0.70,0.06,0.71,0.01
4.64,1.25,86.06,176.06,9.60,0.62,0.02,0.00,0.00,0.00,84.75,53.69,19.75,0.18,0.04,0.03,0.70,0.06,0.71,0.01
4.65,1.25,86.06,176.06,9.59,0.64,0.04,0.00,0.00,0.00,84.75,53.69,19.75,0.18,0.02,0.01,0.70,0.06,0.71,0.01
4.66,1.25,86.06,176.06,9.59,0.61,0.01,0.00,0.00,0.00,84.75,53.25,21.75,0.18,0.05,0.04,0.70,0.06,0.71,0.01
4.67,1.25,86.06,176.06,9.60,0.64,0.03,0.00,0.01,0.00,84.75,53.25,21.75,0.17,0.02,0.02,0.70,0.06,0.71,0.01
4.68,1.25,86.06,176.06,9.58,0.63,0.04,0.00,0.00,0.00,84.75,53.25,21.75,0.19,0.03,0.01,0.70,0.06,0.71,0.01
4.69,1.25,86.06,176.06,9.60,0.65,0.01,0.00,0.00,0.00,84.37,53.25,20.56,0.18,0.01,0.04,0.70,0.06,0.71,0.01
4.70,1.25,86.06,176.06,9.60,0.64,0.04,0.00,0.00,0.00,84.37,53.25,20.56,0.17,0.02,0.01,0.70,0.06,0.71,0.01
4.72,1.25,86.06,176.06,9.61,0.64,0.03,0.00,0.00,0.00,84.75,53.25,20.19,0.17,0.02,0.02,0.70,0.06,0.71,0.01
4.73,1.25,86.06,176.06,9.58,0.63,0.01,0.00,0.00,0.00,84.75,53.25,20.19,0.19,0.03,0.04,0.70,0.06,0.71,0.01
4.74,1.25,86.06,176.06,9.60,0.65,0.01,0.00,0.00,0.00,84.37,51.06,20.56,0.17,0.01,0.04,0.70,0.06,0.71,0.01
4.75,1.25,86.06,176.06,9.61,0.63,0.03,0.00,0.00,0.00,84.37,51.06,20.56,0.17,0.03,0.02,0.70,0.06,0.71,0.01
4.76,1.25,86.06,176.06,9.59,0.64,0.02,0.00,0.00,0.00,84.37,52.56,21.00,0.18,0.02,0.03,0.70,0.06,0.71,0.01
4.77,1.25,86.06,176.06,9.60,0.64,0.05,0.00,0.00,0.00,84.37,52.56,21.00,0.17,0.02,0.00,0.70,0.06,0.71,0.01
4.78,1.25,86.06,176.06,9.60,0.66,0.03,0.00,0.00,0.00,84.37,52.56,21.00,0.18,0.00,0.02,0.70,0.06,0.71,0.01
4.80,1.25,86.06,176.06,9.60,0.62,0.05,0.00,0.00,0.00,84.37,53.25,20.56,0.17,0.04,0.00,0.70,0.06,0.71,0.01
4.81,1.25,86.06,176.06,9.59,0.63,0.04,0.00,0.00,0.00,84.75,53.25,20.56,0.19,0.03,0.01,0.70,0.06,0.71,0.01
4.82,1.25,86.06,176.06,9.59,0.64,0.03,0.00,0.00,0.00,84.75,53.25,20.56,0.19,0.02,0.02,0.70,0.06,0.71,0.01
4.83,1.25,86.06,176.06,9.58,0.63,0.02,0.00,0.00,0.00,84.75,53.25,20.56,0.19,0.03,0.03,0.70,0.06,0.71,0.01
4.84,1.25,86.06,176.06,9.60,0.63,0.04,0.00,0.00,0.00,84.06,51.88,21.37,0.17,0.03,0.01,0.70,0.06,0.71,0.01
4.85,1.25,86.06,176.06,9.61,0.64,0.02,0.00,0.00,0.00,84.06,51.88,21.37,0.16,0.02,0.03,0.70,0.06,0.71,0.01
4.86,1.25,86.06,176.06,9.59,0.65,0.02,0.00,0.00,0.00,84.75,51.88,21.37,0.18,0.01,0.03,0.70,0.06,0.71,0.01
4.87,1.25,86.06,176.06,9.59,0.62,0.06,0.00,0.00,0.00,84.75,51.88,21.37,0.19,0.04,0.00,0.70,0.06,0.71,0.01
4.88,1.25,86.06,176.06,9.59,0.64,0.03,0.00,0.00,0.00,84.75,51.88,21.37,0.18,0.02,0.02,0.70,0.06,0.71,0.01
4.90,1.25,86.06,176.06,9.61,0.64,0.03,0.00,0.00,0.00,84.37,51.06,21.00,0.17,0.02,0.02,0.70,0.06,0.71,0.01
4.91,1.25,86.06,176.06,9.60,0.63,0.02,0.00,0.00,0.00,84.75,53.69,21.37,0.18,0.03,0.03,0.70,0.06,0.71,0.01
4.92,1.25,86.06,176.06,9.61,0.64,0.02,0.00,0.00,0.00,84.75,53.69,21.37,0.16,0.02,0.03,0.70,0.06,0.71,0.01
4.93,1.25,86.06,176.06,9.59,0.64,0.03,0.00,0.00,0.00,84.75,53.69,21.37,0.18,0.02,0.02,0.70,0.06,0.71,0.01
4.94,1.25,86.06,176.06,9.59,0.63,0.02,0.00,0.00,0.00,83.69,51.88,21.75,0.18,0.03,0.03,0.70,0.06,0.71,0.01
4.95,1.25,86.06,176.06,9.60,0.64,0.03,0.00,0.00,0.00,83.69,51.88,21.75,0.17,0.02,0.02,0.70,0.06,0.71,0.01
4.96,1.25,86.06,176.06,9.58,0.63,0.02,0.00,0.00,0.00,84.37,51.50,21.00,0.19,0.03,0.03,0.70,0.06,0.71,0.01
4.97,1.25,86.06,176.06,9.59,0.66,0.03,0.00,0.00,0.00,84.37,51.50,21.00,0.18,0.00,0.02,0.70,0.06,0.71,0.01
4.98,1.25,86.06,176.06,9.58,0.63,0.04,0.00,0.00,0.00,84.37,51.50,21.00,0.20,0.03,0.01,0.70,0.06,0.71,0.01
4.99,1.25,86.06,176.06,9.59,0.64,0.04,0.00,0.00,0.00,84.06,52.56,21.00,0.18,0.02,0.01,0.70,0.06,0.71,0.01
5.00,1.25,86.06,176.06,9.60,0.62,0.03,0.00,0.00,0.00,84.06,52.56,21.00,0.18,0.04,0.02,0.70,0.06,0.71,0.01
5.01,1.25,86.06,176.06,9.61,0.62,0.03,0.00,0.00,0.00,84.37,53.25,20.19,0.16,0.04,0.02,0.70,0.06,0.71,0.01
5.02,1.25,86.06,176.06,9.61,0.65,0.06,0.00,0.00,0.00,84.37,53.25,20.19,0.17,0.01,0.00,0.70,0.06,0.71,0.01
5.03,1.25,86.06,176.06,9.60,0.64,0.03,0.00,0.00,0.00,84.37,53.25,20.19,0.18,0.02,0.02,0.70,0.06,0.71,0.01
5.04,1.25,86.06,176.06,9.61,0.64,0.03,0.00,0.00,0.00,84.37,51.06,21.37,0.16,0.02,0.02,0.70,0.06,0.71,0.01
5.05,1.25,86.06,176.06,9.60,0.64,0.05,0.00,0.00,0.00,84.37,51.06,21.37,0.18,0.02,0.00,0.70,0.06,0.71,0.01
5.06,1.25,86.06,176.06,9.59,0.61,0.05,0.00,0.00,0.00,84.06,52.56,21.37,0.18,0.05,0.00,0.70,0.06,0.71,0.01
5.07,1.25,86.06,176.06,9.61,0.64,0.05,0.00,0.00,0.00,84.06,52.56,21.37,0.16,0.02,0.00,0.70,0.06,0.71,0.01
5.08,1.25,86.06,176.06,9.60,0.62,0.03,0.00,0.00,0.00,84.06,52.56,21.37,0.18,0.04,0.02,0.70,0.06,0.71,0.01
5.10,1.25,86.06,176.06,9.58,0.64,0.02,0.00,0.00,0.00,84.37,53.69,20.56,0.20,0.02,0.03,0.70,0.06,0.71,0.01
5.11,1.25,86.06,176.06,9.61,0.65,0.05,0.00,0.00,0.00,84.06,53.25,22.06,0.17,0.01,0.00,0.70,0.06,0.71,0.01
5.13,1.25,86.06,176.06,9.59,0.66,0.03,0.00,0.00,0.00,84.06,53.25,22.06,0.19,0.00,0.02,0.70,0.06,0.71,0.01
5.14,1.25,86.06,176.06,9.60,0.64,0.03,0.00,0.00,0.00,84.75,52.88,21.37,0.17,0.02,0.02,0.70,0.06,0.71,0.01
5.15,1.25,86.06,176.06,9.59,0.64,0.03,0.00,0.00,0.00,84.75,52.88,21.37,0.18,0.02,0.02,0.70,0.06,0.71,0.01
5.16,1.25,86.06,176.06,9.61,0.64,0.06,0.00,0.00,0.00,84.06,52.25,20.19,0.16,0.02,0.00,0.70,0.06,0.71,0.01
5.17,1.25,86.06,176.06,9.60,0.66,0.05,0.00,0.00,0.00,84.06,52.25,20.19,0.17,0.00,0.00,0.70,0.06,0.71,0.01
5.18,1.25,86.06,176.06,9.59,0.62,0.05,0.00,0.00,0.00,84.06,52.25,20.19,0.18,0.04,0.00,0.70,0.06,0.71,0.01
5.19,1.25,86.06,176.06,9.59,0.66,0.02,0.00,0.00,0.00,83.69,53.25,20.19,0.19,0.00,0.03,0.70,0.06,0.71,0.01
5.20,1.25,86.06,176.06,9.61,0.63,0.04,0.00,0.00,0.00,83.69,53.25,20.19,0.17,0.03,0.01,0.70,0.06,0.71,0.01
5.21,1.25,86.06,176.06,9.60,0.62,0.03,0.00,0.00,0.00,85.06,52.88,20.56,0.17,0.04,0.02,0.70,0.06,0.71,0.01
5.22,1.25,86.06,176.06,9.61,0.64,0.04,0.00,0.00,0.00,85.06,52.88,20.56,0.16,0.02,0.01,0.70,0.06,0.71,0.01
5.23,1.25,86.06,176.06,9.58,0.67,0.04,0.00,0.00,0.00,85.06,52.88,20.56,0.20,0.00,0.01,0.70,0.06,0.71,0.01
5.24,1.25,86.06,176.06,9.60,0.64,0.03,0.00,0.00,0.00,84.06,53.25,20.56,0.18,0.02,0.02,0.70,0.06,0.71,0.01
5.25,1.25,86.06,176.06,9.59,0.64,0.03,0.00,0.00,0.00,84.06,53.25,20.56,0.19,0.02,0.02,0.70,0.06,0.71,0.01
5.26,1.25,86.06,176.06,9.60,0.64,0.02,0.00,0.00,0.00,84.06,53.25,21.00,0.17,0.02,0.03,0.70,0.06,0.71,0.01
5.27,1.25,86.06,176.06,9.59,0.63,0.07,0.00,0.00,0.00,84.06,53.25,21.00,0.19,0.03,0.01,0.70,0.06,0.71,0.01
5.28,1.25,86.06,176.06,9.59,0.64,0.04,0.00,0.00,0.00,84.06,53.25,21.00,0.18,0.02,0.01,0.70,0.06,0.71,0.01
5.29,1.25,86.06,176.06,9.61,0.64,0.02,0.00,0.00,0.00,84.06,53.25,20.19,0.17,0.02,0.03,0.70,0.06,0.71,0.01
5.31,1.25,86.06,176.06,9.60,0.65,0.01,0.00,0.00,0.00,84.37,52.25,21.75,0.18,0.01,0.04,0.70,0.06,0.71,0.01
5.32,1.25,86.06,176.06,9.59,0.63,0.03,0.00,0.00,0.00,84.37,52.25,21.75,0.19,0.03,0.02,0.70,0.06,0.71,0.01
5.33,1.25,86.06,176.06,9.59,0.63,0.04,0.00,0.00,0.00,84.37,52.25,21.75,0.18,0.03,0.01,0.70,0.06,0.71,0.01
5.34,1.25,86.06,176.06,9.59,0.64,0.05,0.00,0.00,0.00,84.37,53.25,21.37,0.18,0.02,0.00,0.70,0.06,0.71,0.01
5.35,1.25,86.06,176.06,9.61,0.64,0.04,0.00,0.00,0.00,84.37,53.25,21.37,0.16,0.02,0.01,0.70,0.06,0.71,0.01
5.36,1.25,86.06,176.06,9.61,0.62,0.02,0.00,0.00,0.00,84.06,52.88,20.56,0.17,0.04,0.03,0.70,0.06,0.71,0.01
5.37,1.25,86.06,176.06,9.61,0.65,0.04,0.00,0.00,0.00,84.06,52.88,20.56,0.17,0.01,0.01,0.70,0.06,0.71,0.01
5.38,1.25,86.06,176.06,9.59,0.63,0.03,0.00,0.00,0.00,84.06,52.88,20.56,0.19,0.03,0.02,0.70,0.06,0.71,0.01
5.39,1.25,86.06,176.06,9.60,0.65,0.03,0.00,0.00,0.00,84.37,54.38,20.56,0.18,0.01,0.02,0.70,0.06,0.71,0.01
5.40,1.25,86.06,176.06,9.59,0.63,0.03,0.00,0.00,0.00,84.37,54.38,20.56,0.18,0.03,0.02,0.70,0.06,0.71,0.01
5.41,1.25,86.06,176.06,9.61,0.63,0.02,0.00,0.00,0.00,84.37,52.25,20.56,0.17,0.03,0.03,0.70,0.06,0.71,0.01
5.42,1.25,86.06,176.06,9.58,0.65,0.05,0.00,0.00,0.00,84.37,52.25,20.56,0.19,0.01,0.00,0.70,0.06,0.71,0.01
5.43,1.25,86.06,176.06,9.61,0.66,0.02,0.00,0.00,0.00,84.37,52.25,20.56,0.17,0.00,0.03,0.70,0.06,0.71,0.01
5.44,1.25,86.06,176.06,9.61,0.64,0.03,0.00,0.00,0.00,83.37,53.25,21.37,0.17,0.02,0.02,0.70,0.06,0.71,0.01
5.45,1.25,86.06,176.06,9.61,0.65,0.04,0.00,0.00,0.00,83.37,53.25,21.37,0.16,0.01,0.01,0.70,0.06,0.71,0.01
5.46,1.25,86.06,176.06,9.60,0.63,0.03,0.00,0.00,0.00,84.37,51.50,21.00,0.18,0.03,0.02,0.70,0.06,0.71,0.01
5.47,1.25,86.06,176.06,9.58,0.64,0.05,0.00,0.00,0.00,84.37,51.50,21.00,0.20,0.02,0.00,0.70,0.06,0.71,0.01
5.48,1.25,86.06,176.06,9.61,0.64,0.03,0.00,0.00,0.00,84.37,51.50,21.00,0.16,0.02,0.02,0.70,0.06,0.71,0.01
5.49,1.25,86.06,176.06,9.61,0.66,0.03,0.00,0.00,0.00,84.06,51.50,21.00,0.17,0.00,0.02,0.70,0.06,0.71,0.01
5.50,1.25,86.06,176.06,9.59,0.63,0.02,0.00,0.00,0.00,84.06,51.50,21.00,0.19,0.03,0.03,0.70,0.06,0.71,0.01
5.51,1.25,86.06,176.06,9.61,0.63,0.02,0.00,0.00,0.00,84.06,53.69,21.00,0.16,0.03,0.03,0.70,0.06,0.71,0.01
5.52,1.25,86.06,176.06,9.60,0.62,0.05,0.00,0.00,0.00,84.06,53.69,21.00,0.17,0.04,0.00,0.70,0.06,0.71,0.01
5.53,1.25,86.06,176.06,9.60,0.62,0.03,0.00,0.00,0.00,84.06,53.69,21.00,0.17,0.04,0.02,0.70,0.06,0.71,0.01
5.54,1.25,86.06,176.06,9.59,0.63,0.02,0.00,0.00,0.00,84.75,51.88,20.88,0.18,0.03,0.03,0.70,0.06,0.71,0.01
5.55,1.25,86.06,176.06,9.59,0.66,0.00,0.00,0.00,0.00,84.75,51.88,20.88,0.19,0.00,0.05,0.70,0.06,0.71,0.01
5.56,1.25,86.06,176.06,9.60,0.64,0.02,0.00,0.00,0.00,84.06,53.69,20.19,0.17,0.02,0.03,0.70,0.06,0.71,0.01
5.57,1.25,86.06,176.06,9.59,0.63,0.04,0.00,0.00,0.00,84.06,53.69,20.19,0.19,0.03,0.01,0.70,0.06,0.71,0.01
5.58,1.25,86.06,176.06,9.60,0.64,0.03,0.00,0.00,0.00,84.06,53.69,20.19,0.17,0.02,0.02,0.70,0.06,0.71,0.01
5.59,1.25,86.06,176.06,9.59,0.62,0.02,0.00,0.00,0.00,84.75,52.88,21.75,0.19,0.04,0.03,0.70,0.06,0.71,0.01
5.60,1.25,86.06,176.06,9.61,0.63,0.04,0.00,0.00,0.00,84.75,52.88,21.75,0.17,0.03,0.01,0.70,0.06,0.71,0.01
5.61,1.25,86.06,176.06,9.60,0.64,0.04,0.00,0.00,0.00,85.50,53.25,20.56,0.17,0.02,0.01,0.70,0.06,0.71,0.01
5.62,1.25,86.06,176.06,9.60,0.64,0.06,0.00,0.00,0.00,85.50,53.25,20.56,0.18,0.02,0.00,0.70,0.06,0.71,0.01
5.64,1.25,86.06,176.06,9.60,0.65,0.03,0.00,0.00,0.00,84.75,52.88,21.75,0.17,0.01,0.02,0.70,0.06,0.71,0.01
5.65,1.25,86.06,176.06,9.60,0.64,0.04,0.00,0.00,0.00,84.75,52.88,21.75,0.18,0.02,0.01,0.70,0.06,0.71,0.01
5.66,1.25,86.06,176.06,9.59,0.64,0.03,0.00,0.00,0.00,84.75,52.88,22.50,0.18,0.02,0.02,0.70,0.06,0.71,0.01
5.67,1.25,86.06,176.06,9.61,0.64,0.03,0.00,0.00,0.00,84.75,52.88,22.50,0.16,0.02,0.02,0.70,0.06,0.71,0.01
5.68,1.25,86.06,176.06,9.58,0.63,0.02,0.00,0.00,0.00,84.75,52.88,22.50,0.20,0.03,0.03,0.70,0.06,0.71,0.01
5.69,1.25,86.06,176.06,9.60,0.64,0.03,0.00,0.00,0.00,84.75,52.56,20.88,0.17,0.02,0.02,0.70,0.06,0.71,0.01
5.70,1.25,86.06,176.06,9.59,0.64,0.04,0.00,0.00,0.00,84.75,52.56,20.88,0.18,0.02,0.01,0.70,0.06,0.71,0.01
5.72,1.25,86.06,176.06,9.58,0.63,0.04,0.00,0.00,0.00,83.69,51.50,22.06,0.20,0.03,0.01,0.70,0.06,0.71,0.01
5.73,1.25,86.06,176.06,9.60,0.64,0.04,0.00,0.00,0.00,83.69,51.50,22.06,0.17,0.02,0.01,0.70,0.06,0.71,0.01
5.74,1.25,86.06,176.06,9.60,0.65,0.03,0.00,0.00,0.00,84.37,53.25,21.37,0.17,0.01,0.02,0.70,0.06,0.71,0.01
5.75,1.25,86.06,176.06,9.60,0.63,0.02,0.00,0.00,0.00,84.37,53.25,21.37,0.18,0.03,0.03,0.70,0.06,0.71,0.01
5.76,1.25,86.06,176.06,9.59,0.62,0.03,0.00,0.00,0.00,84.75,52.88,20.56,0.18,0.04,0.02,0.70,0.06,0.71,0.01
5.77,1.25,86.06,176.06,9.61,0.64,0.04,0.00,0.00,0.00,84.75,52.88,20.56,0.16,0.02,0.01,0.70,0.06,0.71,0.01
5.78,1.25,86.06,176.06,9.59,0.63,0.04,0.00,0.00,0.00,84.75,52.88,20.56,0.18,0.03,0.01,0.70,0.06,0.71,0.01
5.79,1.25,86.06,176.06,9.60,0.64,0.03,0.00,0.00,0.00,84.37,53.25,19.75,0.17,0.02,0.02,0.70,0.06,0.71,0.01
5.80,1.25,86.06,176.06,9.59,0.64,0.03,0.00,0.00,0.00,84.37,53.25,19.75,0.18,0.02,0.02,0.70,0.06,0.71,0.01
5.82,1.25,86.06,176.06,9.60,0.62,0.01,0.00,0.00,0.00,84.06,52.56,21.37,0.17,0.04,0.04,0.70,0.06,0.71,0.01
5.83,1.25,86.06,176.06,9.60,0.62,0.03,0.00,0.00,0.00,84.06,52.56,21.37,0.18,0.04,0.02,0.70,0.06,0.71,0.01
5.84,1.25,86.06,176.06,9.61,0.63,0.03,0.00,0.00,0.00,84.06,53.25,21.75,0.17,0.03,0.02,0.70,0.06,0.71,0.01
5.85,1.25,86.06,176.06,9.59,0.64,0.03,0.00,0.00,0.00,84.06,53.25,21.75,0.18,0.02,0.02,0.70,0.06,0.71,0.01
5.86,1.25,86.06,176.06,9.60,0.64,0.03,0.00,0.00,0.00,84.37,52.56,21.37,0.18,0.02,0.02,0.70,0.06,0.71,0.01
5.87,1.25,86.06,176.06,9.59,0.64,0.06,0.00,0.00,0.00,84.37,52.56,21.37,0.18,0.02,0.00,0.70,0.06,0.71,0.01
5.88,1.25,86.06,176.06,9.59,0.65,0.04,0.00,0.00,0.00,84.37,52.56,21.37,0.18,0.01,0.01,0.70,0.06,0.71,0.01
5.89,1.25,86.06,176.06,9.59,0.65,0.03,0.00,0.00,0.00,84.37,52.88,21.00,0.18,0.01,0.02,0.70,0.06,0.71,0.01
5.90,1.25,86.06,176.06,9.61,0.62,0.03,0.00,0.00,0.00,84.37,52.88,21.00,0.16,0.04,0.02,0.70,0.06,0.71,0.01
5.92,1.25,86.06,176.06,9.61,0.64,0.07,0.00,0.00,0.00,84.06,51.88,20.56,0.16,0.02,0.00,0.70,0.06,0.71,0.01
5.93,1.25,86.06,176.06,9.61,0.63,0.03,0.00,0.00,0.00,84.06,51.88,20.56,0.17,0.03,0.02,0.70,0.06,0.71,0.01
5.95,1.25,86.06,176.06,9.59,0.66,0.04,0.00,0.00,0.00,84.75,52.25,19.75,0.18,0.00,0.01,0.70,0.06,0.71,0.01
5.96,1.25,86.06,176.06,9.59,0.65,0.03,0.00,0.00,0.00,84.37,52.88,21.37,0.18,0.01,0.02,0.70,0.06,0.71,0.01
5.97,1.25,86.06,176.06,9.59,0.63,0.04,0.00,0.00,0.00,84.37,52.88,21.37,0.18,0.03,0.01,0.70,0.06,0.71,0.01
5.98,1.25,86.06,176.06,9.60,0.65,0.05,0.00,0.00,0.00,84.37,52.88,21.37,0.18,0.01,0.00,0.70,0.06,0.71,0.01
5.99,1.25,86.06,176.06,9.59,0.64,0.02,0.00,0.00,0.00,84.75,51.88,20.19,0.19,0.02,0.03,0.70,0.06,0.71,0.01
6.00,1.25,86.06,176.06,9.58,0.64,0.02,0.00,0.00,0.00,84.75,51.88,20.19,0.19,0.02,0.03,0.70,0.06,0.71,0.01
6.01,1.25,86.06,176.06,9.60,0.66,0.04,0.00,0.00,0.00,83.69,52.88,21.75,0.17,0.00,0.01,0.70,0.06,0.71,0.01
6.03,1.25,86.06,176.06,9.60,0.64,0.03,0.00,0.00,0.00,83.69,52.88,21.75,0.17,0.02,0.02,0.70,0.06,0.71,0.01
6.04,1.25,86.06,176.06,9.58,0.64,0.01,0.00,0.00,0.00,84.37,52.25,20.19,0.19,0.02,0.04,0.70,0.06,0.71,0.01
6.05,1.25,86.06,176.06,9.59,0.64,0.05,0.00,0.00,0.00,84.37,52.25,20.19,0.18,0.02,0.00,0.70,0.06,0.71,0.01
6.06,1.25,86.06,176.06,9.60,0.64,0.02,0.00,0.00,0.00,84.37,52.56,22.06,0.18,0.02,0.03,0.70,0.06,0.71,0.01
6.07,1.25,86.06,176.06,9.59,0.63,0.05,0.00,0.00,0.00,84.37,52.56,22.06,0.18,0.03,0.00,0.70,0.06,0.71,0.01
6.08,1.25,86.06,176.06,9.60,0.64,0.02,0.00,0.00,0.00,84.37,52.56,22.06,0.18,0.02,0.03,0.70,0.06,0.71,0.01
6.09,1.25,86.06,176.06,9.59,0.65,0.04,0.00,0.00,0.00,83.37,52.88,22.06,0.18,0.01,0.01,0.70,0.06,0.71,0.01
6.10,1.25,86.06,176.06,9.60,0.64,0.03,0.00,0.00,0.00,83.37,52.88,22.06,0.17,0.02,0.02,0.70,0.06,0.71,0.01
6.11,1.25,86.06,176.06,9.59,0.62,0.03,0.00,0.00,0.00,84.37,52.88,21.00,0.19,0.04,0.02,0.70,0.06,0.71,0.01
6.12,1.25,86.06,176.06,9.58,0.64,0.03,0.00,0.00,0.00,84.37,52.88,21.00,0.20,0.02,0.02,0.70,0.06,0.71,0.01
6.13,1.25,86.06,176.06,9.59,0.64,0.05,0.00,0.00,0.00,84.37,52.88,21.00,0.18,0.02,0.00,0.70,0.06,0.71,0.01
6.15,1.25,86.06,176.06,9.59,0.64,0.04,0.00,0.00,0.00,84.75,52.88,21.00,0.18,0.02,0.01,0.70,0.06,0.71,0.01
6.16,1.25,86.06,176.06,9.58,0.63,0.03,0.00,0.00,0.00,84.06,52.88,21.37,0.19,0.03,0.02,0.70,0.06,0.71,0.01
6.17,1.25,86.06,176.06,9.61,0.64,0.07,0.00,0.00,0.00,84.06,52.88,21.37,0.16,0.02,0.00,0.70,0.06,0.71,0.01
6.18,1.25,86.06,176.06,9.59,0.64,0.05,0.00,0.00,0.00,84.06,52.88,21.37,0.18,0.02,0.00,0.70,0.06,0.71,0.01
6.19,1.25,86.06,176.06,9.59,0.64,0.03,0.00,0.00,0.00,84.06,52.88,21.00,0.18,0.02,0.02,0.70,0.06,0.71,0.01
6.20,1.25,86.06,176.06,9.61,0.60,0.03,0.00,0.00,0.00,84.06,52.88,21.00,0.17,0.05,0.02,0.70,0.06,0.71,0.01
6.21,1.25,86.06,176.06,9.61,0.64,0.02,0.00,0.00,0.00,84.06,53.69,21.37,0.17,0.02,0.03,0.70,0.06,0.71,0.01
6.23,1.25,86.06,176.06,9.59,0.63,0.05,0.00,0.00,0.00,84.06,53.69,21.37,0.19,0.03,0.00,0.70,0.06,0.71,0.01
6.24,1.25,86.06,176.06,9.59,0.63,0.04,0.00,0.00,0.00,84.37,51.06,20.56,0.18,0.03,0.01,0.70,0.06,0.71,0.01
6.26,1.25,86.06,176.06,9.58,0.64,0.04,0.00,0.00,0.00,84.37,52.56,21.75,0.20,0.02,0.01,0.70,0.06,0.71,0.01
6.27,1.25,86.06,176.06,9.60,0.64,0.04,0.00,0.00,0.00,84.37,52.56,21.75,0.18,0.02,0.01,0.70,0.06,0.71,0.01
6.28,1.25,86.06,176.06,9.59,0.63,0.05,0.00,0.00,0.00,84.37,52.56,21.75,0.19,0.03,0.00,0.70,0.06,0.71,0.01
6.29,1.25,86.06,176.06,9.58,0.62,0.02,0.00,0.00,0.00,84.06,53.25,21.37,0.20,0.04,0.03,0.70,0.06,0.71,0.01
6.30,1.25,86.06,176.06,9.59,0.65,0.03,0.00,0.00,0.00,84.06,53.25,21.37,0.18,0.01,0.02,0.70,0.06,0.71,0.01
6.31,1.25,86.06,176.06,9.59,0.64,0.05,0.00,0.00,0.00,84.06,54.06,20.56,0.18,0.02,0.00,0.70,0.06,0.71,0.01
6.32,1.25,86.06,176.06,9.60,0.64,0.04,0.00,0.00,0.00,84.06,54.06,20.56,0.17,0.02,0.01,0.70,0.06,0.71,0.01
6.34,1.25,86.06,176.06,9.59,0.63,0.02,0.00,0.00,0.00,85.19,52.88,21.00,0.19,0.03,0.03,0.70,0.06,0.71,0.01
6.35,1.25,86.06,176.06,9.58,0.64,0.04,0.00,0.00,0.00,85.19,52.88,21.00,0.19,0.02,0.01,0.70,0.06,0.71,0.01
6.36,1.25,86.06,176.06,9.59,0.65,0.02,0.00,0.00,0.00,84.75,54.06,21.75,0.19,0.01,0.03,0.70,0.06,0.71,0.01
6.37,1.25,86.06,176.06,9.61,0.64,0.04,0.00,0.00,0.00,84.75,54.06,21.75,0.17,0.02,0.01,0.70,0.06,0.71,0.01
6.38,1.25,86.06,176.06,9.60,0.64,0.01,0.00,0.00,0.00,84.75,54.06,21.75,0.18,0.02,0.04,0.70,0.06,0.71,0.01
6.39,1.25,86.06,176.06,9.60,0.64,0.02,0.00,0.00,0.00,84.75,51.50,21.00,0.18,0.02,0.03,0.70,0.06,0.71,0.01
6.40,1.25,86.06,176.06,9.59,0.64,0.05,0.00,0.00,0.00,84.75,51.50,21.00,0.18,0.02,0.00,0.70,0.06,0.71,0.01
6.41,1.25,86.06,176.06,9.60,0.66,0.03,0.00,0.00,0.00,84.06,53.69,20.19,0.17,0.00,0.02,0.70,0.06,0.71,0.01
6.42,1.25,86.06,176.06,9.60,0.65,0.03,0.00,0.00,0.00,84.06,53.69,20.19,0.17,0.01,0.02,0.70,0.06,0.71,0.01
6.44,1.25,86.06,176.06,9.59,0.65,0.01,0.00,0.00,0.00,84.75,53.25,21.75,0.18,0.01,0.04,0.70,0.06,0.71,0.01
6.45,1.25,86.06,176.06,9.61,0.61,0.04,0.00,0.00,0.00,84.75,53.25,21.75,0.16,0.05,0.01,0.70,0.06,0.71,0.01
6.46,1.25,86.06,176.06,9.60,0.65,0.03,0.00,0.00,0.00,84.37,51.50,20.56,0.17,0.01,0.02,0.70,0.06,0.71,0.01
6.47,1.25,86.06,176.06,9.60,0.64,0.05,0.00,0.00,0.00,84.37,51.50,20.56,0.18,0.02,0.00,0.70,0.06,0.71,0.01
6.48,1.25,86.06,176.06,9.61,0.65,0.02,0.00,0.00,0.00,84.37,51.50,20.56,0.17,0.01,0.03,0.70,0.06,0.71,0.01
6.49,1.25,86.06,176.06,9.59,0.63,0.03,0.00,0.00,0.00,83.69,52.25,21.00,0.18,0.03,0.02,0.70,0.06,0.71,0.01
6.50,1.25,86.06,176.06,9.59,0.64,0.03,0.00,0.00,0.00,83.69,52.25,21.00,0.19,0.02,0.02,0.70,0.06,0.71,0.01
6.51,1.25,86.06,176.06,9.59,0.62,0.02,0.00,0.00,0.00,84.37,53.25,21.37,0.18,0.04,0.03,0.70,0.06,0.71,0.01
6.52,1.25,86.06,176.06,9.60,0.65,0.04,0.00,0.00,0.00,84.37,53.25,21.37,0.17,0.01,0.01,0.70,0.06,0.71,0.01
6.53,1.25,86.06,176.06,9.57,0.63,0.03,0.00,0.00,0.00,84.37,53.25,21.37,0.21,0.03,0.02,0.70,0.06,0.71,0.01
6.54,1.25,86.06,176.06,9.60,0.63,0.04,0.00,0.00,0.00,84.37,51.88,21.75,0.18,0.03,0.01,0.70,0.06,0.71,0.01
6.56,1.25,86.06,176.06,9.60,0.63,0.01,0.00,0.00,0.00,84.37,52.25,21.75,0.18,0.03,0.04,0.70,0.06,0.71,0.01
6.57,1.25,86.06,176.06,9.57,0.64,0.05,0.00,0.00,0.00,84.37,52.25,21.75,0.20,0.02,0.00,0.70,0.06,0.71,0.01
6.58,1.25,86.06,176.06,9.61,0.65,0.01,0.00,0.00,0.00,84.37,52.25,21.75,0.17,0.01,0.04,0.70,0.06,0.71,0.01
6.59,1.25,86.06,176.06,9.59,0.61,0.03,0.00,0.00,0.00,83.69,52.88,21.75,0.18,0.05,0.02,0.70,0.06,0.71,0.01
6.60,1.25,86.06,176.06,9.60,0.63,0.06,0.00,0.00,0.00,83.69,52.88,21.75,0.17,0.03,0.00,0.70,0.06,0.71,0.01
6.61,1.25,86.06,176.06,9.59,0.65,0.02,0.00,0.00,0.00,84.37,52.25,21.37,0.19,0.01,0.03,0.70,0.06,0.71,0.01
6.62,1.25,86.06,176.06,9.61,0.62,0.05,0.00,0.00,0.00,84.37,52.25,21.37,0.17,0.04,0.00,0.70,0.06,0.71,0.01
6.63,1.25,86.06,176.06,9.60,0.64,0.02,0.00,0.01,0.00,84.37,52.25,21.37,0.17,0.02,0.03,0.70,0.06,0.71,0.01
6.64,1.25,86.06,176.06,9.61,0.63,0.03,0.00,0.00,0.00,83.69,53.25,21.37,0.17,0.03,0.02,0.70,0.06,0.71,0.01
6.65,1.25,86.06,176.06,9.62,0.67,0.03,0.00,0.00,0.00,83.69,53.25,21.37,0.15,0.00,0.02,0.70,0.06,0.71,0.01
6.66,1.25,86.06,176.06,9.60,0.64,0.03,0.00,0.00,0.00,84.06,51.50,21.37,0.17,0.02,0.02,0.70,0.06,0.71,0.01
6.67,1.25,86.06,176.06,9.58,0.64,0.04,0.00,0.00,0.00,84.06,51.50,21.37,0.19,0.02,0.01,0.70,0.06,0.71,0.01
6.68,1.25,86.06,176.06,9.59,0.62,0.03,0.00,0.00,0.00,84.06,51.50,21.37,0.19,0.04,0.02,0.70,0.06,0.71,0.01
6.69,1.25,86.06,176.06,9.60,0.62,0.05,0.00,0.00,0.00,84.37,52.56,19.75,0.18,0.04,0.00,0.70,0.06,0.71,0.01
6.70,1.25,86.06,176.06,9.59,0.64,0.03,0.00,0.00,0.00,84.37,52.56,19.75,0.18,0.02,0.02,0.70,0.06,0.71,0.01
6.71,1.25,86.06,176.06,9.59,0.65,0.03,0.00,0.00,0.00,84.37,52.88,21.75,0.18,0.01,0.02,0.70,0.06,0.71,0.01
6.72,1.25,86.06,176.06,9.61,0.66,0.03,0.00,0.00,0.00,84.37,52.88,21.75,0.17,0.00,0.02,0.70,0.06,0.71,0.01
6.73,1.25,86.06,176.06,9.60,0.63,0.02,0.00,0.00,0.00,84.37,52.88,21.75,0.18,0.03,0.03,0.70,0.06,0.71,0.01
6.74,1.25,86.06,176.06,9.61,0.65,0.03,0.00,0.00,0.00,84.06,52.56,20.56,0.17,0.01,0.02,0.70,0.06,0.71,0.01
6.75,1.25,86.06,176.06,9.60,0.64,0.02,0.00,0.00,0.00,84.06,52.56,20.56,0.18,0.02,0.03,0.70,0.06,0.71,0.01
6.77,1.25,86.06,176.06,9.60,0.62,0.05,0.00,0.00,0.00,84.37,52.88,21.75,0.17,0.04,0.00,0.70,0.06,0.71,0.01
6.78,1.25,86.06,176.06,9.59,0.63,0.05,0.00,0.00,0.00,84.37,52.88,21.75,0.18,0.03,0.00,0.70,0.06,0.71,0.01
6.79,1.25,86.06,176.06,9.61,0.63,0.04,0.00,0.00,0.00,84.75,53.25,21.37,0.16,0.03,0.01,0.70,0.06,0.71,0.01
6.80,1.25,86.06,176.06,9.61,0.63,0.02,0.00,0.00,0.00,84.75,53.25,21.37,0.16,0.03,0.03,0.70,0.06,0.71,0.01
6.81,1.25,86.06,176.06,9.60,0.65,0.02,0.00,0.00,0.00,84.75,53.25,21.75,0.18,0.01,0.03,0.70,0.06,0.71,0.01
6.82,1.25,86.06,176.06,9.59,0.64,0.06,0.00,0.00,0.00,84.75,53.25,21.75,0.18,0.02,0.00,0.70,0.06,0.71,0.01
6.83,1.25,86.06,176.06,9.60,0.62,0.03,0.00,0.00,0.00,84.75,53.25,21.75,0.17,0.04,0.02,0.70,0.06,0.71,0.01
6.85,1.25,86.06,176.06,9.60,0.64,0.02,0.00,0.00,0.00,84.37,52.88,22.06,0.18,0.02,0.03,0.70,0.06,0.71,0.01
6.86,1.25,86.06,176.06,9.59,0.63,0.02,0.00,0.00,0.00,84.37,52.88,20.56,0.19,0.03,0.03,0.70,0.06,0.71,0.01
6.87,1.25,86.06,176.06,9.61,0.64,0.06,0.00,0.00,0.00,84.37,52.88,20.56,0.16,0.02,0.00,0.70,0.06,0.71,0.01
6.88,1.25,86.06,176.06,9.61,0.63,0.01,0.00,0.00,0.00,84.37,52.88,20.56,0.17,0.03,0.04,0.70,0.06,0.71,0.01
6.89,1.25,86.06,176.06,9.60,0.62,0.03,0.00,0.00,0.00,84.37,53.25,21.00,0.17,0.04,0.02,0.70,0.06,0.71,0.01
6.90,1.25,86.06,176.06,9.58,0.65,0.03,0.00,0.00,0.00,84.37,53.25,21.00,0.19,0.01,0.02,0.70,0.06,0.71,0.01
6.91,1.25,86.06,176.06,9.57,0.62,0.03,0.00,0.00,0.00,84.06,53.25,21.37,0.21,0.04,0.02,0.70,0.06,0.71,0.01
6.92,1.25,86.06,176.06,9.59,0.65,0.05,0.00,0.00,0.00,84.06,53.25,21.37,0.18,0.01,0.00,0.70,0.06,0.71,0.01
6.93,1.25,86.06,176.06,9.59,0.64,0.02,0.00,0.00,0.00,84.06,53.25,21.37,0.19,0.02,0.03,0.70,0.06,0.71,0.01
6.95,1.25,86.06,176.06,9.61,0.65,0.06,0.00,0.00,0.00,84.75,52.25,21.00,0.17,0.01,0.00,0.70,0.06,0.71,0.01
6.96,1.25,86.06,176.06,9.60,0.64,0.04,0.00,0.00,0.00,83.00,51.50,21.00,0.18,0.02,0.01,0.70,0.06,0.71,0.01
6.97,1.25,86.06,176.06,9.61,0.63,0.05,0.00,0.00,0.00,83.00,51.50,21.00,0.16,0.03,0.00,0.70,0.06,0.71,0.01
6.98,1.25,86.06,176.06,9.59,0.65,0.04,0.00,0.00,0.00,83.00,51.50,21.00,0.18,0.01,0.01,0.70,0.06,0.71,0.01
6.99,1.25,86.06,176.06,9.59,0.63,0.03,0.00,0.00,0.00,84.75,52.56,21.00,0.18,0.03,0.02,0.70,0.06,0.71,0.01
7.00,1.25,86.06,176.06,9.60,0.64,0.05,0.00,0.00,0.00,84.75,52.56,21.00,0.17,0.02,0.00,0.70,0.06,0.71,0.01
7.01,1.25,86.06,176.06,9.58,0.65,0.03,0.00,0.00,0.00,84.06,51.06,22.50,0.19,0.01,0.02,0.70,0.06,0.71,0.01
7.02,1.25,86.06,176.06,9.59,0.65,0.07,0.00,0.00,0.00,84.06,51.06,22.50,0.18,0.01,0.00,0.70,0.06,0.71,0.01
7.03,1.25,86.06,176.06,9.58,0.63,0.04,0.00,0.00,0.00,84.06,51.06,22.50,0.20,0.03,0.01,0.70,0.06,0.71,0.01
7.04,1.25,86.06,176.06,9.61,0.64,0.02,0.00,0.00,0.00,84.06,53.25,21.00,0.17,0.02,0.03,0.70,0.06,0.71,0.01
7.05,1.25,86.06,176.06,9.60,0.65,0.03,0.00,0.00,0.00,84.06,53.25,21.00,0.18,0.01,0.02,0.70,0.06,0.71,0.01
7.06,1.25,86.06,176.06,9.59,0.66,0.01,0.00,0.00,0.00,84.37,52.88,20.56,0.18,0.00,0.04,0.70,0.06,0.71,0.01
7.07,1.25,86.06,176.06,9.60,0.63,0.04,0.00,0.00,0.00,84.37,52.88,20.56,0.17,0.03,0.01,0.70,0.06,0.71,0.01
7.08,1.25,86.06,176.06,9.60,0.64,0.02,0.00,0.00,0.00,84.37,52.88,20.56,0.17,0.02,0.03,0.70,0.06,0.71,0.01
7.09,1.25,86.06,176.06,9.60,0.65,0.04,0.00,0.00,0.00,84.37,51.50,21.37,0.17,0.01,0.01,0.70,0.06,0.71,0.01
7.10,1.25,86.06,176.06,9.59,0.63,0.04,0.00,0.00,0.00,84.37,51.50,21.37,0.19,0.03,0.01,0.70,0.06,0.71,0.01
7.11,1.25,86.06,176.06,9.61,0.62,0.01,0.00,0.00,0.00,84.75,51.50,21.75,0.16,0.04,0.04,0.70,0.06,0.71,0.01
7.12,1.25,86.06,176.06,9.59,0.64,0.02,0.00,0.00,0.00,84.75,51.50,21.75,0.18,0.02,0.03,0.70,0.06,0.71,0.01
7.13,1.25,86.06,176.06,9.60,0.65,0.03,0.00,0.00,0.00,84.75,51.50,21.75,0.18,0.01,0.02,0.70,0.06,0.71,0.01
7.15,1.25,86.06,176.06,9.60,0.63,0.04,0.00,0.00,0.00,84.75,52.88,20.19,0.18,0.03,0.01,0.70,0.06,0.71,0.01
7.16,1.25,86.06,176.06,9.58,0.63,0.03,0.00,0.00,0.00,84.06,52.25,21.37,0.19,0.03,0.02,0.70,0.06,0.71,0.01
7.18,1.25,86.06,176.06,9.61,0.64,0.04,0.00,0.00,0.00,84.06,52.25,21.37,0.16,0.02,0.01,0.70,0.06,0.71,0.01
7.19,1.25,86.06,176.06,9.60,0.63,0.04,0.00,0.00,0.00,85.19,53.25,21.00,0.17,0.03,0.01,0.70,0.06,0.71,0.01
7.20,1.25,86.06,176.06,9.60,0.63,0.04,0.00,0.00,0.00,85.19,53.25,21.00,0.17,0.03,0.01,0.70,0.06,0.71,0.01
7.21,1.25,86.06,176.06,9.59,0.63,0.05,0.00,0.00,0.00,84.75,52.88,21.37,0.18,0.03,0.00,0.70,0.06,0.71,0.01
7.22,1.25,86.06,176.06,9.61,0.65,0.03,0.00,0.00,0.00,84.75,52.88,21.37,0.16,0.01,0.02,0.70,0.06,0.71,0.01
7.23,1.25,86.06,176.06,9.61,0.63,0.02,0.00,0.00,0.00,84.75,52.88,21.37,0.17,0.03,0.03,0.70,0.06,0.71,0.01
7.24,1.25,86.06,176.06,9.61,0.63,0.03,0.00,0.00,0.00,84.75,53.25,21.37,0.16,0.03,0.02,0.70,0.06,0.71,0.01
7.26,1.25,86.06,176.06,9.60,0.63,0.02,0.00,0.00,0.00,84.37,50.75,21.37,0.17,0.03,0.03,0.70,0.06,0.71,0.01
7.27,1.25,86.06,176.06,9.59,0.65,0.03,0.00,0.00,0.00,84.37,50.75,21.37,0.19,0.01,0.02,0.70,0.06,0.71,0.01
7.28,1.25,86.06,176.06,9.58,0.61,0.04,0.00,0.00,0.00,84.37,50.75,21.37,0.20,0.05,0.01,0.70,0.06,0.71,0.01
7.29,1.25,86.06,176.06,9.61,0.63,0.03,0.00,0.00,0.00,83.69,52.56,20.56,0.16,0.03,0.02,0.70,0.06,0.71,0.01
7.30,1.25,86.06,176.06,9.59,0.65,0.03,0.00,0.00,0.00,83.69,52.56,20.56,0.18,0.01,0.02,0.70,0.06,0.71,0.01
7.31,1.25,86.06,176.06,9.60,0.63,0.02,0.00,0.00,0.00,84.37,50.75,20.56,0.18,0.03,0.03,0.70,0.06,0.71,0.01
7.32,1.25,86.06,176.06,9.59,0.63,0.05,0.00,0.00,0.00,84.37,50.75,20.56,0.18,0.03,0.00,0.70,0.06,0.71,0.01
7.33,1.25,86.06,176.06,9.58,0.65,0.01,0.00,0.00,0.00,84.37,50.75,20.56,0.19,0.01,0.04,0.70,0.06,0.71,0.01
7.34,1.25,86.06,176.06,9.61,0.63,0.04,0.00,0.00,0.00,84.37,52.25,21.37,0.16,0.03,0.01,0.70,0.06,0.71,0.01
7.36,1.25,86.06,176.06,9.61,0.64,0.04,0.00,0.00,0.00,84.75,52.88,21.37,0.17,0.02,0.01,0.70,0.06,0.71,0.01
7.37,1.25,86.06,176.06,9.59,0.63,0.04,0.00,0.00,0.00,84.75,52.88,21.37,0.19,0.03,0.01,0.70,0.06,0.71,0.01
