0.01,287.00,2.81,0.69,0.00,0.00,0.00,0.04,0.03,0.00,0.80,0.01,0.02,0.59
0.02,341.56,68.69,83.87,0.09,0.01,0.02,0.10,0.13,0.14,0.71,0.35,0.60,0.12
0.03,341.69,68.69,83.87,0.08,0.02,0.02,0.13,0.13,0.11,0.71,0.35,0.60,0.11
0.04,341.75,68.69,83.87,0.05,0.04,0.01,0.02,0.12,0.01,0.71,0.35,0.60,0.11
0.05,341.81,68.69,83.94,0.04,0.03,0.01,0.04,0.10,0.00,0.71,0.35,0.60,0.11
0.06,341.88,68.69,83.94,0.04,0.02,0.00,0.04,0.03,0.09,0.71,0.35,0.60,0.11
0.07,341.88,68.69,84.00,0.05,0.02,0.00,0.05,0.02,0.01,0.71,0.35,0.60,0.11
0.08,341.94,68.69,83.94,0.06,0.01,0.00,0.03,0.00,0.05,0.71,0.35,0.60,0.11
0.09,342.06,68.69,83.87,0.09,0.00,0.00,0.18,0.06,0.01,0.71,0.35,0.60,0.11
0.1,342.13,68.69,83.75,0.10,0.02,0.01,0.20,0.06,0.01,0.71,0.35,0.60,0.11
0.11,342.25,68.75,83.69,0.08,0.01,0.02,0.10,0.15,0.10,0.71,0.35,0.60,0.11
0.12,342.25,68.75,83.62,0.05,0.01,0.02,0.09,0.15,0.03,0.71,0.35,0.60,0.11
0.13,342.25,68.75,83.56,0.04,0.00,0.03,0.09,0.09,0.13,0.71,0.35,0.60,0.11
0.14,342.25,68.81,83.50,0.05,0.01,0.03,0.03,0.01,0.26,0.71,0.35,0.60,0.11
0.15,342.31,68.81,83.31,0.09,0.04,0.02,0.01,0.08,0.06,0.71,0.34,0.60,0.11
0.16,342.37,68.87,83.06,0.12,0.04,0.02,0.05,0.05,0.03,0.71,0.34,0.60,0.11
0.17,342.44,68.87,82.81,0.13,0.05,0.02,0.06,0.11,0.10,0.71,0.34,0.60,0.11
0.18,342.50,68.87,82.50,0.11,0.06,0.02,0.01,0.14,0.06,0.72,0.34,0.60,0.11
0.2,342.62,68.94,81.87,0.12,0.07,0.04,0.14,0.03,0.00,0.72,0.34,0.60,0.11
0.21,342.69,69.00,81.56,0.12,0.06,0.04,0.17,0.08,0.01,0.72,0.34,0.60,0.11
0.22,342.69,69.00,81.31,0.09,0.04,0.05,0.06,0.06,0.04,0.72,0.34,0.60,0.11
0.23,342.69,69.06,81.00,0.09,0.05,0.05,0.04,0.01,0.06,0.72,0.34,0.60,0.11
0.24,342.75,69.12,80.69,0.11,0.06,0.05,0.08,0.01,0.09,0.72,0.34,0.60,0.11
0.25,342.75,69.12,80.56,0.13,0.06,0.05,0.14,0.04,0.14,0.72,0.33,0.60,0.11
0.26,342.81,69.19,80.25,0.10,0.06,0.05,0.05,0.09,0.05,0.72,0.33,0.60,0.11
0.27,342.81,69.25,80.00,0.05,0.05,0.04,0.06,0.12,0.11,0.72,0.33,0.60,0.11
0.28,342.75,69.25,79.75,0.03,0.05,0.05,0.13,0.03,0.05,0.72,0.33,0.60,0.11
0.29,342.75,69.31,79.56,0.04,0.05,0.06,0.15,0.11,0.12,0.72,0.33,0.60,0.11
0.3,342.69,69.37,79.31,0.04,0.06,0.05,0.11,0.11,0.14,0.72,0.33,0.60,0.11
0.32,342.69,69.44,78.81,0.09,0.07,0.04,0.05,0.13,0.10,0.72,0.33,0.60,0.11
0.33,342.75,69.44,78.44,0.12,0.08,0.03,0.00,0.08,0.17,0.72,0.33,0.60,0.11
0.34,342.81,69.44,78.06,0.13,0.08,0.02,0.02,0.04,0.18,0.72,0.33,0.60,0.11
0.35,342.87,69.44,77.87,0.07,0.06,0.03,0.02,0.07,0.18,0.72,0.33,0.60,0.11
0.36,342.81,69.50,77.69,0.03,0.06,0.03,0.01,0.09,0.15,0.72,0.33,0.60,0.11
0.37,342.81,69.50,77.50,0.04,0.06,0.02,0.06,0.08,0.17,0.73,0.33,0.60,0.11
0.38,342.87,69.44,77.31,0.04,0.05,0.01,0.11,0.12,0.19,0.73,0.33,0.60,0.11
0.4,342.87,69.44,77.19,0.02,0.03,0.00,0.03,0.02,0.03,0.73,0.32,0.60,0.11
0.41,342.87,69.44,77.06,0.01,0.04,0.01,0.00,0.03,0.03,0.73,0.32,0.60,0.11
0.43,342.87,69.44,76.81,0.01,0.04,0.00,0.03,0.01,0.10,0.73,0.32,0.60,0.11
0.44,342.87,69.44,76.69,0.00,0.05,0.00,0.05,0.07,0.10,0.73,0.32,0.60,0.11
0.45,342.81,69.37,76.56,0.01,0.04,0.00,0.03,0.07,0.04,0.73,0.32,0.59,0.11
0.46,342.81,69.37,76.37,0.00,0.05,0.01,0.02,0.06,0.09,0.73,0.32,0.59,0.11
0.47,342.81,69.37,76.25,0.00,0.05,0.00,0.01,0.02,0.01,0.73,0.32,0.59,0.11
0.48,342.75,69.37,76.12,0.00,0.04,0.00,0.01,0.03,0.08,0.73,0.32,0.59,0.11
0.49,342.75,69.37,76.00,0.02,0.04,0.00,0.00,0.01,0.12,0.73,0.32,0.59,0.11
0.51,342.81,69.31,75.56,0.07,0.07,0.01,0.06,0.03,0.04,0.73,0.32,0.59,0.11
0.52,342.87,69.25,75.31,0.04,0.06,0.02,0.07,0.00,0.05,0.73,0.32,0.59,0.11
0.53,342.87,69.25,75.12,0.03,0.06,0.02,0.03,0.02,0.04,0.73,0.32,0.59,0.11
0.54,342.94,69.19,74.94,0.04,0.06,0.02,0.02,0.04,0.02,0.73,0.32,0.59,0.11
0.55,343.00,69.19,74.75,0.06,0.05,0.02,0.04,0.12,0.12,0.73,0.32,0.59,0.11
0.56,343.00,69.19,74.69,0.03,0.04,0.01,0.03,0.09,0.26,0.73,0.32,0.59,0.11
0.57,343.00,69.12,74.56,0.02,0.01,0.00,0.07,0.02,0.03,0.73,0.32,0.59,0.11
0.58,343.00,69.12,74.62,0.01,0.01,0.00,0.10,0.01,0.10,0.73,0.32,0.59,0.11
0.59,343.00,69.12,74.62,0.01,0.01,0.01,0.02,0.03,0.16,0.73,0.32,0.59,0.11
0.61,343.00,69.19,74.62,0.03,0.02,0.02,0.00,0.06,0.04,0.73,0.32,0.59,0.11
0.62,342.94,69.19,74.69,0.01,0.00,0.00,0.00,0.00,0.09,0.73,0.32,0.59,0.11
0.64,342.94,69.19,74.75,0.01,0.01,0.00,0.09,0.01,0.09,0.73,0.32,0.59,0.11
0.65,342.94,69.19,74.81,0.04,0.02,0.00,0.01,0.02,0.03,0.73,0.32,0.59,0.11
0.66,342.94,69.19,74.94,0.03,0.02,0.00,0.00,0.01,0.07,0.73,0.32,0.59,0.11
0.67,342.87,69.19,75.00,0.01,0.01,0.01,0.07,0.00,0.00,0.73,0.32,0.59,0.11
0.68,342.87,69.19,75.06,0.00,0.01,0.01,0.04,0.05,0.02,0.73,0.32,0.59,0.11
0.69,342.87,69.19,75.06,0.00,0.01,0.03,0.04,0.06,0.18,0.73,0.32,0.59,0.11
0.7,342.94,69.19,75.00,0.02,0.02,0.02,0.00,0.04,0.22,0.73,0.32,0.59,0.11
0.71,342.87,69.12,74.94,0.04,0.04,0.02,0.14,0.06,0.19,0.73,0.32,0.59,0.11
0.72,342.87,69.12,74.87,0.05,0.05,0.03,0.10,0.09,0.25,0.73,0.32,0.59,0.11
0.74,342.87,69.00,74.50,0.00,0.10,0.04,0.03,0.15,0.36,0.73,0.32,0.59,0.11
0.75,342.87,68.87,74.12,0.02,0.13,0.05,0.11,0.15,0.33,0.73,0.32,0.59,0.11
0.76,342.94,68.69,73.62,0.01,0.18,0.09,0.15,0.19,0.44,0.73,0.32,0.59,0.11
0.77,343.00,68.50,72.94,0.03,0.26,0.13,0.16,0.27,0.58,0.74,0.33,0.58,0.11
0.78,343.06,68.19,72.31,0.00,0.33,0.18,0.15,0.36,0.59,0.74,0.33,0.58,0.11
0.79,343.19,67.81,71.44,0.06,0.45,0.26,0.30,0.41,0.67,0.74,0.33,0.58,0.11
0.8,343.37,67.37,70.37,0.08,0.50,0.28,0.48,0.38,0.82,0.74,0.33,0.57,0.11
0.81,343.63,66.81,69.19,0.08,0.59,0.35,0.58,0.49,0.99,0.75,0.33,0.57,0.11
0.82,343.88,66.12,67.87,0.05,0.75,0.44,0.53,0.63,1.02,0.75,0.33,0.56,0.11
0.83,344.25,65.19,66.25,0.09,0.93,0.58,0.37,0.57,0.85,0.76,0.33,0.55,0.10
0.84,344.69,64.00,64.56,0.15,1.04,0.67,0.24,0.48,0.96,0.76,0.33,0.54,0.10
0.85,345.06,62.75,62.88,0.20,1.12,0.73,0.29,0.42,0.94,0.77,0.33,0.53,0.10
0.86,345.63,61.37,61.19,0.18,1.30,0.81,0.38,0.34,0.90,0.78,0.34,0.52,0.10
0.87,346.19,59.88,59.50,0.16,1.34,0.83,0.59,0.30,0.88,0.79,0.34,0.51,0.10
0.88,346.56,58.25,58.00,0.12,1.49,0.89,0.75,0.55,0.63,0.79,0.34,0.50,0.09
0.89,347.06,56.50,56.50,0.13,1.59,0.94,0.67,0.49,0.41,0.80,0.34,0.48,0.09
0.9,347.50,54.63,55.06,0.14,1.63,0.97,0.64,0.33,0.39,0.81,0.34,0.47,0.09
0.91,348.06,52.62,53.75,0.09,1.71,1.05,0.65,0.34,0.48,0.82,0.35,0.45,0.09
0.92,348.56,50.56,52.62,0.06,1.74,1.08,0.67,0.33,0.21,0.83,0.35,0.43,0.08
0.93,349.06,48.38,51.69,0.02,1.78,1.15,0.64,0.42,0.36,0.84,0.35,0.41,0.08
0.94,349.56,46.13,50.88,0.02,1.81,1.14,0.75,0.42,0.33,0.84,0.35,0.40,0.08
0.95,349.94,43.87,50.12,0.03,1.84,1.14,0.85,0.60,0.32,0.85,0.36,0.38,0.07
0.96,350.44,41.50,49.38,0.06,1.95,1.20,0.73,0.43,0.01,0.86,0.36,0.36,0.07
0.97,351.00,39.06,48.63,0.06,1.94,1.22,0.82,0.29,0.33,0.87,0.36,0.34,0.07
0.98,351.37,36.63,48.00,0.08,1.99,1.21,0.87,0.12,0.18,0.87,0.36,0.31,0.07
0.99,351.88,34.06,47.38,0.00,2.09,1.22,0.95,0.07,0.20,0.88,0.37,0.29,0.06
1.0,352.19,31.50,46.88,0.05,2.11,1.23,0.93,0.22,0.32,0.89,0.37,0.27,0.06
1.01,352.62,28.81,46.50,0.10,2.19,1.29,0.98,0.22,0.08,0.89,0.37,0.25,0.06
1.02,353.06,26.12,46.25,0.09,2.19,1.30,0.68,0.15,0.01,0.90,0.37,0.22,0.05
1.04,353.62,20.81,45.38,0.18,2.17,1.22,1.14,0.35,0.11,0.91,0.38,0.17,0.05
1.05,353.94,18.12,44.94,0.19,2.17,1.28,1.24,0.11,0.19,0.91,0.38,0.15,0.05
1.06,354.44,15.38,44.50,0.20,2.22,1.34,1.19,0.29,0.15,0.92,0.37,0.13,0.04
1.07,355.00,12.50,44.13,0.19,2.23,1.35,1.17,0.35,0.25,0.92,0.37,0.10,0.04
1.08,355.50,9.69,43.81,0.17,2.20,1.37,0.89,0.04,0.31,0.92,0.37,0.08,0.04
1.09,356.13,6.94,43.50,0.23,2.14,1.41,0.90,0.02,0.39,0.93,0.37,0.05,0.03
1.1,356.75,4.12,43.13,0.34,2.10,1.41,0.90,0.17,0.52,0.93,0.37,0.03,0.03
1.11,357.37,1.44,42.62,0.47,2.04,1.34,0.87,0.40,0.08,0.93,0.36,0.01,0.02
1.13,358.44,3.81,41.56,0.42,2.05,1.30,1.00,0.38,0.48,0.93,0.35,0.04,0.01
1.14,359.06,6.50,41.13,0.42,1.98,1.31,0.73,0.66,1.03,0.93,0.35,0.06,0.01
1.16,0.25,11.44,40.38,0.35,1.83,1.26,0.63,0.67,0.32,0.93,0.34,0.11,0.00
1.17,0.88,13.88,40.12,0.29,1.81,1.27,0.94,0.32,0.13,0.93,0.34,0.13,0.01
1.18,1.19,15.13,39.94,0.29,1.73,1.25,0.83,0.53,0.15,0.93,0.33,0.15,0.01
1.19,2.12,18.56,39.50,0.34,1.70,1.19,0.77,0.73,0.57,0.93,0.33,0.17,0.02
1.2,2.44,19.69,39.31,0.30,1.58,1.14,0.34,1.16,1.02,0.93,0.32,0.18,0.02
1.21,3.00,21.81,39.06,0.18,1.46,1.06,0.29,0.97,0.43,0.93,0.32,0.20,0.03
1.22,3.62,23.81,38.94,0.06,1.43,1.04,0.53,0.48,0.47,0.92,0.32,0.22,0.03
1.23,4.12,25.75,39.00,0.01,1.35,1.04,0.74,0.31,0.03,0.92,0.32,0.22,0.03
1.24,4.81,27.62,39.00,0.08,1.27,0.99,0.61,0.66,0.99,0.92,0.31,0.24,0.04
1.25,5.37,29.37,38.88,0.16,1.19,0.93,0.08,1.14,0.73,0.91,0.31,0.25,0.04
1.26,5.56,30.88,38.63,0.21,1.05,0.81,0.35,0.49,0.92,0.91,0.31,0.27,0.04
1.27,6.06,32.31,38.50,0.06,1.16,0.87,1.21,0.21,0.97,0.91,0.30,0.28,0.05
1.28,6.62,34.00,38.69,0.15,1.19,0.91,1.29,0.17,0.49,0.91,0.30,0.29,0.05
1.29,7.25,35.63,38.75,0.01,1.14,0.91,0.39,1.79,2.20,0.90,0.30,0.30,0.06
1.31,8.06,38.00,38.13,0.14,0.59,0.65,0.48,2.01,0.83,0.90,0.29,0.32,0.06
1.32,8.56,38.81,38.19,0.19,0.47,0.51,0.09,0.75,0.07,0.90,0.29,0.33,0.07
1.34,9.25,40.06,38.69,0.09,0.25,0.32,0.26,0.99,0.87,0.89,0.30,0.34,0.07
1.35,9.56,40.50,38.63,0.05,0.17,0.25,0.15,1.18,0.68,0.89,0.30,0.34,0.07
1.36,9.63,40.69,38.44,0.06,0.07,0.14,0.19,1.22,0.30,0.89,0.29,0.34,0.08
1.37,9.75,40.75,38.56,0.22,0.01,0.00,0.10,0.55,0.33,0.89,0.29,0.34,0.08
1.38,9.81,40.75,38.81,0.21,0.01,0.02,0.26,0.17,0.51,0.89,0.30,0.34,0.08
1.39,9.88,40.75,39.00,0.12,0.01,0.03,0.19,0.25,0.42,0.89,0.30,0.34,0.08
1.4,9.81,40.69,39.06,0.01,0.01,0.03,0.18,0.38,0.37,0.89,0.30,0.34,0.08
1.41,9.88,40.69,39.06,0.01,0.00,0.04,0.21,0.29,0.27,0.89,0.30,0.34,0.08
1.42,9.81,40.63,39.00,0.01,0.03,0.03,0.04,0.42,0.08,0.89,0.30,0.34,0.08
1.43,9.81,40.56,38.88,0.02,0.07,0.03,0.02,0.62,0.13,0.89,0.30,0.34,0.08
1.44,9.88,40.50,38.75,0.02,0.07,0.05,0.04,0.28,0.50,0.89,0.30,0.34,0.08
1.46,9.88,40.31,38.81,0.02,0.07,0.02,0.00,0.09,0.37,0.89,0.30,0.34,0.08
1.47,9.88,40.31,38.75,0.08,0.05,0.00,0.18,0.32,0.32,0.89,0.30,0.34,0.08
1.48,9.88,40.25,38.63,0.03,0.04,0.00,0.16,0.35,0.40,0.89,0.30,0.34,0.08
1.49,9.94,40.19,38.50,0.07,0.02,0.01,0.17,0.01,0.29,0.89,0.30,0.34,0.08
1.5,9.94,40.12,38.56,0.04,0.00,0.01,0.02,0.11,0.24,0.89,0.30,0.34,0.08
1.51,10.06,40.12,38.56,0.00,0.01,0.02,0.11,0.20,0.23,0.89,0.30,0.34,0.08
1.52,10.06,40.19,38.50,0.04,0.01,0.03,0.10,0.39,0.15,0.89,0.30,0.34,0.08
1.53,10.06,40.19,38.44,0.03,0.01,0.00,0.01,0.48,0.31,0.89,0.30,0.34,0.08
1.54,10.06,40.12,38.50,0.04,0.01,0.04,0.02,0.08,0.11,0.89,0.30,0.34,0.08
1.55,10.06,40.06,38.56,0.05,0.04,0.07,0.10,0.02,0.38,0.89,0.30,0.34,0.08
1.56,10.00,40.00,38.63,0.01,0.04,0.06,0.30,0.09,0.15,0.89,0.30,0.34,0.08
1.58,9.88,39.81,38.56,0.00,0.04,0.04,0.24,0.23,0.26,0.89,0.30,0.33,0.08
1.59,9.94,39.69,38.56,0.08,0.03,0.03,0.23,0.17,0.30,0.89,0.30,0.33,0.08
1.6,10.00,39.63,38.56,0.08,0.05,0.03,0.01,0.28,0.32,0.89,0.30,0.33,0.08
1.61,10.00,39.56,38.56,0.05,0.07,0.04,0.03,0.22,0.49,0.89,0.30,0.33,0.08
1.62,10.06,39.50,38.50,0.09,0.06,0.03,0.11,0.06,0.32,0.89,0.30,0.33,0.08
1.63,10.06,39.38,38.56,0.07,0.05,0.02,0.08,0.14,0.34,0.89,0.30,0.33,0.08
1.64,10.06,39.25,38.50,0.05,0.06,0.02,0.15,0.31,0.35,0.89,0.30,0.33,0.08
1.65,10.13,39.19,38.50,0.09,0.04,0.02,0.09,0.09,0.18,0.89,0.30,0.33,0.08
1.66,10.19,39.13,38.56,0.13,0.04,0.00,0.06,0.09,0.17,0.89,0.30,0.33,0.08
1.67,10.25,39.06,38.63,0.11,0.05,0.02,0.09,0.17,0.21,0.89,0.30,0.33,0.08
1.68,10.38,39.06,38.63,0.10,0.06,0.03,0.08,0.16,0.19,0.89,0.30,0.33,0.08
1.69,10.44,39.00,38.69,0.13,0.06,0.04,0.17,0.10,0.28,0.89,0.30,0.33,0.08
1.7,10.63,38.94,38.75,0.14,0.07,0.06,0.10,0.01,0.23,0.89,0.30,0.32,0.08
1.71,10.75,38.94,38.75,0.13,0.08,0.07,0.12,0.08,0.14,0.89,0.30,0.32,0.08
1.72,10.81,38.94,38.75,0.12,0.09,0.07,0.13,0.15,0.21,0.89,0.30,0.32,0.09
1.73,11.00,38.88,38.75,0.17,0.09,0.07,0.05,0.04,0.25,0.89,0.30,0.32,0.09
1.74,11.19,38.81,38.81,0.17,0.09,0.07,0.00,0.16,0.25,0.89,0.31,0.32,0.09
1.75,11.38,38.81,38.88,0.15,0.09,0.06,0.03,0.19,0.25,0.89,0.31,0.32,0.09
1.76,11.50,38.75,38.88,0.18,0.07,0.05,0.00,0.15,0.19,0.89,0.31,0.32,0.09
1.77,11.69,38.69,39.00,0.19,0.07,0.05,0.03,0.12,0.14,0.89,0.31,0.32,0.09
1.79,12.00,38.69,39.19,0.13,0.09,0.06,0.00,0.30,0.24,0.89,0.31,0.32,0.09
1.8,12.13,38.63,39.19,0.15,0.07,0.05,0.02,0.23,0.15,0.89,0.31,0.32,0.09
1.81,12.25,38.63,39.25,0.16,0.06,0.05,0.00,0.27,0.15,0.89,0.31,0.32,0.10
1.82,12.37,38.63,39.31,0.14,0.05,0.05,0.07,0.26,0.07,0.89,0.31,0.32,0.10
1.83,12.63,38.63,39.38,0.13,0.05,0.05,0.03,0.27,0.03,0.89,0.31,0.32,0.10
1.84,12.75,38.63,39.38,0.11,0.06,0.04,0.04,0.37,0.45,0.89,0.31,0.32,0.10
1.85,12.94,38.63,39.44,0.11,0.04,0.04,0.06,0.24,0.30,0.89,0.31,0.32,0.10
1.87,13.13,38.56,39.63,0.10,0.04,0.03,0.02,0.13,0.18,0.89,0.32,0.31,0.10
1.88,13.19,38.56,39.63,0.08,0.04,0.04,0.02,0.11,0.08,0.89,0.32,0.31,0.10
1.9,13.44,38.63,39.69,0.08,0.00,0.06,0.00,0.11,0.14,0.89,0.32,0.31,0.10
1.91,13.50,38.63,39.75,0.08,0.01,0.05,0.01,0.15,0.12,0.89,0.32,0.31,0.11
1.92,13.62,38.69,39.75,0.06,0.01,0.06,0.04,0.16,0.09,0.89,0.32,0.31,0.11
1.93,13.75,38.75,39.75,0.04,0.02,0.07,0.06,0.25,0.07,0.89,0.32,0.31,0.11
1.94,13.88,38.75,39.69,0.04,0.02,0.07,0.05,0.31,0.08,0.89,0.32,0.31,0.11
1.95,13.94,38.75,39.69,0.05,0.03,0.05,0.04,0.31,0.00,0.89,0.32,0.31,0.11
1.97,14.06,38.81,39.56,0.00,0.04,0.02,0.04,0.36,0.12,0.89,0.32,0.31,0.11
1.98,14.13,38.81,39.50,0.00,0.04,0.01,0.03,0.33,0.07,0.89,0.32,0.31,0.11
2.0,14.19,38.69,39.31,0.01,0.03,0.02,0.11,0.17,0.28,0.89,0.32,0.31,0.11
2.01,14.25,38.69,39.31,0.03,0.03,0.01,0.05,0.17,0.20,0.89,0.32,0.31,0.11
2.02,14.25,38.63,39.25,0.06,0.04,0.01,0.11,0.05,0.15,0.89,0.32,0.31,0.11
2.03,14.00,38.63,39.19,0.09,0.04,0.00,0.00,0.26,0.21,0.89,0.32,0.31,0.11
2.04,13.94,38.56,39.13,0.02,0.01,0.01,0.00,0.23,0.17,0.89,0.32,0.31,0.11
2.05,13.94,38.56,39.06,0.02,0.01,0.04,0.06,0.16,0.02,0.89,0.32,0.31,0.11
2.06,13.81,38.56,39.06,0.05,0.00,0.05,0.09,0.24,0.06,0.89,0.32,0.31,0.11
2.07,13.75,38.50,39.06,0.03,0.02,0.06,0.12,0.09,0.21,0.89,0.31,0.31,0.11
2.08,13.81,38.50,39.06,0.03,0.02,0.05,0.00,0.05,0.19,0.89,0.31,0.31,0.11
2.09,13.75,38.50,39.00,0.09,0.01,0.05,0.00,0.21,0.10,0.89,0.31,0.31,0.11
2.1,13.62,38.44,38.88,0.09,0.01,0.04,0.03,0.26,0.17,0.89,0.31,0.31,0.11
2.11,13.62,38.44,38.81,0.04,0.03,0.03,0.01,0.19,0.16,0.89,0.31,0.31,0.11
2.12,13.56,38.44,38.81,0.03,0.03,0.03,0.07,0.00,0.16,0.89,0.31,0.31,0.11
2.13,13.44,38.50,38.75,0.08,0.03,0.03,0.07,0.01,0.12,0.89,0.31,0.31,0.11
2.14,13.38,38.50,38.69,0.10,0.03,0.03,0.11,0.16,0.16,0.89,0.31,0.31,0.10
2.15,13.31,38.50,38.63,0.07,0.04,0.04,0.07,0.10,0.17,0.89,0.31,0.31,0.10
2.16,13.25,38.50,38.63,0.04,0.05,0.05,0.07,0.04,0.00,0.89,0.31,0.31,0.10
2.17,13.19,38.50,38.63,0.07,0.04,0.04,0.04,0.04,0.04,0.89,0.31,0.31,0.10
2.18,13.13,38.50,38.56,0.09,0.05,0.04,0.00,0.05,0.03,0.89,0.31,0.31,0.10
2.19,13.06,38.50,38.56,0.09,0.05,0.04,0.00,0.11,0.07,0.89,0.31,0.31,0.10
2.2,12.94,38.50,38.50,0.06,0.06,0.05,0.05,0.06,0.19,0.89,0.31,0.31,0.10
2.21,12.88,38.56,38.50,0.04,0.07,0.04,0.05,0.09,0.22,0.89,0.31,0.31,0.10
2.22,12.81,38.56,38.56,0.02,0.07,0.03,0.09,0.16,0.13,0.89,0.31,0.32,0.10
2.23,12.75,38.63,38.56,0.05,0.06,0.00,0.15,0.06,0.17,0.89,0.31,0.32,0.10
2.24,12.69,38.63,38.50,0.06,0.05,0.03,0.15,0.00,0.15,0.89,0.31,0.32,0.10
