0.02,-116.0452816182336,59.57965109413971,169.3296613794504,0.0522211824975917,-0.0152658316263423,0.0221658082030384,0.04845212895186,0.0589289098617864,0.0726613546092254,-108.8182968295282,84.76064431034712,0.5549453398880054,-0.0031393612255196,0.0292447108132599,-0.0030277283540792,0.1263558283481268,0.0786972075328256,0.0169070074543355,-177.39259888751508,2.182917168916684,0.4392834143078207,-0.0064315464474591,0.0173298077474004,0.088760183132924,0.3836989403299219,0.1761673774633994,0.2860134316579837,-134.69425284320252,18.201162256919623,8.000811822686476,0.0414137996146289,0.1781293284812819,0.0463934171028341,0.2220045774411533,0.2671092690603042,0.2213524528721759
0.03,-116.11778865810778,59.63256879974628,169.32223863076266,0.0378931851444891,-0.0059520048730796,0.0241759116513138,0.0370746683910782,0.1078711171615048,0.022509225560864,-108.82099822982616,84.82109163423586,0.565796901966708,0.0320869441959985,0.0584457880464391,-0.0002933106087779,0.1196059091777701,0.094062842437691,0.0227554788767522,-177.2587233819968,2.262994758110962,0.5138431755458857,0.0498423296370511,0.0561899903557367,0.1542292401129789,0.4025480765612916,0.2605012475355877,0.1607638270440367,-134.6294817073654,18.055082334098024,7.999157483216725,0.0181523541833724,0.1974699885613366,0.0073183284601591,0.1402242755408291,0.1598568697772385,0.2496318434759148
0.04,-116.18625978386788,59.622964916000086,169.29301179684214,0.0395313675775754,0.006794428421408,0.0155818534341045,0.0326907136058145,0.081611702513011,0.0814192203278591,-108.8134779738413,84.86431666614085,0.551664029186285,0.0221514885705061,0.0478507612495164,0.0189782236503355,0.1106385591555977,0.1033836308192112,-0.0013725049104723,-177.12519468529243,2.4465173248293484,0.6180501243560667,0.0559359867358184,0.0874776134375163,0.1323946828290393,0.3001657383447768,0.2837142027554672,0.0993259826400285,-134.62753591181567,17.877557987608075,7.941827770210859,0.0033399056506484,0.2449464978842157,0.0390915065702212,0.0223224629150041,-0.0043225152968072,0.2204665108685298
0.05,-116.25873030466546,59.64031426835524,169.3122594429796,0.0289592691501726,0.0079354829814856,0.0018950808284188,0.0689537873813972,0.006780431931373,0.0709637464821425,-108.805971223552,84.94616882615128,0.5461106184401999,0.0315662902935997,0.0410969837305239,0.0117484870347228,0.0694886104936635,0.1181295495661888,0.0343672312157062,-177.00915736448763,2.563119625292732,0.7058589638874885,0.0426957757008004,0.0834733498256872,0.0387367328647497,0.2486687503922585,0.3048065920659631,0.0989772986460286,-134.5688642196491,17.617481243061228,7.93587990132776,0.0047567633850022,0.2451977628043329,0.1076885494576802,0.1251278982525653,0.0864593261881193,0.0895775565583299
0.06,-116.24066968402438,59.607481234366205,169.24184297377064,0.0438667031967896,0.0055046644063985,0.0050362143307804,0.0712586852478631,0.0161045401943202,0.0397636191431504,-108.81836449079422,85.00175631881544,0.5462397415065855,0.0106444561654001,0.0339821118718257,-0.010809734242799,0.0526322347323915,0.1490549157731165,0.1163940331024937,-177.06874786885265,2.688305716671242,0.7462870793640632,0.0324986592512934,0.0642922812330497,0.0529038567147634,0.0907028813254864,0.2095709871530286,0.1733017415403563,-134.43942201384252,17.37813233317469,7.953371441054374,0.0036249033926508,0.255424441006659,0.1692534385640612,0.2231825957798448,0.0285716451107675,0.0501984878152871
0.07,-116.31681099023317,59.62801142505661,169.26251933798414,0.0233235961277802,-0.0071572922782435,-0.0032876099022425,0.0067399520863916,0.060282022965763,0.0024334674641353,-108.84462567534102,85.0267469310566,0.5752787488473067,0.0150555331750411,0.0444329681531199,-0.0015421122051763,0.0537172807611479,0.1282540159336471,0.060091154453876,-177.18841425142847,2.74175162817547,0.8120680061675855,0.0182354339592123,0.0749218143715147,0.1285045893008256,0.0643881208804113,0.1657699261163792,0.2045199079223995,-134.19941477328015,17.13736056317026,7.884291463818453,0.0233550031692346,0.2699165402366892,0.2218637586624783,0.2070149470562569,0.068453674244104,0.1046749588394515
0.08,-116.36015912271252,59.642654169008495,169.24547246628802,0.0250234327262253,0.0097308460408819,0.0285595875015967,0.0095986374961072,0.0207841089614874,0.0085280189909896,-108.87335430130952,85.06038828007483,0.6354827586234085,0.0245637361834685,0.033677532272483,0.0160533768675284,0.0378785327044194,0.1177346207165271,0.0006748292814653,-177.3227963793248,2.87567444751392,0.8880029111121069,0.0378302897002887,0.1009770442778813,0.1341008961941477,0.014225635466331,-0.0089580100887283,0.1384443179082011,-133.89925515253518,16.904734160915975,7.753495895062119,0.0178908699588754,0.2635135915181537,0.229371780354041,0.2515905334118433,0.1008005267829637,0.1082289403636009
0.09,-116.35907057971706,59.54885105092345,169.2569045680091,0.0192934845878261,0.0166795054277465,0.019814603728603,0.0066575311491733,-0.0080182612683892,0.0097776692963261,-108.86548439525173,85.1372856374379,0.6166496515516919,0.0117129713025037,0.0420156751674977,0.0158867541436683,0.174565225905446,0.0917420614286068,0.0184155452565283,-177.44731088004662,2.9999603504674512,0.9196582870031684,0.0339977703401119,0.1240240620654622,0.0947859236712421,0.0546476908063912,0.0447004872129186,0.0321973768472404,-133.6351935014904,16.698916595367503,7.640111455610047,0.032993884901234,0.2761946283262522,0.2713924965346152,0.2953193597885443,0.1462732897284823,0.1391975827027989
0.1,-116.43964258677865,59.56343475466438,169.26384005308415,0.0389942255744366,0.0072136814730111,0.0251198793053176,0.0947359544653849,0.0169171095771498,0.0706724522944555,-108.9357254671292,85.16011192468372,0.6085174424718651,0.0306416978343396,0.0256066096075241,0.0196777620113936,0.1059772230258969,0.1215986939469244,0.0435537679802044,-177.46280624486786,3.1103150544508877,0.973289035183035,0.0576445135434022,0.1031737518669261,0.0442913408553829,0.0760087900976383,0.1373705941839037,0.081755406706018,-133.29843035763233,16.50338061489702,7.496939890207612,0.0230273467959728,0.2663002102782849,0.2232444561493066,0.3058106508568631,0.1127640830209695,0.093513125050795
0.11,-116.46949921683124,59.62335930508125,169.24226944584865,0.0178841526786443,-0.0101102003531654,0.0190001625312007,0.0056596898406762,0.1126829952971486,0.0262725685468969,-109.00067901345886,85.20309834477094,0.5654168554357956,0.0116684167832744,0.0107706865997745,0.017595279590019,0.0297516320248861,0.1675242540336814,0.0373427821796924,-177.49607013843922,3.3048592209380674,1.1062644623720796,0.1349704655936068,0.0988113542779135,0.0407407399942276,0.1484909050837039,0.1662290489377111,0.0392868128592392,-132.7604091010044,16.105626191544776,7.307707724280772,0.0094443145869577,0.2095337850660072,0.1988875353423648,0.3299705113016038,0.097288057606911,0.1533905404474983
0.12,-116.44306949314644,59.63945252763011,169.23329195656038,0.0205080264557345,0.0051551316164035,0.0213991313783225,-0.0110380486488167,0.1567024569221783,0.0223470441915456,-108.9970283663641,85.17913868113338,0.5628713921012125,0.0225436957190391,0.0108043236381679,-0.0076231679631247,0.1699559895606608,0.1758576712433502,0.1280111160885158,-177.40922273966538,3.4307754932304526,1.2933794777931389,0.1199570038696734,0.1274555206023092,0.0800565930105496,0.160955617949987,0.1001635763425207,0.0214523101710057,-132.54359238685242,15.992688016206744,7.2020412842584935,0.0416752460417083,0.1923510679886405,0.1958925683136175,0.2849836215294206,0.1227711497053581,0.1204072462307541
0.13,-116.35669534646654,59.6422949130305,169.31449672413683,0.0359475040061146,0.0073016779070111,0.012976796738581,0.00222999674666,0.106970694821769,0.032547898087336,-109.0702679786048,85.12235277201947,0.5585574577316393,0.0135241802599448,0.0166111239487433,-0.0025314373616434,0.1478419693628535,0.1076949103999941,0.2747754226898561,-177.29690999739648,3.559149705817213,1.452898578937785,0.1471405446434455,0.1362679667602537,0.1310445599037831,0.1328028165704731,0.0228639860589308,0.0189236366272339,-132.3598483965391,15.868003625877073,7.055962802538164,0.0509697142386692,0.1868440901608546,0.1274234568454865,0.2806727872641831,0.088677072252673,0.1345451676617071
0.14,-116.32945127852672,59.61537393290407,169.3210178096017,0.0267860134180169,0.0145810375117428,0.0303576404326122,0.0079677874234138,0.0449128957839869,0.0199091511964669,-109.0606963411811,85.17855766487725,0.5648514397567023,0.0102419945642138,0.0177187974159754,0.0150753697552636,0.0320111088812351,0.1646057459166955,0.0706668958019371,-177.19108912670202,3.68268074637027,1.557342023554311,0.1439153045699638,0.1300286981227496,0.1338519434178186,0.0561671228072541,0.0417993825463064,0.0411858556050087,-132.31386335422022,15.82626250207846,6.979445143128285,0.0740069789510535,0.1343371229350548,0.088736183604165,0.2369726748634512,0.0887697505242978,0.0723605957024839
0.15,-116.29607439073276,59.62685425736271,169.32455495366708,0.0514052723318466,0.0115484498589614,0.028043364892301,-0.001110324065398,0.0228767713032709,0.0007025473285189,-109.05177791948344,85.1901221798189,0.5676829505261493,0.0571117001491776,0.0027287724164261,0.0125806101905623,0.1034357392807793,0.1030002182319776,0.056342935385154,-177.0588837482606,3.80181246475706,1.7437213599708294,0.160487217724976,0.1043472491752722,0.1099203397531938,0.0115839647464424,0.0340025798377363,0.0707851389559804,-132.29803536458095,15.73848337212015,6.897220880095584,0.0799041552734012,0.1314033943903503,0.0656441455016869,0.2781652234297874,0.051062745785005,0.0561336643071173
0.16,-116.18210443604347,59.547385407765546,169.37291149894753,0.0567893862393549,0.0128851654393584,0.0302101599106061,0.0234499981630159,0.0107109547206243,0.0442489283582027,-109.12451396522512,85.18447056753358,0.5640306058237201,0.0431376037460977,0.0381821088944755,-0.0049887508659098,0.076272564211987,0.0655853227271816,0.0381135370414236,-176.94479886911094,3.9303806507742887,1.863507361560554,0.1527221440789784,0.076691115435121,0.1123507481618769,0.0552689534204884,0.0995060758904053,0.1392819192930944,-132.2352235748238,15.626155391596097,6.806219353764593,0.0993165673213358,0.0809330495738859,0.0700090721721497,0.3085732554447775,0.036603442580346,0.1037232906396476
0.17,-116.1257377611472,59.55404580781445,169.3784292767712,0.0536658027417452,0.0265483133181541,0.0245339337819611,0.0224612387223496,0.016294735594413,-0.0199404047616594,-109.093103737195,85.1699748033227,0.5733113214524113,0.0126004025549039,0.0188075567228321,0.0228949428154621,0.0398893824210661,0.048931541762521,0.0387206297756623,-176.82418408841934,4.040187635377795,2.0440150902053524,0.1171610783883109,0.0617615984289469,0.0700576062907666,0.0909162872568091,0.0828899520587845,0.151731251800689,-132.3820058150469,15.557087924942808,6.675155822594938,0.0727723686449479,0.0808253619749575,0.096631191827243,0.3018877354942195,0.044223673751888,0.0680151630894866
0.18,-116.12152235839564,59.55640446521931,169.3753694610273,0.0345464285121508,0.0325563560321438,0.0143161948886457,0.0282511185862291,0.0363621627132881,0.0293375371507115,-109.0630162027437,85.1306018609747,0.5543461447676947,0.0056513291447758,0.0070605970207361,-0.0034214322466759,0.0270403606125069,0.005441562935389,0.0393781426044822,-176.7502424612197,4.116312337701761,2.099288498705181,0.0992355995979932,0.0619244606132322,0.0840109396048854,0.1470196749250588,0.0658659242872636,0.0503627690724585,-132.50268446309886,15.493343773692423,6.681966883712501,0.0400248780403752,0.0639274543071077,0.1012419400144062,0.2525289395078943,0.0565774733284945,0.0161854563304342
0.19,-116.11584658482352,59.52165892521857,169.3865157651296,0.0036018071587862,0.0134595691006991,0.0257729342701947,0.0284305922670081,0.0451098524400688,0.03444066173543,-109.08044323765546,85.10139339020189,0.578165828104035,0.0248010676442068,0.0329598116450442,0.0152181499581042,0.1170878571541841,0.0309376109163053,0.0318918477814587,-176.70409833584245,4.19814442201678,2.1949494734049617,0.0907089634479497,0.0632934012777052,0.0431855415989115,0.1314495022750903,0.0493379307581244,0.0299736004182334,-132.645913452216,15.439350691687055,6.6847099463111705,0.0362302226231646,0.0575550814175771,0.0918103305516561,0.2395185868757553,0.0397992026169116,-0.0126148153992945
0.2,-116.12702401242902,59.505762983000125,169.36772758205524,0.0058889384541616,0.0062307464950247,0.0337542238754895,0.0299713328030796,0.0635719161109296,0.0052751609222149,-109.01901128670656,85.09646814046404,0.5333939704461427,0.0371691265728047,0.0070374185908322,0.0377706181095738,0.0970555051304225,0.029148919426829,0.0352427889587377,-176.66698481363605,4.268191060454856,2.247884423631619,0.0495823864624431,0.0558865832804482,0.0202928462323962,0.1074800690529034,0.0354491820459044,0.0281688446311107,-132.68258254565418,15.451602452589768,6.628088570053964,0.010617204086514,0.0279723483230469,0.0631274013182649,0.2105166997382009,0.033012746368458,0.0323604651674989
0.21,-116.13739151326207,59.49986793792593,169.31370079734583,0.0026880959481282,-0.0014248891309971,0.0071423889471088,0.0501427965920782,0.0649705387046681,0.0135720062206235,-108.86949011426572,85.06171630513886,0.5080203882307026,0.0662721021707006,0.0278264249030988,0.0014139539399157,0.126265611937663,0.0893948182307573,0.0487124136262147,-176.69404580599644,4.363230381156768,2.312228435062337,0.0213284844116109,0.0626147731274968,0.0526185754882993,0.0819550006424141,0.0083374309042464,0.0101421517346342,-132.74476211164946,15.448574700881522,6.676703856973438,0.0525290650363143,-0.008910231188679,0.0386557541071658,0.1799896620962287,0.0580590636807545,-0.0032136092646405
0.22,-116.1306299243924,59.5063479064885,169.31056037858048,0.0149994968272924,-0.012547580418423,0.0020916478861352,0.0214443226331262,0.093798013592557,-0.0040009776055826,-108.831079218657,85.06895569812228,0.4976305782472134,0.0447992392167386,0.0071254399012476,0.0047322877188572,0.1299467644346482,0.1268726538903768,0.0062202352341593,-176.7571778664556,4.448084087643503,2.2968824515200263,0.0185871876113011,0.0466657385855651,0.0478246365814485,0.1112474842888712,0.0447527375885596,0.0898169045706746,-132.81446672770534,15.445642414907516,6.702295447870993,0.0126113117169699,0.0402725002380725,0.0589906582739546,0.2394534047695226,0.1020670261357425,0.1263265609272262
0.23,-116.11931346439847,59.48374568638147,169.2929405354268,-0.0018581366892041,0.0109370181788111,0.0103430442634362,0.007425393672685,0.0824381312705037,-0.0053451421991456,-108.8104156312836,85.0659849681456,0.5568572273396074,0.0646095617162051,0.0254906894218961,0.0120461316826677,0.1165947605535585,0.0846636801072333,0.0260418292697442,-176.78969569543833,4.505346236578181,2.321576036953186,0.0228143742016978,0.0181046755273438,0.0461382526762037,0.1379256602793672,0.047040036789792,0.1797350551675479,-132.92335847794288,15.55105635064577,6.767400748077081,0.0031724146897346,0.0795606855484311,0.1024115710445073,0.3166705282302336,0.0593841889159345,0.1865617898251644
0.24,-116.12141023051568,59.49448395842559,169.2944677191024,-0.0098848748322329,0.0003217386094265,0.0129870151884382,0.0294633315954299,0.0531119568906475,0.0094946248528722,-108.73923799354816,85.06021343701721,0.5439838388190115,0.0232117105439576,0.0230223028737626,0.0105372984196645,0.1507070890770933,0.0490771435292816,0.0812773163807858,-176.85747796490662,4.491081124426482,2.3064979985452108,0.0027974083017059,-0.003065768273325,0.0172263848544925,0.0674626550938688,0.013054689479654,0.0218629585979225,-133.08266161180055,15.647180416757966,6.749420041989319,0.0251987869288212,0.1068301510787188,0.189157045101753,0.3931068585438341,0.0323812664887754,0.1359704852114458
0.25,-116.12499737489954,59.48214525762969,169.2941798906014,0.0286449841178039,-0.0086845513016698,0.0205286634918839,0.0136708694648006,0.0133687742452907,0.0373835806898264,-108.75077692574212,85.06439553675976,0.5703510824942076,0.0117094490202577,0.0176234840931344,0.0065205670857559,0.115609857663408,0.0710329866356781,0.0696760874132864,-176.86800863114115,4.47828052349594,2.31242348113067,0.0160921912101884,0.0205480957879755,0.0007575892772741,0.0405908087581251,0.0123694775778571,0.0836863009701409,-133.2429460400034,15.759723041996027,6.754747779008136,0.0334389075428679,0.1155031430955339,0.3030922707147856,0.4391118821437791,0.0218417526824765,0.0948997956863374
0.26,-116.1039932233804,59.49461077179125,169.31667717578068,0.0494497103770469,-0.0159951561299162,0.0053461264378913,0.0382064234930011,0.0595506314230136,-0.0034381992473375,-108.75166322452034,85.11728121205893,0.5644824374526242,0.010463412885088,0.0442571537493114,0.0129260688821501,0.0495736954075003,0.0923332885524598,0.0786492215813679,-176.816203375343,4.500814453761001,2.3104091942013887,0.0401906526449196,0.0311677453682738,0.0331887657911622,0.1161385341858373,0.0678806070812459,-0.0068867095671815,-133.63774882482429,15.945546371220589,6.806044071078663,0.0126916375756281,0.1559924302747368,0.3660517730626159,0.5771454269527312,0.1345064986432529,0.346671247748356
0.27,-116.1863742562692,59.489963887562354,169.31984030688503,0.0254704535089506,-0.0202854038587654,0.0413866772573995,0.022655520713236,0.095718056764358,0.0587958630779184,-108.71878180034996,85.16253987496286,0.5204750993748434,0.0042913404608373,0.0272301735180709,0.0140260482196579,0.0814024660061532,0.1103652622667762,0.0900049522874334,-176.82739898879953,4.50315019843426,2.3602221286244496,0.0168321257891329,0.017068477542887,0.0306525878732296,0.177381758403031,0.135959022073332,0.1427964867174759,-134.19286209150815,16.226489068791924,6.979170206344934,0.0568941045910839,0.2997365334369679,0.4967982830107632,0.3997925852444884,0.0959451415417449,0.2241252798385786
0.28,-116.23713979792504,59.50082607471414,169.31469785235362,0.0014283077208897,0.0238109142649724,0.0012737794008656,0.0003485990821862,0.1451046981999926,0.0195437709275182,-108.69652936153176,85.2626455009512,0.4926359014980381,0.0080234898490949,0.0189437092723729,0.0092034395652793,0.085170252212237,0.1217639135662323,0.1323960161817917,-176.76348533766364,4.48885928456291,2.3791241589199075,0.0056509191733693,-0.0033218173772238,0.0345714956757302,0.2275583415104753,0.100571581440407,0.2091762533566682,-134.73614257509274,16.5015962661508,7.117611853450733,0.0839485772629294,0.4433351486150442,0.6418662725111466,0.267860666037872,0.0737793068405083,0.1383375270182663
0.29,-116.24935631284993,59.49636696633007,169.3115885732145,0.0132733458698393,0.0037456484583736,0.0273076906161609,0.0228620912711655,0.1352291191352092,0.0402211338058488,-108.682339523232,85.23407717532693,0.4887425374743001,4.133569141167096e-05,0.0245082533087416,0.0045346919823642,0.0939670194223388,0.1584200882498098,0.0820442185456723,-176.7410726598594,4.5027673968852415,2.3694078602636965,0.0091361184015235,0.0231735953941773,0.0223528539050962,0.2276335498166263,0.0534316622567262,0.1344431271744143,-135.5130361233169,16.94210197315805,7.477908085104199,0.1192682525093105,0.5113644711227222,0.7634984908402689,0.3750774947557755,0.2445886472741737,0.0559822038818358
0.3,-116.20022699712524,59.56560764319542,169.37599353888328,0.002645571233487,0.0265629383861027,0.0078189527670826,0.018008050812758,0.1312497452738564,0.1456017801045779,-108.65428092814254,85.3252579552213,0.5060859813732166,-0.0061559955928352,0.0250431637002583,0.0266955078107676,0.0765920167757618,0.1314176477429062,0.0655068245918731,-176.7203552612684,4.534599997086111,2.3949493876828702,0.0241191884893678,0.0024911574638848,0.0174797578706051,0.2131642962238144,0.0777821166159125,0.0602070871137962,-136.54420310163346,17.449351240575655,8.03346467750344,0.2172803434995607,0.6211866642973103,1.003412580543496,0.5256822245489315,0.4612759277043343,0.1498046367939353
0.31,-116.178621965962,59.55602365684688,169.37188286550696,0.0198912773768474,0.0261678933775218,-0.0031005668471886,0.0779685843541549,0.0874842348117969,0.1880237381457487,-108.63119101901373,85.43454769159771,0.4985823960064066,0.0135719595510421,0.0443582232708935,0.0227470159840573,0.0517077877924662,0.0900999235408341,0.1236509764022004,-176.74675315221828,4.551691003950969,2.4992272314544186,0.0013212560082521,-0.005890133534121,0.0352274721167192,0.2004769016129432,0.4200264228302721,0.0660986689473643,-138.8115116154862,18.639445451635037,9.411384458689511,0.30994321074414,0.7831255816877609,0.9293095267414352,0.4961755007268362,0.4610022492361784,0.2606843388397601
0.32,-116.1922925878292,59.55816116948191,169.37227034833447,0.0037422560053219,0.0174852449932009,0.0186141031377033,0.0646955678034192,0.0936439355483859,0.1994275240079735,-108.69824875812468,85.49902392537335,0.5003323612678913,0.0344401387561464,0.0227772020900086,0.0172939861449614,0.0706796588208004,0.0447403758105665,0.0532672236841086,-176.80380168792743,4.550119278861121,2.448491140765455,0.0248036239099879,0.0469579286663335,0.0801439088956822,0.2461018533636162,0.4405659709592254,0.065860652402732,-139.7450766637336,19.387860122026076,10.138720685100443,0.3293565939673692,0.8424850028307107,0.8571329194098628,0.2311738807515093,0.3829720183981223,0.5773043819075342
0.33,-116.18292817593375,59.63607714253956,169.30803636796654,0.0263851972365183,0.032796956153524,0.00393824825323,0.0833780170143555,0.1397686552089525,0.2026692061462751,-108.69123582133076,85.50951257654596,0.5083138315165339,0.0412863778587664,0.0456789512019071,0.0257664265934809,0.1301033447033075,0.0252257781755722,0.1484921795435057,-176.9400139080359,4.505432043060399,2.4387932896243085,0.0202631601165802,0.0637537042924164,0.1363540012958205,0.1472667215629131,0.1777581232156093,0.1830867240124234,-140.81017437239396,20.066209259921195,10.92459958717495,0.3323092837780844,0.8194012409974757,0.8497933760113301,0.0406457342959629,0.5219265400608748,0.7479220600379578
0.34,-116.12119799523656,59.64508564255184,169.30670580477138,0.0194371632953529,0.0410635653888433,0.0420950466346187,0.1949707595301788,0.1698212153216278,0.2437966175299355,-108.68646304261974,85.55686028499834,0.4441343195722596,0.029877524485135,0.0263844131307738,0.0116837778525925,0.1317962283192486,-0.0070100783195722,0.1452814961742101,-177.12202710400624,4.3711170478408015,2.450116476807469,0.0532370764785865,0.1249351499771604,0.2269296163923842,0.0710871280227261,0.033643292197065,0.1409168994011148,-141.64858991273744,20.68450664834531,11.74252103433319,0.3645072727351288,0.7302166791910896,0.792097847008946,0.1597208332040752,0.6629679241223005,0.4695991770589796
0.35,-116.11395879800564,59.64800861489569,169.31305366161487,0.0340501672953186,0.0251505070667097,0.0593594776851847,0.2131879888198107,0.2821696187120308,0.2804526921748809,-108.71057932717822,85.63699368164389,0.4405985654634424,0.0090115739410796,0.013698775462512,0.0290503247437359,0.0291662021240573,0.0580664092043278,0.1823945960459391,-177.45371539806263,4.24993992495564,2.3744944156906094,0.0936238448905254,0.1132592778719902,0.2801580324793171,0.1145979550418382,0.1117894541605231,0.0416584501400802,-142.49215747360026,21.29755499926937,12.48158600558376,0.3722847029616057,0.6374701339931559,0.7443481751254855,0.2795213673477817,0.7912614173433447,0.1768898356819805
0.36,-116.0111482833176,59.57426206903701,169.37106035677323,0.0412258644031994,0.0247284102919097,0.0508896362048928,0.1642772953058252,0.3923748776569221,0.2639493742508463,-108.6832710400392,85.63091311876353,0.4485850825648438,0.0429451122742153,0.0008156452360003,0.0108277737509307,0.1909698286910325,0.0514548205579671,0.1630620465285252,-177.8238006224024,4.067748699651246,2.239135690259161,0.1587999000718651,0.1430779571377552,0.3567563447358567,0.0146456386894757,0.464312371784349,0.1103847814439646,-143.2422546884041,21.9261051616266,13.249640387874342,0.3583115328128754,0.737383553968924,0.5109500104135241,0.43499511848649,0.9895263532572264,0.1072370931960851
0.37,-115.9016357955948,59.48930449691511,169.49265048100585,0.0461699261160955,0.0041147935110608,0.0261939900243009,0.1729392848719341,0.4177606709225219,0.2853315335101178,-108.665345809051,85.7094007286114,0.4861836408519337,0.0123383174719508,0.064656225236269,0.0359045627734168,0.137685672242236,0.0394250045627439,0.1428884844940663,-178.25305988973207,3.869460761151432,2.0749258266403974,0.2150992566384458,0.1301126053200658,0.3577389449528789,0.0564236235333441,0.5031471294261208,0.0858655125009088,-143.39967008303407,23.001268377343163,13.81828896680032,0.3123236281528552,0.757202878514027,0.2579991111954103,0.2048947423997986,0.6235251567359759,0.2782361983250491
0.38,-115.64360465754628,59.37448159856534,169.69120732609898,0.0792140941758468,0.0291291068802071,0.0598655875829313,0.2357974338424357,0.3812819951424192,0.1681267699150702,-108.62206858774142,85.81454606096611,0.516513455340707,0.0139551230432573,0.132422126639193,0.0242551537743221,0.0540580248549994,0.0185321275127566,0.1033817652904769,-178.69286987941945,3.689300521394895,1.858359522592778,0.2427305765753644,0.1507222521616771,0.390329704164271,0.2672357782138662,0.7042643678691068,0.1411089478292663,-143.567182656437,24.074090631214617,14.37949208131077,0.2782204545231015,0.7581675527203636,0.055532911027143,0.0113631144976109,0.2703992830908621,0.4561824825513067
0.39,-115.37091798520962,59.25152379735997,169.87037281093237,0.0763302941005699,0.0669219155689986,0.0417644067333989,0.2501090093583764,0.3444017759533226,0.1714189728435442,-108.69196128562255,85.941688779313,0.5024862757927249,0.0103337994850232,0.1053019695175284,0.0354566979249923,0.1018499687589656,0.0404093660608583,0.3550664096521082,-179.13940400601973,3.494828142591866,1.5633029808967065,0.2949651049812877,0.2004828821208658,0.371978746817645,0.1729658379545448,0.4950423829558991,0.1051316261815271,-143.561482298553,24.8188415970574,14.692666342067762,0.2100127502951383,0.7274787804640857,0.0401138922736182,0.0108580607872435,0.4142581058491756,0.0053862976695071
0.4,-115.18354602748852,59.13464469152272,170.0657689541886,0.0803459801630516,0.1117676722278772,0.033641719249902,0.2080210341379083,0.260771040322674,0.1650240198007589,-108.6880465276996,85.99769651979545,0.4957452017422932,0.0232825876418352,0.0971273458672524,0.0583592737129509,0.1790412183369447,0.0858207489555335,0.3284261083405634,-179.5023186729129,3.257302620891189,1.2462461862516605,0.3245487863597037,0.1954127961523701,0.3203721046286157,0.0485282536911065,0.5719380485928258,0.1728589376358316,-143.6220440145883,25.62980431435533,14.931486544715405,0.1503915992470184,0.735418149280354,0.1383835061572668,0.0794406837929894,0.3041903270658079,0.0498395180886365
0.41,-114.94536693343498,58.81329649692514,170.31538299678206,0.0594708631044013,0.1766849019592268,-0.003886466610807,0.2755052135507789,0.2165319953814662,0.3025008493120977,-108.69585674526633,86.29869835784825,0.6316068590713063,0.0422939635188414,0.1447180024347797,0.0480355071506359,0.1235237317430581,0.1673512296281236,0.0743373082088716,-179.95007013016402,2.7546758673781864,0.454721148618548,0.3194062804796796,0.1855346586328727,0.1129429013960271,0.0204276967394076,0.4948195235536782,0.1667710132493799,-143.43072631728563,27.240491012099778,15.470975166407896,0.2081230468821451,0.6719899886452596,0.060717653756563,0.4611108641833111,0.2399265773712846,0.801577298103435
0.42,-114.7762496718427,58.51677770103762,170.57502744610815,0.047676895584388,0.2131139228989536,0.0116920299976564,0.3486215502385695,0.2711098663742777,0.3211478447809245,-108.7013740622656,86.51768516953902,0.7079361025591592,0.0564441017114167,0.1696155672224789,0.0263535676938887,0.3324728817323057,0.1858721522870274,0.2367502307945421,-180.0602543011626,2.5767368141771385,0.4755463489906911,0.3634055077843927,0.198344833720613,0.1148708213545495,0.1129092898178938,0.5741932575890398,0.0258147709220988,-143.5531276402051,27.629454763660757,15.649296757570658,0.2632537424936698,0.5704217461498096,0.0590961639765324,0.2427238145363253,0.0168846889626528,0.7429032855413256
0.43,-114.6254336092537,58.25006424638145,170.80438705122964,0.0571646330651732,0.2267344394102157,0.0370668569695027,0.3772686633769845,0.3382651827306359,0.3458883790863859,-108.61273429880715,86.68707488339922,0.6945746788853758,0.104177943768325,0.2690571377116846,0.0034008909387928,0.2783403879615708,0.2229464310297336,0.2810991768489305,-180.18479359074237,2.3189569535964507,0.4998032312476564,0.4274167566975213,0.2372073853515747,0.1116267999868207,0.0767507213904394,0.3850972815477278,0.2597645331088366,-143.63090148901293,28.175099673077582,16.006756592961796,0.2322147298171119,0.5331573445742535,0.0458551725034035,0.2062030789845589,0.138538833830594,0.7164801771491064
0.44,-114.50681232295058,57.878538964789534,171.1382134227979,0.0290054545588757,0.2967715012686176,0.0726049791318359,0.4469284882322457,0.2905877985846984,0.3386639622799207,-108.54874759447806,87.05806112871531,0.6757795953448312,0.1178553652418659,0.3364373640143683,0.0112039888470639,0.0653872481702026,0.0878796151769103,0.0517256534276931,-180.3846795684871,2.0701266248706247,0.918560342831285,0.4157429412490213,0.2346275030820805,0.1228800198344197,0.1037144333132758,0.1402402314795625,0.2024303709854988,-143.62665458267952,28.749807607290407,16.358662026865666,0.2447614243648923,0.5244062867438153,0.0049033337707897,0.1839258567855316,0.3325746025790619,0.7743222768453247
0.45,-114.37395432842278,57.45751899300449,171.49609514688746,0.002473423408079,0.3476050483931847,0.0743815819624981,0.3773055904183322,0.2005215119405481,0.2173389475763529,-108.4456686021084,87.3797229846103,0.6147225196510482,0.0694203260933221,0.2905821266408868,0.0255487867444955,0.161134711733879,0.0254808327018702,0.0199253096931891,-180.4928728670426,1.757818158049065,1.3547069664825058,0.4136263648148466,0.240166175613971,0.1803533961302103,0.1481926289870025,0.0353034591678967,0.0626674528952189,-143.6392253910911,29.313847754694542,16.69383154919114,0.2152032453524254,0.551219903916832,0.2528365782490217,0.3171283006170542,0.2104189494363325,0.9983997433327398
0.46,-114.25408111479008,56.93523794324623,171.82285287776924,0.0254626028848804,0.4552667355413757,0.1163531694620247,0.3667818870491106,0.1082627261129179,0.0393984406334859,-108.36677609704562,87.70014794828447,0.6182687650921986,0.0328255330368613,0.2949301809177558,-0.0154695775954682,0.161493168753347,-0.0107783827020462,0.1031414864138972,-180.7544851668469,1.5000822921628254,1.805664802787174,0.420531285300939,0.2575326774313078,0.1924021847826844,0.0232492020201228,0.1311365568847477,0.4028539770622175,-143.31245605291045,29.92017394829816,16.787481842618753,0.1265928189217269,0.4887884883619459,0.4359784906305399,0.289054264944921,0.1238578429340472,0.1932691462219857
0.47,-114.25516104461197,56.45425949334125,172.12816285826733,0.0296599408165899,0.4268903700215896,0.1391817950402765,0.490379958525811,0.1262637422311797,0.1162176125685609,-108.310902039954,87.99960289402352,0.620619605843153,0.0306959976439987,0.3165156083665293,0.0143575938198901,0.2415880123873761,0.0853047087533823,0.1972897562344049,-181.0033306173672,1.186130457599042,2.244507844305307,0.4015617457615448,0.2780436895549899,0.218390774108065,0.078363612667766,0.0427830728872988,0.4552870842393163,-142.95497203149176,30.65926079365038,16.60894051447804,0.1236996158959488,0.5131183022188568,0.4273926176565805,0.5886709269305341,0.2155956106389189,0.1774475527961847
0.48,-114.31291922225796,55.87167091600171,172.45426412041928,0.0898589987743116,0.484112511700852,0.1698964849195268,0.4679380963331304,0.0444858583340435,0.1477897667114457,-108.31172206877793,88.35520699947432,0.6295661672784095,0.0021243872297824,0.4016582830597581,0.0180425933120169,0.2185250291548928,0.0073465180994126,0.2776696870889569,-181.10660720009304,1.0544821228507273,2.5251826839689704,0.4034614578384279,0.2786699288033115,0.2310372528148506,0.173493244431704,0.0610153306015953,0.5915454516577682,-142.61969045909854,31.370375456708807,16.44257280961854,0.1035982662152979,0.5331909365475285,0.4551305401232041,0.9029109174407512,0.2973665186853194,0.1706996300996199
0.49,-114.51382899994614,55.312546587648185,172.70151354736478,0.1440601991420009,0.534456805724371,0.1741961914378388,0.6035804228634747,0.2170101504905599,0.1535442315697813,-108.3034018363906,88.82634766997789,0.5669206571712373,0.0416408279091288,0.3880017079396029,0.0447939806841872,0.2429404826556421,0.0274340925088407,0.2545806658726618,-181.33711168128517,0.7091880644899139,2.927682055631004,0.4349421386422691,0.3112848051026122,0.1912072535159356,0.1258812273404774,0.1991313326662078,0.575227040361152,-142.25602216533585,32.05616795310064,16.200261287174577,0.0791102223653768,0.4332079621087581,0.28520211565474,0.9438288546200498,0.440981281107598,0.1610226338422042
0.5,-114.7805208879504,54.68645984804363,172.9105722335979,0.1633384443071215,0.5912251647958162,0.1742676259519672,0.6641363388560952,0.2810175725465187,0.3382364807219339,-108.3167042773706,89.24446142873386,0.4835656147854278,0.0655780465627388,0.4199168595331413,0.0618766635086185,0.2749555161082446,0.0085761900193921,0.2556921480282537,-181.5621626777265,0.3713422495028396,3.367349171114878,0.4620126433177587,0.3125981258257087,0.1337237197648554,0.0427801833523994,0.3649829868108354,0.569901527046085,-142.2663329332812,32.641129478277165,16.001345760522295,0.0253083541948996,0.4527919737095777,0.1294180438725818,0.383977032124345,0.5173857978526409,0.0378043950820415
0.51,-115.36622334029964,53.374236226518256,173.2919842080291,0.2335096021082229,0.7239604841907114,0.2296221432002669,0.5787308927422546,0.0886004920585156,0.4394641483683744,-108.3591265859101,89.36996836165714,0.3673298850100771,0.1637702045000248,0.4849530502934359,0.1157646123128457,0.426898388076542,0.0051098751825097,0.3325264480921568,-181.553449996818,0.4349672341346743,4.493836318487063,0.5687323192817652,0.4466718667769497,0.165049721572555,0.4710513685954176,0.0548830002844195,0.2225782697761726,-142.49771389866424,33.77080588612235,16.2628388533808,0.0605762015397146,0.6261250149072353,0.2136069037810127,0.5492832685395376,0.3137112233067061,0.7386002289227257
0.52,-115.96370459602134,52.50734949644964,173.45682608402518,0.2854736316278304,0.7483099029758771,0.2614967550636715,0.4224524356809704,0.160578381951585,0.3595990553315255,-108.44356216745464,89.12429703992011,0.434774168662438,0.1813526744935684,0.574771999779433,0.1514297253521077,0.4168528349577813,0.0049063725435265,0.2271154634416029,-181.3581918408952,0.9995626286995408,5.26636011063752,0.700486485229178,0.4216916230289511,0.1102530017837181,0.5277150036320889,0.1108133686897063,0.1265157452483604,-142.87923424866506,34.32258853837514,16.68290559327255,0.1490449965927741,0.5477488253541504,0.2872181146906421,0.3842285367787773,0.2188583795163195,0.8644196037878388
0.53,-116.53690255818478,51.64805663990023,173.62014211150898,0.3413438656380629,0.8055637324813397,0.2741879009123826,0.2816220200563838,0.2356197239843445,0.2653216271324667,-108.4755517207535,88.44676553072374,0.6115122594021924,0.192411412105639,0.6485008129359446,0.1465295733709048,0.4691293837309809,0.0707085983697697,0.1280562380432596,-181.29947489019335,1.4618171165729623,6.006840097456119,0.6636092367732455,0.3827556034041169,0.0602641646487902,0.4588318335430787,0.3573433050168861,0.369420329023736,-143.1937158775857,34.74892494970788,17.10212870635228,0.1504100001872935,0.486292619475695,0.3001588877974844,0.4336470491718209,0.3935759235104548,0.5432457698641517
0.54,-117.13024339834924,50.817075144550046,173.8111571386405,0.3077262548654771,0.785876653554659,0.2852353664172033,0.7123098761432342,0.3123228959107586,0.0021713698185782,-108.55828695824864,87.73690749435261,0.6855891014843539,0.1834641495146898,0.6632622584502975,0.1169554558556848,0.5910146345434084,0.0530532727773118,0.1933429395435077,-181.2507158946145,1.859358935785695,6.690664754460873,0.6112106520763066,0.3300295005385938,0.017323351405452,0.3568465135745028,0.6122372335701639,0.7449109303387349,-143.63813924980707,35.135455423919424,17.566271581190573,0.1199590665112196,0.4276477831122894,0.2512820041519473,0.2895426274990254,0.5119230850613816,0.8897130265961561
0.55,-117.61602263763731,50.187689390247535,173.9439599924835,0.3169724276542761,0.6185255920427083,0.2951990957383426,0.2515351464379721,0.3980935238307421,0.0532972388750196,-108.6771970339434,86.99521845190806,0.5582373778978192,0.22058675309796,0.6073997385622839,0.1018270253619696,0.7285005219285671,0.0949757927552802,0.1041922916511613,-181.43415616250093,2.138008238031179,7.296130277082975,0.4473400846435614,0.2040384343646674,0.2633604141625978,0.0554583280712614,0.6650815824197952,1.149543977970465,-143.86796980632752,35.5015224477219,18.01707107760344,0.1849370677652684,0.3205104861850417,0.2159920695024221,0.2005287579811493,0.3935902362068491,0.9556369723076932
0.56,-118.06392953892735,49.53829211494008,174.13348922027328,0.2907234796656847,0.5653409397610694,0.3462304002012486,0.893038481761616,0.443883295417329,0.2953799407740036,-108.87946647961547,86.32869301177018,0.4715575816837039,0.2350710743838939,0.6103779869220847,0.1062549827082592,0.634804499495481,0.097036137246301,0.1886090405754495,-181.75269124066304,2.2483474748085035,7.815516232376516,0.4152365914504671,0.1082607772068843,0.2748034575679576,0.3082827687102215,0.4910208529778217,1.0756851347467582,-144.2402962815592,35.764939557665485,18.445228271382003,0.1931460346597347,0.2809648909888589,0.174644488495838,0.4160317124091268,0.3020161261107693,0.5635930485478369
0.57,-118.6354072287894,48.9410043188002,174.3082085827945,0.3719950185906685,0.669838216952731,0.3098292111620466,1.1331458744465064,0.4159595029081665,0.6044399583636945,-109.05192159898972,85.67074146493405,0.3789433124429541,0.288634602916907,0.5884518498454075,0.090729547314876,0.5105715628540759,0.1328347654099294,0.285087798155838,-182.00317010029227,2.2504758863456047,8.194061748864762,0.3436656576247636,0.0169153454109523,0.242331806753162,0.6732949694699458,0.2940937604366326,0.6131711190883682,-144.37523128371174,35.93073123628896,18.768028175238747,0.1613891745564326,0.1847333158731544,0.0693516769785462,0.2768516967134303,0.4633020884459283,0.6501815560746695
0.58,-119.37282328900396,48.13419800542437,174.30783147838,0.3443648186948134,0.7819193750084928,0.2696658448147583,0.3466306280085798,0.2983561989625972,0.9925564422069858,-109.29917584061748,84.98370849482694,0.2890791785662258,0.3406513851469049,0.6021836553447888,0.1025514324070229,0.4648073079058544,0.1859140032033979,0.1882753507123455,-182.28507958970383,2.28017380033288,8.657662354893509,0.3884303618470626,0.054915315550775,0.2620062974022499,0.6660388644581217,0.3613301532807815,0.4843240793795905,-144.25734888625985,36.24751431692698,18.99448213232698,0.2615300603287131,0.2468506313342023,0.1048249442255358,0.2070410282397942,0.4592053510303497,0.89485425281558
0.59,-120.04526803587176,47.13690311710464,174.33899152668934,0.2745492089501657,0.8497604551516894,0.1644476118464065,0.6956583736973941,0.2047754360337686,0.8650245943232782,-109.74187672901805,84.39773260051592,0.2745492752452299,0.4163777926805034,0.5671731030341514,0.0494866767525238,0.3854667223559422,0.4163163049819274,0.096085143827939,-182.6265948351461,2.308088349767059,9.121559575484866,0.4574918312858445,0.1101531770008485,0.3046697811635099,0.6239633631263738,0.407379200295873,0.3530145996075039,-144.2548185285166,36.62924215707202,19.313469560447068,0.4035223286413638,0.3394597235074829,0.2390726926436323,0.3270005281400212,0.3818349341234189,0.823111825875124
0.6,-120.6768296195795,46.12798214824236,174.3756417301883,0.2032272308495693,0.9279118475523022,0.0763507895689903,1.0695009362472,0.0899533164141571,0.736478636088021,-110.17996516245869,83.80824580368923,0.2434082470912908,0.5152697849837478,0.5553765744861361,0.0109426778190843,0.3112783609365856,0.6305821456123897,0.0160094635449223,-183.0109806776144,2.3642474969262186,9.631124447349556,0.4574997647498078,0.1129971150135143,0.3527031056904848,0.6554691730803124,0.0749069957940474,0.5742742974036463,-143.74953921595312,37.13243296096552,19.703005656848227,0.4495812739322443,0.3504774177312525,0.4005514351682888,0.2814699511469764,0.5381125837790175,0.5889200012947474
0.61,-121.37048380701272,44.69616949097412,174.35484151427067,0.0237669819914429,0.4586567640662325,0.0090454527126529,0.4002370514422589,0.4830913644346097,0.9036256109910696,-111.61558908999626,82.55518653903701,-2.690058853167627,0.6639409019963992,0.6386270809832086,0.0834070329804174,0.6087966107053264,0.6328226712435795,0.3547472959332346,-183.70452180321968,2.433262234580414,10.681724974485537,0.477022066195872,0.1089867117114343,0.2413212166880403,0.7347818774959671,0.4482279496131547,1.097609291269375,-142.54981416647038,38.18089608993131,19.990080585871997,0.5109383859697817,0.2527262844069746,0.5016526216561384,1.1897856222688046,0.133072903953945,0.3970926312365624
0.62,-121.37837874477977,44.32007088976783,174.45037140658278,0.1833688765902039,0.2719428591071806,0.0986390742457214,0.5767270998139039,0.6418051807023585,1.556173717770423,-112.25457466686228,81.74285657153739,-2.5175581074154088,0.5732547873230565,0.7516626637313126,0.1006274442561938,0.7705663328154614,0.4174838971127075,0.0732613830142004,-183.8103216051155,2.508791083376352,11.180518250401985,0.4462548238170086,0.0854341006176695,0.1127935335538865,0.8098775416574585,0.5283476199755732,1.5326769727136726,-141.6876325209202,38.63339196974517,20.19447623786423,0.6085686115364216,0.1367432375682074,0.6459635458056986,0.4881856923134904,0.4629179610217687,0.6453347797196411
0.63,-121.18727252482164,44.007307657446844,174.57946258243754,0.2238218492060162,0.2608569746971207,0.1287358809752784,1.0020720529383411,0.4449249875549689,2.060054765723974,-112.8888431525628,80.8064006337469,-2.336383315346496,0.5316556105593613,0.8006877036099684,0.1163730618292425,0.9420616384615396,0.3141316683883908,0.4143988489399985,-183.8092801598081,2.6258391482233394,11.505772701708745,0.2262075688767073,0.0777047770404325,0.1298027361249181,0.8133080907531134,0.4363338046286787,1.594943650623031,-140.94909981613387,39.00014550777532,20.441916248676904,0.7578399825470615,0.1436652953561544,0.7444562088495371,0.0353227667570521,0.1514980376670773,0.0955115750003666
0.64,-120.91078865094778,43.62969058679408,174.70676364253023,0.2181571021335572,0.340114110820257,0.1349329470944812,1.225447393246187,0.0313375844122229,1.552938168318741,-113.373107900493,79.94188655119652,-2.26220525438513,0.4336502588375046,0.7847296832049071,0.0963950182871929,0.4600239704571197,0.3932876036023806,0.1477234920184507,-183.44799689714063,2.759574277245169,11.622735020004606,0.1013491700774491,0.0816131585411756,0.3732105638847919,0.7643398805510437,0.1102980849270107,0.8254398690527641,-139.75056682198817,39.54284576080064,20.624892832427072,0.6774456490247732,0.2559388515270523,0.8918195521331551,0.1544073744488288,0.5537734717891697,0.5454387273547318
0.65,-120.67407981254688,43.13831778174799,174.86756562559293,0.2861738113784446,0.5159591113632219,0.1538129416907567,1.0486904712795422,0.3334716543434968,1.2147360934178866,-113.7540197431362,79.19160501581531,-2.126851651095784,0.3325854691289858,0.6979215257711383,0.0792845525576489,0.3284252845200924,0.3038343274418514,-0.0033378030782712,-182.94462034440588,2.9350115102155314,11.686791511894311,0.0494188187274517,0.1196330799707521,0.4471512202416091,0.7801417224922423,0.0324679187472963,0.5921067434964419,-139.1229682889662,39.9529962864469,20.555416980917126,0.46270526746413,0.4117141747389942,1.1166790600441978,0.3579958202143193,0.9403054929754976,0.8440063022961002
0.66,-120.35240995077082,42.5046905511968,175.10635727091577,0.3317014329455996,0.5569711082435514,0.1067919468207782,1.3749149525455384,0.2494719596658399,0.0014790510402299,-113.90950350889786,78.48418087736019,-2.020820228391839,0.1861076176373511,0.6344037174149362,0.0436748405779443,0.2211036377525344,0.162307350236889,0.0407227221898056,-182.41702404176544,3.258587086751406,11.690659603216494,0.0008119285031205,0.1735475626646183,0.4743347023298397,0.3935260325085759,0.4002145429724407,0.1232171838733505,-138.05913255886702,40.8124077000297,20.11845127793752,0.5922230830014357,0.3905556263905856,1.1552171445108028,0.4094745458582365,0.1467549046213523,1.2871619506990242
0.67,-120.18806281098068,41.80112193750664,175.57962265284922,0.3891792845263814,0.7742029597042899,-0.0024147564957541,0.6822124243512709,0.1509725596315806,0.0594160418701308,-114.0739023703387,77.78496544955622,-1.8827833261824816,0.0438857654435827,0.5911519763218058,0.0126753395279644,0.1087035689612048,0.0129296666444089,0.073021567123772,-181.8768289055512,3.617353046262009,11.566215497286946,0.1174410297366898,0.2271449120675406,0.5803210241274211,0.0979377107725115,0.9001209142548062,0.808597961512172,-136.6853423804267,41.675275428858974,20.05464221721227,0.7225367659049693,0.5636268049466854,0.8347274587849064,0.0493593207213145,0.8322702633229532,0.4579608696289586
0.68,-120.04775457960338,40.87025159785704,176.07307909761028,0.2960600572921094,0.8837079618722012,-0.0020508343241088,0.313521034333506,0.7615112842723984,0.5112101115898874,-113.99829804753632,77.10625618564148,-1.8166349538986617,0.1155037968781447,0.5784980360883534,0.0169350787913151,0.0013372109828416,0.5148715995852724,0.2876646965039833,-181.22907966890355,3.981535930162867,11.254914630949488,0.2255152552291814,0.2487940375755513,0.5947794136980205,0.1268659621626581,0.9350152136153485,0.9679459197738904,-136.1115134400691,42.5556896493198,20.419923102304377,0.7105383923002281,0.5558938240963466,0.1934572131129592,0.2224507825457904,1.014787568584043,0.4600641834756899
0.69,-120.05706991747844,39.94998664054244,176.11962327199743,0.0496529433161069,0.7660009953908582,0.0076535358117682,0.0092117771220848,1.4547344270241822,1.0374991343070763,-113.81967776085484,76.62823677300132,-1.63396761957214,0.140217637992044,0.4303864228012934,0.074593744233936,0.4275151399834612,0.663876166319653,0.3865970751724119,-180.81329722179188,4.308241035108645,11.010505800387246,0.2211997591358745,0.2394530875463316,0.3519871757270354,0.7275732769491211,0.0443616955722952,0.0469732740649666,-135.82328621206702,43.132721900442135,21.37587517307003,0.6070995176353001,0.4467085026797402,0.2604648369427066,0.187763001018462,0.6197708337261235,0.62933651759755
0.7,-120.05135731406484,39.30695421161643,175.86406476899123,0.1968861181629161,0.4574180092775802,0.2096701239588871,0.4026573338128199,0.8018746323075464,0.2823605701282655,-113.70519653424002,76.17303707247612,-1.188718732191012,0.1683736372147335,0.3624070643411101,0.1299660180015118,1.0402557188711044,0.6993632990824906,0.6445081211983222,-180.4812712346513,4.699868812042286,10.874625465062994,0.1524242781614856,0.2889922526723171,0.3607180085536149,0.6903813354762219,0.1448100077062,0.6618085069862861,-136.0054440149306,43.42442686193919,22.565994654058624,0.5712829724285379,0.4703195899969769,0.4505860762303776,0.2205667485992141,0.6029784996716753,0.5744428508858771
0.71,-119.88305112515393,37.8810985916761,175.0021595769671,0.4149214847938291,0.8345485436036248,0.1592181098045831,1.3390081545467547,0.3344140431008056,0.0771310377313835,-113.3055957556852,75.43849095064049,-0.6977689708373964,0.2366613596947511,0.3019657282959124,0.0848584630890655,2.019413017629061,0.4716791146823835,0.393521362269792,-179.81310290869507,5.577275965937731,10.539042208618184,0.1565901894436547,0.308433938898736,0.3079246906147307,0.3972226380463264,0.948622269576222,0.3943572513618055,-137.00372802314843,44.37091097753267,24.98998465290752,0.5514685378743983,0.5884375875939524,0.1166239404548115,0.5317587443917335,0.2379878503948823,0.6026335711427111
0.72,-119.98711314892516,36.82787104576295,174.4851887271152,0.3999545328499625,0.9820596384419128,0.0419614441559832,1.5118977259100987,0.5253786717560504,0.1132524655465046,-113.1265410570094,75.31584162779144,-0.7036942009708412,0.3542525707804873,0.2974519468101594,0.0659181824573455,1.809135677616124,0.2867706410994688,0.105299920749904,-179.7607400875084,5.936974964895069,10.248027980927786,0.2546042636526107,0.312662380234743,0.0036717564371972,0.3909790793548761,0.962918855816936,0.3752601016501934,-137.5052265577803,44.94258002626697,25.99951049675913,0.5202890347992647,0.6412703238222233,0.0685472407097637,0.299970453438956,0.4579641388660834,0.5210512737936994
0.73,-120.1630570642302,35.872970083064914,174.37051345362082,0.1646611191925433,0.7954286591025126,0.0748583635285409,0.3617140714336169,0.755338513192616,0.440474891398421,-112.68781615351892,74.93121417012276,-0.7002779091309704,0.3609785068092667,0.3883659895342927,0.1120682862828703,0.9186645716644812,0.4535323652178873,0.1963280346026126,-179.86971664815647,6.243374703323784,9.940957406776793,0.3090659032046283,0.2627706934847902,0.1252121099222279,0.4787935289926839,0.4419098577294928,0.0085570313088799,-137.3132529567564,45.6224811237942,26.684414017395632,0.4199719859521901,0.6558749338096839,0.0540499631103568,0.2931936624645495,1.0026427841301495,0.2028514686129366
0.74,-120.36555029883246,35.06414640390947,174.55577072912538,0.0161321542635557,0.7472188200625369,0.1717986573586604,0.5536419195743015,0.4933080086447939,0.3347230741761987,-112.36578531724066,74.48496869821685,-0.5587098132011398,0.2854702050324176,0.4308124752729459,0.1198412327338156,1.12144869333856,0.3987487904079214,0.0624709309835221,-180.11227402972182,6.365387121089911,9.684776050449416,0.2041545110390979,0.1426348146639942,0.1773871170133251,0.1998654178784019,0.4259762964570205,0.0535033890750398,-137.49393162749564,46.15534000568331,27.309106819475787,0.3282263420143789,0.5965538884068582,0.0677168215286121,0.299027760782602,0.7727647844464426,0.4792999648561743
0.75,-120.56625713777883,34.117106002704034,174.90029055559222,0.1251685546619784,0.9005577942227699,0.1502939087195155,0.7819498691645129,0.2879936542333873,0.2028978515754092,-112.25904864736744,73.93523534296882,-0.2664227029934114,0.01062783730281,0.6167783940328987,0.0463577547298702,0.2672136834706209,0.2314686335982994,0.5757318814774665,-180.3563674578185,6.432671986063081,9.498604857121585,0.1807482945719413,0.1092118280534865,0.2174455086089695,0.5344079403780618,0.4603834583988803,0.0504167996966992,-137.6975158297673,46.69709221083747,27.944698637353632,0.2742993828568335,0.4913071639988561,0.0594718005890749,0.3104261641527641,0.5707210031113277,0.7442744375393165
0.76,-120.75871509658285,33.24372751332637,174.99650899123597,0.0354448324723822,0.7364154742675912,0.1180990725848892,0.3389332051672659,0.0130461808854675,0.1905860713437694,-112.30756342685244,73.18511611209969,-0.1593401080846878,0.0613522712745408,0.610216317137676,-0.0053357348366118,0.3120593636092639,0.2140937234880247,0.7736849573044372,-180.62994543247024,6.560429409698063,9.378861924326449,0.1746602964422265,0.1586970637338099,0.228337684977029,0.6417194412910915,0.2275772879527128,0.2702897672367308,-137.80946515272464,47.14122256795045,28.742088911481574,0.3570496783508048,0.5242432772150026,0.2090095042187532,0.6342938508057686,0.1771494210588975,0.8229408264978998
0.77,-120.86224033054992,32.48885400194275,174.92946439464885,0.1152539103903747,0.6602931667168707,0.0370389216827988,0.281810116073239,0.1316873630939901,0.2093441470462552,-112.50613369587052,72.52700184323044,0.204689579240831,0.0928415653594918,0.6030629750786166,0.0629943951179023,0.4196285155437683,0.3084166416128306,0.4763348265266819,-180.9999895300122,6.815838121240325,9.25164548384794,0.1567620797724792,0.3166649048534998,0.3314200122073253,0.5399802153859588,0.1538215279638466,0.3867757056244207,-138.35574673241192,47.6131398432856,29.7962899867848,0.4789500321828451,0.6617081795277856,0.1354031832987935,0.499878695306337,0.1720926405215003,0.3641516846497449
0.78,-120.9920374811102,31.812491939843472,174.86685991525914,0.1514364732469769,0.6209311464734512,0.0735127323149267,0.1552505199591607,0.1836554118413647,0.4372430940237569,-112.68995274144712,71.87854359842812,0.550552492591348,0.2012778964869175,0.5986571016949924,0.111713981740903,0.5303506939284411,0.4341893477885206,0.221769647229665,-181.50438628019143,7.206169079120576,9.129686556279449,0.1447793163685228,0.4232304619283501,0.4264747799307494,0.1894886213061576,0.0260468312869356,0.5397248690041727,-138.48948583491824,48.17391944235881,30.88828623736887,0.4051426104147526,0.6917272138739479,0.1815130933899959,0.2347285976840785,0.1786617213407706,0.4059906160752805
0.79,-121.1627172924332,31.054497099110662,174.76240672988098,0.1796183543999648,0.7569289374620406,0.1076406397767702,1.056783310825523,0.0783663486248043,0.0946357247166952,-113.19742427901298,71.25850052313149,0.2528786414989217,0.2547614612478371,0.5830295740521179,0.1293509246487588,0.026723155146319,0.5270324632871223,0.3927855168338221,-181.9783138132563,7.617918880950381,8.955440474215242,0.2132351360270567,0.4315744162956346,0.4010315035380946,0.2904749400481636,0.5378691959107272,0.4366624986295636,-138.7527124989781,48.74413218793077,31.81321578613271,0.2176939180510917,0.6883870988930868,0.1359382186934511,0.3923469854288652,0.3923318043517058,0.4574210941023077
0.8,-121.42707830169856,30.11904516630717,174.61995993224858,0.2374992566054812,0.86042240313678,0.1274898570670622,1.35226159567629,0.1509372355494249,0.1407830863612077,-113.81045428957589,70.48999983609744,-0.445086755516642,0.3732974343243892,0.6674908411637216,0.0624568454725748,0.300926942754162,0.2985364951206101,0.5115449011754343,-182.42943917949805,8.056267935414493,8.74951481407431,0.2823633113627799,0.4241225950339112,0.3607612823163926,0.3868388089272632,1.049117171920722,0.3143694256663373,-139.19684242361132,49.23712359715669,32.497364089671976,0.2140333039237607,0.5370343979256162,0.0133252154928528,0.3815255670672562,0.0346469177067819,0.2483133130624359
0.81,-121.62425599371856,28.56250506599713,174.50002097731235,0.0055607191980208,0.5548977617060632,0.0561903353361354,0.3887080002696034,1.4260382873543669,0.2282689267683782,-114.80029940892643,68.79880366069146,-1.0881986212690502,0.2249253591936266,0.7582897253202142,0.0402716233537736,0.2572976416864942,0.1128543040351224,0.2732408746321809,-183.43525440832883,8.875094178887652,7.9396028200972,0.4206775461353293,0.5083391469264181,0.3255232130906211,0.2243383061375133,0.1113223124479978,0.0567731327465647,-139.19794791285833,49.87536784387766,33.319676954682826,0.180391139986215,0.4342804587618605,-0.0046962946244201,0.0009846100542221,1.139332375614908,0.2846652666486135
0.82,-121.56422936500964,27.997449846816146,174.55590440434062,0.0752532316689779,0.5236279951003006,0.0574540379057554,0.2580235503731242,1.467521608050148,0.3977107922182998,-115.25431741234672,67.9380945925599,-1.4589170457754284,0.1878553544465454,0.7770633505549557,0.1020809275222617,0.23248327544146,0.0681770822902494,0.1585894486436348,-183.69584126967555,9.136674286380453,7.791907917241045,0.2249469217389228,0.5495091788641892,0.4442164012378364,0.0622395494599675,0.2992478651299318,0.4591776623770902,-139.81019936919816,50.31496624510664,33.86489859635012,0.0501700214644785,0.5136270334344686,0.0346097028274231,-0.0102442092914799,0.9830315654843704,0.4350746625981204
0.83,-121.54956351788606,27.37345005989837,174.6340865777028,0.0271052983192481,0.5404040910801533,0.0181947222915589,0.6211651819090067,0.353250345895033,0.2597826288079988,-115.69077644515886,67.05825878071164,-1.7676778283352583,0.2108159547715057,0.8001579191392961,0.0518481560523836,0.3286015137390276,0.1273022180881085,0.2162353856193557,-184.3123869480617,9.682659427580733,7.686546593016452,0.0925812094201708,0.6452891596140382,0.5408650227504816,0.0248045090574775,0.1304879847235909,0.4591963511328596,-139.87672984012124,50.87041540041109,34.191010297087985,0.0568480775638405,0.5664196650387732,0.2899982551979433,0.2427422268973997,1.2962804543475277,0.1419977628871394
0.84,-121.6185651149264,26.807751702804516,174.8076868864677,0.095801845701146,0.5091532128537581,0.0485006957612577,0.7357648979210138,0.4227018690332001,0.3312270905116715,-116.20793875536694,66.2488125987062,-2.0017706041214143,0.3234464177027874,0.7159228622758713,-0.0041277252420854,0.4710077519192102,0.2912268816284593,0.1025961817748716,-185.2320919989328,10.308614631479438,7.745759585008749,0.120594792145361,0.7238243219667972,0.5762133144514979,0.0514931214316148,0.0504425764827488,0.3723596393496285,-140.1271461301737,51.630371249824464,34.13323917537319,0.2197991190488357,0.3605683638608846,0.4039771201332194,0.5673558979726065,0.5354700293071322,0.2080387204410373
0.85,-121.61432061486366,26.5628182320044,174.89377909484108,0.2200355460292707,0.433985699712013,0.0302755216344565,0.7747971461309887,0.530823370215333,0.1628821963179296,-116.81277096018415,65.49641052870584,-2.3233871338654963,0.3613853341712258,0.731382373341888,0.0039381649355343,0.3179987406324838,0.2767224494585921,0.1870142907715036,-185.92367771878108,11.065855029116303,7.759380685755552,0.1535867329556316,0.763904664858172,0.5944077056532979,0.1390767145417615,0.0952943564697128,0.0370086651679937,-139.81022148714052,52.06120442513534,34.43579810171832,0.3906660014127561,0.2683211046410784,0.2676884963790716,0.5804970547586736,0.3518630307850435,-0.0085235925913626
0.86,-121.63338821576156,26.05669237624513,175.1850625074826,0.204508772184055,0.4281271995247537,0.0772136549244981,0.7984506984867952,0.2935494330863446,0.1794564004741764,-117.49875104965368,64.62821225060766,-2.583101755876614,0.3967821173818897,0.7846021640495378,0.0303704341303757,0.3425447783714853,0.2180264605400642,0.2193699758901383,-186.7021165730307,11.82198387905335,7.688111268148103,0.155270912216224,0.732269115339356,0.5707058545177395,0.4044859193242084,0.2929743473071764,0.2513524054819682,-140.12330607791864,51.94563107775666,35.63332728874977,0.4247776081231669,0.1772657662770177,0.6716666271571083,0.4928551138148044,0.9823522435274727,0.2289949869969988
0.87,-121.6865347482452,25.568058884384204,175.43658672833988,0.0963677675196391,0.4579618497195649,0.1067798019160885,0.9104790411853194,0.0858737290019175,0.0281920667686672,-118.2456766471,63.74691589951346,-2.811225431265897,0.4457072839128985,0.8187018975695385,0.0421608147862805,0.1466431396706755,0.0239288824754556,0.3334513147578164,-187.61159854352408,12.430297949914191,7.620175651999958,0.1468918366917473,0.601116086535583,0.3559833163729508,0.5981791707035199,0.0959838931586353,0.7760705931704134,-141.81276152011594,51.3093008414378,37.5044969818136,0.3349119495970532,0.1341026972466642,1.2739387782670704,0.0878691561485559,1.581078856130626,0.7454257878658952
0.88,-121.783286317196,25.12280902658706,175.6142958716889,0.0468451577604264,0.4037877791784697,0.1101780808519427,0.8864478602043355,0.2434177357728973,0.187563858785616,-118.88948778283364,62.88017597824277,-2.94861276460104,0.3460281887284078,0.7546208434155943,0.0972739440087632,0.3895328988669432,0.5291714266110816,0.0871797618294182,-187.9814038793508,12.95011755947386,7.577740227790449,0.1583578194383281,0.496171621067193,0.3073620301361957,0.5787638402940808,0.0801069968695296,0.8093150076674308,-142.99775393919413,50.630054063818754,39.2447105083762,0.3248850627946181,0.3310838477469084,0.8391946321047,0.976468020657748,1.917516975013825,1.4381557026627385
0.89,-121.926404140043,24.704324923878936,175.62684705392226,0.030346907722813,0.3661373313937464,0.0834036322218504,0.7021954844540543,0.1991362477083506,0.3753556888084267,-119.32801302003789,62.066761101042886,-3.135015947538605,0.1308867857830357,0.6744380206743779,0.1214016122965873,0.7371195915017533,0.0218575689987411,1.301718862907856,-188.5090015991741,13.458060568902612,7.446312981367966,0.1912961415284112,0.4736041606945245,0.3567286555273363,0.4012434591749126,0.1900496691165303,0.3229771959608045,-144.06065882080404,50.50529831037972,40.61931288503798,0.2783116807330099,0.4480043690212704,0.4795828366659337,1.145964403729792,1.4670528225773118,2.0834947460397863
0.9,-122.05949122325038,24.306910426498437,175.60632375522457,0.047913445413536,0.3299075022384263,0.0589947904107378,0.5116244493949705,0.1770951791828249,0.3647873849900269,-119.55801552809658,61.48953798391511,-3.206531245266401,0.2644316381791429,0.4349307146035856,0.0220265890605726,0.1416170637206353,0.6812521783220494,0.6838664443200568,-188.93580477688343,13.937118835629397,7.314891130681409,0.2721294920360226,0.4829358370524933,0.314821830692411,0.3318440882666532,0.0133325296940161,0.3286206137423824,-143.86623359486634,51.196652021863166,41.12019409971685,0.2464059086764778,0.690005352517583,0.5296661241127691,0.7106386703479518,1.100990491183505,0.8227962200332356
0.91,-122.24218664161576,23.557038821810536,175.55680574613166,0.0589284955167566,0.3182202895484722,0.0967612004764719,1.0207217324364553,0.4311968112242774,0.7844610461814572,-120.05625115205584,60.56074263168417,-3.383663456701307,0.0801157921383053,0.6031868126422312,0.0159667208593917,0.244341286884158,0.0616999166567745,0.1560171568434524,-190.0658821246041,14.729255493839624,7.009239286143576,0.2340043881698151,0.3314028168060628,0.2871303643572984,0.6015037379109048,0.444275243607555,0.4439078374987888,-143.55075620483885,52.12725990553638,41.70686287028592,0.155804511070033,0.3643326386550216,0.1815093764631693,0.6823848208788138,0.8659585914747093,0.8406679186988972
0.92,-122.36461091181737,23.25424514274345,175.63257966503252,0.0301775520149079,0.2651041413426746,0.0959133126362261,0.8837222501783137,0.4062341820144543,0.3265182182142111,-120.2557943313628,59.86001361843979,-3.3898327402008905,0.012928015294147,0.6182540136154817,0.0231536266748997,0.477487743901334,0.0589498397257684,0.0525209159450595,-190.50933553142164,14.932456990373469,6.80411207952328,0.2140906993959087,0.119147179320455,0.3991731670811889,0.6059455083514621,0.5637649642295918,0.3407812840970814,-143.65161666174433,52.24739721226128,41.915969344238285,0.0974900724754125,0.1783755093490938,0.0432001371652941,0.838755567209216,1.0463969381521114,0.3986890173225185
0.93,-122.49721961649456,23.000978174489813,175.76342835382349,0.0843972352372954,0.2220118706975566,0.0997225223654801,0.5446648389388812,0.1389956795294236,0.1129316618107219,-120.38466935698568,59.14539166423489,-3.4066090742805475,0.0239959315239825,0.6018006809002098,0.0371390698055942,0.6278255562721927,0.1364794666143875,0.019431283504407,-190.92958311810548,15.00567059147975,6.653679949101422,0.2510930938559053,0.0963173369797662,0.30943199819655,0.4797068877480647,0.5568995566405515,0.7705849938578095,-143.87737722053782,52.49434484598352,42.31878793673445,0.3255098426984917,0.1391507410743583,0.0286526413039684,0.8790706415708596,1.282613044614557,0.2080724028286301
0.94,-122.54755836736364,22.763012696721308,176.00407927702926,0.1831864469771849,0.3023952825150953,0.1168618742061113,0.352025653255876,0.0700728841816706,0.00165428775863,-120.5013027627376,58.43591134946429,-3.4575413930390053,0.0020623547500312,0.5665891750324393,0.0485587542603224,0.7495872569268572,0.1907357106054403,-0.0010618571029663,-191.35864049495044,15.084975466122378,6.501817660071096,0.2696929675704706,0.0677355497067872,0.211067347309548,0.3640843630137301,0.5292476639929241,1.1796961473372347,-144.38376443427975,52.38048991799747,43.01113373651323,0.4196082132914079,0.0516251350824125,0.2113872394953432,0.8610066153828094,1.2482246738990772,0.0809764149333458
0.95,-122.66898081007008,22.433262293438155,176.24389340068478,0.1297424388121321,0.2978472833713719,0.1030738203994316,0.4181209648918152,0.0253692041519925,0.1920814196092134,-120.61366575595122,57.807806006172136,-3.458806494795676,0.0635156783705196,0.5637312726251931,0.0470305783968197,0.6619574590792513,0.2131319645703127,0.4181628461311235,-191.74313802006552,15.19237005952058,6.323758579638118,0.213353792499201,0.2277033506294335,0.3345066828305682,0.3946201140893545,0.9852335040720638,1.0484841202694355,-144.49908495046347,52.06955983269569,43.81438511739707,0.1074542351156954,0.0603331193519201,0.4481208918633509,0.4811183283914596,0.50543172798203,0.4533571340290184
0.96,-122.73489586691552,22.17858968083623,176.43395320257883,0.11292961267674,0.2064295079902892,0.0642270553808259,0.3849787639842411,0.1444298243006398,0.0493210641595892,-121.10888625440218,57.10910358006057,-3.7043834420022512,0.110372863780048,0.5578308658374332,0.0488963762569705,0.784318387638122,0.1597743085401274,0.5213064204509806,-192.4611791169282,15.577482397113538,6.203118542824193,0.1942761448229993,0.3730737245952616,0.3993822680615997,0.6119684479855599,0.5350068040134287,1.4128591758648277,-145.19428172863087,51.52406171869217,44.36515065425368,0.0063509012185276,0.003832412123529,0.0004305576109381,0.0076375364572157,-0.0077477012138035,0.0167767018934499
0.97,-122.73326667068892,22.172766931104945,176.59370873641996,0.0848745605393393,0.1129687086362868,0.0551260903829441,0.6150052732004503,0.2818778578578922,0.069948402731957,-121.55022075324158,56.43459695870731,-3.947688891315324,0.1799672964031012,0.5757454350203964,0.0322798763812052,0.9103756654363416,0.0990375429836563,0.5954225803987612,-193.1998884388112,15.941438347002949,6.119445867256524,0.1327894973820651,0.515549180070082,0.4420135021142665,0.7905196740627458,0.082840209005825,1.8156205184684109,-145.86498517224,50.99725730092844,44.93318115603787,0.1622648834160128,0.2929804303926304,0.9145872279929596,0.2295103353386878,0.3625730997346149,0.2705764404097585
0.98,-122.74952391545854,22.12933275151706,176.74194514657222,0.0704064340702207,0.0020799310060573,-0.0033982810089221,0.833766730565001,0.4112686329061034,0.0800780991718775,-122.05652900094871,55.81155472649164,-4.122519089541893,0.1795059153900538,0.5270694481953203,0.0392149473724382,0.8448709972140197,0.0988848996273037,0.3352360132236635,-194.18602767010648,16.493855454313767,6.187774370182979,0.0687262068860934,0.577707686023118,0.5047455015167497,0.4550819470507609,0.4283773470076633,2.5960898094877347,-146.01342787623108,50.90266741403926,44.96757558608809,0.0023551253464033,0.0102742602889699,0.0128067459765718,-0.0064596879137099,-0.0119923012879633,-0.0102133863159303
0.99,-122.7404980979388,22.170244639476586,176.75207511888226,0.0085097754513697,0.044717239005586,0.0110014607064039,1.0215491367040337,0.2851786228747331,0.005832100803395,-122.49673732446144,55.18297990273867,-4.266240549362348,0.1217886411000443,0.5577594049872876,0.0283959880272865,0.8444361800638491,0.0373754044282603,0.5333910925819576,-194.8201286255468,17.11209764833919,6.499293710904688,0.2600309439266656,0.6187346202623344,0.6150941513463694,0.0023578597645987,0.3269013744004622,2.253112671080268,-146.1774185291979,50.805554126581086,44.99645684126524,0.0158620509691937,0.0004212894031952,-0.0037324433970877,-0.00924916521855,0.00128950839987,-0.0078755306118051
1.0,-122.73661111413314,22.122504917988888,176.74433993885842,0.0961497794740669,0.0793121852245571,0.0114458785041857,0.6357840866984908,0.0067450655091783,0.1239905865745005,-122.76043117337584,54.557946598291394,-4.266114905338376,0.0530681061272858,0.5675670659271593,0.0107823902337958,0.5939232483940999,0.0714303248388366,0.353813637572032,-195.44425839346889,17.696554039744576,7.002343707741936,0.2956747918216857,0.5987676049451554,0.6341364987384671,0.1176390663849318,0.2654496291305374,1.270726621689403,-146.35342952628744,50.71182562841624,45.02548707044098,-0.0021675988022706,0.0203665877840101,0.0122217745037866,-0.0118993808963012,0.0106473308456254,-0.0036923236611491
1.01,-122.6991615176,22.619458990119025,177.00209608488268,0.1141575728601557,0.1836529202876236,0.0158861829798413,0.6652136005555076,0.5108116515600181,0.3789524068248582,-122.87357073965438,53.29713143972645,-4.063963582983236,0.0424988189823076,0.519481793772875,0.0320753533513858,0.4309604164588128,0.2754269947991383,0.4526604666448669,-196.79098815955396,18.768671050916037,7.81737281484451,0.1405229878707576,0.4595176091721161,0.1742553586787878,0.0626269063043352,0.3570365699208336,0.1018815813436949,-146.65732601859727,50.52335723441586,45.09307973553896,-0.0036143661827488,0.0016109224870221,0.0036492681043912,0.0064858489224537,0.0099133889171011,0.0037886826050745
1.02,-122.66678211516246,22.8153047472052,177.1303163794826,0.1144038417643107,0.139085903051788,0.0332356232972438,0.6021234136106441,0.5030750168291143,0.2902337202840069,-122.77111429261056,52.77947559753646,-3.894890930392633,0.0739397476306583,0.4923271974519578,0.0100927957627562,0.3040831655212506,0.2001833822159049,0.4987394650312745,-197.1829366437561,19.186797912702197,7.9915454004804785,0.1098884668062679,0.4203875779507404,0.0436141957103634,0.2474780299400324,0.1413626384279174,0.0477691895910848,-146.7884470758571,50.422063742196215,45.12557649684087,-0.0058101649605034,-0.0078584564441081,-0.0012085491433903,-0.002063388229145,0.0008265063743255,0.01232784765496
1.03,-122.618585956787,22.87946986600673,177.30832797879364,0.1605326554830089,0.0660940180400494,0.0168960198857101,0.2477592092613182,0.107529134435515,0.2141580216600097,-122.55653085280504,52.2681900361581,-3.7156172785124943,0.1054289930612868,0.4397569720844405,-0.026578713647572,0.1049338426653403,-0.006924377371798,0.1516460763497867,-196.9391287686722,19.625482490171507,8.05894364852645,0.0635832674182876,0.2505458798748437,0.4734036468196721,0.3253517547658707,0.4322065754084249,0.3999151079867051,-146.95898912696882,50.322953256945695,45.1508964735829,0.0013804261923184,-0.0001816236429196,-0.0020369869310724,-0.0117783535231223,-0.0053754274346995,-0.0058218309287243
1.04,-122.54534798025904,22.80995382187097,177.38904770070968,0.0531515617040588,0.0701427645566659,0.0356902424861322,0.5581018663267108,0.0581114747918262,0.1995319890497468,-122.56095479644746,51.69545861843583,-3.64593090681954,0.0227271785369419,0.4933280349571681,0.0263817331967419,0.3680777714405312,0.0835612547251092,0.0323670392834499,-196.37251579483532,20.004556580979614,7.949691289249146,0.0456966272524577,0.2380293222634085,0.4949584458165757,0.1082696371551091,0.5592783624753476,0.7979788753819158,-147.11015970629546,50.24608486248215,45.181991480094425,0.0048613201242178,0.027048641753465,-0.0125184160914453,0.0121321524525904,-0.0002620574704399,0.004788115528987
1.05,-122.48306420542124,23.01236882517391,177.2634286740156,0.0759108064727993,0.2649991438550662,0.016954643523817,0.4664569975035647,0.2931695564524816,0.0138570006715144,-122.92184348768804,51.12974718438559,-3.733486933389721,0.1243004878430979,0.5004300182862258,0.0148684255305026,0.7994247835132221,0.1668819374443466,0.3451972677472744,-195.9606529937849,20.462369662002278,7.715442908463199,0.0260224144465662,0.3180346177048768,0.4747319238517909,0.3166288653877379,0.4314441092094631,0.5976369513552555,-147.25259736620572,50.13975854682091,45.21190259485606,-0.0183301652250631,-0.0055722358101412,-0.0007633018930341,-0.009575699849179,-0.001177704773069,-0.0056413065115111
1.06,-122.45398050887812,23.11952434994324,177.06617483187685,0.1274641205603235,0.1534057825137466,0.0520388062595627,0.4882443561277393,0.354364340504181,0.0053867219436052,-123.35293647970173,50.69278505580356,-3.893746955666546,0.1499809276671818,0.3950740841511462,0.0274019999037939,0.7962552762581395,0.0892176904317052,0.4287953677014163,-195.54125963068776,20.87825006191962,7.497542815965876,0.00918479575828,0.3619377760425802,0.4594024548867109,0.5348371805338121,0.2830591331909564,0.3801491644032922,-147.4037313882111,50.05074967155642,45.22718559249126,-0.0014554897231575,-0.0189820399267237,-0.0127848316688635,-0.0027363914194773,0.0046463622989304,0.0023694557222392
1.07,-122.43663121725464,23.262198315807005,176.87872682831548,0.1713040274651082,0.0364111920918285,0.0636379039278145,0.5124284688287878,0.4350189010532421,0.003462661676831,-123.71214408725876,50.31547504018958,-4.079973130422653,0.0266700759590313,0.2272658233346177,0.1227541671847988,0.921154143333726,0.2260087620417407,0.4672365451074785,-195.31730785010544,21.304716717408763,7.298260022534767,0.0172078586516097,0.3114798679042712,0.4089933517762097,0.6250549075954701,0.1200531347157901,0.8461087310853987,-147.5759966990738,49.93943410275054,45.26595163051551,0.0058238988502233,0.012368216259876,0.0069292741485172,0.0104297326270183,0.0162464074971825,-0.0025436616388448
1.08,-122.3684920764975,23.388188590608248,176.81780083617315,0.0517708659135146,0.137319755829771,0.0753497915969415,0.1740140619317154,0.4773534724884013,0.1732300911994312,-123.98628911440726,50.04940193216553,-4.235728441060218,0.0567360777835254,0.2098675343451576,0.1779372335350668,0.750269671760097,0.5235903906499533,0.6589455425792373,-194.8794474965783,21.616807498633676,7.20235980690727,0.0508097213931933,0.1609344216052768,0.4172271196026583,0.4037727144530112,0.4464428019832778,0.5192109085786898,-147.71709188695627,49.85095734774285,45.2956423700317,0.0006498316827403,-0.0045328113908463,-0.0091528510937601,-0.0045824115900608,0.0091326528443813,0.0124616082438681
1.09,-122.26895422517453,23.56121377546312,176.87047956079456,0.0931399942981657,0.085773220836429,0.076801182919786,0.2881285023068882,0.4317457307860223,0.1142272073307172,-124.37325120044372,49.82383932988992,-4.573903000728963,0.0710732808880368,0.2135845445628845,0.1567670328031884,0.6401974509868952,0.4160158397460105,0.6824481369783291,-194.55778374758225,21.742069441850344,7.115563048438293,0.078545456323136,0.1441169791476421,0.2004215146282495,0.2846181029539835,0.8649585270243381,0.1538070578013241,-147.87525175504496,49.74099797268034,45.32161038870879,-0.0018450096265723,0.0026180213366098,0.0110567275006685,0.013287687368918,0.0060018302250813,0.0169262379305186
1.1,-122.189072013955,23.765829583650888,176.9488996522759,0.1127438543050646,0.0461613718351692,0.1056637135147606,0.3788893009480276,0.4425841393635487,0.0473247163842725,-124.8749153259206,49.48810201005635,-4.881966134761757,0.0574047859125887,0.2154289892956888,0.2263235628964082,0.6162484693233364,0.2012879329865544,0.3890942961819487,-194.80256013658556,21.92908400302999,7.250069286009106,0.0983226302881934,0.1898361685344305,0.1188831901930099,0.2413276724018705,1.1986671311052144,0.0851939866310305,-148.04227984905663,49.65499300362634,45.33984194740063,0.0061908271960454,-0.0134955885874391,0.0042399818496402,-0.0107890340178871,0.0009484633755361,-0.0136477514134956
1.11,-122.05393543709894,23.820423920106848,176.77331504745922,0.1347237871595231,0.1416071089018035,0.1261818892235516,0.2539097773646874,0.082574063515477,0.3051156885530592,-125.951432097987,49.12605552141672,-5.636233729745104,0.2199623130105436,0.0406878718622485,0.1975352236673785,0.1768724901674594,0.1851455634702005,0.6929472877780732,-195.5618221596111,22.37173046830943,7.640010607347169,0.0510648559675272,0.1847971107800928,0.2424610991626151,0.504992116755765,0.3326108263094501,0.4319681550050367,-147.7624182767317,50.13382017917843,45.24648763996375,0.0179983961000007,-0.0125864190531912,-0.0141899019486159,0.0042064932514903,-0.0007312698610022,-0.0089260030468791
1.12,-121.87390442956128,23.99564262639529,176.87336023477388,0.1451331002709373,0.120133967340126,0.105944876236806,0.0529743031294654,0.1301783687012367,0.2575798793053702,-126.6701419074071,49.03981875061508,-6.100746590886256,0.205387785310012,0.1165883465338142,0.1713937391863726,0.1303030776491828,0.2414865852755821,0.3462326961427502,-195.87834772037013,22.510432390923008,7.934220355882305,0.155777364199505,0.1909384935099704,0.4315259563545345,0.1858164167658523,0.3533888285608578,0.0807366362879986,-147.60311737392064,50.71733209652527,45.08531006960614,0.0144060622355458,0.0082184290172529,0.0048352410138303,0.008759675305788,0.0035826891019392,-0.0221897856599567
1.13,-121.73081350959394,24.113517516914367,177.00552993540742,0.0344166458362661,0.0312180215226819,0.0620406506310108,0.4160084535459136,0.0112992281147946,0.2398272283225017,-127.429144277825,48.93977371325708,-6.560869846226963,0.2180122441258782,0.1789968025720529,0.1846076744510575,0.0398471239022825,0.289418649160753,0.0029445968362818,-196.37682499962384,22.616132975726394,8.303764612772348,0.1232144658842294,0.1879086942816763,0.4369860100936796,0.2577725299395801,0.0173138980964666,0.0859193094842197,-147.40442429399957,51.272771765378906,44.89124297457186,0.0073064520992959,0.0153942800505334,0.0055062032321222,-0.02112078010658,-0.0153418740926238,-0.0206801377046663
1.14,-121.68900788163238,24.194872862901047,177.0036446527186,0.0180617998969208,0.1172155324204205,0.0088932255627339,0.3377585840743839,0.1706171676495275,0.0538754136569796,-128.25006439354215,48.63890346411371,-7.019671950819126,0.22329899424532,0.2433530427168056,0.1574806357779914,0.2599022017971785,0.1294002581186034,0.2266444855504945,-196.8655726741191,22.73381717300829,8.629240034747525,0.1252660058542711,0.1581005896394849,0.3155941768081401,0.0698132730454725,0.110055048990955,0.0544985651640527,-147.30924604061954,51.57562149207877,44.80965788183841,-0.0141081240195825,0.0121257569758902,0.0048870133050854,0.0267186588037173,-0.0072634645236226,0.0096673646705366
1.15,-121.68520608102088,24.3109106515841,177.0046688988584,0.1380905579330326,0.14791793170393,0.0208256596746027,0.0356189231161896,0.104466610591684,0.2491207725256191,-128.9935595031134,48.38994474158108,-7.393537094817574,0.1938102524419689,0.2191728058634939,0.1280581541122527,0.4461052140204314,0.2009262035335798,0.0040090289024573,-197.25140747104444,22.78337531275903,8.929453084260041,0.1566143754205642,0.0831310104358761,0.3841285501640379,0.4497607730494728,0.4135831669017129,0.7468752208277526,-147.22632497210213,51.848147089989816,44.73261986493385,-0.0015178387164124,-0.0157088710931531,0.0125845842405296,-0.0050848128508495,0.00165868358995,-0.0139304366531045
1.16,-121.67521957647958,24.484830698419994,177.1253282631999,0.1610482016903847,0.1755690761102137,0.0253951710470042,0.1432572913803113,0.2352941757754809,0.2683501830224947,-129.64461128375495,48.125764446444805,-7.7036321720390495,0.1277862461057919,0.168046495772879,0.1431193817350671,0.3165989338575715,0.487078706596123,0.3910019194426659,-197.6930226670273,22.88165970009592,9.197656407769436,0.0987138355551733,0.1066187923165005,0.2536858223553047,0.785498946639906,0.0940822900127935,0.6638327761307827,-147.07019430176996,52.43320296473265,44.558209058068655,0.0252965433558926,0.3517603198935579,0.6782323623439298,0.1701715550457458,0.0346551448448331,0.2752780886670384
1.17,-121.68022355255113,24.7621108907404,177.32056343401112,0.0081293901559932,0.0801604809399755,-0.0061905933394511,0.067235075091742,0.1343280500089278,0.1227868275567772,-130.04219147018475,47.94508936096671,-7.9549897856462515,0.0312716147949386,0.1740255919730704,0.1228685463711569,0.1387338507035099,0.552774631423381,0.5987894343690053,-197.86615819732563,23.006160288627516,9.442077899983309,0.1065862918844154,0.2182248496978169,0.2045098180221558,0.6933449356195683,0.2943644044211678,0.4385734645404596,-146.44853935021442,53.23005912831522,44.04954239551076,-0.0046872477454856,0.2895456936527984,0.710576933388634,0.4093758384666388,0.1942184679489215,0.1548609985239473
1.18,-121.675671928663,24.8120055444518,177.2953542753047,0.1584099691026901,0.0399721855622878,0.0353431781771229,0.3074129426929086,0.0459822185108521,0.2649403552862056,-130.0440129333619,47.67867065160739,-7.94039522132214,0.1351556759744693,0.2892159209706239,0.0952853671395825,0.1974352314231581,0.5173831214284806,0.0116955907642663,-198.18915203164545,23.236034018643632,9.799975423485243,0.1935276467377882,0.2795075141151523,0.3493172168945397,0.0788779590093523,0.3156811454494952,0.0255677753416045,-145.81032593354723,53.990071889912606,43.56252429602625,0.0008390645969217,0.1966772623225018,0.730692183638889,0.6377908665370858,0.3663809513278652,0.0486228788346546
1.19,-121.74136799552998,24.859343284409967,177.09125187051734,0.1708896611589897,0.0332984394048537,0.090665152178948,0.447096008599755,0.3745001729114581,0.590986210699964,-129.94922065760474,47.31828125381792,-7.899997242049237,0.1270748299435738,0.3185286872025782,0.0978963091761425,0.5754364677780602,0.3305366566206864,0.101347003310481,-198.3961283197852,23.36713034477305,10.010065527695993,0.1856396958238436,0.2035508738525816,0.2304482141921799,0.3157630392839107,0.5994246627139582,0.115850441469301,-145.6973991230299,54.68982532599028,43.041467310108985,0.0945259509765421,0.1475355634811576,0.5429023481762176,0.3885210774701072,0.7574292241635622,0.1713313976819555
1.2,-121.88251476170738,24.93448709740874,177.00940753627572,0.1073761365486562,0.0705534665483535,0.0582360080699439,0.1150329171171784,0.0245755239596521,0.4668412937655546,-129.8680729486817,47.00025372661795,-7.823276510778037,0.0914419142119196,0.1452203111970775,0.0876202202107324,0.2869233493439804,0.0559193438720155,0.5010316309088437,-198.5563100686765,23.50676644474157,10.265224307702582,0.1730712129672351,0.0537759098484946,0.0067574855360476,0.7216510720815374,0.8343770103020678,0.2509647327176561,-145.11357644754833,55.129378311150745,42.75620307197231,0.0493999031348926,0.0140632334895303,0.0943835424719864,0.1791573983030485,0.7239848801380582,0.1034715072458627
1.21,-122.0618230579691,24.99712177217599,176.86373656329408,0.0585614604483375,0.0707485426817279,0.0658761103915367,0.5735112636933818,0.4266162049582875,0.1943447628267841,-129.87152573559283,46.701062809907725,-7.809412603260711,-0.0174665722166299,0.118153731788684,0.0318588907160966,0.1211144922924131,0.3505523437914597,0.7490482396508344,-198.5059828058561,23.420451968532188,10.567826794135168,0.1433706368226762,0.1918311332127931,0.0828737284855243,0.777295382898841,0.8168885770873376,0.1704450398577159,-145.92357842011768,54.877004984683154,43.071925869166336,0.0511419494431233,0.0235361998500867,0.0282941652259427,0.1486166955005164,0.9065095698311894,0.0913762690109911
1.22,-122.14541038298329,25.192832086239587,176.87162769314867,0.0385290386661888,0.1891138137103136,0.0276554795370418,0.0714235545925897,0.1165837116819051,0.3046331639507604,-129.86213737582355,46.449049245228245,-7.754337299470029,0.0721214142741202,0.2434857039004426,0.0291344804759687,0.0698309667745655,0.721901174637448,0.2565069130877546,-198.3826247731208,23.23401335182856,10.632808136825409,0.0023771838990211,0.1864533228360675,0.0325633335983785,0.2602753420659709,0.2668970531459025,0.4253589103523598,-145.87779977673088,54.94251616152881,42.88347864093818,0.1288827730711547,0.0381677563563024,0.202114103105585,0.760028813396745,1.1013846951470936,0.0117699972676878
1.23,-122.06391699521096,25.370922082258573,176.9361266380385,0.0539884507109863,0.1449245841944153,0.0103386198585625,0.1014953002763879,0.048119915546136,0.1505008851404057,-129.81773873782348,46.18559110888701,-7.68615875257429,0.0383244800238598,0.2749657863715322,0.026644210775813,0.3883787603183976,0.5857713073401908,0.4386191396271965,-198.2435995612536,23.125170779060067,10.536537930769835,0.0748228016440381,0.1373468130099302,0.1301528261860549,0.634591496303052,0.4017589538460936,0.2303205945487172,-146.01125089805836,55.31304339134044,42.19138505495195,0.2677877073978457,0.0556402896429764,0.5288778284255184,0.2800812319397336,0.2028998537696062,0.4800167069523522
1.24,-121.96332911242968,25.43327136803072,176.90584218615857,0.0754839877658637,0.0985603102699448,0.0492945739441593,0.5670074607500023,0.4037088964256663,0.3231030085187824,-129.87474183592798,45.99267574184485,-7.702145326868213,-0.0194390220438424,0.0962201917613711,0.0477017175007917,0.1019671867903278,0.1111332831659755,0.5672009438511554,-198.13593812640667,23.00266088794031,10.43572329556759,0.1747334817872407,0.053436642097777,0.1955125428493605,1.0043660492952344,0.5410620660743051,0.0130057361700286,-145.42314588568453,55.93199876318634,41.13011967846036,0.2584901558027733,0.1567188037549059,0.7054734539936798,0.0228877961877143,0.1494190818048994,0.5427144658401711
1.25,-121.86469710803384,25.49127801143425,176.85881585806155,0.0778315301898802,0.0654049058379468,0.0895204912524756,1.058907391551657,0.8107910602657221,0.4943663564478116,-130.0579845064238,45.95178123943264,-7.766147061347909,0.0813924724793889,0.0421652411387068,0.0107355943389382,0.1476791730797835,0.3497819932321308,0.5600026723292085,-197.92991989755305,22.99577373862958,10.629343430011266,0.2713246801667275,0.0069576692758046,0.0314290865330232,1.3703703844302126,0.9929512731276858,0.3614141548437704,-145.1074079475028,56.64071951925799,40.1763335769337,0.2356307815038464,0.2460422349433007,0.7347223658803004,0.0167604835277316,0.3056592861592334,0.2049249564096409
1.26,-121.81848316057834,25.617286313431755,176.68123116155044,0.1070562918344077,0.1898005113403922,0.1143227667467668,0.5987333247857092,0.938671072567582,0.4167369347957056,-130.29928134930637,45.75058975448486,-7.837619074782073,0.0767991948006249,0.2112613561491886,-0.0100606379269435,0.6291197018279753,0.1169905427219709,0.5836700147032315,-198.45147988793508,22.9613985402668,11.263140165164168,0.2763770593413104,0.0725899221370829,0.3145059671654235,0.7282715064189681,0.6374820379037937,0.2247740382096673,-144.54474058753738,57.31740613251976,39.25812859104066,0.2112069704077371,0.2005414676624089,0.5999596467730651,0.1897557708376381,0.6523579116138839,0.2523847858613963
1.27,-121.68684276101273,25.818958998788485,176.6499306331019,0.0820668659957105,0.1409514459283024,0.0817549122889975,0.6170782668782835,0.6775214322343086,0.348084855162498,-130.76240560321386,45.42940252646434,-7.883790899607231,0.1674032256767032,0.3345993014561642,0.0220732095536012,0.8283092751414363,0.1740757761357086,0.6769631785822069,-198.9356981041973,22.9303519446078,11.863069936077704,0.2931479556697727,0.1254797728973136,0.6247855509740012,0.1026989189180781,0.2312899775615189,0.0764094254509904,-144.00194505448275,58.00089292680112,38.30940158975795,0.2032665742799311,0.1627937032792314,0.5105991592489346,0.3511260235395812,0.9707525274463134,0.2962927953832369
1.28,-121.55317850326252,25.984244125135927,176.6251830011232,0.0762654341688958,0.1056796661112517,0.0253234169427403,0.6461232300095249,0.4171370931472108,0.2658363539595915,-131.25457991214597,45.18710759177966,-8.079068291880661,0.1531239071088926,0.149224059946267,0.0302552013920117,0.5096891981805949,0.2005148739799604,0.6141159469666727,-199.8708569303881,22.861102271070653,12.425572956945922,0.2439555216496653,0.0701081335440849,0.530982075930999,0.1153099341874052,0.3498679883262344,0.045819828272472,-144.30907010939745,58.24742424944444,37.80467260311769,0.1660108711005228,0.0702381035274199,0.1641422517087217,1.0852746223164529,0.7007257611021461,0.1313663616001175
1.29,-121.49440856290624,26.12939266356191,176.75185035595408,0.1922907048681403,0.1676156977654727,0.0542712604992836,0.5711517341661007,0.4617381542480788,0.2440114525033437,-131.44190519033828,45.20853254054235,-8.072774042088112,-0.0037813345802434,0.0224012369767564,0.007504104000434,0.191264257475385,0.0114550393479551,0.0247418348627108,-200.38698277437248,22.799213247807867,12.888421624127483,0.1959730192927673,0.0827188494205236,0.3909483030414536,0.733844248165361,0.89595057059438,0.2329567680689792,-144.56719601231185,58.11309738747472,37.926945178776464,0.0975953219008164,0.0067234933383999,0.2707012620802657,0.0627959001568582,0.1749028991892238,0.7012518801603473
1.3,-121.37055573577312,26.31769434857516,176.8591115258325,0.1162177036064708,0.1932522510509531,0.0776412738605389,0.5255919504187944,0.1327919064891839,0.1378353809262898,-131.45820814907216,45.019978681804645,-8.100269295048337,0.0176453060652184,0.1122837162296055,0.0325369395817355,0.3070725974871972,0.2014306826739592,0.3224899057687435,-200.69885436978583,22.60133795211749,13.243800667473163,0.1831564456261488,0.1328813684754037,0.2094782385719257,0.8573222196459911,0.3033830422902133,0.0868286770735949,-145.45067002868868,57.57526294754327,38.62952748473197,-0.0065750796421099,0.1775943877503906,0.7313669838407196,0.2469300789057103,0.6367409974422661,0.7507387956275589
1.31,-121.19638370012892,26.942229320596677,176.87481762508946,0.0098545953636673,0.2586671947336927,0.09020888100889,0.4918877305832322,0.1382169295996488,0.0520780482852539,-131.72880654532813,44.6939369798348,-8.263412652678374,0.0631551098000949,0.0695099235015606,0.0734762389918635,0.3765852923506553,0.6694292423377919,0.1776114416963248,-200.2328617761342,22.060774079033944,13.002581449885993,0.1248764885697386,0.313949016854925,0.3846156634306798,0.7074994123138463,0.6638705991075228,0.3994178183300439,-146.6064951581564,56.60885616006442,40.3798941859446,0.0613836482847613,-0.013831609381938,0.41397254970155,0.5983815923358426,1.195526209293983,0.4017682599099759
1.32,-121.05114883596704,27.21412391255816,176.81454280175203,0.0848661274682597,0.2290738162817968,0.0785875107220933,0.4483160156595931,0.1593420721581639,0.32712144899664,-131.66280686365732,44.72261389711909,-8.203254439180338,0.1382571092809386,0.0611082198249438,0.0928520403213547,0.4797456615838877,0.3781594397116438,0.2902051159605096,-200.00360922358885,21.856045027251824,12.747116288079132,0.0909534679960417,0.1830775805787647,0.2127371491959515,1.139164361757511,0.8283294591767576,1.3133908648425137,-147.1308678230208,56.55057141288886,40.6186687660438,-0.0102361015820375,0.076829757270422,0.0895403372281304,0.1716631445856013,0.6930102012346,0.9575222415819632
1.33,-121.0407036386952,27.447454150308072,176.70810874774966,0.0418209441771619,0.2141642914680278,0.0272247638864421,0.6290031993825638,0.4804131215680173,0.0820342413921391,-131.56446727651831,44.72783952010177,-8.200671615512496,0.188039058849376,0.02966058656178,0.0800661519314826,0.556254214968468,0.1424700379704646,0.3774257678961525,-200.2214881878353,21.74072227453292,12.93913150329942,0.1137413303432349,0.1021451326238731,0.3177283297338674,0.7997716122396777,0.7242932806366477,1.3448141579991837,-147.14554348945472,56.639917644731376,40.74768353201912,0.0746161585994984,0.2489641445855308,0.1636376126873145,0.6048409816396021,0.8288983750076339,0.2481105866747082
1.34,-121.03559707864832,27.594127866049853,176.64601177902057,0.0352212267440535,0.174386493142184,0.0273240134579121,0.7475144780603432,0.281295082953817,0.261151169199887,-130.8749362440771,44.752875537682,-7.80425864839298,0.2419137076072353,0.0318117031145587,0.0837717554272811,0.512545360158398,0.071711335836117,0.3883281452157276,-200.4504321358033,21.62490170262569,13.116168721769116,0.1983585196893879,0.0240613601484458,0.4511577831558883,0.5018639403012035,0.634328905136614,1.380294701796769,-146.92370377535477,56.9986081597689,40.89200638439775,0.0958139325380002,0.3056796700556313,0.142191644589386,0.6543733931453893,0.6015382467478978,0.5370429997732441
1.35,-121.00075078599846,27.76049194602767,176.62686935717247,0.009772226519249,0.1131177925600998,0.0127260367980671,0.9092201434762794,0.0712287007728204,0.4515830851136939,-129.9885406701133,44.75600973159671,-7.407922420112768,0.3672737484249895,0.0014629312360849,0.0711201142918386,0.4106868119191294,0.3404956795650131,0.1241312091226694,-200.8453859298443,21.50897557002114,13.436980917673212,0.076176608259675,0.0368828772360933,0.3704112856461063,0.1369079508581955,0.3104353468060947,0.0403796404618535,-147.3122548806393,56.96202778279911,41.4588471115025,0.1356835724190733,0.2118564562514156,0.4616093167006892,0.4834889723811146,0.3857815876190865,0.3444412329395391
1.36,-121.00611919512124,27.95166290801664,176.5654217493024,0.0554966333264729,0.1244981743597161,0.0102338542273154,1.247084374128706,0.0129360191854566,0.3396939936312013,-128.79605418500952,44.75762055980847,-6.876486963605561,0.4194407695407677,0.0447276019290909,0.0862533358209634,0.565666105549381,0.3278531163897584,0.2324529130070531,-201.1232086963776,21.256811691577173,13.487685595390952,0.0809389590642698,0.1951051352444429,0.254304681206858,0.2698990730291021,0.3153995326101824,0.0837115973897648,-147.70605214897228,56.958422410494464,41.99651634792093,0.1779317753408512,0.1227644668976671,0.79681486977025,0.3002717748038811,0.1553302081884675,0.2210738182788771
1.37,-121.00006091519111,28.038456020914204,176.5189426928004,0.0361643821727608,0.1660180531360149,0.0006497386598739,1.0624253841701647,0.1466225704475471,0.0934797370968233,-127.75854359102652,44.69724298353302,-6.331547950486419,0.3386660944735175,0.066461193812294,0.0874337592498426,0.6076437602028184,0.4622125127746596,0.126259335338355,-201.28661543826368,20.945879587995947,13.386466577601064,0.1765826424187007,0.2288257843294494,0.1399660330067021,0.6681458988536766,0.1686291300152531,1.7172748514320963,-148.8239221522887,56.17614185823973,43.07332013848072,0.2129153235416565,0.2125010700260607,0.8417473837572764,0.6423981767435075,0.2455002526144877,0.7840613687513388
1.38,-121.0064904218527,28.24208305890045,176.62279128445016,0.1521341707139814,0.1777154875011037,-6.234996905600883e-05,0.5759212417864967,0.1181670584404931,0.0431476130698824,-127.3781007720402,44.71348364377094,-6.143230918632544,0.1005825540867457,0.0370076156777395,0.0384424983328414,0.6390884728962164,0.2273912355816035,0.270872719998334,-201.50783578848487,20.86750228890793,13.184961125980772,0.2132572386514101,0.0493065869474705,0.1526191397669599,1.937608865570969,0.2428651565611251,2.3950599564954738,-149.44037750397374,55.57296771007216,44.05446662162888,0.2591259884820715,0.0977810451574547,0.7056656488375583,0.956694837889332,0.6356169514421822,0.7000604626410336
1.39,-120.9072755987583,28.416165730586822,176.7626438802145,0.0837412359326718,0.1204126665789048,0.0364088282302849,0.4126727419920905,0.1267946613479156,0.1973519378523297,-127.37038493922812,44.68523519695,-6.060518884279938,0.0670230532739117,0.0203368411341698,0.1101763157701881,0.6931485319884086,0.1855258005540867,0.468533458925767,-201.79448223050824,21.128423668343547,13.050855782624788,0.2029694882488489,0.3354450499787422,0.1992308956469101,2.0941754601995046,0.0041904772442533,1.366566296362813,-150.06642436966982,54.942958474761085,45.05982341527098,0.2627091886116517,0.0145837449363424,0.5780902291300019,1.2733835673973877,1.0532320124986936,0.622503272353383
1.4,-120.87659287970791,28.320826605376293,176.7496476436433,-0.0161685940483643,0.2319401430088041,0.0727467934659802,0.942529523972495,0.1046832437320316,0.8952385733014779,-127.38121017194332,44.68615479695645,-6.009374178085728,0.0305768105579459,-0.0055150425363791,0.1409462500320746,0.7260539753965768,0.1476861431396219,0.6602754879429149,-201.88947910175548,21.447767716829237,12.798851295085033,0.2696062337723994,0.2487660582744832,0.0993886262440992,0.8657230604120862,0.320737596643754,0.9314066755654484,-150.74804378483904,54.4984818360867,45.993765565199055,0.2717345776870737,0.0750000387528878,0.1384252219526016,1.1341472663923011,1.4995531369605537,1.7657116165871762
1.41,-120.74409408541132,28.062052496109857,176.86357352844217,0.1403182418511697,0.0237236746537339,0.0388953488238437,0.6443399791936192,0.2117332542876231,0.1495605730439917,-126.73982726501632,44.821483865914296,-5.599824124975991,0.034688326241059,0.0738270514648779,0.151930087906264,1.0606674368817737,0.1845150564616016,0.5132130995492693,-201.41331049356907,21.73651516653525,11.890294772301738,0.5350048503725169,0.1432423662544465,0.4038482800095839,0.1414766510595206,0.1162488192828734,1.4602568812994148,-149.43614451519576,55.05802495093749,44.873571578455255,0.2177810454454405,0.1790187054875199,0.920690972097962,0.5800297044518935,1.3366285291002793,2.0237678272779123
1.42,-120.62588052895488,27.923105079554556,176.95429923087852,0.1080757089284935,0.0872691725166069,0.0594553671888981,0.5476058466433018,0.1014008029905621,0.7583549886167096,-126.38026178084054,44.86584527125565,-5.38013600446786,0.0335373036113934,0.0669150446524652,0.1399219025155498,1.2403312566830618,0.3607681188491856,0.273505306627948,-201.21129950779604,22.117818258097373,11.155818162752215,0.4856461947543163,0.2514538865105795,0.3488254653340883,0.4626128674434114,0.1150952471366794,1.387747634920132,-148.25878703285363,55.50956053894033,43.9981596328541,0.3787929862964339,0.2382296051464257,0.3720065669745769,1.0756324076414248,1.064774086530966,0.9096817932713618
1.43,-120.53694929455747,27.61868446765973,176.90250907174294,0.0671509623722664,0.2381349293405934,0.0782726376832565,0.7158770997867863,0.0991394533267568,0.8334615248481617,-126.12372241261497,44.99289701210909,-5.207813548841822,0.1024190714524652,0.1506879483030218,0.1524591597341013,1.182244104734316,0.0730254888130816,0.2239940873897214,-200.99514811452812,22.49988623947021,10.457606874084412,0.4237586600630449,0.330794263591047,0.3238202243878245,0.8033872431843128,0.1340206253700825,1.322589507852843,-147.68983176922106,55.42631055889685,44.00657386009961,0.4789750299604908,0.278324715244345,0.0379720802242988,1.8744063598496592,0.8220404487266743,1.012609739518508
1.44,-120.423799021592,27.30207401262504,176.86593831885628,0.0314455891384362,0.3703578076313048,0.0712490197270217,0.8969782123367045,0.0898949516622901,0.917696853252268,-125.55488038604148,45.1943361571306,-4.964713403676105,0.156693479646315,0.1243323180116357,0.0807125505454971,1.1760544168219391,0.3367517032921952,0.5646345972468162,-200.8600037981132,22.86611329444033,9.87216088744799,0.3464830955734243,0.3082531524657834,0.163652805421928,0.5808041513812341,1.1561850692574862,1.0465731643119396,-147.45415321087552,55.05824715600112,44.42186679144214,0.6367079404407395,0.2299913796257224,0.078867299494481,1.9603069120088168,2.058227108878214,1.3634263499421482
1.45,-120.30212022556,27.015414787784486,176.96798662383787,0.1639810238414211,0.2089357779112881,0.0612300113491622,0.6463338299217947,0.1836157278382096,0.4759567731072622,-125.11813927584063,45.30398569288095,-4.7137541527163975,0.0930897794692178,0.1416814123712772,0.0706396495789069,0.4037775880798223,0.226833142601431,0.7462291106533386,-200.99503089911988,23.22362805601324,9.64241246206988,0.1938875454378372,0.3097236538511343,0.2876735814454528,0.3843470088003418,0.7754964795117741,1.2499652753946908,-146.93313845771914,54.97739032034367,45.13954333221309,0.7295788839543429,0.1544948262100822,0.0753237095519433,1.7047035312168133,1.0612501677770234,1.061482061094705
1.46,-120.16950625754436,27.08908665033685,177.072701606612,0.1010939056639555,0.2959534181301498,0.135858021485508,0.994736433509242,0.2061735066647918,0.6253530835925397,-124.81309344260022,45.5641796279337,-4.576394183884361,0.1081301165307402,0.1496274258757607,0.0794727039342919,0.4948054966285222,0.248660641236139,0.0741374087109985,-201.11669038387956,23.574070307365247,9.385591669845528,0.0300379144830879,0.3133869764485516,0.3818777795787149,0.1700715248056902,0.4118705039979281,1.459027887541915,-146.44494539767192,54.86816344015197,45.81864332682898,0.8453556116828774,0.0585116530610982,0.0815728627438218,1.4380619799187289,0.0858384609036874,0.7592365719975556
1.47,-119.98751166020936,27.19720527102307,177.11165535003124,0.0339168852760076,0.3491631100354604,0.2001300330608918,1.336047590669404,0.2007956483351669,0.7451475896814308,-124.31176899294688,45.63474110370043,-4.337823099374813,0.27168671206848,0.0292024088970865,0.1262939552894335,1.1945645820173658,0.0376967110112659,0.516360421969025,-201.6083328087148,23.87198149515811,9.605778292529124,0.1665397705647109,0.4562349997387973,0.6191848616364715,1.4520506558093704,0.9099673028968605,1.769482976716627,-146.55537386886397,54.2427550365347,47.31814415874684,0.9428259876451538,0.1492935684679867,0.9096153715730888,1.9652543268564535,1.8223231008662544,0.9227564338716502
1.48,-119.72834835378802,27.60744995068938,177.0390794546195,0.0667618750558034,0.434152709371521,0.2103746794089867,0.746904355560907,0.1253861924744347,0.4498182509430075,-123.3788225192219,45.63325985504289,-3.891047490430814,0.3314743077092212,0.0074499009760025,0.0539056021119521,0.8726001478572957,0.0694033512097406,0.8582184638876351,-202.3754759638368,24.25334952032008,10.250691121108956,0.2028390569734067,0.6122671534255815,0.9495509727184676,1.490006644386864,1.0823350570999497,1.2249116328045313,-146.86795953034002,53.48801509629583,49.19759791400512,1.0044489394199572,0.0789374891219912,0.8535790606465422,1.981085353319924,0.4040092392116181,0.6747334553495701
1.49,-119.48341902730542,28.184056368873343,177.06649284361757,0.1638513535669151,0.5395607500956464,0.1909456598862529,0.4712784620553299,0.0904592480540392,0.1573737941878547,-122.76954371609524,45.80662980064106,-3.608757753390485,0.2382898639790447,0.0506778287943999,0.0843692812051644,0.8012957836708151,0.1357966249526377,1.061094625004175,-203.55078563428916,24.743604074369053,11.00184615679388,0.2597117748447929,0.6538854189331041,1.0698208746155724,0.3726167225685894,-0.0009888918486241,0.3010097451390979,-147.13911687195883,52.893026249461634,51.07132341438776,0.9896289063787332,0.1190509077047898,0.7416875196665244,1.3375695157447778,1.3125970957672732,0.6840072135163343
1.5,-119.23601419876982,28.75786133227306,177.1299643119254,0.1005572713220919,0.4914914888620953,0.1835738084237438,0.5882159269182755,0.2411022346097168,0.1005083075820738,-122.11738414250397,45.9465283707541,-3.322110875312166,0.1181814109329521,0.1180427067107719,0.0889388100733364,0.6726039727067886,0.1994300484412626,1.258091517254014,-204.70679969219375,25.19649207598888,11.889701665800686,0.3535245247198225,0.4766651235818601,0.7106044207770429,0.2376421567591709,1.0124341590928534,0.1995229926969176,-147.5014714223393,52.06701388343785,53.000740626977326,1.0135003037890744,0.1240486412090373,1.4145276499236372,1.1711527571383922,1.1045700018657458,1.2741447557866177
1.51,-118.73458359024552,29.87024166991123,177.09866486471896,0.1379823913012607,0.5317757164209982,0.170662460696931,0.4902740150279486,0.1525114456427227,0.3023323612974431,-120.69450289296,46.18734255021032,-2.6064406127400077,0.1610612643498741,0.1465879206344556,0.0813784792915492,1.2069464508157053,0.1098159595913948,1.0629804050331466,-205.8065126206045,25.939215725766577,13.256059040621397,0.3306677376028059,0.4363976778095021,0.3434506403035592,0.8084022119877838,0.506126093762155,1.3265890940861849,-148.99409979822292,49.43163772798915,57.31950210930994,1.168510622220248,0.1184102919736896,1.1983370628021743,0.6032153767929264,0.7021229911011828,1.0713297779021718
1.52,-118.48403313409251,30.53225812895473,177.196406456861,0.1437738986063016,0.5702295165848695,0.1872413217243928,0.7935768517815357,0.1332552540550558,0.4311129098529995,-119.80493467020816,46.38006422104458,-2.192891821935548,0.1974786875706642,0.2908464934648373,0.032475883102682,1.2024361745290462,0.1487983736515665,1.259860551782679,-206.09234602777252,26.362112437782024,13.62117320088822,0.2177520728043272,0.427456273770914,0.26744153285827,0.5692880025159635,0.3176471983298084,0.7582119595375477,-149.3784559215578,48.49096579744288,59.23391038732908,1.1818314684714974,0.0367159305495607,0.94570103272206,0.5138842208501782,0.4151290599596044,0.7315422405008785
1.53,-118.24643037471137,31.196363082502486,177.24352920181187,0.1775537050849578,0.6388560567167594,0.1864325067105863,1.081957891339596,0.0732192461940488,0.5364849090725483,-119.3035243113371,46.71834805045478,-1.8755508389662487,0.1474881113603908,0.3211163225108473,0.1055995805345848,1.1343740270109302,0.1211931152050254,1.1107082716019658,-206.3912344471774,26.75772913559633,14.000227847016086,0.0967026094836118,0.4307732164631657,0.2051441494202115,0.3383736175999461,0.1106245301200182,0.1981847795666707,-149.6201386505888,47.38294733926215,61.14924525016208,1.1519147853337075,0.0937396261584138,1.164665285100043,1.6170239307642729,0.6356797611851421,1.1092413197470223
1.54,-117.92838534216403,31.920499041171087,177.3742695222006,0.2372148229742569,0.818227340266954,0.1796500895527829,0.8526932132359056,0.1353489898213583,0.1364516581667257,-119.00887633954812,46.95093383831971,-1.77079070069024,0.2628061364102563,0.3332334113377329,0.0671949074236684,1.1802104552147037,0.2728405618525803,0.7088673775552415,-206.44085930220763,27.074494280643155,14.391920788272367,0.3173384976327272,0.2587872597344278,0.067838653264119,0.0360138792415504,0.3933389344723554,0.3283592039764808,-149.88147908078653,46.40588768939405,62.94506499746104,1.1633356901867535,0.1128071980082148,1.0125451995031085,1.3206699513636009,0.3716467943253627,0.5767049470278949
1.55,-117.72175734731267,32.87823910522751,177.44360959464075,0.1848774601134435,0.8091583032251277,0.0907836080319754,0.8743801847884028,0.3138828252525593,0.1674280143358451,-118.17787471068968,47.37207129435309,-1.3901982003773734,0.2991358230493015,0.4878110750585749,-0.0045283825749405,1.164803462854001,0.2950445022318656,0.7529032023519224,-206.3078746456576,27.30903762339374,14.93096432110734,0.5294215733005089,0.1750325672416274,0.168689419243084,0.2036292476050621,0.1525646278125766,1.146473558449797,-150.19673891763375,45.43343605168187,64.79431582616995,1.1512304790811103,0.1178640077229517,0.8441476461876447,1.0156422644654826,0.1160007252917224,0.052881087647903
1.56,-117.48670336025464,33.81534129949429,177.477604476952,0.12658736681586,0.8043445399710087,0.005559275965568,0.8793979128505913,0.4806772271404655,0.2008927112849215,-117.357246520681,47.934964840084966,-1.0723925999603785,0.2811852171054571,0.5745949249721515,0.0650580038163729,0.4418723528660858,0.114557281919019,0.5418216100939499,-205.7538517753456,27.80774505240972,17.45665672177156,0.991918767460642,0.2260221966206121,0.281883172797168,0.6132114500228718,0.4049049753583345,0.7765037097843374,-150.43343224545447,44.7498473282469,66.42845607043104,1.084918001376499,0.1351020324693166,0.7345738418065754,1.4060164821801344,0.202757584820818,0.2852708237348527
1.57,-117.43532292576788,34.695317409101904,177.68688505729924,0.1505649927285485,0.8145088738461626,0.0216987014796032,0.9705725379847998,0.7373666136297763,0.373215469292853,-116.55128542916856,48.63666906417526,-0.70281994442561,0.2592154063946275,0.5934402924573378,0.1323733819453483,0.419427871452092,0.4862925190088896,0.1288991213798881,-205.74981953453857,27.884396109073307,18.11625371154692,1.1006579237014222,0.1781227031357532,0.3384677560059562,0.2540524409649424,0.2043121502843464,0.5122827105916701,-150.76463427421308,44.013274889862814,68.05722135392705,0.9660118129310022,0.2222794624237734,0.707237939593298,0.9006897852906559,1.4647330881472298,0.5462397386060053
1.58,-117.42092109045218,35.62086999530238,177.7994710835504,0.0268186765751457,1.038687780917212,0.0494518096584616,0.6263895401210297,0.7046010758653356,0.0271994395782852,-115.7959353186325,49.30982689819238,-0.2500505805382451,0.235635009103984,0.5424134872857528,0.1243439939304764,0.9163157836138752,0.0131122016526719,0.5292622729370592,-205.7451896163908,27.9510354898796,19.554243155668384,1.2657342284637931,0.2754701706963765,0.2570879693031622,0.826425050793865,0.564530385031983,0.5998311334067801,-151.11263737013354,43.28559452462269,69.70647518053907,0.8816935845974772,0.3018412064875875,0.6496895518177483,0.3767884303935828,2.7393624990884398,0.7885386948871305
1.59,-117.41626294781476,36.828046277096334,177.82128090689235,0.0136578309035931,1.0637287225512615,0.1022483427226807,0.4858205233163649,0.3666193748821218,0.0412481639277911,-115.06346878426324,50.0267547176575,0.1540646125718912,0.2437297739534648,0.6750694878824595,0.0886075516347116,0.8224126501279833,0.1732162379596263,0.3755918894939565,-205.7549982574142,28.19800951894708,21.238546489021758,1.380607951145842,0.3549538207804272,0.2994621666111478,2.031274690903571,0.3569890804376598,0.7051878079958304,-150.8789574947339,43.1795366278607,71.1024991497683,1.0721707435882994,0.2097360559179318,0.11451584318191,0.8643778108110156,0.5611065406401086,0.4686223600591684
1.6,-117.613897883455,38.0139279293322,177.89200826835705,0.0474301514851815,1.000138960731208,0.1421407490208545,0.499870823046033,0.0972749367409761,0.3264102734256491,-114.3071915225048,50.74915871945171,0.5484191469843503,0.2870450827273735,0.8118030342784327,0.0173786782174179,0.7631748282205614,0.3423634310583213,0.2575461123370504,-205.68530440011057,28.496352929813277,23.18395133761716,1.5197246860455649,0.4436909612859552,0.3366425813986469,1.4305581087650725,0.3454383696905772,0.7148545287256758,-150.00435817412992,43.3821934790144,72.57558879785569,1.1068591045014144,0.2603160314086916,0.0378473577160472,1.7574903997544131,0.0067392320215712,0.0851736842988492
1.61,-117.93495784248184,40.008622242064746,177.8606092441414,0.1599967062491598,0.8546666386591437,0.1098865656389282,0.4727362091169824,0.1173422478581655,0.3759764697742435,-113.3723995406112,52.47434942510014,0.2426779714678411,0.0769480255625565,0.7293943615446922,0.167704211387926,1.071626234233347,0.410012550892928,0.4115154299928218,-205.3654135143709,29.35319524789409,26.940994828398114,1.424473075248246,0.505029620622422,0.0504739398531864,1.288819564976577,0.3780658364748648,0.8468431945957066,-149.20369488837045,43.43811257687324,75.68363601212857,1.0141055125077385,0.3173706502510949,0.0867135836697778,0.5057278978020724,2.773362221356932,0.3825698341618003
1.62,-118.05844022421924,41.037567424941344,177.77012919172782,0.0728917322574416,0.9364457150252984,0.1128033594008729,0.2762527501259991,0.1896742173794962,0.4213180837006542,-113.0029081509466,53.30070648996509,-0.0815680794410613,0.0736860544306345,0.74952941485079,0.2178962394654557,1.1570441794048307,0.2673936478251106,0.0891320957120337,-204.6180874214421,29.855828307086448,28.25704071812825,1.231651230429101,0.0938694420729194,1.0246596259497032,2.285198689175974,1.072851759800298,1.2664839997680792,-147.6209888894172,44.1876942201886,76.80131791367465,1.089677133076279,0.0461073292806377,0.8411467901815977,0.9970417952461688,0.1155527449961551,0.1865710229877869
1.63,-118.17898666588232,42.0560036450918,177.69740570778737,0.0088576920886557,0.9898610527721728,0.1107885719692586,0.0967645526984028,0.279744266559693,0.4657001477482039,-112.63017435888024,54.19082292870844,-0.4464501901341438,0.1499699832732073,0.8126220296912952,0.1218027120009183,0.8944800957357267,0.5038151719933975,0.5574548969525283,-202.93904385150725,30.55880318668015,29.00692092919158,1.1951222998488014,0.0171030910581995,1.2895238082310652,2.0130551158049506,1.0739523267894713,1.157380885315703,-145.80820971148717,45.44366835157536,77.49510190547495,0.6686115917755482,0.1665441108494871,1.3351526665880395,0.6103710445532708,4.2574312874598,3.027596395846829
1.64,-118.38671126899204,43.19606718131513,177.81897685557416,0.0109661670982549,0.9915908361247924,0.1803785221470366,0.1377161656961607,0.3996918373170284,0.5150620911140935,-112.80493031672982,55.3081409650609,-0.5566341711490653,0.1316261455573485,1.0023121293200683,0.1235751553634496,0.7280249320228612,0.6341180730286898,0.139897874154014,-201.0619262056109,31.18876486304653,29.549109824145305,1.2312863912440573,0.0542975061457721,1.3586172252732145,1.6578598378129918,0.5362379771530509,0.5269862488617775,-145.81655062438955,51.068954712991655,76.22826768025352,0.7532409247326272,0.3553065349104252,4.982063166218662,1.526165019803497,3.1054426274484594,3.419585879733513
1.65,-118.55333553989564,44.25182175892276,178.01075668613373,-0.0172052632408604,0.9789225305451076,0.2241174866903918,0.128841858736653,0.0579914201210924,0.4835658946837975,-112.86414438002733,56.431372045407706,-0.6839892746012556,0.1776678150740679,1.052298831596861,0.0917832464306652,0.4540534670830568,0.2602432072008318,0.0145898301279273,-199.45251951633009,31.751236938989766,30.295953762739053,1.27886677341412,0.0055943439119875,0.3313376011525782,2.2321001840311987,3.335005740167471,0.0888254584318823,-145.82355037531536,56.67820850167183,74.93107297566574,0.8785478965446337,0.5691371603410642,8.647433138454089,2.474048525194771,1.90852348287617,3.822865072789688
1.66,-122.16089532021904,45.39930776032122,178.24817939968702,0.0511281616953815,0.9756051857011456,0.2332653944171124,0.2134360013813305,0.256203315545053,0.5376923698810744,-113.18729054626094,57.56104825289094,-0.7010077313718662,0.1782698579612056,1.0046438118635388,0.1192190650930104,0.7600677826298535,0.0340819096275527,0.2666817865214064,-198.5533342885443,31.824067545106825,31.51373426630464,1.18180602847089,0.1541473833167703,0.1265743762762076,2.3210173800866114,3.261521331971062,0.2705083639356291,-135.29527843658434,67.56863143982027,74.91744425693034,0.4144836452186184,0.7449852533554846,10.073905388661103,2.48427651943893,3.9480776655609295,10.3249115067299
1.67,-121.6829874371236,46.49377026841342,178.491160828466,0.0718845345697017,1.0251861459352365,0.1676232591511766,0.2967057228194039,0.2032056562323295,0.4333425823350256,-113.3999880339654,58.79420268033963,-0.8178063441634538,0.1964631307061225,1.18194628653431,0.1685856908528155,0.1378573320998832,0.4108329149985253,0.0783234595423932,-198.2582371829212,31.63777639363451,32.64028940204088,0.9954149934213176,0.1115880433423635,0.0322332387178944,2.422613495082939,1.436013910556257,1.7668814725260773,-128.3076853549819,75.23909635326442,70.08833617062804,0.056601511371848,1.7242923434428443,5.373269519553893,1.7204815967461748,7.818556982828402,1.4603348364767277
1.68,-121.40855217586623,47.79860377427661,178.63166237353911,0.0251726554447671,1.2423288600971782,0.1031557241366822,1.2058954988573527,0.0779397948820215,0.3247301430039894,-113.52344699088268,60.00059511562765,-1.084255921869349,0.2023203413656363,1.0443580167362645,0.1983241829413962,0.0943351233316804,0.6660695083035628,0.1568620908543552,-197.69665785646697,31.449017880019184,33.43835590786587,0.942261950975683,0.2866063505541953,0.028438126298077,1.0910679408551371,1.9822955754296063,1.2835195515559363,-126.63258832394226,76.86487897942769,70.07266407736442,1.104794958698429,1.138124135583167,0.186107128508293,3.3815337762444053,3.1410383512487177,1.8235989553727112
1.69,-121.3659193361691,49.29517470670583,178.62673277929923,0.0581281980959507,1.324503940412648,0.0814086765302888,1.2182079310420055,0.2556152870631781,0.5846619244586327,-113.66749075428484,61.19058765876269,-1.3172391583101477,0.2158762540209434,0.9298866791119714,0.2181442833633954,0.0245075503739109,0.9321626341576278,0.2231247195086176,-198.07092326266363,30.753946741452573,35.060653530890406,1.1950976006650156,0.1920366506029458,1.0331506367379732,1.6980886676218985,3.49741789640338,0.525477300958585,-128.17916337825497,74.37200196880974,77.0647992429098,1.3791639429968003,0.4446488764122409,3.108744017862135,1.557188486188566,3.930336053418843,0.9477318404783202
1.7,-121.18867745133228,50.55787784009112,178.6853717761424,0.0964824676091646,1.0845036986127436,0.0116204721592238,0.8237092724607555,0.3805124775336669,0.6555152643747958,-113.67776692459482,62.30958039532345,-1.6341354731178803,0.0939313651668551,1.0421747485383317,0.1892429938683909,0.2334101377891224,1.079255102593753,0.61846842440189,-199.0470388761282,29.764066346145583,36.89094971906773,1.0118308891265846,0.179831971819897,1.3326649382879838,2.368936733745999,3.224321072544688,0.6064756765084299,-131.51193073921257,70.24421618905139,83.2060232693706,1.1190715910118425,0.8041869965653486,3.9173459906632218,1.4872869806363185,0.603253690335692,1.970660723343817
1.71,-120.56848749842092,52.75033864470663,178.79469861146808,0.1827201929967641,1.011498080149593,0.0568392403255323,0.7024116485229489,0.7304932290025999,0.7375465716239319,-113.30640563130964,65.56610001184792,-2.815792522478454,0.0553525539232859,1.1040371051074034,0.1187710470719329,1.0458362381724855,0.0761263929536261,0.0524084637034301,-201.3846293172897,27.43047342427284,39.56277085268225,0.7102855435912212,0.442419778354493,1.3328112366284797,2.041552141777097,0.4416253436827129,2.1459615770666147,-132.04632875104048,68.81331998843962,92.8048732338243,0.6377522319223081,1.4220792476822115,1.466774887656991,3.7860614592686495,4.294616654879164,2.425953478909137
1.72,-120.06463159184928,53.746402141717525,178.94390194115852,0.240147703429981,0.8504589380598093,-0.0017759134296964,0.8070284731887652,0.0840234194654492,0.4875756141049208,-113.29196267199546,66.7503733524993,-3.337198093615018,0.0453638076618452,1.1379238580423108,0.1540992885538004,1.5973825399849453,0.2850267485939358,0.2005866802377915,-202.44170523057107,25.92842919582964,40.78852447765001,0.8488417896630791,0.6392833344891939,1.35397953154623,1.8240124606079635,0.0036623986851384,2.2071564643209998,-129.75053133951624,71.13047735207479,98.43632132740704,0.4063924088299829,1.58052448070567,2.2904430396335083,2.0566270999115392,3.381401940497981,2.617322289382816
1.73,-119.17347633948673,54.75503766926934,179.4371569006356,0.4104339909354215,0.909503280389918,0.0706249346032139,0.95531855262868,0.39595771862509,0.7143532514856453,-113.11804744062093,67.80426926841476,-4.015011595417428,0.1643194377109876,0.8387990991496789,0.178924376479362,0.4579180327512797,0.8282161018765929,0.7023674978668992,-203.06023550630533,24.4655130169364,42.06478385151747,1.0363608808772518,0.7693692123644754,1.1937227613817454,0.6331324355507139,0.2861623278162408,1.3921657393566984,-128.36317173907372,72.25044823225497,105.99439654902412,0.2627653905853542,1.9874040871594412,1.0424801537807988,2.9528466317617905,1.1407050076233525,0.2213480643182321
1.74,-118.1368364714677,55.76563979997663,179.95522013010367,0.5132349147693032,0.9135701966606414,0.0750966631361701,1.6228391619015026,0.8199501291245417,0.8478187204690012,-112.68495270362676,68.76384356252267,-4.823550738399962,0.1726525751160161,0.8635954052759814,0.1142599589092996,0.3054589887981427,1.1528669638566469,0.6377298937137491,-204.19272288681677,22.81578095045454,43.80222312011147,1.333204139515017,0.575204535211518,1.595006364341831,1.2538908262211943,2.1670358461670918,0.2599645814610793,-128.42373195387023,72.06574593664033,109.65374847525796,0.3514692246836735,2.007323910901879,0.4732332712414673,2.4488437819582902,0.4765299203175608,0.6158371444403622
1.75,-117.29556081180884,56.70042416539704,179.55020629658264,0.3943443712207795,0.811933727240067,0.0426547562145379,1.9247052897929728,0.8203233907281087,0.7266453872459695,-112.44279270029878,69.85473162095428,-5.454066502546114,0.2009688747125053,1.026074062395238,0.024684291338532,0.7006886876137878,0.4382461298400009,0.059023664251788,-205.49597480923023,21.180238117964283,46.002129514770175,1.632161611924266,0.2638262022916381,1.6824882192412736,1.49064106809317,2.278852735805004,0.1144655728246206,-129.38525759130366,70.57880346379596,115.45232051775535,0.7505890391626246,2.088453706935001,1.2286919990551204,0.9322754533992964,1.0676977975609556,0.0802770164696001
1.76,-116.81124424111664,57.45022981641991,179.30317601286933,0.1745482689216049,0.6216008590992717,-0.0065918742798585,1.403921073288896,0.3409601054559575,0.4146456379681001,-111.89362079054604,71.0749296627391,-6.578694400369147,0.3327800442062179,0.974754956840523,0.1013823126012768,1.6362877965401283,0.423810904495137,0.0535021575391951,-206.74279682319155,19.73633013658553,48.424283155580895,1.8693274968248428,0.20125923344278,1.5497848837665382,1.4846188140465773,1.9542545825913804,0.0989393279993882,-130.61681548240568,68.19864710428018,120.24973349391296,0.8722534028623157,2.207006617389902,1.3612944709353958,0.2676327666692706,0.2921702888210429,0.067109416885731
