0.02,-212.21143027074487,83.95333333476216,2.844247079808123,0.0625150531297062,0.2402332221818972,0.1354337855136299,-21.948003995588557,88.33942806713947,178.508023585597,0.0006480016955772,0.0656890702258111,0.0435169946961294,-174.49100455687662,1.3988281500091715,14.553820140906396,-0.063541165279203,0.1878887463306756,0.1155426128800597,-358.0964455616604,15.5340818053543,10.075019538271606,0.0110585169414506,-0.096994351820656,-0.0750567185141785
0.03,-212.19453666340655,84.04819771293955,2.9854526124546146,0.1471162749443264,0.179954318046735,0.4162201275053716,-21.955266216491747,88.32612175497532,178.6415103999308,0.3190607757464687,0.0095437283531268,0.1329022354723524,-174.54947423790043,1.1819018532972163,14.653406812310626,0.1262255439989136,0.1987587197143851,0.0834947672724258,-358.2330036487419,15.844848376408224,9.706544749528865,-0.0298989826853047,0.0769375795276055,-0.0662697065682643
0.04,-212.05180546088084,84.02890807384856,3.096098265761613,0.1734259490857967,-0.1071683022437801,-0.0072685469537318,-21.81910712462676,88.03117829589335,178.51664285257306,-0.3255182047635741,0.0631228637022042,0.0574645203767411,-174.69395886330568,1.3743265768523385,14.604821618236963,0.2300583841422704,0.3024494816887604,0.3260176879255439,-357.72971819707067,15.523123018746134,9.57472780828104,-0.0595301822856369,0.211693657045459,-0.1058747545909887
0.05,-211.98524553481985,83.71696481481499,3.2353029881900683,0.1086202245632034,0.0601472558504131,0.152202216622443,-21.77204929123129,88.1802295772056,178.40294817589617,-0.0934291936044015,0.3444928057603776,0.0305536050862452,-174.71879741582882,1.5067441222295708,14.442049480641138,0.1022706965818511,0.1928999961926494,-0.1229545250736781,-357.8094450682985,15.554936592696604,9.7195072923822,0.2267029291809857,-0.3791216956824869,-0.1272237175314923
0.06,-212.06491674641595,84.0197658165405,2.7956146458107543,0.0052043083439258,0.0007600843021038,0.0229855302413465,-22.307697429048428,88.01817641243605,178.78895829204362,0.0059467156053739,0.4086711093455573,0.0398821993762046,-174.45942124772935,1.337875120828774,14.619775530499158,-0.0207036802399666,0.3207466923879084,0.0612893243941013,-357.7173794211372,15.518030721090549,9.72601801586821,0.1412615361497948,0.0222385164970236,-0.0108268397940093
0.07,-212.2017721347663,84.2790216465814,2.7176055365818232,-0.0023769482903056,0.2670652464570396,0.103197062767568,-21.97280875633007,87.66779624708994,178.63513132299218,0.0686985431726938,0.2672105127909447,-0.1413108369186935,-174.5527613356602,1.3649148040064023,14.416654978234034,-0.0081978972462854,0.0582686866636204,0.0653592319949002,-357.89321191660247,15.637940948859503,9.761314034580783,-0.3069876035491715,0.3095431530945755,0.159910955916254
0.08,-212.34780409027815,84.20658732801974,2.7721087795458104,-0.0339209589947651,0.255010798635769,0.1350120907173514,-22.22771942912944,87.73418634792993,178.53184694820507,-0.0341758638702326,0.1292096172449519,-0.0062804369701513,-174.32856228877813,1.1005826851897516,14.537522433291326,0.0246873760160335,0.1212694114646239,-0.2878379629388007,-357.74656935668776,15.636296127758978,9.594774398254213,0.3822004066429849,-0.0156109744359177,0.202058069435937
0.09,-212.17787534298256,84.08878070942039,3.3157592296191005,-0.0455435702083715,0.0441186271736828,0.1080248134426977,-22.1273793731377,87.73120819799041,178.39816700343317,-0.0443000080052061,0.3553582800163662,0.0489512349672095,-174.2297499337619,1.1665796817837688,14.64152696125302,-0.2255721512188426,0.1787959323305553,-0.1367449865770513,-357.8704551862364,15.892295430826923,9.556975144254668,0.1487071584848283,0.1959854501009523,-0.0606197906260504
0.1,-212.2036091149981,84.17315548327795,3.021241105756693,-0.1557146255431256,-0.0550643604897542,0.0053863517810541,-21.914105483913573,87.74216963169813,178.59531618216045,0.023209351010553,0.0342186302343338,0.0020426038439573,-174.6250743623864,1.0547941616314342,14.39466476387592,0.3781419484709657,0.4153944870517114,0.0254138707586322,-357.6498058534968,15.402538516396968,9.71042080510782,0.0695160659929505,0.0422094155809047,-0.0005679992466265
0.11,-212.4381313380021,84.0122890195533,3.056820148112378,0.0916086717199397,0.2061667452852819,0.2255958427517169,-22.28743147140382,87.7852445463457,178.31746697442125,-0.0044080681784727,-0.0321895267506519,-0.0055562928921979,-174.7402559599959,1.390369659673147,14.250312789643475,0.0349514830812116,0.1810814988818722,0.1767356905619623,-357.75304683972684,15.751804102016608,9.619660825397911,-0.116407681568739,0.2381119919169179,0.0623410640030215
0.12,-212.6186105854077,83.94497912093838,2.951481251726933,0.0523611109026542,-0.008270422031536,0.250354684159979,-22.45321076430114,87.36820056156549,178.39576614277038,0.0292382745586664,0.3609490752884527,0.1553559498540547,-174.6578429789694,1.1755730503284914,14.336972810831858,0.1525284533714194,0.0083120776356782,-0.0266064731760642,-357.8362347645277,15.676557309416976,9.56023910330956,-0.1660296747721494,0.0665720696217796,0.2621806940656819
0.13,-212.5815782313159,84.12805740330072,2.884517778318745,0.2029096997637384,0.1040786790776483,-0.0660975805763025,-22.47717869864916,87.35097861504372,178.58900992756907,0.0098235455970345,0.1606219921918076,-0.0294875068431467,-174.8448970030391,1.2208144518720023,14.292327681347468,0.1103671127993932,0.0972113115962428,-0.028380214350598,-357.76654621064137,15.822535606728383,9.636529826821706,-0.0546996212517185,-0.0199954168242905,0.0272155520277094
0.14,-212.4492053287917,84.10774666108973,3.157287356833913,0.1777029569610906,0.0293864037780013,0.0914447560753488,-22.433924592485614,87.38168527004149,178.45575243224403,0.3427931218782518,0.0307273253909199,-0.1541854257470026,-174.991348734354,1.116680806976022,14.521851225438796,0.229262998701119,0.1340324092356316,-0.2613320030963206,-357.9598350988886,15.77081704452814,9.696336250214316,-0.1393430920429474,-0.1064789578629178,-0.0470087633448891
0.15,-212.3826585744802,84.0245337930381,3.200355648453394,0.0184721646713825,0.1047549498201862,0.286741185079262,-22.49637536032909,87.25850480701986,178.5547700131432,0.0069626444773795,0.1002785981178991,0.3076165486889209,-174.66036871359375,1.4499938047281091,14.276656037662582,0.0128128648105032,0.0568952504048865,0.2132648681884289,-357.9130203323442,15.647589282574076,9.744182869479062,0.099794956148631,0.2883583782181795,0.1677471425084306
0.16,-212.58957249632016,83.78548497817958,2.9940006235981773,-0.0822134990600034,0.0283716122514459,-0.002937567838281,-22.43366207478443,87.02130789461056,178.4272930109301,0.0387541527145421,0.0523186144197177,0.0844812973797889,-175.13435285007324,1.4489471404048335,14.307252584773522,-0.1238115562333747,0.0182721797031296,-0.1231672421512889,-358.0435952793368,15.472312009553267,9.939501492202252,0.0695290510358675,0.516268577836257,0.2470461572899533
0.17,-212.56999276548365,83.8839423537428,2.911407038083594,0.0890788968929086,-0.1437574676660897,0.3208125992042301,-22.54510381861047,87.01778902291169,178.2728773739472,0.0617006958673669,0.238652382136436,0.0151793685205316,-175.16267365690615,1.2334313468449518,14.265144478518469,0.1902768997707405,-0.0133207911593506,0.0269336656735413,-357.8863449824262,15.6628607868894,9.704602022257989,0.0109388857042631,0.097856832025079,0.1046613243361458
0.18,-212.66837386589503,83.90967560322538,2.940676265352453,-0.0524068157480349,0.0124235829084381,0.0910855811416126,-22.70644086344744,87.03022909512542,178.25065694331607,-0.0106466022046238,0.2569309034062505,0.0916806800055061,-174.81899760545508,1.5727419380872492,13.96190547046324,-0.0285596135547372,0.2031343597742071,0.112242315684411,-357.97597334312985,15.575553391554504,9.84539633762215,0.1083248600684186,0.1760402256555612,0.2101757739355481
0.19,-212.87740660313807,83.86956256721582,2.936947825995383,0.4317783294209719,0.0075006320763905,0.1803234193311979,-23.002477742701185,86.80849364440449,178.33403147348145,0.2397977345979973,-0.0189521931693922,0.2819339744762182,-174.85534964635536,1.374145159818664,14.074153109263609,-0.1549251631841317,-0.0434921347438148,-0.1144823292466601,-358.1551630034552,15.449914989544624,9.448929906367502,0.0947614209420716,-0.4783628308308632,0.2880837543578108
0.2,-212.88595349354893,83.72491520214922,3.016547523047799,-0.0394168190988222,-0.010614126293942,0.0301845459274844,-23.01319951574764,86.76781345953802,178.25608601597784,-0.2122718136738561,0.3105217418348843,0.3416980723946585,-175.00458681869506,1.4395230087688144,14.15194619223564,0.1488814908044625,0.1538891117196673,0.2023931395433761,-358.058996540343,15.650677757564978,9.7111540242722,0.1519880233112019,0.012464102717319,-0.1129750536475214
0.21,-212.5006928981178,83.7930320587737,3.0371549490746794,0.230318880276094,0.0441865369029939,0.1361349876780322,-22.9622526267874,86.51079380226162,178.26532650870064,0.2322414136351248,0.0821041594451301,-0.0287560623813156,-175.2561994654326,1.3382286840079534,14.143850020152124,-0.0853917863472666,0.2070220504642965,-0.0291475792823913,-357.9898021041693,15.664471449086124,9.818444730161286,-0.0665479358017654,0.1029552979099414,0.1028690243591549
0.22,-212.93675498654983,83.89342141249706,2.91700170007247,0.1265038849226628,0.0299163834840798,0.0284065048766467,-22.693205376051758,86.56688724267286,178.34586867879844,-0.0110732017716938,-0.0930630818000426,0.4553199904600782,-175.2244362010551,1.441473652249651,14.31967550740288,-0.3254934175450531,0.0635916475517749,0.0158106488188979,-358.30616322960554,15.665419219150928,9.988664938212905,-0.0378508378959068,-0.091044818046121,0.0825188511641655
0.23,-213.2690515706917,83.88901984487967,2.933665179819711,0.1181957364788798,-0.1282240242837946,0.222453398964723,-23.020732993019244,86.74737224809198,178.44107896348078,-0.1630210848462151,0.1231059948960563,0.1490485605162268,-175.36806778157194,1.228732181662631,14.348548972101025,0.1878789884541777,0.0283892211916365,-0.0601985930127325,-358.277156268284,15.77650394391586,9.692752929564506,-0.0422609767527928,-0.2362550998949348,0.1883417334456412
0.24,-213.0342548073863,83.70213543268005,2.9927886985500542,-0.2731286344063937,0.2175533719019142,0.2014550163319084,-23.330129880063183,86.46600225506192,178.2123167927033,0.0653999722734361,-0.0515631092861102,-0.0240741278708641,-175.48015486428787,1.6301926753346982,14.078316128198349,0.0659354977149063,0.074548486797354,0.0472616200881835,-358.1851746614758,15.868957193632705,9.454585612567572,-0.099712262795924,0.0698811786050906,-0.0475943765347502
0.25,-213.29602523135117,83.92271332870628,3.1539937049163296,0.0365078906699157,-0.0203615872398306,0.2067933597020257,-23.106032882031244,86.32837182304498,178.23748491150243,0.0907978181372487,-0.0690865665068831,0.016273399061605,-175.31483182067922,1.4649518289535013,14.408789420764252,0.1375230299862642,0.0900635223106842,0.0497890410605293,-358.456430438993,15.984731851123094,9.632708702932836,0.0452065745232699,0.2112186619577041,0.1375598226040183
0.26,-212.9338200783642,83.88925122598852,3.29627126835833,-0.0720771422220844,0.1050262567128242,0.0943871821515377,-23.111992344611668,86.19278718993363,178.35610632373732,0.1260159641983523,-0.1605464496114391,0.0062591280506874,-175.48289382424724,1.31028305095019,14.346005213230104,0.0615255272660778,0.0256229198172063,0.0971788181896332,-358.619627706899,15.80341893947404,9.543793672947626,-0.0409001074898986,0.1967032793662339,-0.105483592007661
0.27,-212.89301817047112,83.72406001841603,3.3536096709020446,0.1055519628682092,-0.0051696691658407,-0.1153918370004032,-23.21301598183571,85.81484218800178,178.31132417943155,0.2211510863188793,-0.0584768534435906,-0.0071569262274234,-175.59915624870433,1.4726844530813892,14.15363092070161,0.199273902972753,-0.143341178960334,-0.1700229119028452,-358.7467637589593,15.680067150787211,9.733615557847138,-0.0805355845199983,0.1574922175382292,-0.163959522355875
0.28,-213.3588341068408,83.60807892889613,2.9936464704225973,-0.3058941678107957,-0.0865386133746617,0.2362625261221784,-23.3450124581442,86.28027540769568,178.26711295750115,0.0161040963914789,0.0656758495904144,-0.1228073385440162,-175.36218930358447,1.4065761856870165,14.301245519384157,0.1207891144694726,-0.0687053748472012,-0.2195192296542805,-358.9771240886611,15.845160214947605,9.546080355328051,-0.0475918405833351,0.3703089082431575,-0.0068499933913993
0.29,-213.32920063612227,83.6943350287504,2.84517798253008,0.0267031860108576,-0.1348153092917628,0.0572706346288711,-23.090692786709628,86.0468208570633,178.2789365202206,-0.1317493242989372,-0.1084627931568137,0.1031764027143601,-175.562914271254,0.8859874222091271,14.545770596599384,-0.028421162376149,0.0141072146505351,0.1735398547971332,-358.74116414773204,15.595617068878866,9.486123984922084,0.0229868537296119,0.1140232141695026,-0.3386416370090594
0.3,-212.8996507251408,83.70779932094392,3.048790412687133,-0.2722824426136215,-0.0519785979235588,-0.0229517414217871,-23.39813500466223,86.34624336829538,178.20359375421913,0.1302376625373106,-0.0707420734551455,0.1411607187950422,-175.3994728911259,1.210836133918649,14.200447809910225,0.1457406001944648,0.209948248737405,0.1706341145476652,-358.6817788448858,15.793443132472596,9.656698629159346,0.0070962080777277,0.1185181477387589,0.2243870170360294
0.31,-213.03949478106648,83.5803916436766,3.153337745904111,0.2838960006750827,0.1079727247871271,-0.0029102324324086,-23.310349394852853,86.06233480633485,178.33589959918018,-0.1215404405254031,-0.1807538251659335,-0.1105506322564977,-175.53940994935894,1.551681820671504,14.39101527793002,0.2595960294588817,0.2689513671554907,0.1917144128657915,-358.9026490402511,15.918405068593414,9.600528606868064,0.0241369514028928,-0.1831315589573607,-0.0092566654151898
0.32,-213.33514922522616,83.49412236066324,3.278626890780036,-0.2079179333699856,-0.0834948025538357,0.2656238802345208,-23.06646400676925,86.04752970360951,178.4838147000878,0.0058178185469636,0.0892230697254172,0.0256036116958554,-175.56540051048947,1.2515148824546765,14.2084963602439,0.1953839583376347,0.0790554895091794,0.0613975867181028,-358.5452547449099,16.078730976281058,9.685405900424284,0.179089749108474,0.012808690490917,-0.0682790602737013
0.33,-213.07092486191485,83.6565284382197,3.040664688992954,0.0491959549582959,0.0954440679403197,0.2376318488216016,-23.25531877600593,86.05382370907947,178.3852982150179,0.1737763785574799,-0.0455971628672504,-0.2763577640729254,-175.1252726276283,1.4513887044256015,14.3947113004997,0.0587826791005815,-0.1167642978715599,0.1985137831359024,-358.7597659317564,15.76908569766326,9.440650429950823,0.0890601682643127,0.1759184419366219,0.0835264187147921
0.34,-213.19318387882012,83.71713640550402,3.143068588610973,0.0062406026497375,0.0546468055899576,0.165594412448833,-23.43390405204508,86.14246550550756,178.32198153357336,-0.1321476598726158,-0.1815142317517723,0.1181231994862449,-175.67218690422246,1.4132594547092698,14.084594741074149,-0.0476336696293817,0.0061460347308599,-0.0332518404389127,-358.7855866008055,15.757367859933076,9.548201723318266,0.1527239246945142,-0.0804881810010095,-0.0017389892787908
0.35,-213.20314778478485,83.65525083234573,3.102000456267064,-0.140107801583396,0.0610908763111507,0.2031891540527465,-23.065752031566547,85.93828982817702,178.31259529968162,0.0108778503362918,0.1128892589292189,0.3228641796613815,-175.20668251387795,1.659519077334511,14.275862898363284,-0.1357761466089179,0.0484222332248396,-0.1843550352296037,-358.7233694845797,15.873469959744291,9.56488434233896,0.0299833109376062,0.2129974097873185,0.0216552480406803
0.36,-213.53413322445883,83.76830981699491,3.1198064139690533,-0.0429230717322776,-0.2398740585535761,0.3322160501668243,-23.430612708913596,86.31149008150501,178.2721958093864,0.1182016206257439,0.2339560717951233,0.5045230325467582,-175.10931459163484,1.4324045400113214,14.332998688098495,0.1528479691692983,0.256329398865956,-0.0165316741258318,-358.74239159992595,15.805002590724962,9.697303153424537,-0.085369937526528,-0.1182238864052316,0.0130293880606562
0.37,-213.26499974733983,83.58682625388647,3.078365442246254,-0.0758756918035247,-0.0356974839476251,0.2672220428565725,-23.198004345975303,85.94136722029592,178.07483888349057,-0.3303160381219787,0.1926456407365615,0.3046176783982881,-175.1446735282529,1.1093011338770198,14.12983071269611,0.4369643254145637,0.1357732307863256,-0.0604273222093575,-358.4573153174048,15.735772699841812,9.349655287553071,-0.2441365147079952,-0.0086365843194565,-0.0526592751171761
0.38,-212.93977387738724,83.61133419395514,2.9205746726709574,0.114221228604205,0.0574515987281083,0.1480590559039927,-23.22171939477428,85.91137069731354,178.47462560280005,0.1076615727827078,0.0536000055531709,-0.040305550619542,-175.11858327690783,1.0839122176942486,14.442026754607442,0.0581854856820238,0.1059373194524068,-0.2834723621514005,-358.8309593585638,15.745003219685664,9.515310949713276,0.030435922628592,0.0886752965303809,-0.0227139374515663
0.39,-213.0294190664528,83.54174572532396,3.039049572380836,0.0143228548877032,0.2233990043673624,-0.1638408348857045,-23.14924016772062,86.00409979691443,178.52234556460522,0.077512106977114,0.0064814156908124,-0.0156715303895552,-175.09892211160644,1.146560977133135,14.492770244618567,0.0472544172059159,0.1734893749665845,-0.0728803656939994,-358.6815283032753,15.622044997507556,9.632667274515471,0.0319228245978549,0.0450086567798003,0.013362240432168
0.4,-213.08270291295148,83.5009097848322,2.8512887402909937,-0.0824062439831908,0.1724646140529651,-0.1397953863871674,-23.05933848645784,85.79923292615398,178.74064558205694,0.0977951250763493,0.0484951688128945,0.3382218419456138,-174.8711813332945,1.3304699859367226,14.733280426808223,0.272424740570688,-0.0130079175108178,-0.0210889660049436,-358.4811681248159,15.745656419490228,9.888074077722967,0.0582625362388221,0.1416798300807595,0.0241013108990162
0.41,-213.38458701315605,83.71859942156568,3.118690586995653,-0.1366493865038319,0.2457924919511066,0.2371376597403466,-23.086491027229396,85.94205629131584,178.31333024671028,0.0751639866441218,0.2427354279819469,-0.0860089681217869,-174.72026061035126,0.8324146695398744,14.256339894734234,-0.1159026810110091,0.0493548808812253,-0.1441211810908293,-358.4599695247844,15.86148812299156,9.66202041139661,0.266542335804704,-0.1484950543005541,0.0448513871734152
0.42,-213.2969918751889,83.7067202351899,3.203916613625283,0.0647562651251142,-0.1438040296073101,0.2201704346592278,-22.9733211798382,85.85842737826796,178.34384380762037,0.0740522724298551,0.0332671947871367,-0.438243619089835,-174.91754873258068,1.2885088807881018,14.632451564625388,0.0168148017874469,0.0157343572288103,0.2615008165921612,-358.7160001733281,15.705804406324464,9.550573035998951,-0.0239594977723854,0.2055015074258114,0.1156699535513769
0.43,-213.11576079299337,83.32923611605491,3.0076345481866373,-0.0095590048441753,0.1302003207384123,-0.0030328631960617,-23.20773648716767,85.86972606776871,178.262153401391,0.1335783294386366,0.000978568292546,0.03232620345119,-174.67343362841063,1.3481388206367069,14.041031953545556,0.2844816735404291,0.1827555326050462,0.151944031446116,-358.12997000467806,15.679244831771962,9.659422440999451,0.1523694979531245,0.1399213537430838,0.2302473197448828
0.44,-213.150070860994,83.52285920326001,3.062644755351976,0.1619137389747702,0.1201667355145098,0.3815404653415635,-23.066737650856773,85.74875039443569,178.3404452846963,0.2449821123262117,-0.2469285378353422,0.3955266275454021,-174.81002816576736,1.280284406395719,14.1842607009068,0.0473913603319452,0.3756121229033847,-0.0582406340978819,-358.2451579141615,15.737703501348642,9.658837773883922,0.1872316988155303,0.0696682951523539,0.0297657405297479
0.45,-213.32375852024907,83.72679013215081,3.038102571262391,-0.1987951186106464,0.2143713408389832,0.1668024853180464,-23.099489163192164,85.95957931385763,178.29156126965248,-0.2205329768666562,0.1081851711395902,-0.0156060780560579,-174.75341778729793,1.2416471598878396,14.24280967526903,0.3628421547702101,0.3592643477843941,0.2232068651426278,-358.2994780179044,15.536469871575113,9.708116065919103,0.2196295149641136,0.1614283240378198,-0.1298726489670701
0.46,-213.12389132282104,83.5041880854006,2.951507313182878,-0.1178446212601642,0.1461977685155071,0.1131719053195321,-23.21751410192822,85.88942167203635,178.39927200436978,0.1370414690318359,0.244876796690047,0.2633087519940117,-174.62575248112486,1.167149335902557,14.26801157950004,-0.2001735957997291,0.2935254505620794,0.1724672382446473,-358.0982581723731,15.718631499494848,10.035516624253647,0.0128000748246572,0.5623026425481865,0.0848514839428078
0.47,-213.44124845581132,83.64288992840667,3.32303324020121,0.1090196860556731,-0.0068241701767587,0.0721949277576505,-22.963053620907708,85.91681151056923,178.2878714894513,0.2850918903941933,0.3020444304288228,0.2824634498432696,-174.79543450274937,1.2414728587236945,13.949149285478244,0.3333015010862791,0.2113348272552086,-0.1557403562034346,-358.002406327418,15.56526562788467,9.635830397812756,0.4505108267386383,-0.0026989017026629,0.0092099859357778
0.48,-213.58722593434203,84.15910470654359,3.1980671441709743,0.0368282953486633,0.2214531426827903,0.416556574056816,-23.02042934192413,86.05300328017532,178.2873754533768,0.2053913123386926,-0.0778846042131451,-0.1332313764968727,-174.7340609684932,1.1117470418694222,14.27915856725904,0.0922800242160981,0.1680878644681991,-0.1272368318860096,-357.92676236346347,15.717288902747676,9.600817168841736,-0.0517822679203714,0.1468073917938093,-0.0319683194797336
0.49,-213.4908922133708,83.70557135301904,3.0304032243265686,0.091759710427692,0.2110789142979852,0.3807401195419209,-23.159570312478564,85.86501990580103,178.35866493330695,0.183183959657889,0.0284008369764911,-0.1616213766944532,-174.50675596967253,1.440543335615032,14.124084242145992,-0.0601005929660809,0.4593727676480798,0.0211646290999624,-358.0158406220676,15.505384051274683,9.603731419409476,0.2011695851930607,-0.0841201584582258,0.1510261810343265
0.5,-213.53795810202527,84.05911122704951,3.0683589626894454,0.0827524965982245,0.1645992378458283,0.1381496672638347,-23.085104096330262,85.84935266821412,178.20161617846176,0.1102880257937003,0.085795696690606,0.0928227575421428,-174.74981934572867,1.3746868049366543,13.997892215204237,-0.1900005189787129,0.8175107696676995,0.3006986169364706,-357.9048798787899,15.557060793324595,9.612322387928476,-0.1032879748374628,-0.0455833455294569,0.0475650319849288
0.51,-213.21970469218783,84.040774749345,3.1677827678975983,-0.1690880138280899,0.0212522837547757,0.3429022232446814,-22.824113036466247,85.99540554370547,178.23205033558676,-0.0572638255487239,-0.0414486525925518,-0.1279792038301491,-175.18438061933404,1.1206696698739909,14.138445072117015,-0.1715474122446333,-0.1896695749265406,0.1526202256354344,-357.72656983327187,15.754219144213955,9.885912864430924,0.1314693490639249,0.1168965248630748,-0.0902903026958139
0.52,-213.3158760179448,83.98248037008918,3.345180297347433,-0.2087027736785852,0.1057900604453187,0.2267339251924945,-22.886677056306077,86.14788632871854,178.2784270973579,-0.1740936461028481,-0.1437205649375607,0.2413501499332724,-175.98125196744124,1.0724285894673495,14.046753191385916,0.0310718599755518,0.2602635985720123,-0.0367072163429439,-357.7634962535617,15.619994079306572,9.804761457002265,0.0884434908555449,0.2758071664340585,-0.0389711998830344
0.53,-213.4527120748645,83.95400231209842,3.090440223591387,-0.3033440232982988,0.076424766285227,0.1796015523516356,-22.764094362054934,86.26713148838019,178.4730034666037,0.0967605465149077,0.1988946765011476,-0.0872971079170498,-176.30133540183397,1.1638008537554403,13.885565209344747,0.2207943086291767,0.9922976791950922,0.1691865106375234,-357.6688899929453,15.53623086168061,9.594979023067664,0.1392531422940103,0.1555400404196569,0.1845711320014656
0.54,-213.61857208211944,84.0250119280172,3.0814886270285444,0.082592281709624,0.2092109842695216,0.2884767354947132,-22.706521809297243,86.0505038125401,178.33740979936155,0.1664564552835388,0.3510905036021939,0.205788300935659,-176.58541612644578,1.25483090975919,13.806237745663951,0.2021199575680267,1.0631588212164431,0.1776009281902912,-357.70468357911284,15.698741496036504,9.430343121662876,0.42306950983775,0.4215287122966517,-0.0137952782530826
0.55,-213.5932020542467,83.94878760510522,3.173782672976552,-0.2276485974960996,-0.0295247841166242,0.0590132425850767,-22.77494832909033,86.20870967919973,178.49334427367864,0.1808603340073706,-0.0064241769591447,0.0979194512799753,-176.08460875975754,1.5849312814521093,13.962842778955318,-0.1424983379494926,0.6058578483262539,-0.1638510016865574,-357.53511941607064,15.535028086914592,9.646502660681817,0.2622002945662091,0.5727543229311253,0.028180873970392
0.56,-213.91271729569044,84.07970626057066,3.062605865949605,0.0076685344936792,0.0434599234494111,0.2263813643730169,-22.704446342693025,86.30042409242397,178.21521063584433,-0.0965962949087215,0.268562765081109,0.068621343336771,-176.01213954174457,1.5228266943046909,14.186434487183815,-0.1213174236587408,0.7010818793895421,-0.0048574292831498,-357.6309515433799,15.409596905186062,9.62276447095084,0.182403974652064,0.7224380200155384,-0.0213592312458135
0.57,-213.7594925682725,84.28904765135918,2.947887352816005,0.2244092595178234,0.3214326703951389,0.1084563995074347,-22.93899028684248,86.55202690973202,178.42899145103357,0.0282231184772543,-0.0141500928930037,0.1231779668792568,-175.3036169847428,1.2904321962967131,14.006114175809971,0.1173772160094109,0.2330982449423301,0.2623309217101814,-357.7184246466865,15.44470321725539,9.433358128563745,0.2847220312176564,0.3824912529564707,0.1724696905175889
0.58,-213.67743343245303,83.97314848148137,2.8460534692606965,-0.1357551819710324,-0.3104240874363428,0.1985463273464782,-22.639368820436637,86.33884677590453,178.3873407018643,0.0338786188387898,0.0852035513311033,0.0256001840233306,-174.98899689622343,1.8314514711532168,13.53296036601137,0.0778945695760924,-0.0872549227903293,-0.0387510915462884,-357.2508115938531,15.654208399346524,9.986190129593004,0.1320104713366297,0.7099829899465713,-0.0726200350620281
0.59,-213.98371180116104,84.2995572579754,3.015146123705799,-0.0392395101544069,0.155493868461471,0.3647852521326051,-22.74235293182426,86.49723775754777,178.4223138141878,0.0046577079186534,0.1000175841667945,-0.1828904731680055,-174.69792926602742,1.791833427178004,13.51291506719529,0.2232779201672696,-0.3180687091519742,0.3444277450681406,-356.9070345841168,15.731811089202091,10.054384491257302,0.0968562476949279,0.5997642519568681,0.0364520333364596
0.6,-214.0032900533853,84.2607502491014,2.801949376254746,0.0074086307888242,-0.0579518152375838,0.1627583734741687,-22.96561210794055,86.56424818038522,178.2724745101881,0.2331661112981298,0.2476170702432236,0.0111157488240952,-174.67355535776224,1.5159863022090647,13.613979537507968,0.4158992525801314,0.414008240567519,0.1281886680204166,-356.48499836882297,15.959949960251082,10.231304607398275,0.1509157303976673,0.1139373888658312,0.3715091208404098
0.61,-213.94407686556943,84.47960949567253,3.1535701496186643,0.1815049261846699,0.1384463739468873,0.2687435453054794,-22.910625745492936,86.63652109526087,178.40830682978307,0.1109921552842564,0.1394244407467413,0.4466370080680992,-174.60114883257543,1.671800007297269,13.408663016593955,0.4165790716301633,0.2673182041024339,0.2728548195225617,-356.3723196143656,16.349436804010832,10.138708981088016,-0.0199403597907411,0.0542047915925813,-0.0949328915111519
0.62,-214.12452723705684,84.71611318587495,3.319477200433824,0.1091150138306218,0.2662623993505975,0.2193144830521691,-22.772407277048824,86.43163155642775,178.41277599392555,0.1465054466305918,0.2434962834659512,0.2979077360981257,-174.2306801838159,1.9992987647382996,13.205744667505662,0.0061883425734267,0.4110241807438879,0.2725756522089202,-355.97479059528854,16.045332551434747,10.522503748834849,0.0917461844721238,0.262979905880272,0.126016266441733
0.63,-213.96854570822973,84.68289397901032,3.006811560075135,-0.1821854637683863,-0.020616026011175,-0.0357739306068314,-22.905217063218693,86.27340109784318,178.6426409560765,0.2016697451457866,0.1842027237308767,0.0487488981607922,-173.8413901138695,1.9913012269924104,12.961567209311283,0.4390117048334527,0.6701199913835675,0.4136529247907089,-355.7985975309708,16.236198850348984,10.086519746637077,-0.1464970317889889,0.0933712925202921,0.0448537321063693
0.64,-213.9108788102818,85.09086123623113,2.881387026549316,0.0870824848061694,0.2616105888079323,0.3373865820253476,-22.95096627741848,86.33434292160548,178.32500082869652,0.318466741912396,-0.1406361567808179,-0.0913864977577338,-173.76889626254342,2.1824014125685576,12.686071234856968,0.0279503674921516,0.3879353214196998,0.0913832710622276,-355.42112958846315,16.24040635859858,10.782907180199585,-0.1211015034552096,0.086885870012314,0.3174294420430184
0.65,-214.2605198650421,84.88385087409068,2.9447287945924923,0.1715832122377387,0.0879064051491786,0.2214165294781025,-22.66894673218546,86.22925019925587,178.24846889427718,0.2527120340716206,-0.015222914951836,0.1912474678911319,-173.21079849371245,2.170818636620796,12.809466078593806,0.1334245674726731,0.31612735742856,0.2818814710514847,-355.0543497190278,16.25358282059364,10.75640038006336,0.0350314742308606,0.2794091228717812,0.3875332984176809
0.66,-214.3742455407389,84.93979283708165,2.9282376161083468,0.0630251856374153,-0.056701983045245,0.1261774336320614,-22.631631233526797,85.73635310729263,178.4441619612126,0.2232705240033286,-0.4851344054270857,0.2862822343411195,-172.93094456148685,1.9445749392670637,12.50495896328269,0.103797610315416,0.5220219280030775,0.3973015926191005,-355.0177718340924,16.56353155200132,10.64791067503869,0.1100631001064974,0.3946722023356894,0.3107733778086363
0.67,-214.42272782473128,85.35006901624574,2.998921728094362,0.0666734120991732,0.0971414488223975,0.1275395148776313,-22.623232518723928,85.57007591153818,178.51122438489045,0.4263695422745077,0.0745056886981996,-0.2094753132186078,-172.6514639878353,1.91901934105505,12.671881383295377,0.0307835006830345,0.3228664853215071,0.3867570811968484,-354.61585069656616,16.57250711228846,11.040764036743676,0.0797894351414629,0.1886300597851843,0.1378336449766546
0.68,-214.35606505366368,85.5031177889131,2.9032188950293447,0.1938715756676374,0.1663934968917051,0.3426735627402335,-22.78047504677797,85.52158545855397,178.59398331528496,0.1286117695912375,0.1701132223913705,0.2202333846412238,-172.27931446282147,1.902934837176428,12.689703046482418,-0.0799599258721353,0.3810990994827122,0.1400153902264584,-354.25800817433657,16.583372326411364,11.210698301288057,0.1057692092383528,0.3868551900672618,0.1333912262593377
0.69,-214.5296435500869,85.65034740109775,3.1255063599180084,0.0995527188396382,0.1822703241956248,0.2506105429078713,-22.21673301631748,84.97750772381926,178.66772222666933,0.2128677319965611,-0.1428026215580428,0.1398355690393462,-172.1340371924636,1.781913762849329,12.182667751541729,-0.0163665347020931,0.3191659538948437,0.1456992559147501,-353.7891374043382,16.51739471976818,11.228822650009633,0.0716016123676683,-0.2775635691692548,0.3383351516719567
0.7,-214.72872597117816,86.02587620884398,2.9040242771477995,-0.1501469011832854,-0.1001969385972832,0.1527640265931538,-22.49643441518608,84.53459340006827,178.74920644721766,0.1378257777594657,0.312780054110555,0.2349619673166485,-171.86033566615112,2.029240834608311,12.214876646361844,0.1284939303878925,0.5057589820860398,0.5148630941923465,-353.5111718008036,16.58805841684768,11.05322843348887,-0.0600134082807969,0.2446730925523562,0.2346346713374237
0.71,-214.50204179275116,86.17930904360531,2.9206837370364207,0.0273434745801163,0.2152308097456441,-0.0849674954690795,-22.63941490114623,84.30913048514535,178.84915260503405,0.4157385020412914,0.0707656541460434,0.4249115092226516,-171.6346919831554,1.7691712336291314,12.038272277499416,0.1164157623007353,0.3447235375335037,0.6812886319414938,-353.17250067674934,16.605962121240225,10.9112787878592,0.0446941951011603,0.2749378472613383,0.4434020149956021
0.72,-214.92419812646656,86.30820749031024,2.6860552044830057,-0.2357972974681833,0.1419334975812079,-0.1531209798738692,-22.913514460786303,83.54001812408265,178.9085132476877,0.1676955595584841,0.3604125146255127,0.2865159711111484,-171.4799518668351,1.90263788462695,11.505674059807324,-0.0737425334019862,0.2509449079534458,0.3613661842793272,-352.848496075279,16.62135250441169,11.08626604798942,-0.1576915219370114,0.5001229059394948,0.3713469372111381
0.73,-214.6017492150046,86.72237232491639,2.8886683289024915,0.2455222634573315,0.1810996227522032,-0.1047574229604148,-22.60804512211715,82.68566540157835,178.6180980410717,0.1350821161754828,0.4610261421498113,0.4139892298018526,-170.97026319330578,1.685004463316303,11.193286163277278,0.0562559037773899,0.0974162437091421,0.4699112329684272,-352.66014941365097,16.588959508415847,11.209034508299334,0.1600383746262997,0.3242053638992697,0.6610947242406555
0.74,-215.05957363415865,86.55903214197205,2.805577745434603,0.4130460171160672,0.015130153963223,0.0965800457028102,-23.09860389567718,82.33799534460945,178.80468323213975,0.0179184765327806,0.3895255101111672,0.3005333625916398,-170.54720936723592,1.297390644663719,11.204404652732151,0.0463352314671778,0.0500523903984368,0.6001828070913715,-351.9338508266042,16.126075209372736,10.734563129398168,0.1956995769426708,0.2408640289255957,0.6804004250285314
0.75,-215.15013829572013,86.98609433459208,3.0202974467934083,0.3281570591127256,0.1874568995951546,0.0404140739225078,-22.985544515813693,81.40153345738426,179.95900060558984,0.3212496128104938,0.1672899658305907,0.1299126919836918,-170.33706542080094,1.547990959188503,11.240518033423214,0.1429788187292428,0.3000181808598474,0.515817034073439,-351.6841308975486,16.276576851611942,10.860398155322178,-0.1651177601127467,0.2964237020536525,0.4576633735710977
0.76,-215.99559045379004,86.98534019705725,3.0082908434295947,0.0521125567086295,0.2644643504686449,0.1794841587048432,-23.17110857916217,80.7314509617845,180.97337997565265,0.28284094522294,0.2386876656378029,0.1262922001349343,-169.8602492581206,1.3053720729385936,10.7301037418064,0.4016204046160691,0.0091053084972685,0.5137455819940299,-351.4089929518848,15.98241361716348,10.477496135160422,-0.1180950599556452,0.1483471247628829,0.1411891766618214
0.77,-215.8074437242645,87.10853831494227,2.839676253931771,0.095951706932992,0.08651499343694,0.0372080882983859,-23.489106107886343,79.7303979911903,181.39828818785367,0.3525969197983096,0.028195220427193,0.2283922751529449,-169.390862070103,0.993247675584781,10.558836541056328,0.4209151402970516,0.3453613776487488,0.4817956767301852,-351.54735127278354,16.028817691065527,10.256701879429324,0.1349183884863738,-0.1408592635447461,0.6923589744693082
0.78,-215.9437415949633,86.56733381784927,2.803843794362544,0.1813871274575179,0.1779467848230616,0.0577448216026642,-23.318821541889744,79.01148596215505,182.1232052809026,0.3447083515510212,0.053642667958607,0.3290180161166303,-169.0429426266049,0.7724611027609154,10.558682793893665,0.2977042061293202,0.2890639165303247,0.2528308947764953,-350.8609456656297,15.95958376199675,9.95756684065768,0.31489622439225,0.2137512171486869,0.3990541475382619
0.79,-216.35560987726183,86.42355723013777,2.917062013545136,0.2105617972328399,0.166478421847759,0.1222737992380894,-23.376895683966,78.40544178492564,182.8119207151509,0.2348021148032707,-0.0753278947187139,0.2664135596894365,-168.99183904328402,0.7621316322861893,10.261920236948876,0.097660126782235,0.1894312135944672,-0.0723655469017603,-350.78306592597886,15.889674234256349,9.432803729458143,0.1615908750103471,0.2619954471213194,-0.0194282922736128
0.8,-216.78222521609615,85.92381533317295,2.772633348089307,-0.2508563181372372,-0.1400975887333554,0.3093887861809306,-23.621247604072224,77.07393080044373,183.1850959612283,-0.0672133978964834,0.1084972347334744,-0.2357412222059591,-168.86743465782436,0.6293495234440423,10.43739504599603,0.0789763109985875,0.3762754384443227,0.0296554101204493,-350.698528217556,15.957748881941612,9.319082112640055,0.7803389385685817,0.1809464316008679,0.29043136236949
0.81,-217.23314599899072,85.2705273091786,3.0798231878499926,-0.0920932340903892,0.2410056789370234,0.2402047634721616,-23.576846948296435,76.43673456079726,183.7679039211578,0.1877256028347734,0.190071148165556,-0.1678840813566603,-168.6093733858165,0.5651040426394629,10.668570457526128,-0.1021444351825618,0.6376814259441077,0.5073256247313068,-350.7717431389046,15.758546939241729,9.31566304943874,0.4184272689872076,0.1056883681978645,0.1011763081102956
0.82,-217.53063114950237,84.87823927778282,3.169476872277876,-0.0185770572627194,0.3964874537611165,0.5867772899741099,-23.75978390612901,75.68731899097294,184.22794193085736,0.1305181626770399,-0.0810328227926346,-0.2320073042290139,-168.93191624540287,0.1278461563038027,10.320075990452567,0.1459793606280467,0.4961057537446095,0.6298431514572238,-350.7739350069903,15.524914722765724,9.07024452863009,-0.1454391897666647,0.0743577736044769,0.4066613230763813
0.83,-217.8957030667645,83.98519094112595,3.032380916461145,0.1248358301752491,0.0722877656658269,0.4840375922887758,-23.82445280137721,74.87416777785387,184.1216306812196,0.0772626319481532,0.1937347276162544,0.3573525105973748,-168.72356609202902,-0.1263081252099858,10.257773913331544,-0.1236382398740404,0.680051041235205,0.6109357710193551,-350.9933338926783,15.59590229298538,8.883243146131415,-0.0805616815063811,0.2015781147431716,0.7301080475055705
0.84,-218.1871765401665,83.42117285885395,2.9744562579979035,0.1587999572099057,0.0587079952679706,0.383410126056715,-24.47453912620442,74.09320651661251,184.3904911395328,0.1965028058557913,0.1212465601517073,0.1830348188222845,-168.98828250479727,0.1355030630824156,10.269373980508968,0.1209898643509897,0.0950952971977209,0.2488616548368997,-350.9767968024649,15.436113308545954,8.603682143378833,0.1094781390735749,0.3705870444660023,0.5186950118943918
0.85,-218.8079463546132,82.69711690681052,2.8435590849779766,0.3214811004300789,-0.0771100704480375,0.3875924431387426,-24.41091045929608,73.16214741856149,184.4125472775393,0.0121424659625673,0.0674471772595553,0.0958360972193558,-168.54550335284264,-0.0333079012547509,9.99557742675196,-0.0907029925991254,0.2031011529317965,0.2521544708228357,-351.21420473038467,15.209809784046692,8.795517407285592,0.3917557476206042,0.2597326015408744,0.1577217388979069
0.86,-219.18305266323333,81.7407786211191,4.821151521715325,0.2405398937928798,-0.1037809383386538,0.0048949771413408,-24.692914898549084,72.40838701726648,184.1791424715068,0.1425997901129037,0.0518275357903704,-0.2190866823516606,-168.25357872643008,0.1617547465971031,9.616388593294223,0.3283817002275382,0.321489725996588,0.5328424319346002,-351.2852856193784,14.93985236846476,8.97907812349443,0.6286645627858294,0.0505990142221553,0.1213866268581697
0.87,-219.8339168404566,81.00490408395713,6.811304695065926,0.2816719736663966,0.1994688620444043,0.1404792425395556,-25.49262929304964,70.91480387329153,184.33383997558656,0.3998681918504302,0.0461888745587386,-0.1446510793138721,-167.99488843043756,0.4640502218684205,9.573910833311311,0.2481613868553225,0.3125377507683455,0.8601556995012054,-350.9159096128503,15.149035827755036,8.842478819617666,0.4366633776413232,0.3497415888618312,0.1352335579478586
0.88,-220.3798169194816,80.07406843485525,8.310293772878714,0.152871191490222,0.120138490379541,0.4301434725459687,-25.546762053799117,70.08259981661014,184.187684691476,0.3474866835546374,0.1085576064908738,-0.122014480910607,-167.56404538188266,0.7711465213204567,9.410754919661915,0.0897355284168015,0.2538099350488603,0.4045618745102087,-351.0435796730296,14.682142483247636,9.135848138923508,0.4203107013947287,0.390018627149912,0.6823958195959223
0.89,-220.55278296193052,79.19566454046503,9.338608997360971,0.1461632071353882,0.0065707655166059,0.2184674634699457,-26.019553366905438,69.34463191401755,184.2761167374335,0.3942394461303928,0.0611441096395838,0.2462020186928502,-167.60602541603728,0.793731253952488,9.019517348902014,0.4083807379758074,0.1011168629475518,0.0340257632634479,-350.74849871822914,14.83105709622836,9.252876822143778,0.6105632446379411,0.3674553466268495,0.7184760526684224
0.9,-221.2355342728592,78.55910082641215,10.437173965719294,0.0864572008610845,0.1629156661498313,0.100682436770369,-26.108988494867333,67.87928367823814,184.2504064172639,0.1534785941093724,0.2622356187712079,0.1536273687171546,-167.4858570729654,0.888848563667824,8.74236612064853,0.3140610942094761,-0.0321425096953432,0.2079224228264513,-350.5868503824257,14.784841759763063,9.01140971233164,0.2296779161084104,0.4303593432149677,0.2587078921062025
0.91,-221.5801797015906,77.5871703328713,11.18253197238272,0.1500386782712759,-0.1027285542874431,0.2306814999288112,-26.575752262352232,66.91462285750985,184.314126306064,0.4718236963703198,0.2957152412814413,0.2146991518019048,-167.24768524973751,1.043665332096794,8.79582132593479,0.2971162941134539,0.049565119280057,0.3177509675752099,-350.3417586332246,14.537499309961508,8.937974844498639,0.499724526921094,0.1527672051930816,0.3113399360069557
0.92,-222.1277055114664,76.33458231261939,12.029436112259743,-0.0166204587862589,0.0306298517394058,0.3245587689868449,-26.87849050362277,65.62645556191505,184.20859035200203,0.226561391658231,-0.0325643671905376,0.0820436253964109,-167.2843900745811,1.0256986501157053,8.849857384640107,0.0954436474313223,0.2848770390743114,0.865289213708156,-350.15313612675664,14.328686007202425,9.19199240992372,0.4236462431479707,-0.0375211751854461,0.1795965080130955
0.93,-222.41259452329624,75.16960036001458,13.043515469705248,0.2534701804770626,0.1945377671054781,0.0633878473288837,-26.958945298452367,64.47572722537744,184.04454196862335,0.1824463156100911,0.1841296181868857,0.1929660823315006,-167.10878786911707,1.7749724461038223,8.553341335829925,0.1850624820765837,0.3269977087695534,0.7223644090198416,-350.32672737096453,14.01162430127374,9.103093746495372,0.1861333173300818,0.2247313747342022,0.4999306146582465
0.94,-222.89294015492743,74.43487985694333,13.62988638959051,0.800669906667141,0.5895438877029614,-0.1323288146598089,-27.401672785586484,63.46973125893727,184.26678091435875,0.0792927397411468,0.1131517286767362,0.0087237987888962,-166.9827210447712,1.611974355565543,8.492571834756001,-0.1293280724687953,0.4486360361425868,0.2123615696201143,-350.1413254631364,14.243932951311985,9.134168218019369,0.1584995789363686,0.578215402160834,0.8685290432613717
0.95,-223.64243749334392,73.53076882344489,14.126146330510236,0.6650383900987671,0.3604809425481229,0.1491969219094854,-28.4169565200804,62.34193602094133,184.35642194652348,0.3195497697412833,0.1131726930533069,0.1197862609552158,-166.64058938366833,1.9400016201826575,8.209089406602784,0.3338873967585342,0.1973834120514699,0.6272560788552745,-350.11749624217634,13.789893234355931,9.182855290487536,0.2481607261100412,0.593385110636009,0.5814733083430959
0.96,-223.861908659449,72.46989138861241,15.010581782434365,0.3742417930276567,0.4760066023921868,-0.0597080969146502,-28.68295166143421,60.68913421523478,184.00066282491272,0.2313743498485861,-0.0118792566411414,0.0627304382277641,-166.41668456209197,2.092540876668716,8.597752439847989,0.943168767766476,0.5312759290665768,0.8664552944781593,-349.58698246417674,13.276636789031537,9.119885430884864,0.7310832420039772,0.539623610560589,-0.0060238894111309
0.97,-224.38984586748725,71.61968010588011,15.36778464170792,0.7844323078864275,0.4768641720913748,0.4506102478065704,-28.79862154959485,59.626593082625725,183.5607979020249,0.0917727674620687,0.1614640062412479,-0.1230119673312182,-166.20009773717877,2.3374087501959484,8.503030687478752,0.2440834587056738,0.6858969921902156,0.2220435240213429,-349.7914909602512,13.23651026411402,8.967424456310525,-0.1003205124664736,0.034460891875312,1.4270029977375491
0.98,-225.1331377148951,70.40349425687549,15.723984200364288,0.8596331706080356,0.3325032356031403,0.7895578286276527,-29.542315367328897,58.45673659374061,183.36307689721613,0.6022393490482374,0.1939489656885643,-0.1881809664713206,-166.14888948007282,3.0950103790957595,8.181226494054831,0.4462210071815771,1.036458416549184,0.3081910617860918,-349.9918849820625,12.870226367258606,8.664685990288001,0.6567957518802457,0.7693114262659344,0.1671364326348468
0.99,-225.6743959880644,69.52455393549454,15.643545342317044,1.70350624058333,0.3750488724121799,0.3773806005876092,-30.287968922587392,57.110327408701295,183.4610325711153,0.1043325623557049,0.1212336306784606,0.1335042728354554,-166.34349417275612,2.878117557218437,8.125223186662891,0.1439304150454967,0.4851562173849475,0.3933659605960363,-350.0788556097005,12.765236183959988,8.923870824152681,0.746813327923539,0.7256852587436482,-0.0163631315967351
1.0,-226.3957239542365,68.39012498636981,16.275128421940916,2.027037024858205,0.0485496056550672,0.2132909320815463,-30.555746861274827,56.06539673225792,183.1658392783881,0.4435249185366234,0.0351569300934282,1.0994826093566723,-166.27435823335998,2.936605955360951,8.295417727678585,0.064032178757547,0.243382928666228,0.8705489197264565,-350.47353606146754,12.77697060089926,9.04435329299773,0.7627511153539897,0.3595984337328969,0.5645853123166442
1.01,-226.59007873599933,67.36384873227153,16.403200659473587,0.6284195695029605,0.2265815991490902,0.2307823795724759,-31.222676972538224,55.81264282310328,183.22869538829505,0.1490266204408134,0.0932441868374175,1.1547897763319004,-166.18306157542838,2.8128677147904555,8.267716369800059,0.9055817649154022,0.6525263577295688,1.2686154371945173,-350.16090834278367,12.29450182697246,9.134252415746616,0.3869162039526908,-0.1402578122066458,1.7067124306002597
1.02,-227.05390463899943,66.73747610682096,16.68404687794358,0.4585844128447158,0.2859986902244282,0.1533994357654422,-31.78904449810444,54.558441408949314,182.98913840143464,0.4529416073445453,0.5276183048767897,0.2268292848896582,-165.3654919604058,3.0225844336074568,8.207465192378361,0.5388245913935832,0.7428331192477456,0.7087062742352996,-349.91270267723,12.422840965673156,9.22761465217842,0.063747496921826,0.1128054658859017,1.09386825363785
1.03,-227.13163263204575,66.32686632191525,17.332281410159094,-0.1951803901597223,0.562569744681083,0.4418343823158495,-32.24523165726447,53.26791881568116,182.8248936963849,0.5939382661729153,0.3800552085141807,0.0647478599159189,-164.8661234585297,2.9543594091227217,8.284457793230379,0.1015709568533752,0.4802883095299673,0.0461829718016318,-349.2069264273852,12.342010888805673,8.817473628872778,0.4045576556924106,0.8388749239323998,0.9106046685661532
1.04,-227.2060527309097,65.38263306973896,17.47602816416151,1.10907958129878,0.3703851340832344,0.5833517885457706,-32.41553634192373,52.43038626139783,182.78789269478327,0.5967084117716881,0.2971958220391049,0.4035470340833717,-164.46871194852667,3.2625672150890788,8.027544478021762,0.1280717679287558,1.1220191732835538,0.2738959436626018,-348.3101090586004,12.424427096105523,8.702296857955208,0.1298242707312411,0.8270009271176436,0.7017866159929058
1.05,-227.16757452989387,64.44230684892958,17.934683325471205,2.168795272855801,0.3037845187673912,0.453589354518638,-32.49231454805383,51.54449359372811,182.7816954773517,0.6872258707082856,0.1769768677364512,0.8052785262940436,-163.93613493231584,3.587313127965691,7.647814722169194,0.0980903693941132,1.1622139576228905,0.6047026299342607,-347.8896525596107,12.466502681927008,8.590848959943528,0.2031994367073275,1.332788911954533,0.144876781136565
1.06,-227.64599960607583,63.95111728624048,17.748693154861265,1.6117463166365291,-0.0201721469346406,0.0644773996800172,-33.12844750539338,50.80538667854543,182.72063421403303,0.6770756261149213,0.3394523029526643,1.238019203609055,-163.84168851140524,3.4244509652672623,7.13780590869762,0.140959087597388,0.8880899126259855,-3.128992792890417e-05,-347.40568042411854,12.21540718917093,8.442881763767833,0.2408504483894619,0.9993157030667223,0.3922913303540828
1.07,-227.35073191870367,63.4935421537982,18.245559048414464,0.4870328903427371,0.3262986135611759,0.2289122995717872,-33.66545390678416,50.34411489946593,182.73718820455505,1.1667257775125377,0.1454110932741506,0.4607013734516015,-164.27589111870037,3.281808865957808,7.067071650246267,0.2109091991148941,0.0340112357919904,0.3551112905777641,-347.2652744569515,12.097013247302302,7.816742438509885,-0.0622897675310896,0.3040570952654957,0.366997047513747
1.08,-227.34473538481572,63.5206828527748,18.33264863604527,0.4722700500204324,-0.0924902539162472,0.474216196513365,-34.17660632884054,49.598378441645565,182.4704747307913,1.0405221873581805,0.2881734831005162,-0.2134967214440292,-164.74949393534817,3.234639744082902,6.762023925734401,0.0320030280018697,-0.0544760435222872,0.2753034015983681,-347.42369008026515,11.869558075428944,8.422234253904413,0.2808424012459084,0.1753227746562796,0.7716439324133282
1.09,-227.43158748379489,63.47050073414725,18.2183728177772,-0.0025606393611209,0.0098806799874786,0.8872417313766601,-34.49102947986473,48.63708186380549,182.7435981878421,0.7295838714965954,-0.0806209529099609,0.6096111137728574,-165.42124852806663,3.684325349981116,6.664740554218553,0.0076437074075394,0.4754242298683361,0.5922870269322542,-347.5497435942098,11.82130369675848,8.21935322753434,0.0047612610923649,0.4026544668872003,0.2275476004129848
1.1,-227.2734224828353,63.33025255182877,18.649578938653622,-0.0157027554244846,0.1425792901427245,0.9617093542615116,-34.35891072997176,47.73291062888083,183.09531327130915,0.3846623093952862,0.1752570837167408,0.1674320067014123,-165.85219550100882,3.628404638399112,6.003803841899559,0.1814982822329335,0.4470803905113287,0.0397268676360314,-347.3027311023679,11.709978168968052,7.981734334441722,-0.0705798442112541,0.2264393190042788,-0.0553488351388685
1.11,-227.43735539931495,62.72259094769244,18.72124718740888,1.0052181241348688,-0.0984436884052437,-0.1228905774331547,-34.48012559074199,47.02041260205512,182.692069985185,-0.2338154505824064,-0.0576907128063959,-0.0071486369116967,-166.05980193596432,3.669460485102227,5.711397908186414,0.6834793307864947,0.1867118875583897,0.5460736809399137,-347.5562343757156,11.479994415388571,7.730328706997286,0.0936413946136497,-0.0034734381773521,0.172013617429082
1.12,-227.6489406258854,62.56871280259288,18.67824007915261,1.2200052788624554,0.0872405947075142,-0.0751624961830807,-34.21115183636997,46.59139406111556,182.8197679028186,0.2752926551813938,0.0353515484496829,0.234795324936844,-166.62742747505635,3.6062765564742687,5.684918281650229,0.8024815698946426,1.0556185572928956,0.1827375921192271,-347.66372418069966,11.480298395955709,7.602109692986049,0.333147829112789,0.2600491112222578,0.3625535726955882
1.13,-227.43237410122973,62.30371538911258,18.97836843673817,0.2743562339528396,0.378548445174339,0.262377501067918,-34.39515052526806,45.80527972781662,182.9646784503911,0.2296222266197203,-0.117885072181294,0.1382632441458565,-166.01697698437613,3.38235115457851,5.768815230133483,0.390270214215041,0.7620912228783878,0.3610511971716804,-347.20887257003284,11.454585043820469,7.655259800732058,0.1696413768804059,0.0171814334726657,1.330339603486359
1.14,-226.71223852591973,62.50557899385208,19.02597526252808,0.3263405561984184,0.5916317332547646,0.3856351992868128,-34.38413964656182,44.69499221152318,182.78434581604296,0.3225367661531326,0.0926829066894324,0.0302592857402832,-165.20456906223367,3.780583470374261,5.1073051398218965,-0.0113119271771691,0.3369596388223431,0.6622903926027104,-347.36422321317053,11.088696209303455,7.47392831886687,0.3972540195566666,0.1864432572254044,0.6929503940598846
1.15,-226.12979575734155,62.51090703497744,19.452287288841767,0.6189903931333094,0.5963977975130742,0.6923520553156665,-34.041189979823045,43.30391799758265,183.4154508711037,0.3317995887727142,0.584085614093514,0.0618200816966931,-164.48563016933602,3.6448013359023417,5.1584130826661125,0.0825421454554466,1.2334074092315763,0.5303485696050292,-346.2004608990274,11.22116844491952,7.059735590063669,-0.0081915640292583,0.3702713264849053,1.046060191540927
1.16,-226.05629800065955,62.05800605383343,19.455186154999023,0.335802151788203,0.1529754087398021,-0.028873933674311,-34.58801307759667,42.55188299490391,183.1942890630778,0.2732319406804411,-0.1350882906682426,0.4278863203197809,-164.05698421058597,3.988433556478956,4.791724716727993,-0.2896537549489643,1.1636525026880966,0.2034389792519546,-345.4893816466577,11.04206812686451,6.985726020727344,0.2663626872439565,0.5807793535151521,0.4776064471630882
1.17,-225.73210765028205,61.89348707023398,19.554875063223854,0.2763367895646371,0.3977850085923071,0.4166339803822962,-34.70236719694503,41.415879970111696,183.07387878284504,0.3596727778547691,0.2788361853917483,0.4131120213763415,-163.6769807554635,3.993071697850597,4.81285960598895,-0.0806654436644107,0.8502423012433548,0.5833537298047942,-344.2758774126982,11.249382422195138,6.731199133996096,0.3235627459023061,0.6170587811697644,0.6835782596778408
1.18,-225.69863686524084,61.93936229527088,19.936921469860053,0.2246677703833417,0.9860773213412496,0.2624348093199227,-34.972288355402995,40.6280211826842,183.00190893801548,0.5037025704035082,0.3772427592022991,0.1950460675264638,-163.51021757610653,3.9088317802270094,4.605307191174727,0.3365541638623846,0.7877622231394957,1.0890812885451493,-343.24340901117284,11.429361523417583,6.388223534399231,0.1903755146547569,0.7358558826222246,0.8038510737467297
1.19,-225.4971218611696,61.94342896925415,20.25689304987622,1.4717955684839772,0.6678661323105689,0.4543169448009778,-34.69891723811575,39.69544345727709,182.9935549147529,0.8016696111570487,0.1772778590834068,0.6935236442201572,-163.0188964715724,3.988894565917229,4.541041260075801,0.4581510651701999,0.7741531418931114,0.5776050740596352,-342.4284070751755,11.48668646907139,6.200959129348237,0.1553446572151775,0.7882062560387109,1.0514905488814987
1.2,-225.3635960666054,61.9176026512826,20.22159000189676,0.6272106530471158,0.18203671499402,0.4648386718249759,-35.0113403019074,39.04891271573219,182.69768738381984,0.5914123271280662,0.0189115602480888,0.7722699598882394,-162.79228744909432,3.946401731430917,4.853511659714956,0.2506436749583169,0.3714105120860091,0.5733717419225991,-341.24000685317213,11.275621173515356,5.994768225194656,0.1977278028407911,0.7726261050843071,0.7738372720358434
1.21,-225.31378559861545,61.81023217434145,20.379583109826903,0.3500947121049329,0.1041783569955474,0.6270320611096604,-34.998287827505564,38.76852450846107,182.6293607786812,0.2364012772031242,0.2552548547218953,0.0620971111967563,-162.90918846652335,4.014091991054956,4.510391784089937,0.0534981168657841,0.6003689923528343,0.5282806440322632,-341.3178662105637,11.476228334385494,5.954239922439429,0.2934633277596174,0.549611841024108,0.3262667951518523
1.22,-225.19228162541157,61.8658225949435,20.546095864997337,0.457375046081195,0.3164768785901043,0.4519688476008831,-34.931687620480915,38.164481756354014,182.2360327208508,1.2185021600660293,0.1481816670406695,-0.0302777623698501,-163.60125270090035,4.08404116396577,4.683525748896421,0.1896708981661754,0.3465226825582502,0.4620230718281131,-341.0333750173311,11.335327812654649,5.831259595409471,0.2386545157321265,0.7987930250538601,0.4470390371389692
1.23,-225.13199986327177,61.66835262928118,20.573093266869808,1.0886453750416674,0.4300504337118488,0.3859599342546783,-34.52095701377105,37.747243477085206,182.6997645968769,0.9617916709302168,0.2221173620246346,1.0169610209547808,-164.28703694789056,4.030488571626826,4.5695520512674,0.4561330047330522,0.0179857160489076,0.206444873570793,-340.4341065977282,11.251091365835224,5.956029607744188,-0.1539634968863054,0.1703613465946047,0.02297134410853
1.24,-225.40455892407425,61.61691895877018,20.724643511263032,0.6777064597559052,0.2430088005843446,0.2580784952583475,-35.06500230231656,37.45891678400416,182.5788099323941,0.3999552241336261,0.1945527318275768,0.8467476196183469,-164.98226917508532,3.925304371249995,4.676206606829281,0.6256954254285787,0.0303140548671749,0.3685927373345514,-340.1861531252429,10.611351561453754,6.274642353521989,0.4396168766681825,0.1182448649572734,0.2301203715377372
1.25,-225.27267791461253,61.77301537133411,20.530510183615387,0.5681772432549166,0.5777001572921088,0.2370175590158574,-35.09498722992707,37.063771929362005,182.2806464188817,0.2603840269533569,0.137685301174977,-0.0238488767598355,-165.0812841947951,4.086799878256048,4.856524011327505,0.4191551603330696,-0.0015955068863779,-0.0517709617940198,-340.06999552831286,10.248344677719889,6.5193830530340975,0.0292473794318714,0.2930272871228564,0.0067979011434496
1.26,-225.000287866633,61.53285896671676,20.767516213093728,0.5486442718726726,0.3937022207412411,0.360844031126721,-34.950182618512066,36.703375311703496,182.3526599574857,0.1833100852153992,0.1647107738786219,0.0840574073949874,-165.28166563674446,3.934015739728373,4.754899165103784,0.3334609295489479,0.3261963193505685,0.2085226627403533,-339.6854641276066,10.043810226043991,6.612198627606193,0.6065538961948139,0.5630082003487309,0.1909455968868454
1.27,-224.92275059859853,61.48233981043879,20.691620586907945,0.0376969455886081,0.4116546774071601,0.5752117463840858,-34.94988538509628,36.45739410971046,182.120938518714,-0.0541264617872774,0.1316281846347509,0.162181081866692,-165.53545734112896,4.189864139967108,4.831934438056935,-0.2571501104699271,0.7931874271587799,0.0917856873710469,-339.67808428170287,9.984688826069489,6.664985074092073,0.4497667233178519,0.1872105836661037,0.0787521653187743
1.28,-224.78653445053675,61.754579404056685,20.64400264097675,0.3381573686101874,0.281406438282604,0.4658441111106668,-34.87803265246467,35.95394514750531,182.1529311663012,0.5038753518287535,0.5512104735130651,0.4241607015209204,-165.2394440038541,4.384778510153727,4.636439538022871,0.0126853291305831,1.0625032466357909,0.3323944275022676,-340.02042416758513,9.949256410873842,7.0786579129468565,0.1954144632960698,-0.1913545128851825,0.1390490999272165
1.29,-224.74844350655863,61.59835060934736,21.17113070956508,0.5107491539762896,0.0876288637072339,0.0602816445170669,-35.14618402666268,35.72104169627879,182.1056398838235,0.4211941129470458,0.6945415530686422,0.5320532353933637,-164.37629845217256,4.392188076038812,4.522896570425051,0.3571805543760795,2.001526187860961,0.4679931658435498,-339.7408913378709,9.686494535424382,7.263557253445826,0.3056904579016051,0.4308142961016397,0.6508227246597176
1.3,-224.4216354108466,61.738169843384014,21.207993057206785,0.267673456372155,0.3205901149649037,0.4267211373894618,-34.95002150482859,35.73453482282855,182.0933420230557,0.2938663672299876,0.347835922555515,0.2220270411698671,-164.77512456043718,4.316846238391493,4.590183830550275,0.3254293660784027,1.4815426207033071,0.8538219257863563,-339.805239865292,9.684123845472593,7.4845525214030415,0.1694493848655544,0.6432345995685417,1.0251337418623503
1.31,-223.8568007241598,61.80406804574957,21.501897830155063,0.2338991439631207,0.5307596943301557,0.4712974457264521,-34.846564597930744,35.67561219884569,182.20838265355292,0.560718152604406,-0.2132087831463729,0.1010747649865684,-165.0342320311421,4.339906596700028,4.398167136213932,0.0074256194974696,0.7884998927426798,1.114656407910222,-339.5670417891637,9.786844699024453,7.809028116636505,0.060356851194345,0.6837938851646458,1.291963579947909
1.32,-223.64412850256423,61.505126900772815,21.42766977730475,0.2939563813989988,0.0511577156756048,0.5776136737569026,-34.92076428574012,35.88312970548303,181.814450924018,0.3197109264053989,0.0373701555736736,0.3989878646605157,-165.67908736469155,4.245266236441724,4.141122740562298,0.7218284211934447,0.6896856664416176,0.8531977922722211,-339.89260611389284,9.963441062868862,8.303080618486929,0.245846479056112,1.3448122246801244,1.365540936986096
1.33,-223.9252095057653,61.336730524776776,21.25900467364641,1.0193457531324055,-0.0772106761882616,0.1345258905369283,-34.92413415269132,35.75705921150923,181.61840996607089,0.5498361501340717,0.2401783838499985,0.684780014560904,-166.41770158811343,4.100371855437926,4.028339562358674,0.4133391449656067,0.212776358398354,1.237590478430701,-339.9784639340752,10.10649270324694,9.045753426121724,-0.0170486884801866,1.225633302868839,1.4222873372894678
1.34,-223.84942060270112,61.26048398226365,21.57380826510678,0.7928671213442526,0.1553746236862568,0.6181225301506701,-34.78584573319136,35.61317295282702,181.8386200619304,0.3581321041612055,0.2355660376128415,0.9778658634697116,-167.2437465239452,3.9196573977009455,3.846677230785249,0.5239626173245044,0.035493499931336,1.0427605940068378,-340.49347715377047,10.9344135997242,9.84511384008312,0.8409055338831113,1.2361652433990404,0.8219970183775038
1.35,-223.7873131923844,61.14163748446021,21.26091304290633,0.8337787677412615,0.3311887323717257,0.2257767875040824,-34.535602258063534,35.9100013665993,181.59739022138723,0.6204355330533833,-0.0081346527980786,0.3106558707884898,-168.432324266128,3.5674404835913367,4.092815208866973,0.6466078386156221,1.272763267768971,0.7436929120559831,-341.6582273219519,11.068973542135,10.329514104184073,0.4571567994519326,2.580813066909238,0.8561084427056287
1.36,-224.46276340990005,61.67788548742472,21.433878455849214,0.4775455532528543,0.5490604356244644,0.8292834552821156,-34.610860822358134,35.87909576201867,181.63455823593037,0.731403125254359,-0.1649936524836378,0.4138226169109117,-168.9272113607549,3.276210450158342,3.8625481334282927,0.434831270250553,1.544454197709623,0.6725542056748509,-342.372498878959,11.359168020318087,11.538645774171254,0.3649071578957803,0.2015708239541423,0.9699157761717064
1.37,-224.20007172033468,61.51606402097677,21.168610108649236,0.6225970926106709,0.3698572636527444,0.5448493510450756,-34.64037289210592,36.00653563684429,181.24750115331813,0.770071843434468,0.1123330467545052,0.040924771093938,-168.85735385414162,3.2300679440849747,3.249827950559693,0.267432691401607,1.043185757806671,0.6490238246161183,-341.8685905172058,12.070532480228684,11.830110726512654,0.8417780270786592,1.923035735130205,0.7380514417211838
1.38,-223.680176480851,61.575025212124906,21.271207136732578,0.4760176474228736,0.0440830058189875,0.2025408739479406,-34.44956302255448,36.22339923074406,181.61123183030804,0.6529410987216117,0.1507539145855612,0.4490829281806038,-167.62821935701874,2.7469298345366133,2.987006144738961,0.2825814420623255,1.6783983821049393,0.7866371131538157,-341.4127179349065,12.260866639848208,12.337775672816107,0.3120877529753618,1.7875664079989113,0.7954299721646306
1.39,-224.31456162889705,61.92672433217606,21.015552219185366,0.8035507275212381,-0.1433222191549414,0.3426903031442735,-34.75299552977182,36.71787973386812,181.2388967541017,0.672742520531006,-0.1422698639224542,0.6335976866333322,-166.80555792903496,2.618420594512053,2.5460677545830803,0.2153275234397678,2.9653998409013465,0.6719442090023399,-340.98406486436335,12.683530390789368,12.396045898121717,-0.0915569600468333,0.1226136929838059,0.9139105687769916
1.4,-224.31279681429504,61.69715986398924,21.244735630357237,0.7793784605773966,0.0901644467051743,0.5906148232808034,-34.76976191545358,36.30409614413059,181.6923491553589,0.557924809711748,0.0052331669049316,0.4202557617034199,-166.24870311925235,2.0114045414785733,1.9148183000191896,0.5191639873584145,2.674249830600458,0.7917658140206671,-340.69479649108564,13.177032453850996,12.681454692284692,0.0605150319644926,1.1986776252247435,1.4888283031749172
1.41,-223.63838710660332,62.3010365216168,21.10992409202339,0.8567926978077927,0.4162412799758703,0.4949487658729945,-34.59617364683224,36.75037159415975,181.57378828453344,0.839354176217354,0.3399912882226628,0.6699439809579495,-165.888768367334,1.756187721241995,1.4685474603077424,0.7367695012402903,1.9251441131862663,0.5220921720604882,-340.1244971581148,13.249886561698018,13.2607383078264,0.5907852526962329,0.6901507563553292,1.2066404467021108
1.42,-223.66206693245616,62.63352612960704,21.33982304149489,0.6021999240938886,0.3342428344265107,0.3329562330886553,-34.535355586911066,37.19648040839954,181.5190260346702,1.0519882074762543,0.5542046989504086,0.5475994738188215,-165.9215438158565,1.052437663417631,0.7467108514263915,0.0655861676522158,1.5584993490513932,0.7845847594643536,-339.53138227879367,13.66035578691911,13.369912095644434,0.2094376387234733,0.5854056637066238,1.7660479343484208
1.43,-223.41242666743088,62.96885435973456,21.46079888029661,0.7362526015160603,0.1196623724287342,0.317138387657153,-34.44662655862724,37.499278714576846,181.6656250678413,0.6104793325395043,0.4841381463440224,0.4759403432335598,-166.02100590864012,0.8339840124303485,0.7464636215529039,0.2454696570193475,1.0212410198912178,0.768864669674023,-338.3260637421225,14.221764307372087,14.293879180570991,0.2409736867808979,0.3855388859570295,1.4512563035944293
1.44,-223.41342459923263,63.18688475996063,21.35931789480991,0.8400288543759722,0.0031368999652979,0.4136380677221101,-34.46456825415302,38.15534623806876,181.90642269657383,0.2427627544878354,0.3474110654439086,0.4680194031686541,-166.3067630732725,0.6668306596260347,0.9466739552531334,0.3527109435004245,0.8226201436826743,0.7036624527566899,-337.23779761894167,14.862257538488477,14.779649991572628,0.5258335628753453,0.3791129982204962,1.2411836679196169
1.45,-222.9349255864245,63.69851681788946,21.57661725310832,0.6512882224707915,0.1766089717122392,0.3596478286385224,-34.62817476606308,38.79596482275557,182.219596035797,0.1622164453197128,0.1756947570498246,0.4617616297718206,-166.3730140582423,0.7347722324718738,2.02666449834131,0.1594574066187982,-0.0153759894062937,0.891715535477904,-336.1538908910354,15.683166301854945,15.920481596657217,1.5289286588291606,0.6413329196999402,1.5274757621429158
1.46,-222.98404831322537,63.88357510292671,21.261367443206638,1.0351310045286382,0.4019129222778621,0.0946880857859108,-34.42017223835546,39.631327079855296,182.17216096839093,0.217169175381014,0.1124827827467835,0.6276391688957232,-166.6439585550323,1.432378755576033,2.809883878304692,0.2004118251830656,0.3904864299226933,0.5909165346673751,-334.8744879232692,16.58912201700923,16.377105106642606,1.796726165943208,1.1270805294628186,1.7641124646124609
1.47,-222.7823642020277,64.84403985895794,21.563892923493047,0.6653545948584212,0.1584861991255325,0.3980621761099714,-34.29255153449828,39.83931735082615,182.3117858409763,0.2865166786505134,0.3070675785259558,0.3402609397454207,-166.47291860731164,2.096174019485102,3.672888418594192,0.465448306891659,0.3415907712955084,0.4052051096578902,-333.422382492556,17.56479393523919,17.773257411610942,0.3376480039600699,0.2041326906412125,0.4547523440657717
1.48,-222.54071227422443,64.99926105997316,21.319674337553195,0.61059229911387,0.2804513612378452,0.1819538581331757,-34.22959932316636,40.62270265268869,182.6404140166424,0.351446344124352,0.070425836649313,0.5507366039293479,-166.43947414284582,3.08481537309898,4.320545776815966,0.4493457121307034,1.2584574399149633,1.294729805484692,-332.2242958292139,18.714089471798232,18.6688829367187,0.0245296092156099,0.6452826863149033,0.9032067159692332
1.49,-222.1506269890916,65.6160751180983,21.027847009877032,0.1050579256424883,0.0583953210068412,0.4669700390957391,-33.882886658505,41.48511358342654,182.59531541391505,0.4102089490135358,0.0256844943352326,0.5168576644882108,-166.08628320902366,3.9609745903511353,4.896034831652512,-0.1457381249676141,0.0899806896238642,0.2284387067038608,-331.4716608983807,19.877741414768725,19.72640759029364,0.8946515208260526,1.2158969268728788,1.8155408340168355
1.5,-222.1819233562268,66.31859212140873,21.18640409344992,0.5876664528409651,0.0637566698826054,0.2951242079828094,-34.29840233128663,42.34437260760735,182.5933182299445,0.3872311290179527,-0.0566498613540773,0.6529065980660373,-166.35319632266777,5.1275885230925295,5.635285195282772,0.2043854974950639,0.3107433776525715,0.3190380071258216,-330.4025485038513,20.47894981834789,21.10865623003416,0.680850955075726,0.641635022954581,1.2100652831786531
1.51,-221.8246153679024,66.64987508438189,21.123724421489708,0.4053079722557224,0.2281243714171193,0.2482944264789646,-34.25733703584975,43.169136690269255,182.5332816611845,0.5520613208179344,0.2081069818418889,0.0811039500640013,-166.3432070736038,6.186409538596387,5.99340558082307,0.2674649341263173,0.3898577169412787,0.3424225051170038,-328.9396221100996,21.7152874238159,22.458523216707015,-0.0735889543430336,0.9453543775950418,1.3312197487151496
1.52,-221.68830559757143,67.33772768085636,20.993855530369444,0.1630560485694292,0.0761171170822598,0.697491199539275,-33.9037425765235,44.07762812923511,182.6721835814768,0.37011631138315,-0.1550932534229674,0.4595905925718776,-166.07791770393945,7.274368354020709,6.983663493805536,0.5075709597663106,0.8003403751570284,-0.025469229130729,-327.61407225877383,22.848660489178176,23.66231115739691,1.0954267781154343,0.7252958864471586,1.022101122692992
1.53,-221.4054707494081,67.76722813016218,20.7930873141375,0.3522260752412818,-0.0201805832297653,0.2410614868322279,-34.34288749515908,44.821815505065786,182.7565846900715,0.5789853184352335,0.3633480606094544,0.4078765577387471,-165.88505906340495,8.32818579276122,7.409445842835572,0.3954915592160636,0.6942804739531783,-0.121705150599044,-326.46534143428767,24.14196205158059,24.945700368365404,0.9232702744934148,0.7208427340095331,0.7896774860232262
1.54,-221.41788509959065,68.72700455054887,20.921237575040244,0.7181823783928808,0.3601087792401929,0.0693461220132584,-33.737711493646444,45.955075922152886,182.8552965715935,0.9257209388273208,-0.0094999946766894,0.3294206859358745,-165.7243205021467,9.566633074255927,7.8373624564021585,0.6289735248332811,0.0518811774630321,0.6156595998914177,-325.88819853376987,25.116620586678003,26.61793709039037,0.3951168021139184,0.5395710692851942,0.8217731297081056
1.55,-221.47708180011287,69.48375409185739,20.49307427727299,0.9067098405896948,-0.0562087442365887,0.1494980409806827,-33.523584000178595,47.32026470956521,182.74916291122497,0.4459853053039856,0.0120515573882769,0.4153697215004481,-166.1410892265136,10.752336853896177,8.340750700985572,0.5297737156502924,0.2311190584179332,0.2839788717418151,-324.743576911106,26.188972266019107,28.180342361008115,-0.0354876255367892,0.3811659324809703,0.6855474122363495
1.56,-221.37375694130276,70.25768922056938,20.00531752403353,0.4717861966055534,0.0512225891023928,0.247829209641112,-33.0332338637131,48.29094531426576,182.9999033540376,0.158996492700621,-0.0534006313477813,0.3465401985461393,-166.20411403235232,11.911136012949616,8.302474056332967,0.5786897887770555,0.145964840351817,0.2856659582033669,-323.84628102131234,27.632768898645857,29.80291712248474,0.1100276677959029,0.9967135930283793,0.6753523872717122
1.57,-220.95899351100627,70.8975594917761,19.64740225986444,0.4761776547121295,0.3877202149357897,0.5703691878368402,-32.37241977908267,49.54400718660457,182.753297761998,0.3446110151192745,0.1110763519546056,0.3885819786173778,-166.4811161385806,13.15905854808629,8.51152123406694,0.1199367189520907,0.007297740654943,0.1405572364710506,-322.8837171007057,28.922958058607986,31.133118175147768,0.0471773210428367,1.6650376979805015,0.4347473803311732
1.58,-220.7030400990054,71.6524269023391,19.81379610453895,0.0653777993243276,0.1962551881379813,0.0972624651789602,-32.12389833798089,50.11426829735501,182.63289964812492,0.1455607360359201,-0.0928486025711713,0.1119020765042684,-166.9161093730542,13.809870282047354,8.450438947165765,-0.1054942874938854,0.3666911763057036,-0.0001776496969306,-321.92470864693223,30.098544189952023,32.721556739173,-0.1099959317662622,1.3629186832822715,0.210373419414761
1.59,-220.5115638945051,72.42988650952239,19.400747463333843,0.2263323680955661,0.2111141155961615,0.601348224852071,-31.61421199593285,51.54455068072901,183.2826248730336,0.1558361962485666,0.1553403804360266,-0.1566418545097982,-166.90536305669195,15.43873776697155,8.244988859216944,0.4199098907167752,0.5711402074712278,0.5506682812533834,-321.5625035700197,30.39576996008306,33.3410204436622,0.9160812660765324,0.2867493188540123,0.3647403980500633
1.6,-220.05011792592623,73.08609568753137,19.49502909841584,0.0186760750922861,-0.0437551908639169,0.4820985604227979,-31.06115073783604,52.747833856006885,183.1593162314882,-0.0841521246765465,0.1316071478827229,0.0319715330466069,-167.78892558472472,16.642582696133122,8.035004330483615,0.7488707938035013,1.0469833586263315,0.8189458104254193,-319.9476605172234,32.82721745658024,35.97181744536539,0.8892304062714892,0.9911587613300216,0.1447382707501223
1.61,-219.61770109841436,73.80770983799037,19.183860063943964,0.1645037027240254,0.1974555041866113,0.0493859920820944,-30.683527961230048,53.778239667473656,183.17239492365425,0.1018035792489495,0.169864103678769,0.2846447713808238,-168.241520926785,17.759778309980177,7.5424188792720095,0.7943515649528261,0.8597493497071752,0.8679019029718217,-319.4503010864296,34.23382482640907,38.11699036752595,0.5343070838053096,1.096181555180556,0.1979644256667855
1.62,-219.6054719802396,74.58318109442293,18.705136061935164,0.6281062537540087,-0.0879556244918951,0.1893924969107318,-30.346519698024505,55.05985096711419,183.1762685399892,-0.0172327552677867,0.0360756122956329,0.3056630341451701,-169.2497223347902,18.78441016562974,6.328460782289417,0.4696646645600764,0.5272953185286035,0.5707764810251239,-319.0450093412357,35.54900350616345,40.2598149859589,-0.1510345109190074,1.5089367496623574,0.6454082427073646
1.63,-219.84280241775096,75.71473353377378,17.659545891625022,0.7813302222182502,0.383693893549931,0.1311884092198809,-29.943364927976397,56.895429895173145,183.1752797279442,0.1134493364428421,0.1694925551035714,-0.0506625077519393,-169.1239484979701,20.16188511225274,5.144681691243118,-0.0076300213081586,1.6242255678441857,0.3784442546219952,-318.5363589303563,36.93097573189809,42.30101825500931,0.5423685732838067,1.491826449762441,0.9417983423354408
1.64,-219.92596543706895,76.3538440674405,17.23251394394498,0.3124836894382599,0.3470190594096487,0.4523259097191439,-30.00634347668598,58.13396180236747,182.9072485690853,0.2910214104763213,0.2972053267812568,0.3728803721340784,-169.90562354989083,21.56346121210589,3.6524345489064833,0.0212556843755935,1.6093335629876306,0.2955387593963227,-317.5938536265589,38.44761428913554,44.27050355819413,0.1356814375232894,0.783546526586422,0.2052655182366504
1.65,-219.4817267356244,77.30405727611947,16.572954760334362,0.0747965270144137,0.1211372941477175,0.521971518291678,-29.73651507362901,59.71895152947148,183.34380559258108,0.0754062651199078,0.1736585599230951,0.3760894159170133,-170.15273350291164,22.49570748725678,2.45196353943573,0.1584514706039205,1.1548210304136557,0.2920042051265429,-316.6773706508374,40.205029305965866,46.12307816368133,0.1775491653720049,0.2741026982467662,0.3507792084489279
1.66,-219.39734008104608,78.12279019678817,15.78920869047026,0.1675909298082251,0.3231982703031018,0.3189071700862075,-29.38400523195672,60.84050863722564,183.34350194337148,0.240361187458181,0.3473015728700916,0.1212229696373986,-170.30994371955458,24.048276947213573,0.9171255946041112,0.2522025994766501,0.7353956843965045,0.3713086631669486,-315.6084165419488,41.60933735228363,48.201718881060096,0.2171375341461776,0.2880808699368836,-0.1102689894028258
1.67,-219.44181136464937,79.02143394914494,14.814392292485108,0.0270591534770909,0.1645897870888693,0.2239085663698227,-28.729814841048817,61.785834196495934,183.34228561254932,0.1432560909858513,0.13279119787609,0.395303683117701,-170.249557495569,24.94536512202401,0.6206703370216449,0.0104462466885024,0.8202513143659758,-0.0088651679627411,-315.02808634643503,43.17348375911445,50.7398740925174,0.5638045207357181,0.3512260060554604,0.2269967077422344
1.68,-219.30776449484588,79.86042866074106,13.78200175817971,0.3369798836536117,0.5211022814975272,0.4306707384992611,-28.87856450972912,63.43910454448542,183.62694062654623,-0.0458650865783489,0.3266018292642174,0.4152466674401162,-170.49328241209562,26.18830143572239,2.2388261960158418,0.1771560144283,0.7341170518702745,-0.1065273120628161,-314.4230968606511,44.21923550085242,53.01220336642992,0.3319358267231146,0.4257107380468394,0.3204144992583985
1.69,-218.9242417103636,80.71352455429093,12.535346944532604,-0.1887807516333746,0.3725162590849949,0.5313039607992017,-28.757053765600418,64.9215558728778,183.23602401245515,0.091866339742926,0.3406216563796282,0.1851879433664199,-170.49866046876917,27.34263620649721,4.08654276989114,0.3186626273748956,0.4999549021166133,0.0511812522133137,-313.55218392146014,45.233928062542766,55.556428458998425,0.1983258316076005,0.59872671847891,0.623109393111704
1.7,-219.0244239139016,81.37626585350172,10.934672595388912,-0.0761842692226236,0.1569817520518585,0.4530207687147518,-28.643934992197213,66.23330722302755,183.131860353926,0.1294743597749999,0.1833663683749421,0.1510779731996939,-170.6877793790589,28.313304174767165,5.888782898209493,0.4347760607886363,0.5332039251671987,0.0958785763964709,-312.7315629630726,46.5125648172975,57.70646683910845,0.4357019818188088,1.0985548262264058,0.6927253610345506
1.71,-218.9995354050287,81.84325574925724,10.347452333261227,0.0749210396682101,0.1293993405298456,0.5452531091124723,-28.57572205874653,67.07066331701381,183.17957801395627,0.02792380830101,0.2401894679813002,0.2894070559594996,-170.7492630689951,29.24521356651438,7.2773714324020915,0.3895961714840628,0.6836947337563983,-0.0975921051359918,-311.9650794432759,48.01847171932906,60.39122082718155,-0.0902981154142667,0.895297463358954,0.1478276445605608
1.72,-218.9974282979822,82.72071264763096,7.945510525713256,0.3892272221227621,0.1287314976939031,0.6108699541382181,-28.462220234040828,68.38436559612323,183.0934535144659,0.1688593680329698,0.2385693360461063,0.2556881125359855,-170.92030413996025,29.80964437023304,8.705053712944908,0.18881515566627,0.2548290917212911,0.0615568640490052,-310.79503372288525,49.07202861666547,60.456790719419,0.3036432641832766,0.560938836787213,0.491860400246511
1.73,-218.9191987757161,83.28805566174414,8.056331693313345,0.2325335631627459,0.1506419184403535,0.6159199980397093,-28.12339746150512,69.51784658797058,182.88831675831503,0.0928565098747079,0.3885481703339201,0.0154265733429531,-170.97902675713252,31.32315542414613,10.931936951970604,0.1819993509160709,0.2223256893899491,-0.1208789152556219,-310.119731273758,50.604730104799145,60.40056407252432,0.2591822818566612,0.6364805151908814,0.9084497148633188
1.74,-218.8510576950025,84.33680195580668,8.036524990844518,0.1249861251982392,0.0731635684610636,0.7039586502512194,-27.999767478176032,71.04346125057876,183.38074740685784,0.0746444429079516,0.2499186946463605,0.3420708147850135,-171.48148377227722,32.05339439920928,13.293537131757816,0.477671560130909,0.2763722849734712,0.7835120209900089,-308.814658610048,51.00558122606532,63.534617270075685,0.2312920247865467,0.3147620729955078,1.1903443149524089
1.75,-218.65702216944263,84.71706472971712,7.884430452117933,-0.1546591852290058,0.0432050889385013,0.5615477934800523,-27.81911485095921,72.2898670799123,183.22404600633564,0.0950843726833335,0.1835116166541275,0.2340978217058732,-171.30211525637037,32.95064477669133,15.42982699823263,0.4378070377664322,0.0954833369383701,1.681211401621865,-308.4172930741395,52.02501379517442,65.65175114903883,0.5170191349058211,0.7278370778189052,1.0503844513255909
1.76,-218.75079387628148,85.00440321466405,8.032726081377008,-0.0470841305334425,0.253869305018118,0.430945242063872,-27.371613788673333,73.53556748159545,183.1833299425216,-0.1142769692582852,0.1937858737870748,0.0303772563032756,-171.5457278368447,33.7851027636597,17.401437628031243,0.6603864469586682,0.3113728253063627,1.7435505777597078,-308.51880577022933,52.709480599447865,68.13247160289112,0.662622530134379,1.2093455699956042,0.7232270617789858
1.77,-218.568748055329,85.4851322600495,8.011410917767387,-0.097502250785781,0.1592344536221231,0.1378840503286466,-27.12244007875019,75.28687193610021,182.67172058681223,0.359449996305186,0.088770347918276,0.1650531344075517,-172.42181750751095,34.84878678740567,20.207260521108367,0.977803017845398,0.5815948082424502,0.8261204561308721,-307.14762552160835,53.9373836002787,71.0291154962475,0.2736139906163368,1.5923545596719302,0.8632116135587166
1.78,-218.2974663620944,85.90702179294966,8.192309117605209,0.1608141854740762,0.036514101460689,0.2248565469593124,-26.57180473167346,76.32673421102936,182.76589611307205,0.6024799583964322,0.2047200644884773,0.1872781243180687,-172.6235278747734,35.86810703725803,22.682189512166644,0.9973716373802044,0.732004415371701,0.1269665516104717,-305.673397715748,55.10640832022784,73.77228161837714,0.4830787754922683,0.2971496112408305,1.5843937692506191
1.79,-217.94321232738443,86.5910585172784,7.908402377861663,0.4370651915318528,0.166161600883585,0.4420142999489631,-26.37841430060122,77.63742364475804,182.68527051347735,0.2627589474625054,0.0192424569037529,0.7091017927684382,-172.4369114198728,37.17439068431788,24.697401860588357,0.8938193908587643,0.6508488427717684,0.7736139625332126,-303.84401103312894,55.94728003048096,76.53825134288091,1.2127032810384968,1.0298125514254612,1.7260509385579206
1.8,-217.67813153182925,86.91600473040297,8.146242423694668,0.0210361748613257,-0.0342813022872995,0.4156745886092189,-25.679209949265086,79.01069340420676,182.46536220591383,0.2654657320613715,0.293039591145171,0.5351036075191276,-172.1434067961332,38.55786718411736,26.63744694083517,0.370658130146346,0.0484853614047826,0.573777869119443,-302.7353963162823,57.207539673601815,79.43192554524374,1.2520575170664956,1.1724736542720366,0.9412496106931406
1.81,-217.7982370678224,86.97606960334751,7.965554678495187,0.1004482010350279,0.0140852875016664,0.0928861767114196,-25.43683498787333,80.10285996041752,182.1933688833673,0.3458914198224705,-0.0067917839138135,0.1801954713140502,-171.45234856684917,40.2062640134191,28.29355082384899,0.1251485201754571,0.7097438093712652,1.119782175296834,-301.37020037761613,58.01004076994269,82.25501351439166,0.682867445040253,1.882112918980105,0.8821277622569793
1.82,-217.59279516257973,87.460951383668,8.095120964162584,0.2086881669193508,0.3896129404697548,0.3108267575314966,-25.186486110442363,81.25338722681666,181.80144810693832,0.213346408150019,0.0066194982014329,0.4142125937820529,-171.22434457095005,42.02520801895365,30.444670168203373,0.2368628762888908,0.292226437110249,0.8142490582062011,-299.4266740654137,59.4762762129613,85.6514695131859,0.4605129405861845,1.539768447443751,0.6967873815664603
1.83,-217.103593488236,87.65616594501593,8.203615997218085,0.0498647812483909,0.3569565480261698,0.6446736306186933,-24.846986880010235,82.40254207560886,181.41666293749665,0.0443498749076865,0.1823267704701661,0.4384987627194169,-170.90728166356132,43.68472310413069,32.42907129093701,0.3449921278884722,0.2153199963760681,0.7539842279417428,-297.6116967982007,60.6855224715494,88.67659514894505,-0.0996570512266171,0.8787669585064444,0.8281047669840025
1.84,-216.92731972703032,87.8721780315382,8.302754372282767,0.0470977305648657,0.5466173213102202,0.6082629498628775,-24.41133032685624,83.24018012933954,186.3296119554076,0.053897103989418,0.129596407369669,0.4878008105314994,-169.82825364188727,45.17338765365175,34.50878492470986,0.2944599000411206,0.0655360336819034,0.765149591523422,-295.32014460273285,61.63415695267864,91.85380248127356,0.3410843885272608,0.1705504014366186,1.5055557170189204
1.85,-216.3507410858176,87.83701118756925,8.143362294140642,0.122506898755799,0.1384953999997506,0.667016706635184,-23.61391068265212,84.05694853361501,186.3979785375756,0.1337518102560204,0.4859931273603367,0.3113382559448068,-169.42590513251136,46.94371916399309,36.85338310634629,0.5109008925107715,0.1637330735439019,1.008223218050942,-293.5239051315655,62.72563218868946,95.08975139329996,0.0711121632296824,1.4735656347518389,1.9821509950169989
1.86,-216.1355097644912,87.851862566003,8.326509622072159,0.0791637447322946,0.0901598445941227,0.4348875526982139,-23.296992849125832,84.9023996968488,186.2066779605812,-0.0553243078176395,-0.0291987024261114,0.2472306905845095,-168.73880097188112,48.88351303126529,39.11797661162405,-0.0127762738742474,0.2980121666763566,0.7548656034813166,-291.9091176738106,63.97363866897666,98.48622366087936,0.6883115989686092,0.6596676167233836,0.9725161252753984
1.87,-215.77122605630825,87.70057087129229,8.078836417408528,0.1885352725628794,0.2461253073877111,0.2763500057993276,-22.825771406134344,85.77430933165492,186.2518353998052,0.5045575101285058,0.6050168718294672,-0.0481104359205993,-167.73259645036848,50.41571255718217,41.329332182137726,0.2321842254475332,-0.021089996464949,0.2305224882448101,-289.99264110204507,64.81952952762887,102.03099890216424,0.9558371895929793,0.8025822608428556,0.84338910975254
1.88,-215.2290573987661,87.81434913420992,8.386267884283559,0.033529800368796,0.2176710768066745,0.4328950653951242,-22.370801398907982,86.39417073556056,186.4115139890698,0.2148023691861274,0.1831214341909789,0.388930505586753,-166.8032053757573,52.17580073303445,43.52224268210778,1.7998380271686951,1.086008086977917,0.5959353874432217,-288.02252633167774,65.80866830214002,105.22329427868894,1.145371103069453,0.2777174497860125,1.19738299889903
1.89,-214.7220061980917,87.5159324326843,8.028881394257747,0.1473238278659009,0.351918684723442,0.6303525691401318,-21.837647592807077,86.96757930526464,186.25825792301345,-0.0809420642874325,0.4594107740692712,0.1608892999226929,-165.47809523460535,53.970838538552925,45.337372346394105,1.8613896187328365,0.4532789589464951,0.7991327434503559,-286.5617036997167,66.56741293875933,108.49980687943348,1.46192710888672,0.3654535287002963,0.8342866225348161
1.9,-214.43991888665448,87.53582307337943,7.941043320431808,0.1137844028001979,0.4152111556913888,0.6052576784466479,-21.52287747428531,87.47198857106619,186.3334935176605,-0.0163276502407583,0.1992818281660715,0.1231935599675924,-164.00770261820762,56.07806333351635,46.86800454367464,1.1460623537392922,1.41329369266541,0.8635945964501438,-285.52237958365595,66.7045671682535,111.5604882115555,0.5959377564685252,1.95069756563062,2.441075096088463
1.91,-214.1651989163176,87.63614528028504,7.683416419467583,0.0047216422251186,0.6200898373819758,0.0609344163220355,-20.9798080796626,87.9176039856488,186.11936192234856,0.271440874550177,0.2659874027219257,0.0254831170166303,-162.8381779923461,57.78024064088199,48.12142304107618,0.3813351481307668,2.300144196999608,0.7124280765032421,-284.06810058458234,67.12778074867792,114.09221436103611,1.687127704498256,-0.1560209418618011,1.2225810417297207
1.92,-213.7920118148612,87.51785245865291,7.660503521355899,0.200349048799822,0.0154102352311185,0.1660232590081543,-20.686469209060395,88.47583652110129,186.1941491806045,0.646477433555528,0.2092364095682273,0.2338380132311472,-162.7174337369748,58.15508536212588,49.58269979208798,1.6413682628726098,0.1165767515358303,0.0790187410283768,-282.4189902088433,67.98116802596711,117.5706216329057,1.444995628059473,0.4067983845196441,1.4038397226993111
1.93,-213.5467485587066,87.52280614230915,7.951066286147418,-0.1823924227413514,0.2602596515400772,0.4550024387998556,-20.66589552651432,88.9254375585731,186.1264583161027,0.1659085624001509,-0.1730199505306804,0.5081740476635634,-162.28424147155954,59.89446335923614,49.71656266650292,1.2231967759893017,0.5719213745349022,0.1710861475102839,-281.46935114294934,68.41219312900498,120.61587540990725,1.1900541770580906,0.4981378467913077,0.9003592537799853
1.94,-212.93102373942108,87.12524909891897,7.519761036266907,0.3184117009148978,0.3940712941178584,0.6728009876197931,-20.43979059591485,88.98233271016564,186.14359027851984,-0.0546420689991602,-0.027163581180073,0.234688479633951,-162.00250750800456,61.66128955683896,49.581098538142825,1.120793539706279,0.7697954005386747,0.2194096563457538,-280.7730490036984,68.42190918004438,123.31840134860226,0.8912121083546044,0.63817851164432,0.9078956706805912
1.95,-212.97354900290537,87.19637158442308,7.636599660613894,0.3051125855395936,0.8538470817772557,0.2780702739556827,-20.25224840011824,88.99353590402112,186.2032439307048,0.0476103369259861,0.1979301185275626,0.2277487152236411,-161.6815589928407,62.0525127011308,51.70773541103338,1.204953168345394,0.3611459165507943,0.3163653194746431,-279.8477631233176,68.30404909432973,126.1695570933135,0.7003257275877757,0.6426238006508294,1.12045791158117
1.96,-212.7769274966022,86.86936278971902,7.556814045083898,-0.0755314436678573,0.9696768958724136,0.237667775069997,-19.833968163710068,88.9114658189081,186.10205546720192,0.4511767862474554,-0.0078822870420871,0.0378343798157906,-161.20603596649337,62.7085395476771,53.98350242281905,1.6911205902675617,0.1547243713980683,0.1579205305885245,-279.0140668684874,68.15796380053006,129.3863523353987,0.2872396872065786,0.6426173184003899,1.3045446633623945
1.97,-212.72477736526065,86.8872393053426,7.466296095898318,0.1288627846968647,0.2648360512871748,0.1082231417117644,-20.040723806764,88.91106442608287,186.1294954587976,-0.2593816433500004,0.1560888015172787,0.2707983218427118,-160.93698115964784,63.33611367596402,56.894078030845705,1.049565396332859,0.6175504827985808,0.4302426206939823,-278.39783633588223,68.30525175396212,132.18164191959713,1.1606614271861806,0.7961644880574744,0.7772125671045353
1.98,-212.52101434531727,86.86692410220257,7.270541345724678,-0.0050476949792452,-0.0522264361007048,0.3118523439709325,-20.287528603789728,88.51743622206831,186.3143187967672,-0.1384276247820433,0.3266711141932208,0.2525493129287214,-161.23225793784357,63.74634940305202,60.01662059644744,0.1835228133025817,0.6161128367983137,0.2614302894954107,-277.6218075178396,67.70661498631875,135.91321697052302,0.8088444617576829,0.1948582143945188,0.3970554405167336
1.99,-212.11160127126084,86.52064154655805,7.413822463362651,0.5392930862520388,0.269512891813807,1.0213294085002826,-19.812492632582607,87.87882590272633,186.38989258015923,0.3221844707974522,0.4461042491954303,-0.0867287081304543,-161.53481420125354,63.91225819350943,63.66644072811791,0.3512470873808544,0.3225701382776683,0.4040650132203719,-277.57594095225375,66.57400814614101,138.09055297199444,0.709034668317702,1.616886565387578,1.370419246081986
2.0,-211.9890531302204,86.92940802646439,7.174048595955818,0.1454017299589802,-0.0027876049266616,0.6016240787426579,-19.58036595642381,87.56826024884802,186.56156960377197,0.3043639359287401,0.37753144592241,0.4666471867626416,-161.7147106931103,63.71161004520108,67.04542848031686,-0.1948696586919295,0.8206273767957164,0.7766840898613615,-276.90618566124084,66.53468951727557,140.57294937838105,0.3909290667903747,0.4083216511158027,1.3052146745824758
2.01,-211.79189472929036,86.60315680507819,7.169584877211371,-0.0759422869693855,0.3671448457681189,0.369008412724183,-19.707321173335934,87.28255290886639,186.63626259964488,0.1545807702634528,-0.1236634184403766,0.2913545536350331,-161.74370421804258,63.51436256620456,70.26754347595843,0.2783111285610226,0.3211097886637313,0.8172140989699286,-276.6764363832861,65.9002835706288,142.84084935282792,0.1332477115041668,0.5717300489171165,0.4491578960290448
2.02,-212.05542780168287,86.69071024278367,7.22204033191547,0.3143742019669718,0.3478367432138352,-0.0907314159363516,-19.695739101777225,86.97773713604877,186.76389621983424,0.4883513039967928,0.3526897811631705,0.4361783022117529,-161.61881783180314,63.77323136238318,73.46659352761802,0.4239207082500714,0.2061044986375917,0.997537379996069,-277.0997799290226,65.66797532410642,144.40006730539105,0.8849113914896987,1.7319237325624477,-0.0685418307560784
2.03,-211.6738690987732,86.38901214292564,7.087260098075462,0.3501553287279102,-0.0547322959543493,-0.199259554763916,-19.57741080128347,86.67847274056216,186.7946957494935,0.0317344893678125,0.7011208923741211,0.6350011182444653,-161.10524800500298,64.05448243575053,76.35837115289523,0.4640791824050053,0.0322932269582115,0.4547826890690295,-276.5630747858052,65.14238712013983,146.04976413799272,0.6865141389724986,0.9638172290109316,1.1717035955310229
2.04,-211.22219098460096,86.1142497198546,7.062940965416258,0.1358269801493177,0.1203082316601657,0.532306337141128,-19.592055275377906,86.53702221660645,186.82845440701504,0.073496777296674,0.4919148191377256,0.1410844205776961,-160.91563863169364,63.99065679192544,78.89362553181968,0.5379371851770935,0.3228067923901533,0.3434798024567339,-276.13546974195714,64.74521118183159,147.56082337018145,0.2905618291133327,0.3488284700479176,1.7992315796910106
2.05,-211.1379640283521,86.07305174916907,7.016468767644581,0.2986357747318874,-0.0639401207411414,0.7915303157414934,-19.39646834008005,86.0321959426324,186.5426211871878,0.093925384647478,0.5371265821358854,0.3044815623410211,-160.86260724818132,64.41225160035742,81.71652639491364,0.5083428993101883,0.5202716079690155,0.8953009151894687,-275.85902086357504,64.2818532704523,148.92027670476807,0.3240719327470446,0.6310228406017604,0.7426284296509023
2.06,-211.36523952117747,86.13608747168483,6.680672892075674,0.1639057496837451,0.2021924913589756,0.4208738757306414,-19.814064544478253,85.8605428558735,186.83154673613916,0.0384589107631386,0.1767739755767967,-0.1434520428343001,-160.37301289569635,64.22622254281147,84.31011316025975,0.3495716645170998,0.2460609180741911,0.635983760509667,-276.14523755338297,63.679311497753226,150.07032511579118,0.8074063870140044,0.9384155551731056,0.7205997193711565
2.07,-210.99174825910427,86.15145561228495,6.762015068945019,0.0639373358341903,0.1125912286946942,0.0887388210250497,-19.429422720565935,85.59826288987834,187.01226780039212,0.0499127108511471,0.4056277387471602,-0.0226766955610505,-160.06779346734007,64.23721889049642,86.66177270066586,0.5102813338485603,0.4767919310073364,0.1035502171623642,-275.7759225540463,63.29508092198457,151.35055877575795,1.2546201242389876,1.4475754220285952,0.1268592109475368
2.08,-210.87264342244745,85.85363399896139,6.887262578890977,0.2670902249208237,0.5040720261272301,0.5601488960746404,-19.52229240157677,85.21876572179644,187.2850411236005,0.2769400867740492,0.3046871835559442,0.2343581362720552,-159.0684334268085,64.60355270147465,89.119366749589,0.3224548316309147,0.4514355825799365,0.0455084962223478,-275.745349244477,62.91839460879965,152.7301629989417,0.9969059433021238,0.9610379298931252,0.2099004440465089
2.09,-210.6733281397673,85.89587078969097,6.454425829121739,0.3387951509539594,0.5082345953820073,0.3826410216595867,-19.65612519438268,85.19195730759196,187.15451030361663,0.0124972556235032,0.0785247733831307,0.4248229019159596,-158.19411293523424,64.98636030907066,91.7518289965468,0.3168244861338134,0.5269611263899788,-0.2085794719493612,-275.3641246479087,62.28770641783276,153.92801546342918,0.8083880616304202,0.1209454440777687,0.0499059871905787
2.1,-210.6803652051998,85.75033014385109,6.654741893486316,0.3899675610053463,0.1877896306378747,0.4484996039821385,-19.47492949276401,85.3074910429253,187.1789109422546,-0.0281735121959619,-0.0947206231269452,0.2135935862336608,-157.58609657692216,65.43237654904972,93.35145188419897,0.1599661026649539,0.0128974884550658,0.2324433512756553,-275.6863055904208,61.94960824260411,154.70192466250316,0.6040884743418575,0.3966632925484972,0.8206712462557413
2.11,-210.64015576084188,85.64675337612351,6.491897600564406,0.1620320057185515,0.0299401313880461,0.6367852924292076,-19.624495985065515,84.99735937820294,187.20932177671864,0.0950602116972957,0.5216317084627174,0.5606563438807721,-156.83458623461732,65.68844955445269,95.10182392181147,0.5363306769557168,0.0923844927382462,0.218735742499604,-276.29473183511465,61.7036483469997,154.88969154156422,1.1420007678249078,0.39767366043944,0.3872037125912133
2.12,-210.65184363830912,85.57060263411272,6.240736744476813,0.1425385990413368,0.1732582206570915,0.3713485530765442,-20.028984783460483,85.12826681002807,187.2135837264845,0.535487859719127,0.6122333726129526,-0.0959757891929376,-155.7019286826741,66.02112754755076,97.24396811173374,0.6408570262797018,1.0587508549129383,0.1216189475832653,-276.64497323740744,61.44094682897308,155.10473834562112,0.9247684054719246,0.1385054720201674,0.1593817591944638
2.13,-210.29305150472516,85.5313259184126,6.472629916367942,0.1792993794974815,0.2859502892863054,-0.0415004127051944,-20.05134962840095,84.79603919260111,187.34177789806543,0.1270134996242258,0.1839754264153293,0.1577364120079566,-155.17112780970817,66.43282166652388,98.92987050757962,0.6262810803081357,0.5757161315010715,0.1212807005163509,-277.1698954158708,61.035717642097566,155.56562522532485,1.4110495937326792,-0.14074564525935,0.6847810812912611
2.14,-210.63500660206392,85.68457913793918,6.1927791850249685,0.2658943160335825,0.3181481290948823,0.1963487628613898,-20.081651550012413,85.0956751493771,187.19824292694884,-0.0048029797626779,0.0529303302243462,0.4515780996625402,-154.0937388129823,66.71242747679408,100.5713040727545,0.4691614001849367,0.6299532269438638,0.3304726046522888,-277.70717574822214,60.84640361939259,155.58535269945935,0.664159757897149,-0.0357851381973227,0.6693112897005201
2.15,-210.73329857933925,85.66455637508642,6.501398308154908,0.129059829787776,0.1097682889818877,0.1343815323858827,-20.635338275854885,85.25193904276239,187.25188772008755,0.0536907287259823,0.3111741973719464,-0.1406023804299334,-152.87824442917858,67.00434750872613,102.05174679660942,0.5084593130752163,0.3774111959590054,-0.0122116448090804,-278.3367524947838,60.55916321532981,155.63220307049338,0.2378544547058885,0.1405832045874906,0.7231956713772643
2.16,-210.65319649289924,85.47562679487204,6.483486613285726,-0.2825259102308936,0.1886795064867058,-0.0390859576908695,-20.89820830027402,85.41298827566564,187.29075857353104,0.4525192716977813,0.2343744424705252,0.532696376872426,-151.93479274918363,67.64400699034643,103.67571525692314,0.4347521173931737,0.2103692506654253,0.721320445219058,-279.28634671999936,60.089698894873344,155.29191882072206,1.1488227775961295,0.7184396918983114,0.3457763417006998
2.17,-210.7929868599481,85.55345205231106,6.752528267757281,0.0727607518537602,0.2399045960314637,0.2858177670528292,-20.790076238663225,85.73636841285264,187.0775002111425,0.6841650486018578,0.2464038722770728,0.2949757035517595,-151.56496242399675,67.96160813787299,104.58287634711216,0.5961392879128506,0.7945597099680799,0.5211177762073615,-280.26249290999004,60.222932668174174,154.9983648326231,0.2572771028536103,1.7269758047387298,0.8364912908843565
2.18,-211.15196403844283,85.72723821947397,6.77862122994386,0.1710975945598435,0.352878093720998,0.3807861286086242,-20.74066020618247,85.76734899293629,187.1979530312404,0.1777514837124157,0.4380308924916004,0.3507125070504097,-151.13469987337334,67.5882080355365,105.99873208360452,1.9361880523652912,0.9092401803528594,0.0160349534197334,-280.9304326241308,60.06391399332896,154.7860235199312,1.1705692059461403,0.5752159716880886,0.6837194686537569
2.19,-211.09349247637223,85.37161574313488,6.422957300074009,0.2982776014460395,0.5116198090547448,0.6415359929163542,-20.66266372016092,86.02694717275233,187.24709105963885,0.2456909098415844,0.3506522299827529,0.1919622953508539,-150.73141543526776,67.72210061320344,107.19897085489436,1.269908410498906,0.1718914607016956,0.6001206547561142,-281.7729573550052,59.87403339253747,154.45004586469895,1.010225154919422,0.6820046218057704,0.224181360028399
2.2,-211.01528115502384,85.48587128590562,6.653156919458098,0.0164129800326655,0.2187279433215764,0.6108882340793047,-20.897453395087545,86.45140072129716,187.05134729830087,0.1018798446189535,0.0839465025198202,0.1840760816593835,-149.42528210123857,68.13898957639455,107.90401362074287,0.6240348703651375,1.041790303838734,0.4516661976684674,-283.3922243100878,59.57463651579285,153.99275592047428,1.084029276595771,0.7492943771019219,1.714692167135711
2.21,-211.27849875144028,85.79293808268122,6.518873594649975,0.0526424993712768,0.2816635777221578,0.0990718676072989,-20.96974281362294,86.75023500333889,187.01036950743276,0.0958676680582372,0.1096344794769363,0.3517506499646245,-148.38929034404617,68.73493752541546,108.96103607242225,0.8883619320208221,0.9794649363448344,0.3498365782774528,-284.40400315785246,59.90232212698926,153.56407540140472,0.8431972687267257,1.093556669614687,1.4969852835247566
2.22,-211.50872852625628,85.88044060002623,6.584512234605291,0.2619148343088517,-0.0377137973818773,0.1600545806412244,-21.219090906171758,87.21196393279138,186.8513542190772,0.1164939892321255,0.1816181179046657,0.3807887547866003,-147.54961039965426,69.45516681928056,109.8616398012936,0.9818171709319234,0.8322994362880709,0.2052495378822494,-285.74872923157034,59.854838761366686,152.7720826217997,0.5225368471549284,1.5705999306752,1.311939737682498
2.23,-210.94880883951865,86.19167185750597,6.546041782760395,0.2084382282416982,0.006851714664766,-0.0698407363125998,-21.124691216145468,87.80842637849608,186.6620744773677,0.0513573215353099,0.242618541098077,0.2200882079045707,-147.08448538022822,69.40885997916364,109.84350087013406,0.3932584512181786,-0.1231036287357687,0.5959732967343834,-286.82882826198335,59.64362606987585,152.413569913483,0.7446691039897995,1.1825490231621691,0.9532238074890336
2.24,-211.1853673009017,86.55928720174946,6.532446160803309,0.1371217753612098,0.0004342317964944,0.3667646842311145,-21.114169487963476,87.82863095429627,187.107790910115,0.3066630036505473,0.3090997895541446,0.2283271337794015,-146.60494474752974,69.2442886958994,109.5310183286756,0.4888352621149164,0.4277514775942708,0.595475992428786,-287.54897754092923,59.50656361414236,152.3704813250892,0.5793182407325763,0.8905253664151307,0.9653378630484456
2.25,-210.6542025606549,86.78886325229459,6.392872871158419,-0.0968475182458121,0.3774173505348638,0.5741256789471081,-20.93099729924637,88.17414202509286,186.82039403522555,0.3158374090176992,-0.0276031076849813,0.2462775427013252,-146.24656658630218,69.0202243568444,109.8795179662402,0.5381970728250995,0.3890560480842476,0.9070849745452592,-288.3957142380043,59.12132269695895,151.8164031306215,0.5018920436026977,0.8952816219272194,1.2656161539749646
2.26,-210.7797547564616,86.87543323930825,6.482551716119429,-0.0819809956974363,0.3489720957537722,0.2165563143932374,-20.982774852113145,88.29363057298765,186.64041883230257,0.2248882476710996,0.3793485454802232,-0.1489927880926636,-145.88943504128335,69.07444833388749,109.56020753284596,0.5619486827052718,0.7425512101643715,1.0448738920119591,-289.878457592502,58.86385962397478,151.03051486983478,0.1523715897031168,2.348448259289083,1.4753830446523253
2.27,-210.69260835539413,87.46218066259429,6.523778694066248,0.224635325523519,0.319429623190452,0.1573982793344871,-20.922261245672228,88.39075980904943,186.5925805347402,0.3979981419523538,0.3275141087168537,0.3913877576754414,-145.10454188486528,69.11595090152935,109.5669335246767,0.3271604078471629,0.5768029430780421,1.0817356776091331,-291.3275023679791,58.62716553262414,150.431861858529,0.0511583823655796,2.862975848459403,1.9985846847167432
2.28,-210.54272931341308,87.71315147352969,6.693401776693417,0.0317297205211159,0.1363539651240767,0.4441342729703358,-20.963485730143187,88.48023088898218,186.55291011254147,0.0381120129336198,0.0126331057302843,0.0624576160646586,-144.9912446226368,69.0127116440235,109.51049681437198,0.2201356355986842,0.325706165631508,1.0422020633963005,-292.0202431702973,58.37976166162056,150.12783440798663,0.1541243239033365,1.3022854828826045,1.5355746219862465
2.29,-210.6084473233224,88.21452653814156,6.615811252541278,-0.0049040616000272,0.2595420754807176,0.4762410105016197,-21.204797803431056,88.41415512204408,186.50977002835072,0.1987822461520837,0.3421416404379869,0.2377283852899446,-144.52234286577936,69.00752156484285,109.23212622685746,0.4147682455867,0.3731374330891444,0.4058474061703432,-292.5159864431695,58.39376085396371,150.4379961008048,0.3901148267542819,1.423310519016063,0.7438476398887158
2.3,-210.7574522431135,88.40769354849677,6.557287393752365,0.3390638954835678,0.1648651971817808,0.996744713203812,-20.976043795673963,88.26269860882869,186.4316420214262,0.095703957365442,0.2267152175662971,0.8842066850127158,-144.12399588331323,69.0946088160354,108.47843356512936,0.3028297983906829,0.4775631969237777,-0.0604316442034481,-294.0031819352093,58.17939053286787,148.678850335547,0.5680785522238394,1.857612905938282,0.1883871522723001
2.31,-210.54911633173603,88.43072342603952,6.936746882218553,0.0817909406623636,0.2503720433208817,0.8202494571391031,-20.9992027778858,87.9077658837751,186.6373377751414,0.1973685047883626,0.4072499865784857,0.734427701816085,-143.6565457431448,69.0544123676079,108.5881991266343,0.4534527527945293,0.239788673104597,0.3736215723464303,-296.0345960885551,57.60609389333609,147.51333014374345,0.7438063190177319,2.5461289728624603,0.5885437990997108
2.32,-210.63262513793745,88.89999989713594,6.873966682417501,0.0195121683432959,-0.0804496800179023,0.415133066095078,-21.193558072640258,87.68491336039982,186.9443062513103,0.1881832833841799,0.1772355261393945,0.5268232157137427,-143.34171086770212,69.0533227170219,108.18940930475314,0.3556941111055565,0.4684439943590658,0.8228927572950978,-297.2292191517343,57.32710089745535,147.00314562982038,0.894995608292037,1.4649953356441447,1.0687288863264577
2.33,-210.44880525943756,89.01108668986723,6.69963260215417,0.2234223851249476,-0.0024940519119037,0.3009920750150139,-20.787593887360085,87.51033232113369,186.88941172974128,0.3351187030114429,0.1138380855474692,0.2438747204889839,-143.27809875940602,68.3231502573331,107.62831869771348,0.3269501811426666,0.91696642889101,0.508006177061706,-297.85249079609747,56.90496618782011,146.89577484280068,0.8047039820877191,-0.1704963093014124,0.1987762433271169
2.34,-210.20011353626097,89.19092199861909,6.767758364935679,0.1250297592107235,0.2170651234287607,0.3699374137112714,-20.89071287309365,87.23339925154852,187.13689665904573,0.1052338731180653,0.0857557106124737,0.1872967617800646,-143.0235482208195,68.0557246909771,107.33829348298678,0.3828806700122119,0.7151489822726116,0.740313222446095,-300.0747581576425,56.54109522170108,145.7190772828081,0.8098315694902839,2.1734517254711507,0.1101891856748474
2.35,-209.91280754863973,89.53952035656917,6.7426160535863415,-0.0868604122434689,0.4734850472991156,0.7431742719220615,-21.08132268714165,86.90430593421492,187.11588517951196,-0.2138338430455962,0.2345379189229695,0.1656569976007655,-142.6129739540293,67.82020306659919,106.99886564370225,0.559900204858924,0.4897877552129438,0.8219684941415294,-301.91216050250404,55.95423377211031,144.46610821769707,0.7935190609431225,4.347312403446958,0.1790610884794799
2.36,-209.94208930655455,89.34833465295404,6.763226880118176,0.6115350471799694,0.3262798450922604,0.8242538034641234,-21.121650674832637,86.44196199899314,187.08943808076785,0.3477542537963288,0.1821559094485352,0.7239368115104883,-142.40971091798653,67.45635959014716,107.08508065890604,0.4302983556751589,1.228836304368419,0.4708798379622845,-302.80686826571167,55.702270367037336,144.3229976368669,0.9232766438470508,0.0589209476984228,1.201682066843326
2.37,-210.00392515394591,89.33072727866882,6.762944297384144,0.1058502680530398,0.3877097265296652,0.7226776830697288,-20.91923483706898,86.13848451394085,187.02961302417864,-0.0400428741663968,-0.0921460643529983,0.0770628730118774,-142.0166084176351,67.3197636133658,106.95480395721432,0.7742401629605178,0.7829381630262546,0.9058252205336256,-303.84794914597,55.295677731674026,143.79466754666632,0.86605293376341,0.2980935210481942,0.8679387436841449
2.38,-210.120885501478,89.28197499813392,6.874790479498881,0.085480940986702,0.5124248778883036,0.3464079337137588,-21.274138476508835,85.68014169635113,187.48008477065693,-0.0344163072576173,0.034611897594218,0.7278367280540875,-141.72795867650237,67.15337867513672,107.25135829068142,-0.098962559334033,0.4121034538188545,0.3274560147373296,-305.2948046018585,55.113241423457005,143.31052279214236,0.0799346192647399,2.0898776160250225,0.5545716405606169
2.39,-210.1735887515375,89.19467604294903,6.856954842313188,0.1340117642827495,0.1532804816494846,0.277093402752516,-21.31603183680272,85.15104845735969,187.52635730708224,-0.2362273599854407,0.3898055923109385,0.3150698937758863,-140.83553342470887,67.39046637232593,107.58034008172577,0.381658570039005,0.4096849564326654,0.1471374096974707,-306.44904584124043,54.998920512976326,142.58023908903002,0.7319539867126429,1.0988081722684364,1.3414294068819694
2.4,-210.2427085975803,88.98584209436356,6.835025112161768,0.1115792376690247,0.3523360933264142,0.3460864773161071,-21.4931596968512,84.73268627176586,187.66092275234317,0.0889868603120585,-0.1071949001539885,0.48569375967461,-140.46991178141815,67.48905352710906,108.27427779251074,0.1350908223282269,0.7117888248650741,0.2282035953484562,-307.2160117597646,55.02101742542015,142.33399472190496,0.0322149864893411,0.3163063579965054,0.2558640691019238
2.41,-210.3899622956484,88.71620424252423,7.094794231460446,0.1264977281736221,0.3391421197379682,0.6238170426256942,-21.76573516206915,84.67310366840569,187.4687532366117,0.1161764275803802,0.0496776732998762,0.426820721841859,-140.0094585107338,67.60496342672535,108.5918895611062,0.2267562231154478,1.372640440468576,0.2806090551140973,-307.8917607827219,55.08309884317436,141.97689872565033,-0.0206234578496461,1.3844682514019109,-0.0185104029118493
2.42,-210.5485589379341,88.7144312402179,7.0001853194735855,0.1438377489137453,0.0389944819622843,0.4138662828294784,-21.466299010394483,84.52483507231956,187.65716148885303,0.1384854538373627,-0.1380636709576405,0.2213490321168275,-139.41848354380724,67.57818102388886,109.15130421224642,-0.0486248293715011,0.7033957659087939,0.3838134118368714,-308.95034809782635,55.07343908307641,141.33870438824812,0.2875372447213976,2.219254921446533,0.7683162492635441
2.43,-210.6775189434402,88.65299583698265,6.953422625733952,0.1712841800062416,-0.1209193512018112,0.2926596517808615,-21.583192705327125,83.89908156808052,187.6771477594202,0.0912711153118266,0.1523983329911297,0.4091386857903009,-138.7278967522987,68.2694700111675,109.28454123055448,0.2282249507878353,0.566667230068163,1.1680659630007844,-309.40654028980373,54.78489190684592,141.2731278938496,0.6233477408102038,0.819179221659701,0.9444781779652236
2.44,-210.6050863875329,88.51112105317658,7.070487986395205,0.2423764266116879,0.0110712520885324,0.2542879825827667,-22.124411415979136,83.46820878318145,187.91412795041623,0.1579720205141888,0.2329985412201739,0.2946935221299049,-137.80923213153693,68.37954696034319,110.00856833577278,0.8347857471611793,0.7185742171887884,1.0826381793749946,-309.7277834112368,54.88857695823915,140.9525227585666,0.4210473076572953,1.436615761113845,0.1411810703505961
2.45,-211.0653996694161,88.35314715224715,6.7862454681055775,0.1043413427280425,0.3076717683302713,0.3429904890051529,-22.116740531256376,83.42098320884922,187.8561031072314,-0.2473152467265408,0.5793892044054422,0.0529271523897286,-137.64732398614734,68.52566293451522,110.3870351119342,0.738865525234038,0.388464684602691,0.6937603183623382,-310.4279712356595,54.93439478972622,140.55119676689927,0.4394567918383353,1.5304275797593467,0.5138008847252016
2.46,-211.12985841670957,88.06468305295968,6.759148822178059,0.0649529263019362,0.0505433060526657,0.4653569232670465,-22.154475165419186,82.66231352060318,186.9214005846072,0.1341489853580773,0.0461482077537799,0.2222287600311145,-137.32579527701864,68.50280089813783,110.98929202905012,0.7212733477083362,0.3067511780369029,0.4431829264692113,-311.4095363856192,55.1927127615393,139.69863623310948,0.4517384670765415,2.2482271194045955,1.1208056302893
2.47,-211.31676683398368,87.91615385730442,6.86426247166656,0.1588535267774951,-0.0003150309962783,0.2744441014088882,-22.06755724968399,82.11210217003804,187.28862380270732,0.2501448469323052,0.0521066458512501,0.6003262405839866,-136.17273560219814,69.1797768216835,111.6957386187392,0.6705382355191577,0.9200914668810848,0.5498515350038875,-311.6264473386702,54.78898491056263,139.91747917794814,0.1975258027760341,0.9573031954889248,0.5350378201055238
2.48,-211.3513379554756,87.78031347363437,6.897452359410647,-0.0453093081257775,-0.065805942506625,0.2928657700045634,-22.678758873014303,81.71334468446287,187.5636074944388,-0.0191022004135431,0.0652238471136069,0.8253643405906674,-135.3730840395833,69.61691556416905,112.2359230135946,0.2946154417872752,1.0227328889747294,0.8675527932473195,-311.63681052637986,54.66022063392891,139.7957810829298,0.1319406134345528,-0.0894668936261988,0.0358321880835689
2.49,-211.34540300754557,87.54866714448201,6.515825684390735,-0.1154460644457412,0.336269643647377,0.5178791203831816,-22.826569885342757,80.99749422683803,187.69206558468548,-0.1119741697108992,0.2248631929082025,0.8644986072900489,-135.351228211332,69.53936068595402,112.50831538154944,-0.0676524704048486,0.2787305700181883,0.4522011328284514,-312.7801184512096,54.56707486498964,139.26428306850664,0.2408808703365479,0.3086799185993183,0.8231319671643886
2.5,-211.43211828406265,87.44131413324968,6.959464686910686,-0.3609805598737361,0.1702833360527875,0.3335394751810283,-22.67434320645574,81.02003385364733,187.1722238825861,-0.0810499114432894,0.257188668095397,0.5675055139267928,-134.76613295074753,69.94272371133475,112.72293595221572,0.7975549852212397,-0.0102856265492666,0.1884382799756731,-313.7315224153985,54.50552520533255,138.6112952606652,0.4269461415503122,0.7912218125850611,0.6431896745995926
2.51,-211.47491939140411,87.20311349956904,6.791603557767182,0.3228071675484847,-0.0931239301534313,0.6002061596651269,-22.93574119795936,80.12710490232723,187.11135600239095,0.1104485861285563,0.0811466105178802,0.545518641678098,-134.11123270982768,70.08396142235158,112.80714893412808,0.4199793015458578,0.1976568121404227,0.8053532331848516,-314.6772986128164,54.04499512664648,138.00589518072655,0.305271102218413,0.5068028230104767,0.4866756470947705
2.52,-211.1583375516644,86.90900437796968,6.745479507977628,0.3930398840142198,0.2628146826637038,0.4757859542755329,-22.79324438893982,79.65991000379816,186.6390194854503,0.378210244034537,0.1825598050858637,-0.027009773595454,-133.2944863889559,70.12498699165333,112.92130697964248,0.4280173772273553,0.3605458688426071,0.4917153568348059,-315.2482816140121,54.15897588556082,137.77412328981944,0.6509512468799447,0.3242957750296152,0.53390902866964
2.53,-211.46292070137577,86.77922771004437,7.0277900909038005,0.3250665423996908,-0.213765054663707,0.1705762560529327,-22.829423477355284,79.22008271855037,186.9333635333584,0.3196198612153251,0.08362954724708,-0.0527224508509854,-132.81318596807125,70.15864169493766,112.98525910862035,1.3844904794107544,0.1897650898296095,0.3723766944151221,-315.9112110821404,53.99722726110164,137.06364531762668,0.9847361498576824,0.1054675015468779,0.5817549510542686
2.54,-211.3903621480748,86.44760834456474,6.518768865199986,0.5370692978949249,0.1718258917851333,0.2392095819971079,-22.845316173419278,78.46187378315119,186.76324429904795,0.2497195665170259,0.2490110684029884,0.3534839304799221,-132.39135405495443,70.1484575866284,113.35049239513502,0.8449255089582252,0.1360665851835518,0.574108350144821,-317.2314007900484,53.73786701153557,136.67148981415733,0.5224861255478671,0.683934634204162,2.433789041184768
2.55,-211.43166128315923,86.31182409379396,6.794723577734914,0.2057954025195889,0.4080197422283101,0.2041998801394355,-22.85444686464791,77.73154768563826,186.5396887934917,0.2555614928638783,-0.0551626709098425,1.0491750215587188,-131.64561003680524,70.58118633479869,113.10987359593618,0.6333345459871073,0.4383131482022288,0.6314663416747252,-317.7684959406622,53.59121213234292,135.78166466006374,1.0315777891381643,0.8447434307011144,1.6314685779801097
2.56,-211.3574866014128,85.98526667430887,6.579240950432844,0.433469144619134,0.0927931207871796,0.2684797207328508,-22.65802831403907,77.17487288971978,186.6097846282604,0.1832889871114737,0.0352679463802497,0.0686186823185565,-131.23356643744987,70.53881212915441,112.73830088594384,0.0579277165828838,0.4342090949765808,0.7937286100304413,-318.991522298947,53.277412566153096,135.01311274562394,1.289064566431286,0.7452654205001301,0.8005197552061154
2.57,-211.127465724638,86.10248129653327,6.485784674480725,0.2471843383503618,0.0901401242790209,0.5333989130852649,-22.61491562226123,76.77742398105639,186.53359549976932,0.1301259698449839,0.3195690587945217,0.6629488254408971,-130.77378168450682,70.54567045641798,112.5976245915924,1.0141188869596478,0.3608050084023917,1.32357265080933,-320.03529902292934,53.06260033030714,134.10721964468323,0.1745871100582735,0.5521898501497609,2.0490286790650734
2.58,-211.47872868509768,85.43949827914359,6.418087260259391,0.2241675964260224,0.0691012521485713,0.3170966087810766,-22.648119658643463,75.89152042032111,186.2713154042269,0.1507169235206127,0.0643484973225806,0.2322040750715263,-130.31397481130884,70.80874057527593,112.34469552918551,0.5393945584314844,0.4978781473857389,1.2067980438992247,-320.5276920678346,52.57173155176083,133.4569335928989,0.3699146123671076,0.7395325865709009,0.3395983431143605
2.59,-210.9274084155309,85.40160255885948,6.448839372481681,0.031360223458062,-0.0895571377145237,0.2689171548489192,-22.44669668519616,75.36079375617834,186.53704874063575,0.18171040838511,0.2133860712597502,0.4323438032457488,-130.17897423284992,71.01110378828116,112.06107864209694,0.3519714780382093,0.6015114936550848,1.272824636945566,-321.05102761016553,52.98176836994775,133.06667553055036,0.8597044401119893,1.4663073332160848,1.0209689373494195
2.6,-211.1790682300749,84.77466748996244,6.405180723864862,0.1761419072797433,-0.0117331913680583,-0.0498643507877549,-22.300258090137927,74.71106586860847,186.45109746862656,-0.0398072537103987,-0.114270977005621,0.660702546688164,-129.84692440802468,71.23882537800677,111.7957384017828,0.751917241600129,0.5757597686394883,1.008336632565711,-321.46683133864525,53.04964392282759,132.55775899831892,0.2973694604174977,1.1514068810387017,1.2230244917197863
2.61,-211.3393580833824,84.62190393593698,6.143176793849241,0.2865666737233399,0.0026441799061402,-0.1961283773458081,-22.454642325476204,74.30996180141817,186.4211178200885,-0.1705813621489976,-0.0610762746140735,0.5424428754402912,-129.8288041019595,71.03308442902237,111.64729277749257,1.1084580407795144,0.2953248128394162,0.7542143978793043,-322.1106092457468,53.18304829669784,131.94891070958928,-0.1064488051359228,1.0956012384146474,1.6490550527013967
2.62,-211.336238583443,84.3036646159802,6.387269960486346,0.301699589755362,0.1582531276071109,0.1106513729791282,-22.387851040412627,73.47711123910732,186.73862706240007,0.0947573135299859,0.107048565408135,0.2446889900367706,-129.41936971935843,70.88212273846753,110.75862725064336,0.7901271926752513,0.6498539028660135,1.251392320190686,-321.92642953185003,53.446663645684,131.8485583911643,1.2367147439419504,0.7308870103625169,1.1281787023199967
2.63,-211.3921501789108,84.09275740635798,6.388171409211805,0.137339512073859,-0.1259753337876822,0.2158737046125498,-22.567908587532063,72.53345464280451,186.5340414039562,0.7043353207229496,0.1287565913713754,0.6628424658606974,-128.87402932973006,71.25997304740078,111.06271220649356,0.523051581464446,1.114542342951613,1.3421152678406745,-321.72357347832406,53.327480463469456,132.1902805031841,0.5094649692027841,1.04609070547152,0.0285390519297887
