0.01,-113.65570374674716,73.19955728651982,174.2734257795648,0.18428911532741155,-0.029649750453135323,0.01170022711053515,0.062692165144615,-0.007157358461367777,-0.08748087418238079,0.5906977110148559,0.4916428921832193,-0.5726148078196605,0.5370539883762385,-0.12459833327840962,-107.53247861054028,82.39960870957638,37.23594631513037,-0.032869049977694346,0.019709191499085982,-0.05474333901521708,0.06654455030558484,-0.0429734550140963,0.0421135618957869,0.4834134593213666,0.46526065002684297,-0.6993271147963016,0.4896445076881354,0.21912752296894056,-185.80627930313767,0.9348584602306304,9.038603996357963,-0.04196532350407534,0.01750478385266258,-0.09126371463901924,0.12194619235508561,0.03513663119149647,-0.051143786878074214,-0.3966049251804206,-0.45525073260228954,-0.5770361924814329,-0.5409734658195853,0.13924420136068447,-158.73458916621016,12.844670104068921,19.026540681638178,-0.07854145283157737,0.10999845288425854,0.08881064017425486,0.03258009547091663,0.06555407811364655,0.042769498265266395,0.49762930129049854,0.6829273362814053,0.502144822210051,0.5436196748218144
0.02,-113.70530204220874,73.05652219352496,174.2263547909659,0.033327780368717974,0.009570295395282973,0.08989450117394787,-0.1059810800115234,0.009160134499889559,-0.0832824111894153,0.3935419896342616,0.5983250669922192,-0.548387393718673,0.5478864552290096,0.0916811691470819,-107.53984776599184,82.41455156342387,37.28984482084378,-0.005291335984985583,0.0073190680241642814,-0.010286681378555831,-0.00011418572730935358,0.16654045843934984,0.0963927084059776,0.28421062753772197,0.4901041008570534,-0.5595641382700662,0.5000097603505236,0.14341943894203396,-186.01693442194087,1.018650148422081,9.202852465644694,0.060702655044736896,-0.1304908944443198,-0.15666721426297323,-0.10872970861184572,-0.06666604087819761,-0.22480523873350358,-0.5082766864103869,-0.5261005551054242,-0.49802019950946586,-0.45960783977737296,0.07423780484526334,-158.95456771488008,12.90747958557913,18.943541117642763,0.09750953564556462,0.14248827816017662,0.13613904676211844,0.03012125786743705,0.1875119177083956,-0.039753193400905426,0.3123760843795843,0.6768745581356296,0.5098591797585006,0.5667176675738288
0.03,-113.72866451761656,73.26948256378647,174.28452199317022,0.09253481273845822,-0.17750488011999685,-0.07931577618583457,-0.09566310332274912,-0.01785579386847071,0.002948398545351949,0.5487989744942751,0.3139489613038896,-0.3248889771214657,0.44800498079214485,0.04910647720741665,-107.62527596217595,82.42608572907758,37.305150883165695,-0.090210738905081,-0.08293181659336343,-0.10164118714882263,-0.02366662726758864,0.06207274045033945,0.2707679388447261,0.6205897492705901,0.4608516965414071,-0.48848697249006906,0.6618007957348904,-0.017865966817682356,-186.12683969137535,1.0377178838682901,8.979471848399617,-0.11994903642038983,0.0823268754103893,0.04249829965359354,0.03716510959380371,-0.05401427247389427,0.09294983175799693,-0.40194502537949783,-0.47241125189032396,-0.641766794528092,-0.5385984699801661,0.017669747557588905,-158.9148788916415,12.985833986855413,19.00672493672758,-0.07551714094156647,-0.030661885992493844,0.16356862479602155,0.16057244899046372,0.0610480413503874,0.08285449068126499,0.5478955220252334,0.5334202685654651,0.5914521546327854,0.30662244865375854
0.04,-113.53830359459374,72.98374827458413,174.37006894093597,-0.0489791878947946,-0.08417441508320941,-0.07818752764448944,0.085679015354657,0.1391031044007973,0.39081079306082134,0.536900818531507,0.632449072516597,-0.2639359898834401,0.4008388865614072,0.07883333133762527,-107.6322431950749,82.27846807847874,37.25165863213297,-0.03648531528674155,0.07966285511773405,0.00682125753342415,-0.06167894544280032,0.06474908609036903,-0.004701136065311307,0.5992329328061605,0.4797942818526433,-0.557590618881064,0.552390412570369,0.10749244761100454,-186.06024350713346,0.9841239891805297,9.149875449875585,-0.07072089856642255,0.10971465390281072,-0.02542328800149185,0.08880332839253016,0.16011091666881327,0.06483201172432766,-0.5183014784364456,-0.4040564482364491,-0.5082470866116414,-0.46862891386308175,-0.04211837906473207,-158.7898423378973,12.941833548413351,18.941967719250293,0.15760944893824744,0.11098887172841784,0.1638213591557363,0.05806272723994792,-0.09191893895353477,-0.13494891741330794,0.5846191798773511,0.4048609634846532,0.3122791326003664,0.6256875669271312
0.05,-113.53182872147288,73.16407085927644,174.41298266177128,-0.11176129091957591,-0.060377757007602006,-0.056231808424686704,-0.13483972891071105,0.041124131158560485,-0.046799807526397674,0.6226177480116539,0.4927901381885581,-0.5744770542687623,0.3710675701312296,0.16734657581522727,-107.59857737828884,82.23534617709086,37.026362786085,0.12695351762626117,0.042355852649221176,0.014631486067620115,0.04503049149225643,0.0072647580653279475,0.13085272787952681,0.29750662899035196,0.3462138597755423,-0.43011842524715954,0.6670600691701718,0.0017847840767862833,-185.6945211053941,1.18467332490516,9.111455463809842,0.043320939022821525,-0.0532292308286774,0.009089301039711319,0.15033833311106548,-0.07610701687162272,0.032196908563247834,-0.4784250020318189,-0.521041192388476,-0.5118090666881987,-0.5161010265097279,0.2489305540186142,-158.93966809107192,13.002073167278379,18.83564668878687,-0.14961672571827958,-0.035350603135480364,0.10921806113443354,0.27316688507798886,0.14034734342990512,0.20652830301314348,0.5147636765009433,0.5979764265863421,0.23683190759346562,0.5021370128117453
0.06,-113.7059259453521,73.15648832520982,174.14502370898236,-0.04867015715592449,-0.12921189992655108,0.13174380161645657,0.09641511443193926,-0.035099320273548555,0.14878061878116453,0.45165636024055617,0.31563394088722097,-0.5610297181994588,0.5349416386616865,-0.07504641290506023,-107.53478559604878,82.27017090355511,36.97707759438708,0.014608010369139106,0.06983734258954,0.044441745971191646,0.040169746618176065,0.001813121117492187,0.2176811756185825,0.3971240659018154,0.42862335183337796,-0.45278173001733957,0.3726791093171448,-0.1181460641099698,-185.860819052248,0.9280978863408704,9.01799918320983,0.10593872875282558,0.20344618479672266,-0.03383486677300186,0.00236256222835636,-0.009265593754133786,0.14501231358095187,-0.534277789157086,-0.5542929827059233,-0.47681980366113874,-0.3613610646108913,0.08603456988734581,-158.868839165176,12.961793392600535,18.748929322345365,0.08672743178240222,-0.18125359355394513,-0.031940927059717704,0.025334284472578558,0.016990140606102114,-0.18325879998835987,0.5897168448370127,0.44339015311130286,0.49320708704666677,0.5470631331351457
0.07,-113.72809469371305,73.1831820055211,174.21745779576275,-0.233832291766751,0.0628738931394444,0.09998804057494189,0.08715467057644985,-0.05796515650113496,-0.07927277129155885,0.49506667503420226,0.5819517826532052,-0.4833818038161256,0.5449263638174214,0.16858863245198408,-107.50662410481505,82.5226901358842,37.39436084973114,0.08203978744801588,0.08045227862999552,0.021109225841306006,0.007001185872670027,0.03557712240802763,0.2873522408319579,0.5504603349458278,0.4607756979074335,-0.42082061588759173,0.5049004203311536,0.2891390093519054,-186.0970049079719,1.0295420756836589,9.219927870403009,-0.11661722275412136,-0.04866037866111741,-0.1493825502797065,-0.036883920390654946,-0.03496711485694337,0.03663547808306134,-0.3789431137233549,-0.4331603952472709,-0.565559742574647,-0.4778844818088153,0.2052462857445308,-158.9060587220739,13.053827045832534,18.968823613844204,0.08283967170079254,-0.0019847075776132407,-0.0776992592524417,0.22264307431392388,0.070801490577623,0.00042485920300676036,0.5717809867171707,0.3960849803626036,0.38151932576041775,0.2987094789675885
0.08,-113.50947362354837,73.23961615043787,174.37246683978262,0.16706042931498374,-0.06211258758270299,-0.006961769607282418,-0.010327518933753776,-0.13590949727065302,-0.024824214574679527,0.5017557173923285,0.47719326759310543,-0.541833675830823,0.7009294563150811,0.10962305857743532,-107.61465876868992,82.28296957070938,37.1360234059115,-0.08993850159427477,0.08816848499266937,0.08022735205205041,-0.11608887869646835,0.09416770296212208,0.419533424400262,0.5202003318784674,0.4622927948287036,-0.4612522561640062,0.50719411984559,-0.09271469504133596,-185.9423917809465,0.8644835068604573,9.320197927635064,-0.05495625118985892,0.14793914824810958,-0.07057347767458444,0.06666693486757409,0.039784391695994036,-0.0035003111115544244,-0.5392968384403427,-0.40383225270995676,-0.5090654708508604,-0.5404248377061105,0.1206139159513434,-158.8204359282617,13.05974229664663,18.888267956052132,0.1176957958273223,0.15478579816371982,-0.16462761988729147,-0.004715269514190108,0.06068938102553831,0.02036691894539995,0.36989229563006454,0.6472553345434027,0.4723902177558523,0.36670708898098625
0.09,-113.68081374465729,73.39594737229929,174.39220730388288,-0.033355117497680956,-0.060361493638640865,0.1021307443806274,0.03697098068294168,-0.14913918081908253,0.10090889149251453,0.5905875958266668,0.4919002682919149,-0.6089955766784984,0.5484577519356905,0.21554521373565905,-107.5120918262848,82.21411213174395,36.65097332753222,0.127017208339948,0.19414044343267917,0.07122812843580642,-0.019602740890986348,0.13693354860023196,0.21531037246920415,0.4285302833225783,0.4531752449792893,-0.6134598399923721,0.4752874375559901,0.05118327936284001,-186.01523983516057,0.9907355142540807,9.09497787156331,0.09414368332031328,0.1810340378886902,-0.18671712752181407,-0.07645810015137673,0.17836181772268092,0.006671302591188241,-0.39975044587364006,-0.42365689452033445,-0.36816895024668483,-0.4985506208785148,0.16556989529694088,-158.99861122528367,13.00622801042583,19.055440920282443,-0.07232476809933833,-0.043851636161822846,0.060253963623450965,0.22824772900354734,0.05522071000947478,0.051034227419324826,0.45724814107311434,0.4024124087943503,0.6320351919594802,0.5435429222982867
0.1,-113.73104188700853,73.34753687964562,174.13967022106175,-0.06467053315593926,0.013991916553232314,0.05674270522335051,-0.012361250134087546,0.08140975305120919,-0.03819035478196481,0.5874981759080096,0.5872437253654559,-0.6543163134029717,0.5457049907507355,0.04166504483986277,-107.5504067999897,82.1795915220851,36.70276948730938,0.04026789600243643,-0.08766439176036696,-0.0043964172691573255,0.08894011645524208,0.00528584484479544,0.12371216459203543,0.6284936653674928,0.5794434699344823,-0.5226467317362234,0.5621385293746598,0.048997088035650685,-185.75397103981336,1.140358640096346,9.034886297393705,0.0005098201661728231,0.27554773390564413,-0.03260394889972129,0.20116386182124527,0.028446594055315903,0.06059829588475578,-0.3914437154532875,-0.345822691281117,-0.5243738101187071,-0.7721802056960303,0.05178727830424765,-158.77653476817545,13.150966311202456,18.940976206549212,-0.09721133761862234,0.004129517242707319,0.19479877035432436,0.1287526859285129,0.011333142112550681,0.20368227489581764,0.34894038694256163,0.699474844217459,0.5691709482829426,0.5050762200427181
0.11,-113.47840064969398,73.20653137007154,174.314785148938,-0.2212181849059518,-0.11478028509595561,0.02123382500316591,0.14649536465755844,0.048506346045369055,0.02123701310840006,0.4880653229821353,0.6119184248568643,-0.3145012821959782,0.4669424913902376,-0.0312580583972427,-107.49272167647867,82.39415238104571,37.046119042774365,0.016072912589798465,0.11318196228348756,-0.0743618062050766,0.051207290898833135,0.034094572902359815,0.2263106548873562,0.47755163790243005,0.2919382698065073,-0.33278750275107427,0.6089601376747356,0.08184014468179088,-185.89737391878668,1.045288596594861,9.248565125303735,-0.06499785478204523,-0.047782435119606226,-0.18540397909888098,-0.050648772934228856,0.13461922254551525,0.053278955617772426,-0.3994600431091576,-0.2714712508876702,-0.5738892450432013,-0.5731282616663093,0.1566069657809898,-158.97636112464374,13.080300363325271,18.91379690608031,-0.014727512020917261,-0.05724121858632028,0.19814791373484733,0.054481931084756255,0.07001392492032955,0.3287923124018063,0.3182273486743076,0.4657271055295651,0.5708448182621972,0.4801917522505893
0.12,-113.61008288843311,73.07233522913283,174.37946561668943,-0.19514358960127118,0.21398017091616586,-0.20457843141531973,0.04018096621807468,0.027515258972943255,0.022505740894490464,0.4852438514653684,0.5777343953522818,-0.4805005376183845,0.5111477571481086,-0.06424035950701984,-107.52593873813503,82.31572553869138,37.105867496208205,-0.002187934311957594,0.10457701024414308,0.1377883497903759,0.07017540216641632,0.15991790954545287,-0.06495099897274201,0.4517598915010324,0.44219439623271123,-0.4889373135254977,0.498576356824416,0.1850697504588781,-185.93300246845791,0.8500953184429978,9.293868496627557,0.06391775557802676,0.09131159347979134,-0.015388152919115772,-0.08127812718303931,-0.14989966003039196,0.11407794761031374,-0.5371335443555446,-0.413758834835228,-0.4872191028482145,-0.38661494055947404,0.03008617450898758,-159.10628304163347,13.059008413435812,18.920335823880784,0.10401169070306537,0.010641473757225723,0.11812864754365984,-0.1004893745614175,0.13128377139911312,-0.015138412502555015,0.4496142722137775,0.6623831273151237,0.39240945060263327,0.4993234301894079
0.13,-113.57254452400181,73.36108329772635,174.12240059476335,0.08709283473158819,0.03181507202037742,0.0896796503522681,0.011220243681711123,0.10739521716503769,0.04829552285559144,0.37752891117370135,0.5976567619644886,-0.42904135183520287,0.5753051027852191,0.09673002346207396,-107.46034542131439,82.29079964934527,37.09390575301907,-0.06412486185810624,0.23154046195990258,0.22681221625258827,0.18349599805032327,0.11738179215919452,0.06575309047308447,0.4385991716606628,0.45651992432067906,-0.5257425194621451,0.44705111742851555,0.07690263277990918,-185.72944532133923,0.8444461468636552,9.184242510533949,0.05265551375181547,-0.11556731061437646,0.005474071823447619,0.04877472195919787,0.07684797834012597,0.10313451257523228,-0.5762683972229948,-0.5029283455900118,-0.46280296029178886,-0.22309494347487718,0.08574903805860129,-159.1258838823868,13.107299230315093,19.06162310351271,-0.0025268983335930244,0.12643856716590357,-0.10658026488065064,0.09684935910313006,-0.10643343953669254,-0.11485499039496282,0.3575157841818035,0.5597632098951614,0.4004215726132594,0.4531957011625432
0.14,-113.40968164346955,73.30937483692733,174.43133218402681,-0.024651810427344656,-0.04705511471096954,0.06450303396123482,-0.01623193915872035,0.0092634936318422,0.15246782922239532,0.5330772350278243,0.48136245693565355,-0.6382068822976876,0.4385736845994034,0.17445855419954623,-107.29463791681214,82.55032523255896,37.0433852363771,-0.005544995704605961,0.07895030259851706,0.09052427399450763,0.018601071684037192,-0.024971814542124722,0.08480483972828884,0.4835985128278953,0.46584433990084073,-0.4888400121524248,0.5786269711436608,0.20325426857920842,-185.9755836177554,0.8496350344693006,9.370738732371645,0.005645205990704009,-0.13091347064817863,0.03427311397203525,0.16091598299244775,0.17558649606571886,0.0667962741509243,-0.5791926039719272,-0.5428738685961647,-0.5028293292646534,-0.5877936448905652,0.3742625716890099,-158.84073208609712,13.219399930759199,19.01414671930207,0.09362516453482367,0.08233419531857358,-0.21734838352607316,-0.1908227924461558,0.0683217325410068,-0.03599944847648487,0.5243230721721743,0.7112629731176418,0.46860316226300897,0.4763561206616857
0.15,-113.45656730841263,73.07826330445195,174.3494851872916,-0.06685193785030343,-0.14895831667449258,-0.010799189705288082,0.07341753926613777,-0.05518543848620744,0.024874821549090587,0.5506939551697703,0.4633651188116402,-0.4684570025966878,0.48032590154698007,0.20721519293784793,-107.42733882807637,82.2931061058519,36.92402256003985,0.053408931245438475,0.16621307404958718,0.11437804288521362,0.15440931186966256,0.241299303577664,-0.012251277651171854,0.566133730688622,0.48584744126904084,-0.46107155775839515,0.414386649840555,0.09680547207381582,-185.87734732859553,0.9184625130537282,9.189938589829083,0.05879671390139516,-0.06943894123705249,0.1946109404788275,0.07146961418502434,0.11822421453269834,-0.0050837451300043,-0.5291291309067065,-0.46944580754818394,-0.46606386464810484,-0.39687411678580903,0.11867850943481667,-158.95666272149325,13.115102092077828,19.055809729613358,0.08422319941343182,-0.024725511601146388,-0.13285583535412562,0.13767015898038504,0.13986646174662595,0.008176009605781631,0.5606230448492147,0.5171252063714903,0.5743208903505893,0.336199676016116
0.16,-113.5759899628176,73.15343385460294,174.220950119386,-0.03759918142960472,-0.0468197736569496,0.12169427020322071,0.014275046609403222,0.06584384273858714,0.030628610584619347,0.3924189299367616,0.5141939687922196,-0.524026051983712,0.5313621630507938,0.19185015741579714,-107.24762577516249,82.20508977441771,36.87812201145296,0.032755048602384144,0.01705011619725152,-0.08408043152409793,0.1485030548908897,0.03154961269299124,0.2470220742037501,0.5136770263600329,0.525232499878484,-0.5606732952248065,0.24024896797293577,0.2267920212891416,-185.86272846083236,0.8119636867105167,9.459754730366315,0.05154104085267987,0.030479958711474874,0.003605856566433162,0.021658826471692094,-0.0044587772195350955,0.006560828383407713,-0.4975323918995519,-0.6241089968915878,-0.6380689693563493,-0.6313036554256003,0.2915927417461933,-158.67494043922346,13.175740823640654,19.119934578234087,0.09968342627038398,-0.2473274241778171,-0.025922299351462723,-0.04288431230743589,0.1989698098012969,-0.0065008036471665,0.3471654759465899,0.43320429171404495,0.619644333721337,0.44211419242958166
0.17,-113.46887187976415,73.27204417441132,174.339562044608,-0.01964690482495456,-0.03632802886534728,-0.1470223139537041,0.02453239487086245,-0.10023960513979326,0.034600939159170445,0.5034793208962376,0.42708128956774577,-0.5145626938704064,0.2812229880297785,0.24769273418016757,-107.30616782374095,82.52406623476399,37.001353211255065,0.03997819958189705,0.05997704108248501,0.040206396679020845,0.14887285761602614,0.03587295703040926,0.07045319214996473,0.5320820728191612,0.40286457212118,-0.5558076771721747,0.4903174725565829,0.054548244156038095,-185.7800185609528,0.8293033633742529,9.47119567565195,0.0474168655543732,0.12257207784891389,-0.08512166790885817,0.15922980328778122,0.1562805244390073,0.03196064580403862,-0.5888260041027346,-0.49407742791583603,-0.44306510165747875,-0.33718148980412754,0.2911941415978797,-158.79478791639593,13.340909353653025,19.007672513308528,-0.08422361264628005,0.10832172286948571,-0.08212277097361835,-0.12712356702204244,-0.05373579416110962,-0.1336847830380871,0.6401825782154394,0.535803040226745,0.4915530331865489,0.42971626023556153
0.18,-113.64621926162943,73.17120061842307,174.17272194484121,-0.07167727244893848,-0.1846267134335312,-0.15024761916677853,0.05095494515246778,-0.0019848820799998265,0.011560944389616981,0.4125066709370171,0.5707887614744406,-0.3947225555875867,0.2745296011716354,0.2683604303446968,-107.39068167552608,82.30707917514225,36.88854700094218,0.051153053400929016,0.16145955888349894,0.15684456604522753,0.12887716878034947,0.13823689871762962,-0.028129680176742694,0.6606378729130359,0.5438915549713869,-0.3373771662444812,0.7009923075847667,0.08580449719352978,-185.86021592855005,0.767575326792207,9.193013040353748,0.13661006613627397,0.03206424279040969,-0.06350751081372615,0.10420726575330025,0.19536074699693096,0.14655524737913173,-0.5923947904807716,-0.5645859890969694,-0.4539342289200944,-0.5764279029402134,0.24788000583763278,-158.82883417362262,13.222719447542888,19.06030628102817,0.18369492949655652,0.11300277555193347,0.09945376036597015,-0.06036666068200519,0.06594091666801691,-0.08571568451406492,0.5034422938735716,0.5116370441164453,0.4164558239770501,0.4832630679200464
0.19,-113.4982190850564,73.21869389366078,174.20963064540754,0.14982723659800304,0.09964593183211645,-0.23861819033712878,-0.039439482185071685,0.06850035319557224,-0.06905499694363093,0.5908471706724108,0.5293709173736308,-0.3034210406921941,0.6123815807638028,0.27202143252186617,-107.39641447589618,82.29531939587329,36.62912061683567,0.08436926260808748,-0.003912393376004783,0.0806279105097896,0.30540523226723787,0.16920076924385188,0.1762764709230209,0.391208444606142,0.4001275788417482,-0.6222709794753896,0.48661149860278247,0.1292811145825261,-185.49585581850747,0.839813422336808,9.22635418470391,0.09189866560620424,0.012581015694945435,0.12542058384743496,-0.062003518874258964,0.07535243472943394,0.16221783905131382,-0.4730916608738801,-0.48343079093904034,-0.4763540921866279,-0.5317776355593503,0.1969130597034664,-158.89227694401694,13.10008166248431,18.858585373471108,-0.03410581958433241,0.062068572895059786,-0.10825586023454134,0.0636217135240273,0.0457480157173418,-0.013090284681306158,0.5124708842125795,0.3569259918227484,0.5149733305335596,0.4834542636104844
0.2,-113.5030777183687,73.1605050459079,174.30878484477142,0.08621146929274148,0.118944570438145,-0.05886323902770679,-0.039254823402258776,0.027530013187449492,0.1722807470600542,0.614211293099611,0.453279498883604,-0.4964658637717152,0.49261756135185913,-0.04681311631194582,-107.34640082974255,82.38263111448366,36.62522590754474,0.04948922188170599,-0.0770952064099882,0.05958527505205675,0.05667055822120873,-0.08932757005072356,0.15189524657703468,0.5262749468213377,0.4573298277209579,-0.4174046120772265,0.5642109019374175,-0.03071583869285524,-185.66750467136046,0.894704412750293,9.32611938944552,0.05951585486168207,0.14557554032177883,-0.07710355824132219,0.10522195628197242,-0.04934857406626261,-0.025759366238385373,-0.49129134125665297,-0.46374055122707347,-0.770643772322468,-0.31877576418656606,0.4727198851469411,-158.8339549941169,13.268841924760183,19.116044037207043,0.04323236207619782,-0.12042607021926173,0.00553733088184993,-0.10212203221938407,0.2669826122874077,0.14338647127375687,0.4676720875904405,0.42268360491274987,0.5680831123065435,0.3211691080419789
0.21,-113.65718344288517,73.29754139311399,174.47431879171586,-0.11719809991649786,-0.0052724766360770165,-0.009768918074862559,0.09463338151599442,-0.07192071791668907,0.12059827178437231,0.47140168901800006,0.5356359991942128,-0.6096682174124817,0.40665030873691643,0.22382791025298743,-107.21311907784967,82.33859531867047,36.363876145881605,-0.06669709329208866,0.05886990970621528,0.1211348012826153,0.0055506182042747015,-0.1891186578656756,-0.0028805819042049124,0.4563383212288279,0.6034436028651223,-0.45044605525464226,0.4106988703751305,0.23483147442967683,-186.01794449694202,0.8920396906698427,9.193031323889782,0.15771501977192437,-0.07669686542341762,0.11169184630212597,0.1539364282423695,0.006084245869436469,0.04894997242349688,-0.38176375234252397,-0.529623591060342,-0.4849045529759621,-0.5806723016662673,0.14178617293715964,-158.80656257907972,13.216717379539897,18.99314701328094,0.12451788148791017,0.1408653990619477,-0.08942559313758325,0.030741257328836154,0.0012570657046815648,0.03271986969783909,0.4471910562640629,0.655745529664765,0.48131138178953753,0.6351723438107538
0.22,-113.66592926033103,73.25419196991172,174.34273682764862,0.19112004357194878,-0.04107571346190299,-0.11181306380353849,-0.10472443354468247,-0.06895249760944408,-0.02030342270304605,0.49162060773813915,0.3549407219398313,-0.5565934417672103,0.6280537694774249,0.3166557465251958,-107.35258768155703,82.246233439386,36.20409137441059,0.01591807363934167,-0.08174630212050679,-0.02353089911721202,-0.09995386510564667,-0.10904227917201256,0.16089553850822252,0.31636927938609477,0.6016664874276674,-0.6024320450063486,0.5644187717110258,0.24791272073349765,-185.7846400336587,0.7383918709085854,9.362607174111385,0.0005142719947601859,-0.06163976903358534,-0.03988433047556517,0.2890843664132287,0.05817608912578973,0.11879960387289337,-0.32314362754482373,-0.5411271892894995,-0.5690091471004404,-0.6538467093893862,0.3708935325769479,-158.74511553332675,13.365460755712686,19.14142055736625,-0.2429072385738251,0.08675091752417907,0.004220815301569215,-0.0776830684302103,0.33983064134427127,-0.1381862674073774,0.39584723223633356,0.5553742540823897,0.4941932129225323,0.7435203406448464
0.23,-113.52727931575266,73.06782491869042,174.1314690152682,0.10187301011463211,0.08303183159204723,0.015131518008074888,0.08914830819915741,0.08510807263766287,0.13905027608684073,0.33652980073753636,0.5019650979197049,-0.5857944887915398,0.3565742371889681,0.1855107927200137,-107.44097509035599,82.2277769864892,36.69696249160348,0.08155686573984529,0.14912412922008295,-0.07509807140250396,-0.09130066331469257,-0.14343975618521054,0.09985723592124049,0.4918289472864309,0.5963376539742707,-0.5811308810569767,0.38102321984490084,0.31233505449037835,-185.85756744862033,0.8873118394716648,8.976277763221187,0.10574071277381651,0.1633994134089956,-0.05404014929287999,0.12213517773043585,0.19185950469664315,0.053842431060536655,-0.5981062556785227,-0.26246933597411914,-0.7385169237113427,-0.46764652366828724,0.4533172543809294,-158.6798645793913,13.247765021153976,19.20254478558855,-0.05862452136266105,0.01998887072436873,0.021607912183714127,0.05327570960609668,0.1970359718647997,0.02591597479124521,0.6048701011666646,0.5340877862431214,0.5139181956017765,0.4437706180236041
0.24,-113.56580591826138,73.28515061118756,174.30098628560344,-0.006416682139548159,-0.03062974225174871,0.15686889953479688,0.06316429305987267,-0.039463287088327095,0.004324179199428083,0.4668681252599413,0.6114286636155,-0.4585595420781199,0.4145089476655942,0.3286180703857623,-107.37743736289526,82.37613851716276,36.74808811127254,0.10891850968362499,-0.08885327267617138,-0.09074582446783172,-0.17992897268178168,-0.07616933059712605,0.00717140639212465,0.6193480366056563,0.38407600431842326,-0.5051108472460293,0.44669135681398653,0.22626504853980586,-185.68788476200285,0.7477293988820778,9.227825830652156,0.16033993962663246,-0.08571965794601909,-0.11592533165382311,0.24021684525505407,0.04997083063336846,-0.07099635244896679,-0.4259037412364189,-0.5501600518450487,-0.36099692533816385,-0.39328048100989416,0.20557945193007532,-158.6672443884842,13.382927358272827,19.242778943968126,0.10279256659119876,0.12311849563237681,-0.0761797133525549,0.09723098984635258,0.16529803090253953,0.09839687144463131,0.552970543634575,0.5396663816817071,0.6218541611875863,0.5376930625430852
0.25,-113.44030587753382,73.12654158699316,174.3414141694895,-0.12500419090884732,0.20738590071004132,-0.14447141001143704,-0.1589253080387725,0.03794423592460784,0.12146877639586784,0.41177497013030634,0.40687996415840644,-0.33537803611743966,0.5581987998473463,0.369699557614972,-107.27197141612065,82.32434675310397,36.64881465361183,-0.08293125355332032,0.03871118243986286,-0.023246174670883035,0.14908659359966847,0.26501851535272397,0.16257021891048945,0.48297026848801194,0.4294186861470962,-0.5460516745988654,0.508039591538548,0.33931778485826614,-185.76785009084017,0.8820714733553946,9.246371140715155,0.12333013239708691,0.007629762619560249,-0.06717890398575771,-0.017974839889730643,0.08101629945745115,-0.12249020565829918,-0.7846843261831147,-0.5118868011292389,-0.4447858218782155,-0.45678723786064857,0.4285475531522177,-158.91394579755,13.184591617355062,19.0724462063675,-0.09861613822673677,0.0038020586625329925,-0.06777180068512799,-0.006003409432053283,0.13430131106898374,-0.033008293703003865,0.3208665225730274,0.48225409601647823,0.37227787975618776,0.43777545092770004
0.26,-113.56734621170732,73.17554969099876,174.3944215090624,0.06952908792038295,0.08110335042928117,-0.02446970695189365,0.0843039493061284,0.13882378944779625,0.12725976450985582,0.4485356947224126,0.7363867368164206,-0.6045480083312587,0.46668667380881046,0.39365169775431375,-107.4015416903409,82.19178691456328,36.75254852105898,0.2435578503921698,-0.1903766078726017,-0.020767600244158843,0.06332334761335094,-0.029774706723220044,0.022408984702230753,0.5205133192912432,0.6277348479774421,-0.5481051066238232,0.5581002853823496,0.16130734805450564,-185.7118160183817,0.8075166479882728,9.19605638722087,-0.07802702333708311,-0.14394644109748836,-0.02112476169473864,0.08371468098804952,0.11369402341087902,-0.018602857547377352,-0.4607753978788493,-0.6401484007450602,-0.32764616581054795,-0.4414308581603357,0.321500546687179,-158.75275877200204,13.027486055174087,19.017537956115337,-0.07870211176290938,0.06394578042050487,-0.08826075250780267,0.09571551303241475,-0.016556850429566852,-0.09418546879483637,0.4395885063798788,0.721943983190484,0.5535013463173725,0.4181898408878503
0.27,-113.59448530122017,73.06955027704984,174.27626282565814,-0.1735360938310647,0.022526351261594413,0.026462061560365374,-0.08209100226168584,0.12338674214217206,0.08230518816156866,0.2558848223704108,0.6915931530418673,-0.40449549663251905,0.501091359113271,0.39490072258298126,-107.35519491553639,82.4478530564565,36.83863019311939,0.17078055387741142,-0.03644999559609253,-0.15184928208725518,-0.022832044998532093,0.032696410150725524,0.0583031743492369,0.6944718244848676,0.43088430792803595,-0.5195399851390069,0.4416283259323338,0.32721679443973833,-185.80438780864932,0.6734334841912872,9.214070477496506,-0.02471818420907248,-0.026904162229963936,0.06643603894617497,-0.1308785363888139,0.10882943418010696,-0.07711505574471648,-0.6077559809392881,-0.40715185013860195,-0.4126477066565808,-0.617715416035667,0.2658845373799907,-158.80607390648774,13.172924101644792,18.912684402682235,0.15355055168278992,-0.0284204380994834,-0.10821281281378847,0.10623120191347198,0.08024047247201377,0.11459303529034393,0.6143503829984542,0.49424576051309227,0.4289931567224492,0.4270509876921432
0.28,-113.69156548356781,73.10975716975977,174.31905825491725,0.011644581772309905,-0.0746146763395417,0.1802820856805045,0.01340834350963048,-0.024786513388812284,0.08648308898217491,0.4360878010902767,0.6622255604958482,-0.4069709213326186,0.4053366137503338,0.1586130262271216,-107.50375328305893,82.42574865927728,36.88689500800817,0.14091671499492325,-0.06196906190277798,-0.09312455198213827,-0.00029894895922237975,-0.07443865514409309,0.17759000661359417,0.537861351054296,0.5791250920846265,-0.493813964238494,0.31500866311572145,0.24629829205822223,-185.77843613924506,0.927733729073002,9.084275953947472,-0.08196705573804725,-0.10155272615648353,0.12624354480757022,0.17622845212816904,0.19328550924732604,0.08170815211887011,-0.48601105496666835,-0.531529786059499,-0.39670387402533647,-0.5988180170817994,0.33978462219814326,-158.6875372166433,13.35519880675294,19.00198849857008,-0.12477870776828688,0.11147476455128201,-0.007547011897592586,0.14410629532615657,0.06320442987185465,0.1591881685630295,0.4758930741964183,0.3906952183649075,0.5802937531701754,0.5673541471054359
0.29,-113.43773556867758,73.22232910561092,174.27852061380247,-0.06969916573000147,-0.02256405320903107,0.046666262049684354,0.06586569329232564,0.2142923176569108,0.202839534647685,0.48512220861490507,0.29829172042199104,-0.5842297998288446,0.6972566480096064,0.34764025215721794,-107.23288697636447,82.46041883465226,36.59205397158613,0.07034646318212469,0.10883100898509805,-0.08660202940433886,0.07958677694123348,0.2155526509458061,-0.011624787018131182,0.5565537940117317,0.6413134778408652,-0.513460761856038,0.6236561882155696,0.5086054831422792,-185.8403870183019,0.7397275394026981,9.20341295858868,0.11601955159410245,-0.02259942535552193,-0.08115282341868735,0.022218248265042803,0.0940899075571864,0.051962492966469064,-0.5304345449910889,-0.5750064368505485,-0.4303195594731729,-0.5534463268973271,0.24515665317117252,-158.89018055800338,13.304450350230514,19.125067605117213,0.014714100600304255,0.14234610836756298,0.08061167735505967,0.02330983559624141,-0.0341449269460012,-0.003400512292444806,0.4793401651707954,0.6242090703029636,0.41278020150033984,0.5885046941005161
0.3,-113.52541427629212,73.14890955228448,174.24452020485086,-0.002043222185859877,-0.0034081178084741023,-0.05436285514966097,0.08992497724554309,-0.038401844504694305,0.08320626132639525,0.5422371585894736,0.5805042801170817,-0.602356503459413,0.4039029404580656,0.2555575617527531,-107.34253780728004,82.34083066927813,36.914923578490196,-0.08683479857907943,-0.15627027353762504,-0.008721915393450729,0.03964260346154117,0.1482907972912208,0.11359473721469038,0.46870137695365205,0.5920095450486261,-0.4897869618530584,0.480253250765704,0.13981513193501088,-185.7171166781426,0.7982894567469826,9.021304842569455,-0.06362787125953347,0.14362017494758178,-0.14604920729286144,0.056624501950656346,0.12286041551443866,-0.04618526747218145,-0.4805941112370848,-0.539711408281319,-0.42378152198182556,-0.47974348041848625,0.3713462764803278,-158.85285841137184,13.426370113847137,19.05416257677847,0.050036666113601434,-0.05084842586628757,0.03539835070788123,0.04839534498268093,-0.010637531188023117,0.08319377523478316,0.3807224631092321,0.3739870003584864,0.6108597482252879,0.4871491012684121
0.31,-113.53165125587054,73.1148673492582,174.4439916195811,0.03560325137063594,-0.15039829022767476,-0.0331234186488517,0.1562082718787062,0.0462017313250966,-0.11690374927175122,0.5066435452129419,0.46240628672790546,-0.5803574015046784,0.5558392353665386,0.15504289378714364,-107.40304935264854,82.5473866544491,36.86936893017495,0.2138509169825491,0.11132042370607652,0.04132263134404665,-0.015002959533018098,-0.01846002076020701,0.1298636477809651,0.5566298085938877,0.6119914920485182,-0.6116633918716544,0.44657221689454196,0.2857918910522009,-185.80975877198455,0.7665414224292338,9.093384997387863,-0.013829946722719599,0.08410726228434127,0.261944099713397,0.06216158995299295,0.03945779257787127,-0.00582619812480333,-0.6054267489731606,-0.46216037064670495,-0.3088494011214564,-0.44681168561074497,0.44368640275303917,-158.6825784199498,13.357527107201278,19.011787600878723,-0.05148327824206461,-0.07013277554617096,0.0754690146164798,0.05922195078013999,0.24557068945697028,0.161104559902004,0.5896984723263206,0.43016229882789625,0.6128245366733769,0.7186751580408696
0.32,-113.6205054428561,73.17369205789228,174.29321978749576,0.002776390737541843,-0.06604304550123748,0.21561956046462358,-0.016399070374837864,0.054579511518421595,-0.06460360558542645,0.46794542427493724,0.5739233093548577,-0.45177920599197546,0.4140310772867804,0.3194727796136959,-107.30549837449274,82.61994899728276,37.094301488198106,0.024822463421979166,0.09273313320261665,0.0584898768540521,-0.05094267868157304,0.19312172029378927,0.21918786324577552,0.5854565660959207,0.4347400056512754,-0.38932973313898894,0.5711724480535834,0.4061285754693842,-185.9409426584537,1.014585549514339,9.177186879550149,0.039689401390646396,-0.08715724416333126,-0.027521366018388428,0.1279173967429027,0.09054408094298788,0.17453522651461006,-0.4688126559210547,-0.5378007068879606,-0.46795161386918854,-0.6649795417978899,0.4744678101870615,-158.7857256334135,13.193261356035869,19.087747132207287,0.04799565755840228,-0.025402271563123337,0.1050230407446226,-0.10308830875632545,0.16799056903219706,-0.14322113689414695,0.6198268049746493,0.4023583232681268,0.5160572584559026,0.6020715430454862
0.33,-113.57235862669071,73.15282424615019,174.29941393291014,-0.01941432634465709,0.08612316564573906,0.08422407956278971,0.16525388567947702,-0.030811588611351873,0.05160046175254824,0.5621582178761484,0.4809767168707877,-0.6469439305039508,0.28991809843164673,0.3483727926821435,-107.36210362829178,82.49214552830055,37.21788064473639,0.01987980060799163,0.07585261569914986,0.2114572213405535,0.06800210464978872,0.15592044603103622,-0.07347997479975682,0.588423347117046,0.43580195525904664,-0.44471087554154715,0.4381020929326007,0.3593213827910855,-185.87222120840462,0.8825118910257359,9.128351812885,0.16149575605046929,0.013943904873579004,0.06270216618123291,0.10271060844397074,0.17265745426190127,0.10901525918328943,-0.5630944857551533,-0.7427503565089781,-0.7443481757336816,-0.4272180028739207,0.3494513833220929,-158.93364819906228,13.110611847941307,18.928979394081512,-0.007530530487565197,0.014283194886686428,-0.07133680702732138,0.05128273340056538,0.21402709127650554,0.014567760450290044,0.6799094191550387,0.632225659973397,0.5075493941927433,0.5072628378883259
0.34,-113.48826862613717,73.17861290560619,174.15074711280633,-0.003301647192820504,0.07303191994550128,-0.009732383528661735,0.21594020349762627,0.16926657265525266,0.1652282663559549,0.4118286624707601,0.37286657257540345,-0.3416719234726473,0.5010551493841858,0.4289896970466703,-107.43894836512199,82.48951920364073,37.1909502894928,0.09656859768028728,-0.05266295288003689,-0.04663164445289767,0.06654283097639084,0.09857705121460769,-0.15784050294798319,0.40458131693534916,0.5278172879482179,-0.602939981208317,0.528759891925059,0.5122826101407071,-185.9714379253731,0.7585188728803338,9.07309691232032,-0.13807103088122158,-0.18842070370777747,0.08487150255243567,-0.1149979614843278,0.039749349686373114,-0.07973505014412528,-0.707343832261466,-0.5314754322486427,-0.29072793119510415,-0.4668583646243364,0.26658731657516327,-158.7250913892537,13.288780974673264,19.064600934692745,0.013145694705686464,-0.04082491777142022,0.051915665199474575,-0.03005855085666939,-0.03828838090556279,0.06914039392020087,0.4155512048752663,0.5157675254531342,0.41446273377315,0.62465503357746
0.35,-113.63426765535324,73.39711543086241,174.3369100397361,0.03431380950306589,-0.04061274915415153,0.08000554467832495,0.25919964938808193,0.11247021344039593,0.019336690707483832,0.5328589285598679,0.6300601456508632,-0.4912536013922425,0.47323384115430744,0.21143940121915694,-107.24277406704546,82.42778637640258,37.19727233412469,0.04123372351618117,0.013515481481305984,0.18346710546561779,0.18249047510261238,0.008469669819732517,0.26712517287640947,0.4608567298173273,0.4755645440880785,-0.6196000060620647,0.5405656158023897,0.4698516047559127,-185.98781352092945,0.9840651322334246,8.91119416533149,0.2932374427622521,-0.14648291529040947,0.009478655190572945,0.02306472309702104,-0.07305851263216052,0.1508886075909352,-0.5017616688082002,-0.6071854860203807,-0.4131658929470803,-0.4278209084141411,0.42445469396788343,-158.78818537657867,13.218540170664676,18.865712099700747,0.004616806847870426,0.12062519296423918,0.028417380831240853,-0.06331665862137073,0.07337722534337615,0.11006089035653868,0.4973693480440894,0.39595514194576176,0.6074352240604498,0.5649343491760579
0.36,-113.59504965749697,73.14477721889624,174.47968070142542,-0.06049521904334008,0.17349273522682684,-0.03389627023220695,-0.12504703730197075,0.07082384352868007,-0.057200546280278125,0.5304955756402727,0.4849223652580501,-0.5985195575351925,0.5240566357960317,0.28350974971451826,-107.31071908028918,82.57342309339941,37.2446396751338,-0.08587617742013151,0.1204463466771484,-0.05395684104237808,0.17374752620054928,0.02964255015289359,0.15077716503725413,0.513988904236883,0.3723589519641153,-0.3478069270978951,0.7264547501705066,0.2988534884352715,-185.97961053378162,0.9284717484389775,8.975450801739594,0.09210787268152038,0.012083657255086994,0.13544297316668716,0.03223284120347675,0.05917444523392314,0.008435312310451758,-0.5566156291127455,-0.45155957109694556,-0.4239089031988779,-0.41610289487515983,0.36008006710576757,-158.99311342699522,13.356712740645643,18.786052570991842,0.00705405228923575,-0.13363533364420108,0.056148922504095755,-0.041482941122036265,0.10275222193866176,-0.16099007217342218,0.5135948422110536,0.3744112637314858,0.45811039523901564,0.5342537087807026
0.37,-113.62764517174365,73.04385327228077,174.42834067168548,0.11204878491344024,-0.04508791996450852,-0.12511106414432305,0.08688934411504928,0.1498131152206325,0.23799361926809565,0.4783624932435503,0.33486839063466806,-0.45749200155501124,0.4962316419579849,0.39123952302362686,-107.28463698702846,82.5340911174895,37.430348978731345,-0.2206750497298603,-0.06341916727685533,-0.05260145625699391,0.06953612487944123,-0.10827650100250083,0.002489038121556042,0.5608691147566154,0.6159516627313496,-0.46116241318037043,0.6057105423105746,0.4432184732256597,-185.91423148259324,0.8285905000743012,9.06383324944968,0.12436035962173884,0.0839398365593008,0.027998597131486898,-0.17743519055082108,-0.00475339075202133,0.12050984768676082,-0.47804673640818707,-0.32248345200635387,-0.45928129443867755,-0.5408830485942014,0.3513676150838706,-158.6083310514469,13.135669122120511,18.850218295503694,0.10786547180148547,-0.16238144206495975,-0.02690083608552617,0.13074937261587705,0.13398956398818151,0.04487614832247754,0.5551565080191508,0.506157394231182,0.3691166688044375,0.5579112253039913
0.38,-113.67459369878821,73.07954415221393,174.22767950369737,-0.053192969294806124,0.03058280380741247,0.006944827293081163,0.03738149338288875,0.2226876006031984,0.3501395886953077,0.6636225605797677,0.5456885784628741,-0.4143924460015339,0.5929417103751851,0.4802759288410922,-107.30281509043562,82.759983094866,37.80105009160582,0.05728661234921562,-0.008436797909492512,-0.1369172830485459,0.04232392598530364,-0.02312550905383097,0.05927479446072345,0.39828309862054884,0.5737523665336082,-0.3742706102914233,0.5422061904493647,0.49296272207831027,-185.8949209580635,0.8424344557057757,9.033546834361793,-0.007142654615310797,0.01799579552277174,-0.018286109402772335,0.08106214575016042,0.1799119133534872,0.07937387720533678,-0.5884194754777614,-0.5008508859850359,-0.5422345483413411,-0.46147127718160225,0.44592761599724695,-158.73791007158647,13.422335558921738,18.86028094266804,-0.06293682685951131,-0.050790878695056364,0.1548054302329747,0.06141421949103504,0.21894431267073647,-0.11266130817259258,0.4885556877341214,0.6123427911484345,0.6018928821145054,0.3714787394020072
0.39,-113.50589881841006,73.09074036722357,174.14824915997244,0.042897631848772357,-0.0616198317786889,-0.02241957052088085,0.24245500718577567,0.23729811347914032,0.6833777450204325,0.6384960644308039,0.5120250870352704,-0.47276158063633256,0.5171422730303956,0.2571309530435593,-107.43033507899307,82.55289116418209,37.42108850179277,-0.13158761466105973,-0.07654888710790264,-0.05675990853084329,0.036153555546573374,0.19085369204009295,0.339532253492955,0.5506376077943511,0.5807529748545309,-0.47197923914615864,0.5046797945611012,0.4200125387965495,-185.83656729656286,0.846495398895189,8.948150266155725,-0.06695064261662223,0.017525880290054315,-0.03220884302856182,0.06174927828544004,0.09643611077683972,-0.022424315516536654,-0.5011746199822845,-0.5538003360268283,-0.48737568116277635,-0.5371485864564136,0.44127021090750185,-159.0173398086893,13.275109709541894,18.69608451433353,-0.2533055533780422,0.0580369930521428,-0.04431982963876345,0.03778976616540471,0.11405355786988242,-0.17423821604420553,0.5149514760139503,0.4339625977189453,0.4256642987589936,0.5385363249535956
0.4,-113.56950450417654,73.07410293457968,174.15243195786056,-0.16494146506343682,0.052524678355612676,-0.023844868117399942,0.0386281696402368,0.3177568566286454,0.5744768657153876,0.5279113249802869,0.5854916809194165,-0.43230717664649343,0.38497951206031034,0.5177444915063284,-107.35394549677731,82.46455161391786,37.73920012492056,-0.09553107630522062,0.0658411362533292,0.0572010989129716,0.13846036158417457,0.10399016790784774,0.3001511716942335,0.6643096627557216,0.6028789476420204,-0.5582839255200407,0.5317763142160968,0.15271939951212604,-185.8314471007189,0.8164859142807156,8.974788170141267,-0.03409828112828857,-0.029704935691672894,-0.027664325655833294,0.44045660777635587,0.04170094897129495,0.19102685415197881,-0.4991020354874326,-0.5938048701805629,-0.6360484985896703,-0.5200974039975397,0.5267656806412578,-158.94374675367746,13.111484367901392,18.841677601711964,-6.073017635663605e-05,-0.15185723563245015,0.032616934813087965,0.21659538070347262,0.055064469158831245,0.17713936783621526,0.5476348790391615,0.5813102788849742,0.5674795506470447,0.32290117481495967
0.41,-113.59515985549572,73.19420484703572,173.9343044714535,-0.04443989046064785,0.09812896801997742,0.044974326738699784,0.016387555556172495,0.44644022800196936,0.5996545660869853,0.4105533350056163,0.4389161065595946,-0.4482628582958082,0.5529969670731409,0.5470158501876924,-107.33065882895573,82.8069623165646,37.59560582960865,0.12221259398907368,-0.004970626580878485,0.014106295018066983,0.23387785098716873,-0.10496559025977958,0.13746413654755701,0.489344596679381,0.6464581755606342,-0.3886976351678484,0.321191984731128,0.6133549786355497,-185.7884843915857,0.828544429995766,9.077353662034987,0.025878885448483036,0.11148569810774168,-0.10080547331646963,0.8125788532711922,0.17459069045512274,-0.005330416941791712,-0.49935543114094366,-0.4748580750037747,-0.41621974396429673,-0.4659309970749684,0.6053395972959819,-158.8830914863211,13.104279058422524,18.74628482754934,0.04541709150597692,0.11682035812195234,0.15524570909976834,0.28838845698499116,-0.18428313303909882,-0.10726152582735013,0.4143533491076503,0.4431839891029019,0.3830584378607851,0.4919950423488549
0.42,-113.68931135704592,73.14418567142839,174.07305744061554,0.2509547029728512,0.16270609430630106,0.06926080900208458,0.2597325477202197,0.028175876826170412,0.7364909214455242,0.4514414023879425,0.40320226669892545,-0.4769193683012755,0.4932927996369583,0.32750352146379597,-107.32892582269419,82.81922042070326,37.72343756607466,-0.07121505035017837,0.13579056260305178,-0.13782268029265418,0.1518231829294347,0.0431071260961765,0.1580668095774012,0.4281013206195411,0.40845610037827595,-0.5384456537243947,0.5048608572538393,0.48229630662519324,-185.87617864928882,0.6647594872060326,8.981201071921076,-0.01690122144173111,0.11064279427517992,0.24300632446178788,0.7815278848253795,0.43680227588974574,0.12308639291714071,-0.5463022504486169,-0.548167327125076,-0.5132225598580475,-0.49120377937508214,0.4830812489646749,-158.92301083911974,13.357954776299279,18.70158768114317,-0.06064763885910505,0.08302634257941667,0.08929573671255184,0.6617113232857555,0.1374927824046709,0.06531839010521011,0.30789341047165086,0.5566161638026806,0.6343861604789901,0.21366695711263306
0.43,-113.91586792606678,73.21626647503544,173.7770180088326,-0.2627613800403786,-0.06496158350574589,0.045299733525556836,0.11884892942024895,-0.12050516828740712,0.6903031011735783,0.5876435236711357,0.5114504891511791,-0.5900081250804395,0.5827917622632166,0.49140594433570284,-107.28729955345695,82.63328734671867,38.22572906029285,-0.04375825867340387,-0.0061168394927058195,-0.048583669857409306,0.1464406671962286,0.06403604235611134,0.003750940657659435,0.6652565464436926,0.48040507068194416,-0.464204810709485,0.5533710127287447,0.4238124296964393,-186.22086485282074,0.4652817062710713,9.026071047578187,0.049383863049674126,0.22622168173695356,0.08332868642295979,0.7567178196802834,1.0016389778408077,-0.0673487676426299,-0.34105107389600675,-0.5725274951632231,-0.5102786850297018,-0.4368949859987765,0.381461078549585,-158.80942274181774,13.17011600800645,18.961983884527257,0.030214009921458805,0.012726021780184314,0.16675771495048922,1.2413420820151977,0.08306028531704836,0.32899741844575947,0.5031758550196817,0.44390063231934984,0.49738736693342395,0.461677822182727
0.44,-113.98569063433742,72.99624347038652,174.06124905298918,0.11492745463176454,0.12250241302782922,0.09634650070704405,0.24006099526613578,0.15148484972233062,0.7531355512789242,0.47500936433888447,0.3962697604848863,-0.4001694254795503,0.48386049953993965,0.4215794587195113,-107.38866634281794,82.81846676063553,38.65714972981768,0.1768535025294029,-0.03436050383190978,0.0740680434211212,-0.02640810625520231,0.2180769342288997,-0.13574059560463536,0.3970536946598167,0.6522034519570123,-0.6317527550797843,0.5396589232705963,0.4423949367323503,-186.26434650445478,0.1964141254179082,9.017486795541274,0.05168554992882666,0.25661487563796714,0.11954739223324061,0.2832639706755484,0.7399749089354783,-0.11856235406467178,-0.46099955330005193,-0.5408743494977267,-0.42827547010611794,-0.5778145214584582,0.5188396968673327,-158.73147179967998,13.179872763297077,18.72060611212859,0.08071440490548261,0.14004846762196452,0.3935039440735637,1.419152820293871,0.5693770085124457,0.13779405362447483,0.5669651038254788,0.4248341007157741,0.5423053412200307,0.6124158795558724
0.45,-113.78265576566126,72.87970823053239,173.9956926183174,-0.04151684690017341,-0.005721692120001096,0.021923510452776684,0.28941143736890373,0.07042094157277576,0.6197063040769685,0.4599457585923201,0.400950218725616,-0.4942003421611105,0.5291622817809323,0.538733041309584,-107.54454887168843,82.75206920666415,38.15271010952159,0.23808282391989727,0.1356951097850717,-0.18585717643350108,0.20185962371118765,0.11063652525905386,0.346827554401957,0.5439243067269005,0.5210094583342063,-0.4826198586780822,0.7004848283836097,0.5070104281055917,-185.55348600016285,0.23620681061014068,8.749668782132408,0.08429406344646838,0.3306778534618577,0.19544097773188351,0.2752520293686242,0.2882228557580778,0.8283391336390533,-0.5490901001196713,-0.5777699695995445,-0.6568572691461486,-0.5438800878956843,0.5877028751938966,-158.00527634542473,13.301002381592923,18.972520500397067,0.22113120581333282,0.10384004264282928,0.22071822894810678,1.445022083163606,1.3503913699387717,0.4017549385304105,0.4919000072395061,0.5974710735588413,0.4571967860517748,0.49934259416611126
0.46,-113.80907048258828,72.6182109236022,174.17886201704914,-0.025058868519801714,0.0065694158324729884,0.06394691373751847,0.1902691963679346,0.1361699518919383,0.5092404042393159,0.5168297146579626,0.3108356902438373,-0.685133109965986,0.5085533955706978,0.5696521841472167,-107.60471789106579,82.78280308211488,37.55592379647535,0.285716596249984,-0.027672480783696392,0.06095545875938431,-0.015893508793568656,0.16310176806843685,0.19518154564885204,0.5327526572069368,0.6866963806411548,-0.4852483432795,0.5310983035922119,0.4675978562192999,-185.12448091089732,0.48759924679319455,9.003864695983356,-0.015440898440760104,0.1703541856392666,0.3716124134603543,0.3279809349058216,0.3501532751938248,0.4120221248054745,-0.5398326562490703,-0.4756513435978843,-0.6351444144434508,-0.3697965934113315,0.47721635483317265,-157.1660454120935,13.70403545420537,18.838531546480926,0.22741476959555007,0.37621204742833425,0.6980309720188539,1.0631972166811576,0.45385240157778095,0.526377434840266,0.4909165700611017,0.6562094606667173,0.54240984156276,0.31790686726434403
0.47,-113.81754753833518,72.34119306942047,174.04773664428868,0.12246344973662299,0.06850407967140391,0.08843203452062467,0.02045645457485501,0.2926423590287873,0.6461942097047948,0.37184569328333705,0.4651802400801304,-0.6634299209152231,0.48342083357045845,0.5261695665633795,-108.00159142850283,82.86262469563,37.53617217412641,-0.011202043175948986,0.18498648364819728,0.21079428838928635,0.2066153806349483,0.19053355587204998,0.3262231253918273,0.5941410252398852,0.507437669372721,-0.6542089704200205,0.5173621523042503,0.5676012789719203,-185.04016952796357,0.8436486719810714,8.880867946027042,-0.05176573703142895,0.29939792630778467,-0.05830359058752191,0.37869487668975815,0.36905568461644084,0.2878490896961165,-0.5700716720880862,-0.4483755879771312,-0.47302390198698385,-0.5070825217450398,0.42618104599896556,-156.5993336629478,13.872704399538206,19.0989880469531,0.3614535966549842,0.24977780558091536,0.684979251273427,0.8464926961937074,0.31008310238911724,0.5673794499803524,0.27519599993639526,0.6021278086799733,0.5440691517909937,0.5420885333735742
0.48,-113.60725932799869,71.87535592458188,174.11151171017195,0.015056671686918807,-0.12878564569761897,0.07258215975775276,0.006027687092083929,0.16371119007555915,0.8815841702191755,0.47587528864299367,0.6167729903405548,-0.4261917564009902,0.661172141977362,0.5332677331529304,-108.12583100843072,82.88632253719211,37.42159269294678,0.17317220325193647,0.055418449818116076,-0.11661452479755674,0.2385137824631427,0.19094015786308688,0.3528060962655892,0.4329805608570236,0.4714012358305055,-0.49342185676967154,0.5294820251889382,0.5193628352472683,-184.69278724561266,1.392942292187837,9.194560752499461,0.14142309234702982,0.35814586401961285,0.09017159029126667,0.5836258306598313,0.552175108758452,0.19751734099704416,-0.4793566336785397,-0.6247340025163947,-0.49790553248722924,-0.49607350945262363,0.6237482962375029,-155.94250737615258,14.284534950755441,19.214724431633748,0.14969681391227338,0.09660013059418868,0.6039737300222724,1.28455423980799,0.6200503376358046,0.36347946915695456,0.5259258174655863,0.6363335457094328,0.7382461849905471,0.47379799732048267
0.49,-113.59414970513377,72.06693301655488,174.11041445948354,-0.005387669932498243,-0.0005278959089079702,0.05845864951080611,0.10697071424127225,-0.02136753642921367,0.7503339924372532,0.5359485171205891,0.5034692104683757,-0.5500956065957713,0.45370628084589126,0.5345962662978961,-108.30682526169755,83.16693168369626,38.078979497692465,0.0167569108820081,0.1054636674054257,0.04051861610915216,0.03876101561906963,0.05041628875327048,0.5161106647607944,0.5102012691480307,0.44000862755095327,-0.3276566732034492,0.6100845759185686,0.6274579672130663,-184.90917639933522,1.860306856677597,8.945406417331107,-0.034347148330967345,0.31404555270270784,-0.029442802807834352,0.5190261719487271,0.7749187239516483,0.16370151514416198,-0.5391648560129825,-0.5222333436453751,-0.45723515599253417,-0.6348049548588374,0.631042891761095,-155.63524898113332,14.7874718066921,19.610430103691364,0.22910765206780065,0.19715302173693383,0.3804851885146259,1.2429943742595575,0.8100482321354252,0.4330066685675291,0.4431157171068202,0.5954479635472847,0.5666788690726251,0.247707350587471
0.5,-113.43360605196547,71.8137211948889,174.32341579360045,-0.010020965753615052,-0.002028691350773066,0.03671644987854712,0.1481451060945494,0.1254286234968655,0.580420244073953,0.6384469437411742,0.4220118410140865,-0.4839820449522344,0.39978303785922736,0.6313701191400339,-108.00300383553655,83.32649302084982,38.036220390600505,0.1617597575321894,0.07902242811514226,0.05550063980668124,0.06237729193822852,0.2705121180813911,0.2842122562831981,0.8445670436830717,0.5281156423906381,-0.7397855539571977,0.4260054483058975,0.4343751343979387,-184.9309649259185,2.242322857984717,9.359313549444664,0.072320302396596,0.40365199884204506,0.008068830844273253,0.1721174865745024,0.9398314510002296,0.04429167268672235,-0.42008296589129984,-0.6389196213848354,-0.6126572097429475,-0.46682954271379257,0.3603487038064416,-155.27116089226064,15.06480475098942,19.734986474550237,0.3522392716613799,0.20181965838000632,0.32815533257149065,1.2443425587419443,0.7403655555037413,0.2273822388042657,0.6675684114982986,0.5310575655635754,0.4619077568049214,0.2792583003217086
0.51,-113.0712689495415,71.47186992760476,174.48972381137253,0.08123242458747984,0.1778887877555732,0.2509638773293372,0.6845392861728704,0.10187531736774882,0.45024418797828286,0.5891085129779275,0.5405816329275157,-0.5647320912498877,0.461360018299657,0.5149999246091885,-108.17001620903882,83.60329398947148,37.954266074474695,0.22825674111234334,0.3241899073238974,0.09892832228771876,0.36447159036095567,-0.04850992075063577,0.32824752902769705,0.5581567116193109,0.35975104011881176,-0.5610619979984104,0.37386160285736947,0.5938071615269952,-184.76817456518174,2.8426162156477206,9.224623395801856,0.0858365510141143,0.32884568952647175,0.16563618006507255,0.4381934401748869,1.352055300428865,0.5135918874636055,-0.5533214727639788,-0.5179631301669184,-0.5304084834455614,-0.4947991756070028,0.3961521950635756,-155.10999533642544,15.411215291493425,20.31157530981116,0.41663125513182314,0.20828902134551086,0.1875580363312624,0.7187445410157051,0.9121743741843763,0.5672804537023788,0.4594383035321712,0.46244591603246105,0.47065731600219296,0.4776664171238916
0.52,-113.07892880517812,71.47025302168392,174.5117800340215,0.15951885741012212,0.22743758339238507,0.047534363890141276,0.7387681809292057,0.2826831473718923,0.31791169910160766,0.646699855634303,0.5119408358253967,-0.5310872515351086,0.46756656890387027,0.6505504988436768,-108.12005701593765,83.96061732094167,37.93733220459046,0.03141188491611621,0.43793713050796834,0.014110718642010363,0.2197079402919831,0.007824785834064152,0.14221501237508535,0.4781697347379643,0.5488917331360516,-0.4946579720608659,0.35839819595782535,0.6494790817963281,-184.38585754184976,3.128087549832938,9.226234088139485,0.06716444481869402,0.2811796395946452,0.24619201551478273,0.5677210721380406,1.4035286394729563,0.503749087405838,-0.48553252533673025,-0.5640991169269095,-0.44044551702225265,-0.48613500072474214,0.6612367238166221,-154.9281972006188,15.865788330622253,20.894263473835686,0.5594659329160804,0.34296631265981464,0.23869960066742782,0.3792484001324117,1.2830379131009304,0.3370782138986501,0.5434312979543612,0.5089447154587854,0.49872258545650044,0.4109617195665567
0.53,-113.11195875171352,71.20934676933638,174.49147872825327,0.1724645563528015,0.2098603616485949,-0.044087742239659555,0.6773567964351318,0.12073771232352795,0.23644747660393048,0.47068391755433825,0.4003886935132311,-0.6385511207527651,0.3546497761694267,0.5676885589891674,-108.09817658816159,84.39059897388289,38.075938218643415,0.012965012125897082,0.4975450924894002,0.006754640093450212,0.13271038834531743,0.07217480794558523,0.21990794250279383,0.6170917672811095,0.3412144586353879,-0.6255075872213472,0.3994775129225807,0.5017966448968023,-183.78396873376573,3.7510051249798924,9.530658436203641,0.1045151161493086,0.2035005575304502,0.5831537870749691,0.4157862477460255,1.095314142224742,0.6113948476339692,-0.6105032340603844,-0.38701478936069883,-0.6317967796000226,-0.5664333220013811,0.5125509229902159,-154.56983349278443,16.310715194067996,21.547242931408526,0.7414289866269242,0.3214221907245392,0.5779091940188883,0.21281378326174025,1.4545911278524044,0.46818612190625236,0.5130093950453339,0.573891720866401,0.5532584161761911,0.5265173991445369
0.54,-112.76633104025302,70.82399554564446,174.68712665005842,-0.020414654403015015,0.3655155468038661,0.1606441716587124,0.6795059346596979,0.006981849831887155,0.3323974223963535,0.6846565927703573,0.5277153846926935,-0.4001434121898797,0.49582843524892,0.6409014100969286,-108.14453363830403,84.93103198612711,37.92489284851701,0.0959375315926308,0.4216082334870417,0.007231395830497124,0.36010405526718514,-0.11479520361751526,0.30060530247104705,0.4811575781308454,0.5329465119099507,-0.5302768328709783,0.6891852323075651,0.6328112164303235,-183.02997305748983,4.1186792935250685,9.40856317565284,0.09332798765804375,0.2161051604206717,0.6275965325074075,0.37565971045189744,1.0329924553877616,0.6613517166291816,-0.524899770366956,-0.5720535403972659,-0.5728149463423409,-0.32549752800728615,0.5629180328101626,-154.09725692195434,16.618938050024852,22.244141365761273,0.6816017794172063,0.13107733885228012,0.4559575062416482,0.3362089682941367,0.9958843571579209,0.7062799954125732,0.5794054629377208,0.4696622293626367,0.5488870622404164,0.5418047511849328
0.55,-112.74000754083244,70.0679608882469,174.92420644654396,0.11181322361143131,0.5223972305122478,0.015438549154642534,1.0509936698698876,0.16002290634378707,0.027411804686081676,0.5895943648989794,0.33622903654341063,-0.6461068731089353,0.6073531821015742,0.5266762180005289,-108.03153254344552,85.11408058396256,37.927532792827456,0.03780528352130688,0.6411991439019892,0.05105465149699777,-0.08082022791853291,-0.21015609056591314,0.4007358234342123,0.506948817108098,0.39191680065110235,-0.7036988038642722,0.48521525332488613,0.6769352885172648,-182.16899904137034,4.429735618080208,9.282992551682314,0.17648297316919231,0.27642949793883503,0.47684637012549574,0.45460028842907085,0.929323597824014,0.7465962402375992,-0.4193762395550185,-0.467661913752779,-0.596335765979339,-0.26494546291675525,0.6918267306247428,-153.42125349907474,17.220137767910156,22.69403492474202,0.7090515782238177,0.429439685295757,0.5537101523905181,0.32354750985911446,0.9623040367507493,0.7639702207110235,0.26298267281382237,0.38345573647118003,0.5588890942014666,0.35196744064618246
0.56,-112.54644250100728,69.25011282363751,175.01597737551663,0.05090347842222369,0.8376417153802325,0.05621020965145794,1.5876929659129229,0.2403074169436814,0.26404898353779593,0.5722655918487078,0.5632091500636938,-0.6342100405165627,0.3977601289654694,0.4934704950446044,-107.65000138516237,85.76081740770621,37.82886977787801,0.1418557565419217,0.718156986021706,0.21017290535637057,0.3641359866273115,-0.008382486783368968,0.3075486987563327,0.48535165933322705,0.49443196481972007,-0.5416226289003729,0.5881555499857591,0.4668910015519463,-180.54819829063015,5.05933088689666,9.360984182474542,0.09480115974929185,0.2281379625709397,0.5976301882017665,0.6240196618852845,0.4807865561614233,1.0326164230158332,-0.503470681530741,-0.6696706057137051,-0.47774591676979994,-0.313315375319156,0.6715067343521,-152.3927637401667,18.122033249754992,23.76241557155859,0.49185681601585557,0.3065983119366217,0.5532132607390631,0.7934930471010929,0.5572247083196789,0.8325551991849217,0.4648883097147667,0.4335324953646546,0.5220778149395006,0.6344804466830996
0.57,-112.68801864411,68.34673288315818,175.31975840381577,0.18144279181919004,0.9074917570232259,0.08798497524923288,1.2528769447333725,0.3955098330969229,0.5189255288526835,0.5119043210918139,0.498807578228861,-0.6227027512795527,0.4784545638853121,0.5933658657367343,-107.45186068821167,85.85595723013805,37.60814310324869,-0.03359289515940278,0.7803534337500098,-0.12137568574858691,0.23802826622132045,0.08680458200102908,-0.02148578232901091,0.3758207702337458,0.4556943207761077,-0.5512273841674746,0.6346389690487984,0.6795172114541633,-179.72080529632152,5.267258775349213,9.578086533398995,0.035472182515253914,0.04455150097117147,0.70428249478981,0.6762437030274602,0.5037037843624249,1.1716565420295229,-0.7128894684544357,-0.43557336878287883,-0.5578273226390228,-0.4100699148286217,0.7363024843383454,-151.63444682267996,18.412852947026547,24.261396346320307,0.7033156014327926,-0.02990843145269946,0.3175900146127415,0.8455179057504568,0.5274411442699083,1.177027608128238,0.6100895250974119,0.5073040683635867,0.37444100694103355,0.2913373085420605
0.58,-112.46175736788933,66.91942302009804,175.11840868594084,0.32856714865500314,1.3135647512469526,0.17972531871969236,1.1404106778342966,0.28210352840245545,0.5505472028231618,0.4842038181398236,0.5258957451545028,-0.5267331782708479,0.6753506368415898,0.5119797809081641,-107.41937246162237,85.87037067360394,37.95067343979519,0.10445697100729515,0.9193614996155192,0.06795767339838218,0.3947376678908998,0.5655377911574668,0.1514071176438582,0.4206281712001503,0.43226149221203336,-0.4862992231340129,0.2995748831360583,0.5055188675906834,-178.95050866327034,5.35161299108781,9.342033347930592,-0.10466601700055496,0.10851166709544062,0.8790645268187738,0.7059007072869217,0.005608710610986153,1.550166731916664,-0.4619118939999368,-0.540605847781267,-0.45048896829775614,-0.36928805194294234,0.471071641322778,-151.06442009495936,18.75599857211682,24.7922012178592,0.6002297433070712,-0.10017229709812507,0.41185534648727484,1.0301031177968105,0.17059369011461428,1.058259786316143,0.40754275030435394,0.6453731488640413,0.5161054009910877,0.3765449194665477
0.59,-112.44178237254322,65.82373588403354,175.4442458195996,0.05635238527354694,1.3653650346371784,0.09346877843536286,0.9999467283220107,0.37445408477408176,0.10919939786689342,0.5351961753361044,0.29958205076219824,-0.5251914493079175,0.5006024245156518,0.7811304478628246,-107.33667053942027,85.51381769643712,37.648880117007124,0.02700552025574518,1.034071610858932,-0.09310145984493542,0.5141542533507191,0.2568323574143741,0.31439145421757253,0.45263097206788433,0.5766921119909448,-0.5941313581731371,0.4612356663860914,0.626624022312746,-177.9844602641486,5.492862399929754,9.532797320282626,0.04694575093049067,0.23743199975615237,0.8902243063845189,0.681240628431998,-0.02119353651050962,1.5038945448972296,-0.4336390976035792,-0.644516600098866,-0.6406789675650998,-0.5290159615971264,0.5527840776962536,-150.36443252997182,19.055956115064216,25.189175844005735,0.40559625629057927,0.1856755732042195,0.6053679856121453,1.3737064819583638,0.0710404637164362,1.2185445267495831,0.194680884528872,0.4262216272837137,0.649872788035329,0.3938381134596223
0.6,-112.42451359616825,64.1599678544743,175.0900786341074,0.13843631926438285,1.4812750547100142,0.11108953850246875,0.6312779824675092,0.1002798445539005,0.5451797641869688,0.5739952301592879,0.4129214401316475,-0.6022346196551451,0.535539474702804,0.6285194007024112,-106.92191071905236,85.15208275820001,37.674455085939435,0.12880621703459993,1.0890043762649386,0.23001226218541868,0.7038585219756268,0.2522385743876818,-0.2234530254696161,0.4040767778509879,0.5500369474590688,-0.4498988986308008,0.48708712680050514,0.5193675285933469,-176.89558576177888,5.537383007881852,9.290578524940784,0.0737914108517474,0.2067977246854942,0.8313115960141162,0.7465338841677681,-0.024845382459710276,1.4406383578812247,-0.41405956011314027,-0.570445403943367,-0.8243051732346964,-0.3382788141256225,0.4783663327479403,-149.37816884468353,19.151414715037394,25.629746194997328,0.33805285819414965,0.16356461401371697,0.4811279350666759,1.5251916553770135,0.10907934569857841,1.5029575536363136,0.7205194287592348,0.6102233995445856,0.5357368884465475,0.5017287275939992
0.61,-112.27829128776605,62.40444535647757,175.54639679275604,0.19333929150988124,1.7180529382685392,0.22200815473285096,0.4876516455843722,0.12758640525421447,0.6616824981984661,0.46860569952527786,0.5730409583354459,-0.5564135751584247,0.5211624778181336,0.5717810204786307,-106.61003392060807,84.18045354307952,37.64918242107396,0.09839805180746619,1.3554654708162084,0.019375972795597503,0.4800564535414903,0.20188847420511005,0.4477136191632356,0.586264787170993,0.5007615756201231,-0.5886309761203908,0.48717459466859087,0.7812532712963248,-175.8158048411491,5.363489011907772,9.182457996043373,0.2653939601034018,0.2711070985715063,0.8448142717629017,0.7628363975554576,0.11381814788123491,1.5103539420810543,-0.5661314028399319,-0.6466700751722703,-0.6987650101549242,-0.6430509943859541,0.5221262772405175,-148.60310254442146,19.310925254020432,25.845105315068484,0.508383908674668,0.21745542756210406,0.6030936621672288,1.2582657835205444,0.29543210641391154,1.3796173765052717,0.37885333573544333,0.4669840294995672,0.4695495771736157,0.43805583063863895
0.62,-112.41336633452613,60.41378621482557,175.58278367356158,0.0869527846460275,1.623140658467593,0.05381088884253091,0.4042248666721294,0.3626748761836843,0.6219053969860263,0.6156034681031999,0.42030019279269315,-0.7059511236678013,0.6714465996057821,0.5383445171867267,-106.68249034211912,83.06754312214635,37.55579895550666,-0.09653374156007594,1.3234962120932199,0.0257768698963122,0.6657877660340737,0.06733806062716197,0.36563978585558615,0.4313858160603539,0.5026319065593713,-0.45892494018581864,0.5703738610641733,0.6738708087835235,-174.74324819377495,5.160028122880667,9.128691255294612,-0.16546571232293142,0.43347563395853,0.9395745813714018,0.5677225367604223,0.3152532264635448,1.6315065248728557,-0.43509208044206926,-0.5218221204440805,-0.499333413735759,-0.4024084764830635,0.7026530750825474,-148.32535745104374,19.239084034304266,25.861614633192254,0.5591950549229773,0.13635049537969374,0.4173652914799886,1.40554990817772,0.4553934640227449,1.1716630984771035,0.4369610620716591,0.503149559686169,0.5015443880551147,0.43381781523183144
0.63,-112.27480824169731,58.74626291367636,175.90865507273915,0.0861563003131263,1.6677165567377117,0.12805935685283446,0.17534367091220693,0.9014485912663608,0.6343437361275109,0.6583634582582908,0.31052178837099104,-0.5408593832099389,0.4741889014326182,0.8367117193261238,-106.22828332483357,81.80035805182293,37.67399430556864,-0.0695713993172539,1.2527896213746925,0.05474061204751685,0.7856178509282052,0.0019884440715386142,0.1663816777546991,0.4161798067272862,0.7159311592202543,-0.5590905423488446,0.704555842384546,0.7761709197326752,-173.8161254863123,4.887545784830946,9.367267222978873,0.018553421523109022,0.3264125870876381,0.7424460426179824,0.42715580740866144,0.6546018963120156,2.0866655437813972,-0.3903158200993003,-0.45664366844021526,-0.5868788664923781,-0.37810706749525974,0.6345545907227714,-147.70026942652504,19.368771242777875,26.263013060421336,0.29087691990640585,0.1533528654050897,0.27036885703725266,1.3918006460701593,0.8467875992964434,1.0705558747133344,0.5581672277873013,0.5549608283068058,0.4621278497244767,0.29466344931982713
0.64,-112.5011138119728,56.86008461720719,176.04322886820853,0.11338370131398433,1.4133317127913219,0.23457453028305575,0.4744497711791194,1.4982561587872687,0.46953510596520664,0.46412034085702913,0.47193939462178336,-0.4934736399978105,0.5884948967023222,0.40356753048215566,-106.11839462421167,80.51293397948669,41.64546837345357,-0.036688456925805836,1.3268258883448838,-0.08997966170716448,1.0390377102693207,0.20350392196566475,0.2069489540670929,0.45492080274626784,0.5764595415149758,-0.4575478724743325,0.4741892379436177,0.6376994866130131,-173.03532049642462,4.842338922168698,9.019001483145919,-0.034703470556839436,0.4995508432553753,0.7543301844849558,0.24809076764601265,0.45729514083696576,2.3743476081660426,-0.3101521869656877,-0.5099807420232568,-0.6312540399425203,-0.49687048758996416,0.8652244763854021,-147.17760960330932,19.378285038628157,26.422373245884174,0.39893992530318,0.2702852053343208,0.17333899482496454,1.4812241624035933,1.2591024557371098,1.6853307541747025,0.6891853157789387,0.48889179023185325,0.5094585892863983,0.4911546924847314
0.65,-112.80157736009747,55.447727372420374,175.93764863874014,0.1639997929772152,1.4437775334940879,0.12202809647608803,0.4657864555735455,0.3075187063475101,0.2137143631262985,0.564054704715437,0.40659598194573504,-0.581265116678882,0.5959666316987025,0.6187846225442104,-105.74050066793966,78.99726324640389,44.609328273329595,0.032359661796724025,1.2880617561508159,0.24527006957164654,1.4900073460711436,-0.027910679349503427,-0.01104325229194375,0.3114479308785407,0.38535214031975046,-0.8078624933189283,0.5255261850678282,0.7263834346501923,-172.21547962224736,4.612230323821307,9.031699447160019,0.029286761304800783,0.4316410882155496,0.525209875129872,0.5193913824107333,0.4671368073018746,2.3598194002937602,-0.4748104011961653,-0.5269007928200569,-0.5279560053137261,-0.3619873526199131,0.7728502115751469,-146.90776418940166,19.368969684059127,26.682288127337372,0.08684629862723245,0.3924678787350765,0.22716159587238322,1.5199774137201811,1.3103591811177329,1.7442811691353208,0.54436929843339,0.46815965401962706,0.5737635396877581,0.3944642171709949
0.66,-113.42350360195653,54.00636626307347,175.61031032373853,0.20496618307191924,1.4705994436189525,0.11165985560694061,0.5505074249017293,0.16600704099675173,0.7087496041679447,0.4783351301410476,0.3576419469564247,-0.45516821332497487,0.558999188290563,0.8155354218029797,-105.46167891711308,77.38398926860738,47.04875758491511,0.09019878544782137,1.5155874989583082,0.04351951390533482,1.4353268644276567,0.16786187035614436,0.2698469870727944,0.44231119751774567,0.5384100949222607,-0.3452380585957623,0.4688558890705587,0.6469111103315414,-171.6656917333323,3.977529034904728,8.79053127549987,0.19344692398117314,0.4727536662865616,0.6554307715349746,0.7166983405041296,0.5247630067591846,2.282485446153649,-0.2768019873223333,-0.5260541936503728,-0.47033980506876377,-0.3494688683457753,0.775022972174591,-146.61763406269608,18.93642934190752,27.000866232379394,-0.009278658319840816,0.4342498448554247,0.06414155296949381,1.4093690758882602,1.1147345103173527,1.9385445515122544,0.33511847361215663,0.6523483795799627,0.6099907968020968,0.34378615740002716
0.67,-114.15686582973044,50.769079905823354,175.57783479478488,0.04705507201721397,1.3880504497956554,0.24358288167678532,-0.03226542534811235,1.1113568590443084,0.8065070388414222,0.4487150051875714,0.46981916663203266,-0.665124050828575,0.6550357317813791,0.5947811110901214,-104.65673277187598,73.76543996743119,50.33446039696195,0.04558629349664195,1.5606055672790646,0.09934577021416544,1.1010864083235221,-0.08716101941960325,0.5854821700076351,0.36989639216715525,0.3847503025839512,-0.34058018734361395,0.3198165989074123,0.7002303224905715,-170.14154504309656,3.5098087167001464,8.84628823488896,-0.06766886931454517,0.28477479245757914,0.5780981560334507,0.941225359624092,0.15684709422103937,1.4759930386245452,-0.5469320473165974,-0.6879983958357185,-0.5054453334364368,-0.5015660628184067,0.8194548517721163,-146.03517296410158,18.30625314302915,27.32879560578014,0.04666563186602207,0.5421336200799486,0.1412094357290484,1.274615392998881,1.3142923335798984,1.6423784373110217,0.4203374021297153,0.36021309252945505,0.44581669009461966,0.3267184688510024
0.68,-114.75347533198735,49.287238332743726,175.25436442809783,-0.07808907091354729,1.3807432322311466,0.1387392494958145,0.3961323877862433,0.4696469611783851,0.9477948060831213,0.4082302176391654,0.44490485758672327,-0.6590474649410512,0.6618197465061267,0.8037223689452266,-104.56792271929852,71.98948806831443,51.61850964820603,0.044559617135437705,1.323999953175273,0.13318080577770355,1.1298747475942867,0.16023862155044205,0.5634723092904144,0.4691605430572968,0.603136012095143,-0.64348470690341,0.41797666319110705,0.6190420470051999,-169.5911759939132,3.0756461621041797,8.602757446371927,0.16948056022731045,0.4206770915227823,0.7406064706010775,0.6821706937883582,0.9453218144703833,1.6007006192087097,-0.3698501518399079,-0.5200363911854112,-0.5601956408833012,-0.5257891264094225,0.6389437341576156,-145.84255546405248,17.693792956403556,27.404004974425327,0.03920041692127789,0.40915846513066473,0.04019453332258932,0.9786580124519457,1.223384621738245,1.5233067867905512,0.4428374959911947,0.4771286166501613,0.692133058400649,0.2783945880138666
0.69,-115.02934082436437,47.977153145265206,175.35666919923563,0.15472333719901493,0.9168011802157534,0.3435634285221597,0.7573544350380355,0.056504650751034294,1.041635993197546,0.9033848912938229,0.508194322211447,-0.4649890257301525,0.7707139792094416,0.5153442529349777,-104.0951164888949,70.60269047966955,52.451296220715115,-0.005836760176645417,1.7226954479218937,0.11033451875997,0.9502887950131353,0.3371970290333423,0.31784362712037617,0.3856023902193625,0.5478313088547233,-0.7805558027011316,0.7241990105131024,0.7057443338158667,-168.94633781802764,2.93522424458423,8.771873498695776,0.010669538478828684,0.49410670025571835,0.6646319171737396,0.6043519601341457,1.0300135378144457,1.657553002492089,-0.35992673876291426,-0.404180322430995,-0.5887906600949041,-0.44159454131483045,0.8277072716620695,-145.60600828793366,17.480117304276373,27.33635460031753,0.07381385749233148,0.25548978259456473,0.09271998429014447,1.310308785733194,1.5433976895753758,1.3442594357615598,0.4263264658203077,0.5054304482551953,0.4574533035298236,0.512467009970277
0.7,-115.36723490707422,46.93407274183707,175.2415890258825,0.1917119612823559,1.0187918146393262,0.28078890445716326,0.29167619058793326,0.1385306348383918,0.9798360052469364,0.4040343040713237,0.2890835686296838,-0.5761737974753631,0.7742361039775427,0.8185448624464301,-103.58853531743819,69.09266441835457,53.588273425645404,0.022982100656208794,1.4558251648233624,0.26271070013356956,0.7014355626489789,0.4188170786970192,0.08479635878903623,0.44772478270298377,0.6196072751414754,-0.4503173594384818,0.5764627545534508,0.5620201669871756,-168.34907710095035,2.4981090263041064,8.90037645372997,0.06609622980178563,0.3810067481651963,0.2763237119934766,0.3431880294649917,1.2779006634373737,1.4555343223359674,-0.32517581752580604,-0.44727757035717014,-0.6495309165731792,-0.4133237752432177,0.7869094042114547,-145.5845947266703,17.03939308944881,27.24427392333078,0.08114812415948895,0.5273424950257111,-0.04645496007196813,1.0047618224539787,1.1387204828701396,0.9341299829052022,0.4575206504577244,0.46287228428251487,0.652746697639993,0.3855672300526399
0.71,-115.49811411229948,45.6716870183257,175.32056927890955,0.07454787536067291,1.3348823175468516,-0.023518975589668423,0.3856269857396383,0.01849158117543142,1.1754940785722436,0.610357886223566,0.35716554989912,-0.5667388231880375,0.42052754916743806,0.7065893281196174,-103.1252293899957,67.39458750627101,54.51581718488856,0.1912714059483888,1.5175803570561193,0.006290722918088493,1.2730346567399633,0.4401983910247318,0.3857265881095091,0.3628823544632001,0.6087120710536102,-0.5628099740285578,0.517740555867264,0.8687482878813821,-168.18662232680856,1.9676594339566444,9.015256845519406,0.12389272850679803,0.37532218456051003,0.09832033503292821,0.30009992716998163,1.2536042214496104,1.4945321331571013,-0.41072245713971095,-0.5301220238530093,-0.5697766554051847,-0.6314521931520032,0.7961465570886994,-145.66564316309825,16.60283411571763,27.04477673355758,0.22710843438571315,0.40086390078576106,0.19106493049045423,0.951650544909634,1.239053910209264,0.9035031231251569,0.4781388737275592,0.7823999794936786,0.6373130982185538,0.3783475196415398
0.72,-115.48474703250356,44.2804391757592,175.37972740535648,0.08677328490900019,1.4452602892099295,-0.04851841851349169,0.26893817872170805,0.5147777106439977,0.7541099108315721,0.7278210501049438,0.3549816221601262,-0.47017155360394863,0.4989694801467307,0.8471096179590839,-103.31079174040185,65.70698541171836,55.30330409110522,0.06352521083828046,1.4932475604611573,0.017648332619180765,1.1727699186880205,0.09756771939239783,0.704556366430207,0.21126843471639783,0.33770743226156497,-0.39168652947810395,0.5154840175439421,0.8912711275495429,-168.0016948169788,1.658662843195975,9.168390408267966,0.18147946378022406,0.46971284789871304,0.12216652960253321,0.6781421632084798,0.769265791872613,1.17101800406744,-0.40810868267471895,-0.5727854989129396,-0.5718649922509187,-0.18440692944334078,0.815732372142967,-145.98785173504183,16.260759077770132,26.819769450348844,0.2585920399059555,0.3000316471404266,0.436720373234021,0.9244787784643487,1.5462393210130065,1.1265032541866926,0.6122634774736804,0.4683689081094091,0.6655273375776068,0.3194890611983812
0.73,-115.3098572524799,42.92930135627657,175.40685578072808,0.005656216404287984,1.414006836352074,0.06503936440232994,0.2847548603538435,0.6308499834898893,0.9979123554838852,0.5816741157887573,0.39118879478417085,-0.6650729885611291,0.5288910900686936,0.9808117768574112,-102.92676180474594,63.87194039970348,55.96998719704012,0.19823996472351227,1.5157589077343554,0.231825378162196,1.2485982164880458,0.18856630020106382,0.7113036218458162,0.3593465115708891,0.5278014301197883,-0.628710681128506,0.3691709552562433,0.8381909485242319,-168.0178719575528,1.152365672599313,9.24421347434542,0.2347448101543712,0.3166061323345724,-0.04901198007069863,0.7343348136196873,0.5832994159379763,0.6615127965369266,-0.4781254381003167,-0.6479098348195044,-0.5737752924714765,-0.5442230845929348,0.7670568171004759,-146.3405160906852,15.524442825949368,26.818269927632105,0.19155736898740292,0.27609997296695615,0.4462894576193086,0.7469648038870946,1.6840162633950038,1.0994187883823714,0.3232122536006362,0.6122698782905551,0.6571446208265144,0.6292866241784596
0.74,-115.28715589819107,41.330332007512425,175.64628209325673,0.1295760102057579,1.150466222359593,0.0842743790917279,0.15278240785771635,0.6006239045661932,1.2547945445248374,0.49780718518879763,0.45468680686861646,-0.703104170585224,0.8204129976377306,0.7641137068885606,-103.06305703817252,62.27549007959107,56.61790681746457,0.2107755984311256,1.5441362531924505,0.0852541420676842,1.3868457002676398,0.15219427142464204,0.39699426534032034,0.33352618217463736,0.2074034338429621,-0.42001703859126666,0.5764673037558407,0.7886166590939361,-168.02751854939157,0.5783986269498477,9.308439681601865,0.18484057965958936,0.4310679710546399,0.11791463126611135,0.9123190627225933,0.5693832650035231,0.1979280253719623,-0.2732250471951869,-0.5622273239612328,-0.549726937392177,-0.45349379716413285,0.7038265093806936,-146.91028082776563,15.03890515252626,26.31182713382528,0.11531919849610994,0.27751156329736193,0.5309706609317623,0.35826571059197665,1.0918661306555173,0.7710233460485889,0.6725508425125004,0.5321841655565956,0.8620393950989214,0.36410503364773666
0.75,-115.5747176370989,40.10704211898217,175.63204209362902,0.034561748370952564,1.1093131899430708,0.25561071327101154,0.622861448079703,0.766843062451978,1.2809359405576364,0.578615197256733,0.36492954179328146,-0.4263362929536003,0.5991076678755856,0.7158321431457606,-102.77544466631619,60.63894029072388,57.27145451334009,0.013420445924951492,1.526093894583997,0.3072818821477931,0.973520338860109,0.2686703007625695,0.2968431082021258,0.28846993311474173,0.23738000909101728,-0.3866590194359161,0.31239945519325896,0.881804375461608,-167.96894690192633,0.11146621238765496,9.537662738998083,0.21286235757243532,0.32816270798501046,0.05163270520596561,0.5788224222670573,1.1975623796657346,0.3339253350172256,-0.39154569087170826,-0.6214265788532851,-0.4833418176098009,-0.5247839560495962,0.9069631340844245,-147.30802683059778,14.585400821117211,26.27025854443214,0.03320432586669453,0.23188945459698282,0.5546454787977614,0.8168270274313196,0.6829554010305369,0.08858234721714342,0.44794233990125826,0.5125134885647311,0.6286816734858437,0.29019509333448856
0.76,-115.75800291737517,38.415193212299044,176.29951918509187,0.05148255295624976,1.2723048251673563,0.364591376595076,1.8032585720846281,0.3494779520703587,0.8070321780355629,0.5159059773883404,0.32823207872085347,-0.8101422938557934,0.6641565827337312,0.8582156609828304,-102.32779966205301,58.87959860461155,57.5237535437007,0.025018973686914463,1.4961735483256622,-0.04958335754829406,0.7481685431332519,0.06849532721421889,0.4751181402415483,0.39656133348180056,0.43583805692942434,-0.48806884529674466,0.6051600004188118,0.8172630264874209,-167.95170529743342,0.3160367745603656,9.585314733747733,0.21845870384165242,0.2013874447212248,0.07143318456049265,0.3877800055708784,1.3555965076627643,0.5145975213894605,-0.536719437468052,-0.5404374581551822,-0.5897645803524577,-0.6088990551435929,0.7682624536174003,-147.83087926297063,14.158052236819382,26.076412148101696,0.5162829480664116,0.29409467405140466,0.3575156417610874,0.8523219749579715,0.91539432368663,0.5323403473722839,0.5098085288310394,0.31249640030959036,0.7161756262383915,0.376130578593643
0.77,-116.10428630411337,37.72530560202171,176.99549841005827,0.2684885931216369,0.3992191359312548,0.38831918164900797,0.8818662757504967,0.056142904306976646,0.4340457464633941,0.6991646056171601,0.2896222369628675,-0.5625463210729836,0.6676401389225028,0.8526402747849298,-102.43621476697554,57.31890557042348,57.979132100198726,0.18487844049455665,1.293579118211261,-0.07987987720403239,0.28898731597828503,0.15914699542685068,0.3764741048413181,0.47222861131766175,0.2701840160986741,-0.5453632085315373,0.3495819251959622,0.6980213335761889,-167.82286994386854,0.7664990153064886,10.020379390771172,0.16345704959229326,0.43966798546074926,0.1906154850111753,0.1365693612129959,1.389762015566252,1.0551222216644773,-0.46057589778968583,-0.5674252318155645,-0.7107875703140105,-0.26221464376997805,0.7594529932159001,-148.02796146351318,13.367168422043006,25.981345256776926,0.3971439331998178,0.2621562082117953,0.3348076136975059,0.6730910402698098,1.1945952649138405,0.3800024867909275,0.433529060913897,0.5684636733453958,0.8143257732447028,0.2482364886923739
0.78,-119.73832978695785,45.15702934220154,178.4237406471234,0.25860404925543873,3.4567455183475113,0.4942010417692913,1.8249759083898185,0.19713351657255104,0.450422795751604,0.6114364358765876,0.3741763351028456,-0.7257088871046531,0.5497745266928248,0.8335115346231492,-102.40600061245115,54.302240318369314,59.2952413451905,0.17538393558864682,1.2784178915196935,0.18727610888800275,0.45840859608284656,0.24306456184516195,0.522103643812215,0.4607373821752721,0.3944745814428594,-0.5012275318807264,0.6366907691690677,0.8248615428469039,-168.0688838325123,1.5003079916271922,10.128990577224618,0.15161943699850058,0.3681861169194148,0.3164709687507022,0.10699133654333286,1.0166814328563283,0.15901799049243975,-0.42189335828034724,-0.6845794115118843,-0.5952970637060411,-0.353826957995096,0.8085086910250606,-149.41633764739268,12.639347375666812,25.293705575666,0.3742750787957788,0.15782144700740938,0.4240669523629796,0.3601376657261205,1.3147810087691898,0.29840704039700683,0.4184120902882131,0.5209633950839336,0.5579972522503328,0.4803728688954899
0.79,-118.76199897689803,49.00594973984035,179.05512178618565,0.2679486999147039,3.6571027297151266,0.3993671890266621,1.5230449679474143,0.5519509046243165,0.44738820655230016,0.5679215598292323,0.33371122260131086,-0.5730121426200678,0.5159451653199145,0.849829511906848,-102.61527015914993,52.802495494553014,59.88358648489045,0.05258061529561142,1.2732857973564016,0.04165281152248675,0.7671886646755819,0.225415824816591,0.719830242146991,0.2551768758935721,0.25963811007885257,-0.3330152376599747,0.5036761612021479,0.814225304240973,-168.59068936817783,1.743542997961011,10.089087650269478,0.2324165619511504,0.1695021783147266,0.17609399118968536,0.3493399778828922,1.734728729640457,0.9679738772469464,-0.5554338957777266,-0.5385524206559226,-0.49460837041726957,-0.4170126557118616,0.851855368026906,-150.01341901759588,12.244110067485542,25.307240026723914,0.2831753434996216,0.2349434453137002,0.7399923014269469,0.1311723215439481,0.863608277051297,0.10311322641583008,0.516064126020819,0.5347176549474718,0.5357545998546129,0.48187466576165755
0.8,-117.60504323635607,53.135594487122646,179.85168946144307,0.11840787925433155,3.297857709417526,0.5123158881266947,0.7818310610277586,0.5530269135197781,0.4355360402767716,0.505132073419428,0.3881237358667275,-0.5679305659512418,0.5658283572854765,1.0216164683569717,-102.47193907094625,51.60848321772012,59.945282784392404,-0.17013149845970357,1.183364725727621,0.4246161937550418,0.5702840784806735,0.4564079787007572,1.0194362761537838,0.3586706611060759,0.45065902287040804,-0.495614482413434,0.4752930833587615,0.9270637156236516,-168.5792893493594,2.278292186578582,10.229187307764533,0.00903551864247705,0.06718455363120204,0.5090653797975415,0.2088998378563323,0.7452867648484625,0.46844422332489644,-0.37047242391915225,-0.7711179029327171,-0.5303383749701347,-0.28781782981707127,0.8569125126009653,-151.10440436165905,11.752928527182958,25.032783108228617,0.11748558258012456,0.20641562157975937,1.015829626786848,0.2113051118773685,0.6920127795971353,0.2797581110178999,0.3666724452138199,0.38641954427107517,0.6273829555913615,0.4331784821936672
0.81,-117.6519853430023,56.19143285617544,179.4840663264064,0.22894131588077196,2.5582369195317862,0.35704666010818786,0.8720807593663689,0.6768207207223019,1.0093616164354486,0.4914213849408556,0.4932382480882303,-0.39429475495115585,0.5026332056911292,0.8824130773999058,-102.75421169025044,50.57044308247135,60.66712111491542,0.360232201204739,1.1067909886286869,0.11125013885704216,0.29898544856033876,0.5109954892659901,0.5002876070283601,0.5574645103880725,0.43257964420912953,-0.695516635140437,0.5520696908962617,0.8657926301666067,-169.33682745553213,2.4671893732928076,10.29050307420129,0.044185439704269774,0.17840083121556458,0.34145052311800694,0.5801705088157856,0.8937246474245842,0.9448484290044097,-0.4909356332861736,-0.4445371896329301,-0.5611782468055853,-0.24136763938525746,0.8532539962337875,-152.0846871449547,11.300074347899136,24.93829130547907,0.04735246304612607,0.1320361015797301,0.8752938765645775,0.040678685191911236,0.9332946288606752,0.24809063602210468,0.46829952366270106,0.4885063006452685,0.6020041897764111,0.3700307259292616
0.82,-117.47425828212049,58.214032605153015,178.84494563850077,0.05716172073969655,1.9443171206358276,0.3355572954705071,1.6425160261719274,0.5639404715550536,0.9801917767197246,0.35355419217673295,0.33722278949346324,-0.5445571763134102,0.4732406887455822,0.8367261037269649,-103.34308776264884,49.497454219520336,61.192025302672484,0.5755472241195096,1.1056078643616585,-0.08121289291875512,0.15459612620169957,0.23806588662608086,0.07704130309344716,0.3109719710139527,0.3236280110866204,-0.2971793037043964,0.46264563696525995,0.9342986869742959,-169.6324692213114,2.8399144500474978,10.374271830732972,0.1146994128878343,0.07087598485812922,0.2879782736727573,0.19960861509894673,0.9560667751393866,1.488701404488451,-0.4932422392644162,-0.5004038500288376,-0.7264831852939831,-0.41491466918482955,0.7966793842803649,-153.0618653416529,10.754810411944508,25.16330836276648,0.16925603085430993,0.03149452744440204,0.8374767074639142,-0.03610783346832492,0.9475063338293164,0.6809437673841512,0.4751083922699982,0.49275296803170515,0.6247031276578398,0.7043350065205842
0.83,-117.47330540751507,60.0880017957876,178.325744374475,-0.009628570358035271,1.646113200467739,0.3835221048008317,2.2202874152940564,0.4149640254847522,1.3264836764072754,0.6086349552480631,0.49759375883301227,-0.446829879777438,0.4481846513649171,0.9864501281363085,-104.14918251249519,48.34218255460264,61.85650853375273,0.3764872173317663,0.8175675877390062,0.07379477661550353,0.11422693401617857,0.32970240482340896,0.17742633508794198,0.3049877030626915,0.25547090278156664,-0.4033084422160817,0.5169832361365161,0.7320619149697207,-170.19291304166939,3.0787810831977085,10.317168098731914,0.18004876316976584,0.1206709595958649,0.41488186229062035,0.769628287026811,1.2533757388861713,1.4579500213920626,-0.4123972839817251,-0.6734338592985463,-0.6025442493529062,-0.5787850926985763,0.7611085203112168,-153.75195863354466,10.352913716524148,25.1361040611959,0.2411010039072275,-0.0030371981146104787,0.7427097271223949,0.305402726437838,0.8510635101591516,1.027389215050927,0.3603166093088245,0.4789467597189703,0.5264427710157399,0.4261939327561832
0.84,-117.44149627358524,61.914273923323414,177.91562339882273,0.05446613797914647,1.4291770310548562,0.3264624035636191,0.8674185480858005,1.1035889277264026,0.8505143429750451,0.5221646531176426,0.39350230529101377,-0.6929649889196313,0.5203128558893021,0.8648460428297049,-104.85794970384362,47.1903035701365,62.285133991091,0.33178858530199185,0.8868783807381961,-0.13552480280994683,0.13999465521450444,0.14850400398197616,0.33640385013122726,0.3743749163086548,0.23998953725930772,-0.35757592846323155,0.432928585536937,0.9219788808244503,-170.58605898644905,3.324873133898894,10.205588452374462,-0.14395706196790733,-0.012878280105818013,0.4722535888374422,0.7676289054469552,1.4852831708400438,1.4991709230610852,-0.4519241457214755,-0.4921135889700253,-0.625893906035753,-0.3453004040601776,0.9522358043542981,-154.4090742048487,10.048074202885882,25.013043664481824,0.31430073162831307,-0.21629744349833274,0.6756043745215145,1.0965844851265032,1.059096500669506,1.9568648865379168,0.5042766075369881,0.44709931439647393,0.654716561955362,0.4708295668093136
0.85,-117.56128669184177,63.564169241600716,177.89661725111083,0.19954976785699075,1.229847420464718,0.0899689170183049,0.48755148458059616,0.3725141797486792,0.8363712641474386,0.555538653064104,0.2192682080706319,-0.5040759189487789,0.5287591941846197,1.071602109433968,-104.85402718490006,46.31301376998875,62.65983688121489,0.057010939466583234,0.807402242705673,0.06796900323676769,0.5013376773071274,0.3330024322540454,0.06214263496154529,0.48157336347964635,0.4084477354064794,-0.4224669612529935,0.47196866647403113,0.8125934633150472,-171.52535082076105,3.19592641257534,10.159897164169797,0.21255398907339537,-0.0035984671748855307,0.604422797512732,0.664452221153673,1.2428263353261566,1.36850323618166,-0.41186394697031936,-0.6745860602721587,-0.6235171911063533,-0.32576947442947235,0.8574197641961281,-155.18422756481954,9.714677441991263,24.59187901023694,0.34583832936721,0.06855255636861765,0.5040202177395169,0.6071061519819816,0.8085921903632163,1.6404373427818635,0.5202260774490328,0.4741230025648055,0.5500242810311137,0.6037047365421944
0.86,-117.62450670525973,65.06736741613564,177.64446412531345,0.02228085957261723,1.4582199542475849,0.3567927131273075,1.5233192669664308,0.91179316728309,0.3865355942373074,0.5399090392542192,0.4683345317781689,-0.6069700583544301,0.49498873618557127,0.8948571617800561,-104.71025480961684,45.693615309084834,62.842692674513984,0.10994548097443735,0.7893085873478622,0.03438418240138216,0.924030831705346,0.180914205240097,0.3452389416315808,0.5275969235277925,0.4481667057611337,-0.4235896280909502,0.5664317712267938,1.0624862140668254,-171.62774972133863,3.1483048732565337,9.963719918618064,0.2923355198110899,-0.22276206506388396,0.31737947198117156,0.468794987418705,0.395912149801903,2.0074720823512764,-0.16851142362309612,-0.4559448639561474,-0.7615964649706369,-0.3342025331299325,0.8024263015166044,-155.79245557745904,9.216963719871432,24.622067589455224,0.19519109412586205,0.06566528334861493,0.6434358740586283,0.35968218783545686,0.416375949929826,1.640607517915807,0.4572597874536551,0.5507937099068955,0.6084850159084108,0.461626696257978
0.87,-117.45551873142702,66.5829833410746,177.09046940770645,0.1381719585985235,1.0838251381453226,0.2515394696988355,0.8957769807761249,1.3897769868530838,0.15680123725455225,0.49899218763618663,0.3508618609048133,-0.5209026615085802,0.4899288678173117,0.9376035052501833,-104.9623599703984,44.739313359319205,63.41319398127733,0.3035369482819059,0.5390671092440827,0.13048595393180393,1.1275884328638177,0.14443758291596262,0.3328645897781285,0.30224484258998796,0.31345848185115727,-0.46398486309675285,0.41610522154845375,0.9298993419378552,-171.72889375725237,3.1650479285307505,9.350263098219171,0.5735155136857302,0.06335287151066571,-0.037338227817843184,0.8559366535404317,0.6703729716681338,2.1966454785422513,-0.3414883412007139,-0.4763788059842691,-0.44754972881084953,-0.5079085317524867,1.0037072709174506,-156.94636319198224,9.006275558110959,24.566514020881492,-0.0998395351600379,0.09444059816699944,0.9964651856653548,0.09905884895166134,0.25015021797803993,1.732039169431977,0.6673094812351749,0.35986001511021404,0.6115546804926468,0.5408569949159926
0.88,-116.7991442545799,67.32006028749066,176.09559178988934,0.13938397193901253,0.8212880368111877,0.18497175355517095,0.027196385451743077,0.6234631566982408,0.3926219002986241,0.6488845572824053,0.5361771170265331,-0.6229988927032853,0.6298983238837161,0.9552840879174512,-105.04839400356879,43.97722426181621,63.918243234041725,0.31598681480625657,0.478387052528537,-0.07663969276526031,1.188752283764563,0.7352936111159625,0.8408618652557048,0.3509626840121689,0.19623360454177807,-0.3123433244450977,0.29643141984516164,0.9758031829246803,-171.3632039973604,3.2326792046002564,8.972290222046635,0.4633688358714389,-0.03708396000497065,0.16278917124825962,0.6933465365258424,1.162233447455203,2.3558019769637917,-0.5330199682036405,-0.661646755318446,-0.4559943048005008,-0.4362183256803845,1.0162248821771387,-157.65351323343995,8.584604589696966,24.919577552504347,0.2457183573778491,-0.039962427850592674,0.6467447007263225,0.2028833790347231,0.4699831231974828,2.3170787087753353,0.29980781297124587,0.439983641032827,0.8143459327894305,0.7162386498248963
0.89,-115.7657800632416,69.18128803451533,173.44671407294965,0.18888289018965718,0.8637214625387813,0.12671961369400297,0.5475123779347084,0.6517536380152034,0.3770416736138606,0.4848203740512836,0.4300733098138484,-0.5933431292953775,0.35380075478279804,1.0555306032917253,-105.06661709773721,43.42640509185201,64.24906237540264,-0.12102769215157394,0.12643700634474223,0.07493222638676163,1.5176158851667496,0.15950433967106936,1.0263307503119405,0.35810784603409174,0.3667007426031196,-0.4686517745583426,0.25518404416211093,0.9689915622600034,-171.37215092667392,3.379129762345762,8.056089245809583,0.3333213152745249,0.0808257475435307,0.2297094386215831,0.17004208564759166,0.7684526262287273,1.6089215512147097,-0.48557522914097945,-0.6257983881891711,-0.5536420933347095,-0.5161650787303184,0.868577804923367,-158.06060763935545,8.418420915328168,25.230637529754336,0.36564882986022673,0.09728484357903233,0.024178426246570933,0.4312749526978374,-0.03723158928692322,3.396618800167195,0.5429356119497835,0.28748259433603773,0.5739103851792089,0.5744709945123629
0.9,-115.25371847936951,69.99754086107502,172.48017031962985,0.053044926787901445,0.877643684354636,0.13894332485424668,0.7704536433738783,0.054334393900994135,0.07258495346016766,0.56616958403095,0.4753714642943451,-0.4540236461464529,0.4565625780552567,1.034767056556966,-105.01405133627675,43.17585038678949,64.18241354004888,0.02335230934020163,0.1428340487207008,0.022958244256825786,1.4706278391517904,0.6098081594612552,-0.09345004533898736,0.4075797316821689,0.23769973651549764,-0.30672078775873995,0.21282113503952843,0.7541033233590126,-171.61701190212128,3.1471446967895904,7.492279155051382,0.4219230375137043,0.12601521705149413,0.5506078794842648,-0.004962996463278356,1.5151773767318275,2.8443633617246897,-0.5112748940411272,-0.5669209287147523,-0.6740484311462203,-0.5194126817331858,0.9037094117235717,-158.60259348366273,8.590268895096866,25.67566201872622,0.16928105462021797,0.2557154119285653,0.09797478398849932,1.1712791759035535,0.3975591788145705,1.477942465988245,0.3918017914791648,0.5087673853556673,0.47448062517951584,0.518844338433329
0.91,-114.95061284574473,70.74398541827675,171.3623385915651,-0.01916619636262845,0.8281229254949493,-0.006064251363910034,0.26829670450828846,0.08123502191861891,0.329636476570836,0.49811480748425746,0.47212990206475974,-0.6495323604449162,0.5287164780059689,0.9063233241090219,-104.88227422465926,42.719105331332145,64.35077756131396,0.15061656711135277,0.3044060307270284,0.0005315416105668991,1.37962769668403,0.7070118752981108,0.13905985306389998,0.28602081618603825,0.27726823263932304,-0.44260951482137145,0.3447427956274817,0.8139434342185785,-172.427660110396,3.4762711007080767,6.563572462467777,0.7780871299970663,-0.019485034416423824,0.5721504164039851,0.7776035700986021,1.1319194260053578,1.961801929993748,-0.32636220250298353,-0.5401638780318462,-0.6425304237277218,-0.46352121475339625,1.0825225781830832,-158.9366261411136,8.613755138615351,26.099868362937148,0.47493737307672657,0.24223559786541501,0.720518678932142,0.6926995842357211,0.8445836634255992,1.5271692078921648,0.44612932764863616,0.49413089006467986,0.5288890348743519,0.4120261691107684
0.92,-114.85125951179454,71.63904835052743,170.28375036339736,-0.015041445522052582,0.7584975097462272,0.2580607737507795,0.1189835053632375,0.33889960139417263,0.22742350722990673,0.3798388518807789,0.4403138032931102,-0.5116630036395228,0.6591928739910192,1.2501242624688695,-104.98970229048122,42.51952370456912,64.46685155680407,0.2594370761061512,0.486441312013856,0.19497731411417402,1.3062341216243396,0.6458661427658882,-0.03582621145282473,0.3750349189520231,0.2735951600765901,-0.3192408213436896,0.25312480266000775,0.9392152986869262,-172.9324271950091,3.439142307299599,6.178987767865182,0.7275367187994604,0.3364209264205766,0.514482560531026,0.5926940374316354,0.8892603589338761,1.6634574310279406,-0.4733248990714304,-0.5885486167811513,-0.6238276117612145,-0.39766033530255873,0.9864384054222629,-160.18093225267276,8.771119387405575,26.70643003900015,0.4463134242732748,0.4179542318721492,1.195751190083,1.4677497056541393,0.1320074342805643,4.0178912871836765,0.6124942268444764,0.4273470334484638,0.6042836445235428,0.5139074421414749
0.93,-114.52181850704088,72.19490590317324,169.63412486060403,-0.03866113814906748,0.5223866021159163,0.16109288308654351,1.1721991279585389,0.421177689985156,0.5693099850553,0.6034550291046907,0.5333040959084815,-0.5086513785267576,0.5740057985279915,1.0303211107528825,-104.72000791578249,42.50771939724103,64.91612229163057,0.408903630695724,0.061751164590743875,0.00562440377655684,1.3493759083375396,0.2661057930290962,0.1751772158606969,0.3852028206802464,0.2914448583539899,-0.25951064905343424,0.21443369715904487,0.7950204728141965,-173.5479304692763,3.1616591581804623,5.017113732053627,0.5282493705025759,0.10734071947899212,0.4141770906528459,0.8798658512612219,1.0770165609125,1.1947058657734815,-0.4409778175107268,-0.3873156199038368,-0.42518840670520586,-0.5905194477305926,0.9014126252511946,-161.77879697021586,8.466727179911981,27.82025713787099,1.0486727153824513,0.4579056195787301,1.3922743781520812,1.1133316181917337,1.5543677194524406,2.4250545746673935,0.7031187723853538,0.36726269527190575,0.4549156246204269,0.4640876848376486
0.94,-114.30243942479532,72.73448195852437,168.79342612844988,0.07794884923427861,0.7360534232664608,0.001695004071164019,1.3800689760092364,0.8919135886185368,0.3407449094160281,0.4393900832357047,0.42986188172228085,-0.431751546733193,0.515751939979001,0.8103496055606406,-104.76907710069325,42.576962880288704,64.96255102276126,0.2720445396671388,-0.1068441122450774,0.07410635286783646,0.8627273603994718,0.5358073161202869,0.05888448688888266,0.3546484350391886,0.3140699099950863,-0.3839367926097571,0.28980388852252986,1.1235392261232522,-173.75472194722698,2.843229765590733,4.345602073758858,0.5990947192182098,0.25776057410950876,0.14059898862709164,0.06728049240406796,1.9724080506992854,0.5951087378454669,-0.4660881515923214,-0.5768045262421801,-0.7332907645338237,-0.3710976807721509,1.075738110564774,-163.60312079818698,8.35985467281304,29.106273307612838,1.0237280316099184,0.7567508801164261,1.3935616889013092,0.06883038231198998,1.2095194230151314,0.6141851709553731,0.5790505112032802,0.3070758553765037,0.452553862813597,0.49851130203971034
0.95,-114.52133058752143,73.25709538400915,168.05154656204684,-0.050534340829976,0.49086613742314095,0.05590100604460344,0.9460592472454994,0.3606791785860007,0.3550928068696573,0.5801957794983714,0.6241106392412352,-0.4604444805436327,0.4368932295320364,0.8532061608157901,-104.59659676958563,42.379087146088956,65.1481435944669,0.1589423204369731,0.013838717984921152,0.034567650530697935,0.7814149029226153,0.23877623864702277,0.16226275546942398,0.1452982959152979,0.36423267326804865,-0.2092189795181046,0.46280718625864053,0.9825757324617471,-173.13675112452182,2.652317692356582,3.4757794604413395,0.6211144392469314,0.1148691907485988,0.3943724264480389,0.04159254167248705,1.5399951101806826,0.31026296517326074,-0.49602290401282295,-0.7191149310874263,-0.6463548554539762,-0.5645633502123191,1.0324909841324676,-165.1231645616163,7.813703966613622,30.6402960706277,1.1844049069654936,0.3047824937389002,1.3631630234720964,0.2083968311254991,0.19391854711552353,0.5801569070768873,0.4198955562827206,0.4799293912779953,0.5681959461305512,0.5286476416297029
0.96,-114.08469914990668,73.8377198609744,167.06823267323426,0.22507975151371584,0.6354124367940804,0.1455201695348924,1.1367965525157846,0.23634115507360967,0.19293074347819167,0.6576220662229468,0.47191652011987084,-0.3624340527061133,0.569571669858909,1.0130021846684074,-104.59241363204502,42.91101382281941,65.42756869816994,0.1657023223668081,0.2122526595687984,0.2224235636181548,1.214722776188069,0.25804491344739516,0.37827872371638643,0.2791630205302243,0.2731197942999107,-0.1730270808293287,0.32366388424523773,0.986648935952404,-172.77631678613932,2.452668320179185,2.6944759995466407,0.8307852087683376,0.049634355051271596,0.5620027251634807,0.060034800324295354,1.1360832249913944,-0.015849226200937417,-0.44897032899609685,-0.5607932705844052,-0.5378783101466781,-0.450278290707845,1.0111380480443184,-166.05668597252935,7.286803361552135,31.717955303154806,1.0135013492010625,0.0020404759784981782,0.8614558791372702,1.5871271235039792,2.906637349591628,1.015479947611149,0.48197149059784744,0.445685463524582,0.38865494993917205,0.4051388491009935
0.97,-114.19214157285566,74.64085506776053,166.61869173622446,0.22746262571232548,0.48703243216829895,-0.11681032985105647,1.3930018576685568,0.2600830241806082,0.34447003690914463,0.4422150290940368,0.5045823662019128,-0.5582335246877421,0.4476971049699662,1.0800134162871047,-104.56645078551472,42.647699842378344,65.35015761478695,0.10590845963088905,0.17614429631035566,0.015678918958276347,0.797131632287655,0.10294582405088304,0.509480102013131,0.31346662481597437,0.40074060958203567,-0.45986515992899657,0.4287661746043452,1.0507128398084842,-171.14377773273398,2.1564529147155427,1.0780399848110578,0.6576761139789,0.14590915989175948,0.49442765332023275,0.9246509299505803,0.05966499679730346,1.542779632707348,-0.4166670330061481,-0.5095554451169346,-0.5412586707509778,-0.5803407042888697,1.1420121068528308,-166.44942004950934,6.781925260595447,32.75062595582796,0.9172027483329864,0.3211795054146295,0.12464524036725882,1.536116747888151,3.8496842849328172,0.47867124439905584,0.5307429501644078,0.361005333829737,0.5346817967818037,0.4430167170497698
0.98,-114.03504024492392,74.87318314743426,166.22011495407182,0.08398889646410027,0.3991672150692135,0.12431798390829046,1.7853845415105642,0.08881603557796264,0.10222639029377939,0.6971914548714973,0.6172566611315301,-0.5704373933125632,0.5424642360074361,1.2575511733392677,-104.28817519053602,43.26629271018692,65.54289704248491,0.21033526804159836,0.0910436975377304,-0.07654735684806342,0.516109131499856,0.5538196803150598,0.5248430079515725,0.24194504776814674,0.18873474041864538,-0.46336154742207963,0.22740540243738475,1.0641449486194907,-170.64083790351518,2.0405257206085574,0.7360781642349308,0.454707535585931,0.22322201153477086,0.1673100717444228,1.3995695478003534,0.5176741692446674,1.456479493625183,-0.4568353653030331,-0.564834754814142,-0.5855427530150468,-0.560986091909722,1.0386790870903517,-165.03285283559583,6.946649290479516,33.66307399192178,0.970089880531613,0.5874056996861805,1.1636985708789047,0.6846745880074767,4.796706505392303,0.009163674562990817,0.6295869229809881,0.4351419513752076,0.3741734540081591,0.2774113954718974
0.99,-113.9081164929068,75.01776675630705,166.11146864739644,0.08770827316543081,0.2727343776758617,0.07501339538479634,1.3089212870248759,0.22889631061254095,0.19228861972086936,0.5379190495741392,0.5919752803689262,-0.5090728789945684,0.2582439909052276,1.256325692867452,-104.33911141327587,43.339465164816616,65.53545346356478,0.27007964051025973,0.28761017525111576,-0.0183987370275916,0.3329226529247008,0.19220203479164816,0.454306509718899,0.17501205637876144,0.4027699622450959,-0.521013477684946,0.28173632920629127,1.0975705551629127,-170.47000228655753,2.1075557184062457,0.33059232067338573,0.032943754694685023,0.1183648299783608,0.3182588572936596,0.256308360182796,1.292081588323173,1.5270127679849579,-0.45771974728904735,-0.6333544678776959,-0.6332306269583774,-0.3460497912978397,1.1709495468834696,-162.7314432036179,7.7866791156693855,34.700837389468106,1.3214845801588015,0.4471645836357945,2.133111584978749,0.5212724819864787,0.7207720813520267,0.19512664206533786,0.5726288361853064,0.346961975594501,0.4083402273344319,0.5787481537719853
1.0,-114.06306980108745,75.5281782225977,166.01748107310956,-0.15507604489980653,-0.038272167334906015,0.10010002128112527,1.479827291708916,0.1984098148995067,-0.10841025087196787,0.5553660987150383,0.5302588436101143,-0.44459395195884144,0.6561889455286498,1.1425905224989683,-104.62776460751925,43.61790162864869,65.60592874589977,0.19575926606781255,0.16927437614901014,0.0064804384558367414,1.56044141850949,0.23511671533999606,2.529260161543285,0.16265380339861019,0.4654182927507855,-0.3009128900921511,0.5293961569181003,1.0655600278232535,-171.5114642848363,1.4344616162573316,0.26178233951163066,0.041160907297972546,0.5390737576608929,0.6384181704433726,0.1593775627336798,1.4551100627313667,1.2162432757490258,-0.24016281974618717,-0.5450701409840856,-0.45863373599295687,-0.3605891297015086,1.277067266319491,-157.88313555767272,9.13568105132389,36.560034734678496,0.7736486443622069,0.6608481542122202,1.368814052563318,1.6759241782436707,2.1736848796897092,1.7509493136295582,0.5181776574541259,0.5317815445322173,0.4880797258850609,0.5269108269509204
1.01,-114.12908985482754,75.47838220128983,166.39932016924791,0.030658292681053863,-0.06641465150143304,0.2507552709300614,1.5003078655965614,0.1306611087785698,0.13304950142823715,0.5995223988473412,0.6382461803615594,-0.45227782707634623,0.567611840373416,1.099970734282813,-104.40007837036991,43.85833539389598,65.67096912649768,0.10993579332809983,0.26984253216002757,0.3095214983807784,1.291947951359508,0.3175897119119457,1.7715463492725811,0.3067420140924634,0.21432030442241512,-0.3883601427555351,0.38735481070753314,1.107514786659874,-172.3638106898635,0.8932316621794149,0.372080383244845,0.13271438701471697,0.46618637411428615,0.21264958327763833,0.686758918615575,2.513419434423161,0.5296556268682735,-0.2845923214813168,-0.5714653735444526,-0.5600783445320731,-0.478816529771711,0.9826698815278813,-157.1054274027174,9.41391634168532,36.758006723103165,0.3867240081124003,0.1250257296191354,0.9417718792167886,1.619143663330787,0.6255862064749659,1.6565039897555764,0.6684730715095183,0.4659302200154916,0.5489145230323365,0.3829517875770006
1.02,-114.06975252829972,75.58782702656856,166.69268126647222,-0.062340369373343016,-0.03751907697250334,-0.09439702581390916,1.3454716600591694,0.2843220743312299,0.0989884660384832,0.5652565886828638,0.7162569974544021,-0.3248587026838641,0.6908029169522996,1.1820704198552996,-104.03642773940197,44.14045352813778,65.55360026622321,0.07349001074261893,0.235098471514186,-0.13190344716402866,1.224237086279839,0.23660689172638955,1.0738258562121241,0.31327036764866023,0.33427114566095895,-0.11204742802998899,0.4337581281495408,0.9813639987079633,-172.2635659056374,0.8411825510736369,0.6125856326163678,0.1752924608968985,0.2256499533845078,0.3987098746659542,0.11057887150487855,1.810492107656879,0.21934799015442438,-0.4276226430153144,-0.6111105323095318,-0.615061701129954,-0.34824472521582206,1.0532479853032781,-156.0193008078395,9.650470046491225,37.213679355728736,0.4111949163253721,0.15592525696709858,0.9638917706663828,0.5487676525516684,1.0990283789909971,0.7672439257126737,0.48504393721270267,0.25556298521206844,0.6673984261490701,0.3209053474463337
1.03,-114.25489202605479,75.55721436647602,167.14695625440288,0.05785219424480324,0.22458847365778997,0.08934730773045042,0.8992496734050379,0.3305244447469955,0.00403986840369025,0.4649059588571798,0.5615170219035316,-0.5307589754106313,0.5179875964417906,1.0257860845117965,-104.09730323565684,44.198860783669325,65.28187077998055,0.16861273907170007,0.2189585232978472,0.11230370171995639,1.5912898135720273,0.535740894393547,0.5463546865117043,0.464841948178087,0.2005971732240921,-0.3354175658737231,0.45278261290774585,1.1400219952375197,-172.3911889839742,0.7243903536446976,0.9713525978474514,0.21238664033154267,0.2062722222803553,0.37543176752220253,0.29503669734599947,1.0057115028446864,0.1332674633781467,-0.3827305581554281,-0.7683102362926457,-0.35684437922508566,-0.4548873196214098,1.0859134915527633,-155.17397186249985,10.532238562230443,37.389648762777256,0.42097370253117383,0.24448083143173358,1.1066631435414318,0.32627022136870465,0.642977207415307,0.8712244461237737,0.5335495138698652,0.3388585756632147,0.6193181217554727,0.5194795323571154
1.04,-114.33264772402812,74.97146095977607,167.72342864658563,-0.20036263059207804,0.4089570536531,0.07563302733035675,1.020272177510605,0.1412417673199669,0.32806104507839307,0.5775143443267985,0.6023410230301057,-0.46865622071485685,0.42132763531084355,1.0583155984782682,-103.95177075167533,43.997884080186964,65.28152016364669,0.34417268172390797,-0.057223648197599876,0.09148872530779947,1.8778719806542032,0.4920605749655014,0.7140783722196719,0.35322715375544855,0.3538618771008699,-0.47699449727462695,0.46744849418598183,1.004714360435056,-171.6643115862851,0.6608075795194968,1.3529382303653241,0.4783201326152657,0.0060623678517108676,0.6069117614744962,0.2456627751871958,0.5117232160194527,0.35028415607592794,-0.4414064837097964,-0.5473466850337132,-0.601772765170687,-0.404032037893063,1.1293020319765024,-153.58163715002496,11.120223147684149,37.18437606857748,0.25607840008508714,0.12544733558543883,1.0274793028163247,0.3345225412043139,0.28689421852805413,0.43613003789708116,0.6480727611092546,0.21717074180366927,0.4807755023032616,0.39629747732482773
1.05,-114.63871586820369,74.72105502991514,168.67181055819376,-0.12844464076980167,0.6952824753004987,0.12413810815621079,0.9758225172275455,0.12072650287963498,0.5100635367050109,0.4410432996285653,0.5961198928283288,-0.33865382556261314,0.5804532588033495,1.107856416871623,-104.25071912374018,44.16375812158643,65.38922945835445,-0.053246749638009794,-0.03559953689098763,0.0013815050309037014,1.3143735711027662,0.5468384281847976,1.4629952933626664,0.43716208673094625,0.3617898591652661,-0.5195434572998703,0.6059119295600122,1.1208695952776782,-171.36860664565918,0.49380628533396714,1.6180970779029316,0.42499434540094705,0.16934138713712923,0.36342864523838475,0.36735524241794226,-0.11874924695173694,0.17254061163998372,-0.42761756529654843,-0.5444670373579242,-0.6699129505624507,-0.536079189653543,1.2422836665977663,-152.26127270556196,11.566078477707125,37.31008033980298,0.16095465903327769,0.20283349338419693,1.0383303045257335,0.20740769940125636,-0.008785561378688495,0.1557070685973068,0.5064456280032225,0.3302447057994327,0.4526917764507119,0.39440694197108134
1.06,-114.55008208034504,73.63830846777981,169.56737616032711,0.041882764978989545,0.8670844088619745,0.1229824217684988,0.9244019011701173,0.033808476075611646,0.6047961586075076,0.3727896396249061,0.6049667162370351,-0.5692749946144897,0.38572916471067187,1.1835934888477142,-104.28015546054051,44.528006761318075,65.46945322419919,0.31627625726829034,0.1478513609100045,0.06132312812900678,0.741997320404026,0.6302199823831992,1.8547391548945047,0.35175598450269213,0.3737622780511696,-0.19972478985897624,0.3351964264191387,0.9923371892095719,-170.86377235119494,0.4025238557516917,1.8078912456190273,0.38428667812810446,0.016308288552049882,0.41462562572595696,0.2451974539829013,1.1161564473540018,0.3136251731629962,-0.42207775136258047,-0.49970732778353294,-0.6347307811056624,-0.48003183583052256,1.2251236123038884,-150.82259409375115,11.828303499582423,36.80401506267671,0.39957440798305527,0.2849108096260874,1.0746159100393056,0.689169228009155,2.006502846019158,0.35307776915156786,0.5468563934490834,0.3674821799545898,0.5960382068387777,0.38038259740600805
1.07,-114.78720918783529,72.8314467027308,170.72196501595485,-0.013624617244135273,0.9786647820521646,0.12138932942887062,0.5976185385467957,0.36407258843565343,0.28470988545676795,0.5405696397987289,0.599563104777162,-0.4285040335835502,0.5014431076186233,1.271604946145437,-104.283300121502,44.59225127264579,65.51092697254701,0.10924118476337566,0.07735902210352671,0.02571541818662673,0.8299049351987764,0.4761704835809035,1.323229657922413,0.2822084764713864,0.2943699111179205,-0.3369217093012479,0.2896241191716944,1.054208346568055,-170.83346134093472,0.5887769763172912,2.210635310515979,0.1134429869266119,0.24704269360130793,0.13242366912715378,0.5507173214038164,1.410644459109951,0.9837697772078123,-0.3687729184112865,-0.5906710128036471,-0.45019825119990636,-0.44930906370326856,1.0838096706115603,-150.08322012307463,12.424592826736795,36.24003165184491,0.19876293943488507,0.26411226309420965,0.8323215355329932,0.5702710478371809,0.9691026516014946,1.0409385517966074,0.4580452923978419,0.23069125612785463,0.473595337029279,0.3898259123450136
1.08,-114.99450064812986,71.93332425740732,171.55942351175844,0.10943213409342362,1.0683569377098991,0.21780522322974272,0.4635690548343124,0.06546083193022789,0.3824096309703638,0.5962325320844127,0.5325609364489605,-0.5177902077690635,0.3159721393881427,1.1198165813155694,-104.43406275678895,44.69480058366965,65.45699884697875,0.08257648951492469,0.09019693998190448,-0.08955964003631738,0.6845876615606705,0.19055908103305824,1.2199732594953034,0.42529129485986694,0.33990110046507505,-0.49017260545736085,0.4481430138019659,1.1985602473703767,-170.64401158615942,0.989730304572108,2.4028680686994632,0.2085902417615889,0.1753020427471026,0.14174010917959304,0.24740125311317906,0.9423374208847438,1.452868537719364,-0.31017673187983175,-0.518941294765468,-0.5620243181211254,-0.5765795431995041,1.153349194471307,-148.87142884841725,12.764048815699615,35.942681714902484,0.07294137537005604,0.4035049629485786,0.7435292622072099,0.2541183431831544,0.8973334747241952,0.3828182661374999,0.5213770763804958,0.49653436155576525,0.778787457622846,0.5298660284928658
1.09,-115.01885162425701,70.8276428625794,172.36483836913382,0.021282002445390955,1.3843781111982276,0.3816771588893244,0.2969154648004512,-0.11681335698798591,0.40044102871992404,0.4723911237131979,0.4880646492057471,-0.5989805495228949,0.6024428508419732,1.1780199288938087,-104.28862755865752,44.573805525212286,65.39074732646961,0.333710041684369,0.03170859410137285,-0.05832632672745367,0.9303026988253231,0.028632730046527773,0.5160067121933469,0.31852498332709545,0.3640035429016091,-0.20571041849019275,0.3506395313047385,1.2644257986668601,-171.04239464588233,0.9312444683904414,2.8741208097412163,0.3164966269252895,0.1512527650416809,0.2718450235810971,0.6571545170257985,0.3706538253076598,1.3157840395745992,-0.36762677491268986,-0.5807188947021892,-0.6219849135359004,-0.3272944965204972,1.2254531267916744,-148.31239061093964,13.189023688916134,35.668272807835,0.34127958623879395,0.23768201800741917,0.7213101504565572,0.10856583692012546,0.12445530386016894,1.049723819114795,0.4298050640350068,0.38928455365235226,0.5626472383220421,0.1248480412333332
1.1,-115.30117184286581,69.56977389107968,173.34736620636656,0.1117141652055971,1.4509119866445765,0.2603246065204522,0.407770922403779,0.059562761890929065,0.02466481070983495,0.5795027807198642,0.41757428796453244,-0.6065794017115193,0.4532858334386155,1.2489156312125012,-104.26432739042386,44.748059730776276,65.17688976365584,0.053184855493858305,0.13415164007067587,0.10556004779204453,1.0904143615787238,0.03904881029572837,0.27992453907857157,0.3380876327399032,0.37180539293568876,-0.32230037590873567,0.337850691812962,1.253628750235312,-171.24123446145623,0.671477072689305,3.1225992917150407,0.22091453558618598,0.016877293920487382,0.07088409627659113,0.6266526530261903,-0.04778191391565953,1.1646868501772398,-0.4085474757314931,-0.42029999796318646,-0.5174332879295451,-0.46045022832832366,1.1151991503095746,-147.76858325132562,13.26585772341924,35.23240214700796,0.09829916380425469,0.10428706852013563,0.41537122545714056,0.2550056990259668,0.300047381623024,1.3585779712056896,0.4588593383537991,0.36533731113865847,0.8362256234821055,0.3433042140120852
1.11,-115.65540242143976,66.53714503632584,175.40093717882783,0.06735004508244749,1.3399068073930258,0.2458322486463888,0.6102715403516019,-0.012081920555271873,0.38496875198412506,0.4555415600582028,0.5460434493676388,-0.5384030148620952,0.5757852635140296,1.238771012607246,-104.42410172558175,44.749220490511306,64.7513288546077,0.10499939692183884,-0.12366594200297475,-0.011789428953452197,0.7326691086595118,0.18630359273172056,0.650791007785406,0.3506705856352863,0.3443657315619506,-0.3779852627584652,0.21572333525317086,1.2023581178001221,-171.0112834794672,0.5472056777615658,3.264883252566626,0.2431868490617059,0.04703150385079219,0.1422903201383096,0.11420855330086346,1.4321549985978834,0.6960904925484873,-0.48770595558442825,-0.5930537159762778,-0.5017433182945402,-0.43319559141586345,1.2996517052311678,-146.73602622068765,13.610540261745138,34.96372993625121,0.23725016966367235,-0.025247399467880825,0.41534336875926525,0.529621013271049,0.305400622261972,1.4494898363800457,0.41235159799485593,0.4367296588136459,0.7425166751484166,0.5402607105137835
