0.01,-136.96,77.35,168.52,0.07,0.25,0.32,0.56,0.38,1.25,-107.95,83.49,175.72,0.21,0.25,0.0,0.5,0.54,0.88,-159.04,2.72,5.62,0.21,0.03,0.08,0.66,0.43,0.22,-131.59,9.14,12.74,-0.05,-0.04,-0.16,0.05,0.19,0.03
0.02,-136.78,76.49,169.65,0.25,0.53,-0.03,1.03,0.39,1.0,-107.87,83.02,176.78,0.18,0.25,0.02,1.12,0.46,0.69,-158.66,2.74,5.57,0.12,0.12,0.14,0.73,0.39,0.96,-131.43,9.1,12.84,0.01,0.08,-0.0,0.41,0.08,0.09
0.03,-136.52,75.24,170.33,0.16,0.82,-0.1,1.27,0.3,0.88,-108.16,82.88,177.92,0.13,0.5,0.04,1.52,0.32,0.8,-158.5,2.9,5.3,0.27,0.08,0.2,0.8,0.6,1.13,-131.51,9.0,12.84,-0.22,0.06,0.04,0.41,0.2,0.29
0.04,-136.56,74.07,171.15,0.13,0.84,0.24,1.99,0.36,0.66,-107.95,82.2,179.06,0.12,0.82,-0.01,1.91,0.28,0.81,-158.29,2.84,5.07,0.22,0.09,0.14,0.93,0.83,1.95,-131.34,9.07,12.85,-0.12,0.12,0.0,0.53,0.0,0.26
0.05,-136.28,73.03,172.15,0.2,1.14,0.03,2.16,0.31,0.49,-107.89,81.62,180.42,0.23,0.82,0.01,2.63,0.28,0.55,-158.06,2.9,5.05,0.21,-0.09,0.42,0.9,0.66,2.24,-131.37,9.02,12.78,0.19,0.12,0.27,0.57,0.03,0.38
0.06,-136.31,71.72,172.81,0.09,1.42,0.06,2.37,0.24,0.45,-107.85,80.74,181.82,0.13,0.95,0.2,2.92,0.26,0.68,-157.84,2.75,4.71,0.19,0.08,0.36,1.0,0.83,2.74,-131.28,9.2,13.23,-0.04,0.14,-0.01,0.8,0.27,0.71
0.07,-136.19,70.25,173.53,0.24,1.43,0.06,2.54,0.27,0.52,-107.96,79.83,183.34,0.09,1.2,0.08,3.15,0.15,0.43,-157.54,2.66,4.52,0.4,-0.07,0.54,1.02,0.81,3.01,-131.31,9.1,13.01,0.26,0.07,0.09,0.92,0.17,0.94
0.08,-136.01,68.79,174.28,0.29,1.71,-0.07,2.66,0.44,0.6,-107.6,78.81,184.98,0.2,1.25,0.13,3.52,0.05,0.6,-157.19,2.52,4.28,0.32,-0.07,0.31,0.7,0.93,3.17,-130.9,8.82,13.01,0.05,0.01,0.22,0.94,-0.07,1.14
0.09,-135.75,67.08,174.85,0.16,1.57,0.04,2.52,0.29,0.53,-107.43,77.54,186.62,0.17,1.49,0.08,3.61,0.17,0.42,-156.55,2.67,3.92,0.26,0.15,0.35,0.9,0.91,3.69,-130.79,9.02,12.91,0.14,-0.06,0.17,0.95,0.02,1.77
0.1,-135.96,65.28,175.44,0.39,1.66,0.01,2.46,0.38,0.58,-107.23,76.03,188.53,0.02,1.56,-0.16,3.86,0.2,0.62,-156.21,2.18,3.73,0.25,-0.08,0.57,0.79,0.74,3.81,-130.59,9.11,12.9,0.05,0.14,0.28,1.03,0.19,1.97
0.11,-136.0,63.47,176.26,0.28,1.72,0.08,2.33,0.4,0.84,-107.3,74.3,190.05,0.32,1.92,-0.06,3.83,0.15,0.59,-155.56,2.15,3.24,0.17,-0.04,0.54,0.91,0.79,3.82,-130.28,8.88,12.78,0.07,-0.03,0.43,1.04,0.16,2.22
0.12,-136.14,61.5,176.79,0.23,1.88,-0.01,1.95,0.66,1.02,-106.97,72.46,191.62,0.07,1.88,0.23,3.5,0.31,0.55,-155.15,1.73,2.86,0.27,-0.05,0.63,0.65,0.55,3.96,-130.18,8.95,12.17,0.13,0.04,0.32,0.98,0.02,2.63
0.13,-136.09,59.55,177.36,0.27,1.76,0.05,1.83,0.49,1.1,-106.66,70.35,193.28,0.2,2.01,-0.07,3.27,0.05,0.5,-154.49,1.52,2.31,0.27,0.18,0.49,0.75,0.65,3.56,-129.37,9.04,12.05,0.14,0.04,0.18,0.92,0.28,3.0
0.14,-135.92,57.8,177.74,0.16,1.69,0.12,1.61,0.45,1.28,-106.45,68.0,194.59,0.21,2.05,-0.03,2.94,0.41,0.37,-153.83,1.29,2.11,0.04,0.05,0.4,0.52,0.72,3.57,-129.09,9.04,11.9,0.2,-0.03,0.37,0.76,0.23,3.49
0.15,-136.16,55.86,178.03,0.45,1.46,-0.11,1.28,0.69,1.48,-105.96,65.84,196.03,0.06,2.2,0.12,2.9,0.46,0.5,-153.1,1.18,1.86,0.28,0.14,0.53,0.45,0.67,3.21,-128.52,9.13,11.23,0.24,-0.05,0.36,0.71,0.32,3.42
0.16,-136.21,54.12,178.28,0.25,1.46,0.13,1.07,0.45,1.6,-105.81,63.5,197.17,0.13,2.13,-0.02,2.26,0.41,0.7,-152.57,0.99,1.51,0.48,0.17,0.46,0.51,0.78,2.93,-128.07,9.4,11.23,0.23,0.09,0.31,0.53,0.18,3.83
0.17,-136.13,52.32,178.48,0.09,1.19,0.18,0.82,0.58,1.74,-105.3,61.38,198.1,0.08,1.87,-0.13,1.92,0.29,0.56,-152.04,0.85,1.42,0.42,0.34,0.26,0.56,0.86,2.74,-127.41,9.28,10.79,0.13,0.08,0.54,0.49,0.13,3.54
0.18,-136.16,51.85,178.81,0.09,1.1,0.1,0.78,0.58,1.68,-105.21,59.86,198.42,0.11,2.13,0.1,1.58,0.28,0.47,-151.86,0.96,1.4,0.22,0.2,0.46,0.43,0.56,2.49,-127.3,9.16,10.4,0.15,0.07,0.63,0.47,0.09,3.64
0.19,-135.97,50.85,178.75,0.23,1.06,0.1,0.69,0.52,1.86,-104.92,58.91,198.75,-0.07,2.05,0.12,1.44,0.47,0.4,-151.48,1.01,1.06,0.23,0.23,0.4,0.43,0.66,2.3,-127.06,9.41,10.21,0.1,0.19,0.33,0.67,0.25,3.64
0.2,-136.2,49.3,178.8,0.29,0.82,0.05,0.54,0.5,1.78,-104.58,56.66,199.57,0.09,1.83,0.26,1.02,0.42,0.33,-151.07,0.69,1.29,0.26,0.37,0.33,0.42,0.53,2.08,-126.61,9.87,9.96,0.11,0.09,0.43,0.46,0.2,3.37
0.21,-136.19,48.32,178.81,0.27,0.9,0.08,0.54,0.61,1.61,-104.05,54.34,199.87,0.22,1.83,0.04,0.79,0.29,0.43,-150.68,1.11,1.06,0.32,0.52,0.57,0.57,0.61,1.67,-126.05,9.98,9.57,0.29,0.31,0.36,0.43,0.4,3.08
0.22,-136.67,47.09,178.9,0.31,0.58,0.03,0.47,0.66,1.9,-103.42,52.35,200.09,0.17,1.58,0.2,0.67,0.42,0.46,-150.21,1.29,1.52,0.56,0.44,0.26,0.65,0.74,1.35,-125.61,10.55,9.47,0.19,0.3,0.38,0.35,0.27,2.79
0.23,-136.59,46.55,178.78,0.43,0.64,0.08,0.69,0.69,1.49,-103.0,50.46,200.29,0.07,1.44,0.09,0.61,0.47,0.45,-150.0,1.82,1.57,0.32,0.68,0.44,0.57,0.63,1.1,-125.03,11.06,9.31,0.13,0.37,0.39,0.29,0.29,2.3
0.24,-136.82,45.77,178.61,0.1,0.3,0.13,0.74,0.75,1.34,-102.62,48.88,200.48,0.17,1.46,-0.09,0.35,0.39,0.27,-149.57,2.44,2.06,0.14,0.56,0.17,0.47,0.71,0.96,-124.7,11.46,8.96,0.32,0.26,0.31,0.32,0.34,1.92
0.25,-137.17,45.23,178.58,0.41,0.43,0.19,0.88,0.45,1.34,-101.88,46.9,200.29,0.29,1.22,0.16,0.56,0.44,0.32,-149.18,3.24,2.58,0.42,0.5,0.1,0.54,0.65,0.9,-124.58,12.11,8.53,0.1,0.4,0.32,0.39,0.21,1.45
0.26,-137.28,45.07,178.25,0.4,0.33,0.06,1.0,0.72,1.25,-101.53,45.73,199.86,0.16,0.93,-0.02,0.55,0.6,0.53,-148.94,3.94,2.97,0.36,0.62,0.05,0.58,0.55,1.13,-124.23,12.63,8.74,0.04,0.32,0.29,0.45,0.25,1.2
0.27,-137.55,44.84,178.15,0.1,0.32,-0.08,1.19,0.62,1.07,-101.09,44.43,199.86,0.04,1.01,0.06,0.71,0.42,0.38,-148.67,4.59,3.69,0.35,0.57,-0.01,0.65,0.42,1.12,-124.14,13.35,8.63,-0.11,0.65,0.17,0.28,0.22,0.64
0.28,-137.95,44.71,177.88,0.19,0.3,0.07,1.1,0.55,1.06,-100.64,43.1,199.67,0.06,0.76,0.13,1.08,0.68,0.61,-148.28,5.61,4.0,0.26,0.65,0.1,0.41,0.36,1.35,-123.97,14.12,8.56,0.12,0.69,0.32,0.53,0.2,0.83
0.29,-138.09,45.14,177.74,0.4,0.15,0.1,1.58,0.72,0.96,-100.63,42.2,199.73,0.16,0.57,0.16,1.24,0.59,0.49,-147.95,6.44,4.61,0.54,0.38,-0.01,0.37,0.35,1.45,-123.69,14.92,8.63,0.07,0.7,0.16,0.56,0.21,0.53
0.3,-138.42,45.22,177.74,0.3,0.29,0.11,1.44,0.67,0.93,-100.33,41.22,199.8,-0.05,0.65,-0.14,1.48,0.64,0.79,-147.61,7.43,5.24,0.4,0.62,0.13,0.59,0.13,1.54,-123.56,15.78,8.48,0.36,0.53,0.1,0.56,0.26,0.36
0.31,-138.99,45.59,177.53,0.07,0.28,0.12,1.81,0.75,1.01,-100.21,40.35,199.43,0.14,0.48,0.04,1.73,0.54,1.04,-147.35,8.15,5.74,0.22,0.62,0.1,0.37,0.36,2.2,-123.71,16.39,8.63,0.09,0.78,0.03,0.43,0.5,0.71
0.32,-139.27,46.05,177.32,0.15,0.26,0.24,2.03,0.88,0.85,-100.08,39.83,199.34,0.21,0.34,0.13,1.8,0.93,1.09,-147.34,8.82,6.34,0.27,0.43,0.23,0.41,0.22,2.49,-123.55,17.34,8.74,0.17,0.61,-0.09,0.4,0.12,0.73
0.33,-139.64,46.65,177.33,0.2,0.35,0.12,2.05,1.07,0.77,-99.97,39.21,199.62,0.06,0.29,0.0,1.96,0.82,1.15,-147.09,9.43,6.51,0.34,0.32,0.16,0.44,0.36,2.72,-123.33,18.07,8.77,0.17,0.79,0.09,0.35,0.37,1.05
0.34,-140.06,47.01,177.41,0.2,0.37,0.26,2.16,1.07,1.14,-100.06,38.72,199.48,-0.05,0.29,0.08,2.15,0.6,1.38,-146.76,9.71,6.83,0.14,0.46,0.08,0.53,0.25,2.72,-123.32,18.93,8.67,-0.02,0.68,0.08,0.38,0.27,1.44
0.35,-140.28,47.54,177.45,0.27,0.39,0.14,2.21,1.0,1.24,-99.8,38.1,199.79,0.02,0.38,0.01,2.25,0.97,1.49,-147.18,10.2,7.03,0.43,0.47,0.15,0.56,0.56,3.1,-122.94,19.52,8.8,0.0,0.78,0.16,0.68,0.12,1.43
0.36,-140.54,47.71,177.62,0.22,0.42,0.09,2.28,1.07,1.36,-99.88,38.04,199.78,0.05,0.3,-0.01,2.24,0.92,1.62,-147.3,10.34,6.98,0.32,0.44,0.12,0.33,0.74,2.96,-122.86,20.06,8.86,0.15,0.63,-0.12,0.35,0.07,2.04
0.37,-140.49,47.94,177.47,0.01,0.43,0.03,2.15,1.19,1.25,-100.04,38.06,199.95,0.13,0.34,0.09,2.44,0.97,1.59,-147.34,10.54,7.0,0.33,0.33,0.44,0.43,0.69,3.28,-123.05,20.58,8.78,0.32,0.51,-0.05,0.34,0.17,2.04
0.38,-140.64,48.29,177.75,0.16,0.28,0.02,2.24,1.34,1.34,-100.19,37.71,200.25,0.13,0.25,-0.03,2.31,0.96,1.87,-147.66,10.42,6.99,0.56,0.2,0.26,0.55,0.98,3.25,-123.09,21.06,9.16,0.11,0.6,0.26,0.26,0.13,2.49
0.39,-141.04,48.73,177.65,0.14,0.33,0.11,2.33,1.07,1.25,-100.21,37.26,200.55,0.26,0.09,0.11,2.54,0.93,1.89,-148.48,10.43,6.91,0.27,0.02,0.49,0.6,1.2,3.28,-123.03,21.99,9.15,0.14,0.45,0.13,0.35,0.17,2.79
0.4,-141.12,49.21,177.79,0.37,0.3,0.05,2.2,1.2,1.55,-100.21,37.17,200.68,0.02,0.0,0.13,2.39,1.02,1.93,-149.3,10.47,6.39,0.41,0.17,0.68,0.77,1.54,3.13,-123.2,22.87,9.64,0.4,0.47,0.12,0.17,0.33,3.19
0.41,-141.43,49.5,177.75,0.12,0.38,0.08,2.35,1.21,1.58,-100.25,37.11,201.05,0.42,0.32,0.19,2.36,0.82,2.06,-150.13,10.12,6.21,0.41,0.35,0.67,0.78,1.97,3.15,-123.52,23.16,10.21,0.19,0.74,0.37,0.29,0.44,3.43
0.42,-141.71,49.96,177.9,0.19,0.32,0.13,2.39,1.11,1.71,-100.3,37.04,201.33,0.22,0.09,0.13,2.26,0.94,2.12,-151.23,9.85,6.1,0.55,0.06,0.86,0.81,2.34,3.17,-123.79,23.81,10.8,0.18,0.7,0.53,0.51,0.47,3.63
0.43,-141.53,50.11,177.96,0.43,0.1,0.14,1.98,1.16,1.85,-100.29,37.01,201.56,0.21,0.27,0.1,2.2,0.82,2.15,-152.69,9.39,5.87,0.45,0.34,0.9,0.83,2.91,2.93,-124.53,24.56,11.46,0.3,0.63,0.61,0.37,0.65,3.76
0.44,-141.68,50.5,177.77,0.17,0.32,-0.09,2.03,1.06,1.74,-100.13,37.04,201.68,0.32,0.09,0.03,1.97,0.97,2.27,-153.88,9.23,5.45,0.62,0.21,0.74,1.07,3.14,2.72,-124.71,25.17,12.31,0.46,0.82,0.42,0.58,0.57,3.85
0.45,-141.94,50.86,177.86,0.48,0.28,0.37,1.9,1.0,1.81,-100.13,37.02,201.98,0.22,0.24,0.04,1.87,0.93,2.36,-155.28,8.78,4.98,0.54,0.29,0.77,0.99,3.33,2.6,-125.81,26.12,13.36,0.46,0.62,0.65,0.61,0.84,3.88
0.46,-141.72,51.11,177.96,0.28,0.14,0.1,1.79,1.02,2.08,-100.27,37.05,201.98,0.1,0.21,-0.06,2.12,1.05,2.2,-156.55,8.4,4.74,0.5,0.2,0.77,1.11,3.81,2.23,-126.62,26.71,14.56,0.41,0.63,0.46,0.75,0.91,3.95
0.47,-141.97,51.48,178.0,0.48,0.45,0.16,1.77,0.86,2.06,-100.16,37.55,202.28,0.27,0.26,0.03,1.86,0.89,2.23,-157.78,7.97,4.68,0.33,0.04,0.73,1.01,3.85,2.22,-127.7,27.61,15.89,0.5,0.78,0.78,0.98,1.04,3.91
0.48,-142.08,51.54,178.0,0.42,0.26,-0.04,1.81,0.71,2.05,-99.99,37.61,202.09,-0.01,0.16,0.03,1.65,0.88,2.34,-158.44,7.78,4.48,0.36,0.45,0.94,1.08,4.04,2.02,-128.45,28.28,17.2,0.49,0.76,0.69,0.9,1.38,3.65
0.49,-142.5,51.85,178.06,0.5,0.05,0.11,1.61,0.51,2.21,-100.16,37.9,202.31,0.43,0.22,0.08,1.69,0.97,2.19,-159.36,7.3,4.17,0.42,0.19,0.79,0.96,4.02,2.1,-129.42,28.79,18.72,0.34,0.6,0.82,1.17,1.36,3.56
0.5,-142.47,51.93,178.03,0.27,0.01,0.14,1.48,0.67,2.25,-100.11,38.25,202.15,0.04,0.1,0.05,1.54,0.78,2.02,-160.04,7.31,4.32,0.39,0.28,0.82,0.9,3.95,2.1,-130.34,29.47,20.02,0.49,0.83,0.81,1.28,1.34,3.39
0.51,-142.72,51.93,178.04,0.41,0.14,0.19,1.42,0.53,1.94,-100.14,38.24,202.17,0.28,0.29,0.09,1.14,0.73,2.12,-160.33,6.92,4.22,0.36,0.13,0.62,1.06,4.01,2.17,-131.51,29.84,21.59,0.61,0.56,0.75,1.47,1.4,3.5
0.52,-143.25,52.07,178.3,0.23,0.2,-0.05,1.46,0.44,2.21,-100.08,38.61,202.11,0.17,0.28,0.14,1.39,0.9,1.94,-160.57,6.56,4.29,0.0,0.16,0.41,0.83,3.78,2.05,-132.43,30.32,22.68,0.55,0.71,0.72,1.31,1.46,3.31
0.53,-143.41,52.08,178.4,0.36,0.07,-0.01,1.08,0.36,2.53,-100.26,38.66,202.41,0.18,0.37,0.1,1.17,0.69,2.03,-160.9,6.5,4.08,0.18,0.23,0.57,0.86,3.05,2.21,-132.95,30.6,23.94,0.68,0.58,0.63,1.27,1.48,3.19
0.54,-143.71,52.17,178.39,0.23,0.23,-0.05,1.47,0.32,2.18,-100.31,38.72,202.37,0.26,0.41,-0.13,1.12,0.7,1.97,-160.71,6.55,4.07,0.21,0.43,0.6,0.67,2.91,2.19,-133.41,30.67,24.72,0.42,0.54,0.75,1.29,1.38,3.12
0.55,-143.84,52.09,178.21,0.33,0.38,-0.05,1.25,0.39,2.2,-100.17,38.55,202.44,0.11,0.38,-0.07,1.27,0.7,1.84,-160.59,6.5,3.97,0.2,0.07,0.34,0.82,2.93,2.07,-133.8,30.78,25.24,0.65,0.53,0.57,1.24,1.34,3.07
0.56,-144.42,51.78,178.83,0.35,0.13,0.03,1.13,0.43,2.24,-100.3,38.53,202.27,0.12,0.39,-0.09,1.02,0.53,1.83,-160.36,6.12,3.79,0.21,0.19,0.56,0.59,2.46,2.06,-134.19,30.89,26.32,0.6,0.47,0.53,1.31,1.25,2.87
0.57,-144.6,51.39,178.81,0.24,0.14,0.07,1.13,0.33,2.07,-100.59,38.37,202.44,0.12,0.47,0.04,1.04,0.6,1.88,-160.12,6.17,3.49,0.4,0.12,0.26,0.58,2.43,2.1,-134.73,30.92,27.14,0.46,0.17,0.69,1.11,1.2,2.89
0.58,-145.05,51.18,178.97,0.32,0.39,0.37,1.08,0.18,1.68,-100.39,37.93,202.48,0.28,0.47,-0.1,1.0,0.63,1.57,-159.83,6.15,3.3,0.46,0.36,0.27,0.9,1.9,2.07,-134.88,30.8,27.98,0.64,0.26,0.56,1.13,1.27,2.84
0.59,-145.36,50.6,179.13,0.16,0.56,0.04,1.04,0.26,1.8,-100.79,37.74,202.46,0.39,0.66,0.29,0.93,0.92,1.64,-159.41,5.86,3.09,0.7,0.53,0.43,0.67,1.7,2.07,-135.04,30.65,28.62,0.28,0.15,0.41,1.06,1.09,2.78
0.6,-145.92,50.12,179.38,-0.01,0.55,0.01,0.82,0.27,1.58,-100.71,37.33,202.8,0.21,0.69,0.08,0.87,0.57,1.6,-159.21,5.67,2.59,0.35,0.38,0.12,0.63,1.12,1.89,-134.77,30.61,29.26,0.24,0.15,0.46,0.85,0.97,2.44
0.61,-145.97,49.37,179.53,0.43,0.69,0.16,0.91,0.32,1.34,-100.63,36.81,202.91,0.3,0.41,0.21,0.91,0.57,1.24,-159.12,5.44,2.3,0.34,0.32,0.21,0.73,1.06,1.68,-134.71,30.67,29.59,0.29,0.02,0.42,0.58,0.84,2.41
0.62,-146.06,48.73,179.44,0.27,0.47,0.31,0.73,0.27,1.52,-100.85,35.99,203.07,0.14,0.63,0.08,0.98,0.59,1.34,-158.87,5.39,1.87,0.5,0.23,0.16,0.66,0.83,1.6,-134.51,30.52,30.0,0.28,0.04,0.37,0.67,0.8,2.56
0.63,-146.37,48.09,179.47,0.05,0.61,-0.06,0.52,0.18,1.15,-100.69,35.46,203.3,0.16,0.67,-0.07,0.69,0.53,1.16,-159.01,5.07,1.69,0.35,0.2,0.4,0.56,0.78,1.67,-134.36,30.64,30.25,0.42,0.16,-0.09,0.34,0.69,2.33
0.64,-146.23,47.18,179.49,0.23,0.48,0.16,0.73,0.26,1.1,-100.78,34.8,203.48,0.29,0.56,-0.09,0.84,0.66,1.28,-159.01,4.77,1.67,0.52,0.31,0.18,0.47,0.64,1.24,-134.21,30.31,30.66,0.46,-0.03,0.15,0.53,0.56,2.31
0.65,-145.91,46.43,179.53,0.26,0.86,0.09,0.73,0.44,1.0,-100.63,34.32,203.54,0.13,0.54,0.12,0.68,0.55,1.08,-159.31,4.66,1.91,0.58,0.29,0.14,0.7,0.33,1.27,-133.83,30.61,31.17,0.43,0.1,0.12,0.28,0.55,2.12
0.66,-145.79,45.7,179.57,0.15,0.63,0.33,0.56,0.38,0.87,-100.5,33.69,203.53,0.19,0.34,0.05,0.68,0.55,0.89,-159.6,4.32,1.99,0.86,0.17,0.27,0.7,0.46,1.01,-133.47,30.48,31.33,0.39,-0.01,0.19,0.42,0.63,2.0
0.67,-145.67,44.86,179.34,0.0,0.63,0.05,0.46,0.37,0.85,-100.67,33.27,203.55,0.01,0.51,0.18,0.69,0.68,0.97,-160.11,4.05,2.24,0.68,0.17,0.4,0.47,0.31,0.93,-133.27,30.57,31.29,0.37,0.06,0.06,0.42,0.54,1.97
0.68,-145.3,44.15,179.32,0.1,0.62,0.26,0.43,0.35,0.85,-100.39,32.78,203.78,0.2,0.34,0.15,0.69,0.6,0.94,-160.27,3.94,2.85,0.64,0.31,0.35,0.62,0.37,0.86,-132.75,30.67,31.73,0.32,0.08,0.27,0.65,0.54,1.58
0.69,-145.3,43.61,179.28,0.11,0.34,0.18,0.56,0.45,0.69,-100.12,32.51,203.76,0.1,0.14,-0.13,0.62,0.44,0.44,-160.68,3.8,3.14,0.71,0.25,0.18,0.61,0.38,0.76,-132.66,31.11,32.43,0.22,-0.13,0.2,0.35,0.53,1.53
0.7,-144.79,43.01,179.11,0.18,0.3,0.29,0.63,0.41,0.6,-100.37,32.1,203.92,-0.03,0.1,0.09,0.56,0.47,0.58,-160.97,3.48,4.0,0.75,0.26,0.27,0.46,0.17,0.74,-132.23,31.19,32.8,0.39,0.02,0.22,0.64,0.41,1.43
0.71,-144.63,42.59,178.89,0.23,0.06,0.08,0.47,0.23,0.89,-100.09,31.96,203.87,0.01,0.19,0.19,0.64,0.46,0.49,-161.37,3.41,4.59,0.84,0.08,0.46,0.5,0.2,0.67,-132.17,31.71,33.14,0.57,0.2,0.31,0.58,0.47,1.14
0.72,-144.71,42.44,178.77,0.06,0.22,0.03,0.72,0.33,0.97,-100.02,32.0,203.95,0.17,0.18,0.09,0.81,0.41,0.55,-161.6,3.37,4.93,0.88,0.11,0.37,0.58,0.6,0.57,-132.05,31.7,33.42,0.17,0.24,0.32,0.95,0.36,1.07
0.73,-144.63,42.09,178.91,0.04,0.39,0.09,0.62,0.18,0.71,-100.07,31.84,203.98,0.05,0.17,-0.18,0.84,0.41,0.49,-161.96,3.34,5.45,0.71,-0.1,0.29,0.49,0.33,0.63,-131.98,32.17,33.66,0.47,0.19,0.23,0.73,0.44,0.94
0.74,-144.38,41.84,178.55,-0.04,0.23,0.01,0.58,0.37,0.72,-100.02,31.98,203.8,-0.03,0.25,0.06,0.74,0.53,0.49,-162.17,3.0,6.24,0.61,0.06,0.33,0.32,0.31,0.59,-131.53,32.47,34.13,0.45,0.26,0.05,1.02,0.3,0.92
0.75,-144.31,41.76,178.62,0.1,0.14,0.09,0.47,0.36,0.87,-100.26,32.03,204.03,-0.06,0.21,-0.04,0.57,0.53,0.34,-162.6,2.99,6.98,0.63,0.2,0.29,0.48,0.49,0.65,-131.35,32.96,34.82,0.4,0.34,0.15,0.61,0.25,0.79
0.76,-144.55,41.67,178.22,0.26,0.18,0.25,0.91,0.48,0.92,-99.97,32.09,203.96,0.09,0.37,0.1,0.66,0.4,0.54,-162.9,3.09,7.83,0.51,-0.06,0.26,0.24,0.43,0.98,-131.25,33.52,35.44,0.74,0.32,0.23,0.85,0.47,0.76
0.77,-144.61,41.91,178.25,0.03,0.12,-0.08,0.92,0.26,0.94,-100.08,32.6,204.02,0.1,0.05,0.2,0.88,0.37,0.47,-163.14,2.89,8.69,0.43,0.21,0.2,0.31,0.37,0.99,-130.8,33.95,36.24,0.73,0.25,0.13,0.8,0.3,0.89
0.78,-144.58,42.18,178.37,0.21,0.3,-0.01,0.94,0.26,0.88,-100.11,32.88,203.89,0.03,0.33,-0.04,0.76,0.66,0.66,-163.26,2.95,9.3,0.51,-0.02,0.02,0.35,0.39,0.84,-130.56,34.4,36.84,0.6,0.28,0.28,0.73,0.32,0.71
0.79,-144.87,42.59,178.2,0.18,0.29,0.2,0.98,0.48,0.84,-100.06,33.27,203.86,0.16,0.33,-0.11,0.77,0.62,0.56,-163.54,3.17,9.89,0.4,-0.07,0.21,0.23,0.15,0.87,-130.05,35.18,37.45,0.64,0.36,0.2,0.65,0.26,0.67
0.8,-145.2,43.22,178.38,0.11,0.58,-0.02,1.0,0.27,0.96,-100.08,33.69,204.05,0.15,0.32,0.01,1.05,0.57,0.72,-163.7,3.03,10.49,0.38,0.11,0.25,0.11,0.52,0.91,-129.87,35.55,38.2,0.64,0.44,0.27,0.67,0.28,0.77
0.81,-145.54,43.96,178.26,0.16,0.59,-0.06,1.15,0.47,0.81,-100.11,34.55,203.97,0.07,0.5,-0.05,1.09,0.49,0.59,-163.88,3.3,10.92,0.33,-0.02,0.24,0.16,0.41,0.85,-129.38,36.1,39.04,0.76,0.4,0.36,0.65,0.25,0.69
0.82,-145.71,44.97,178.59,0.29,0.59,0.21,1.01,0.53,0.94,-100.26,35.27,204.02,0.25,0.7,-0.08,0.91,0.29,0.61,-163.94,3.45,11.54,0.18,0.07,0.25,0.08,0.45,0.8,-128.93,36.53,39.91,0.76,0.43,0.27,0.4,0.36,0.58
0.83,-145.85,45.79,178.47,0.06,0.64,0.09,1.13,0.5,0.71,-100.19,35.9,204.06,0.03,0.45,0.1,1.13,0.49,0.58,-164.19,3.92,11.83,0.19,0.25,0.19,0.51,0.56,0.94,-128.69,37.04,40.51,0.64,0.51,0.35,0.56,0.5,0.62
0.84,-146.18,46.96,178.9,0.0,0.81,0.16,1.08,0.45,0.94,-100.3,36.75,203.79,-0.04,0.62,-0.09,0.96,0.47,0.79,-164.48,4.26,12.09,0.28,0.21,0.25,0.2,0.76,0.8,-128.44,37.53,41.37,0.58,0.39,0.3,0.61,0.52,0.7
0.85,-146.12,48.4,179.25,0.02,0.94,0.06,1.04,0.43,0.83,-100.32,37.56,203.81,0.08,0.74,-0.1,0.99,0.37,0.63,-164.87,4.68,12.38,0.09,0.47,0.16,0.34,0.49,0.77,-128.01,38.2,42.28,0.7,0.57,0.33,0.67,0.36,0.94
0.86,-146.43,49.78,179.36,0.2,1.13,0.15,0.83,0.27,0.58,-100.61,38.58,203.85,-0.03,0.92,0.11,1.01,0.38,0.65,-164.97,4.99,12.15,0.21,0.52,0.41,0.31,0.63,0.92,-127.44,38.71,43.16,0.68,0.34,0.35,0.59,0.45,0.84
0.87,-146.48,51.61,179.37,-0.06,1.23,0.1,0.95,0.48,0.82,-100.59,39.6,203.87,0.06,0.69,-0.15,0.92,0.53,0.62,-165.17,5.47,12.35,-0.02,0.39,-0.01,0.4,0.78,0.68,-127.2,39.18,43.79,0.75,0.52,0.41,0.62,0.62,0.71
0.88,-146.57,52.81,179.58,0.06,1.04,0.25,0.89,0.29,0.74,-100.49,40.8,203.97,0.14,0.89,0.14,1.11,0.45,0.64,-165.2,6.24,12.54,0.09,0.58,0.27,0.47,0.77,0.69,-126.55,39.66,44.69,0.92,0.34,0.41,0.53,0.59,0.61
0.89,-146.23,54.5,179.63,0.09,1.43,0.05,0.81,0.47,0.91,-100.91,41.93,203.6,0.1,1.18,-0.04,0.89,0.26,0.55,-165.86,6.68,12.41,0.26,0.46,0.28,0.64,0.64,0.85,-126.04,40.12,45.18,0.57,0.44,0.49,0.61,0.48,0.72
0.9,-146.25,55.46,179.78,0.19,1.38,0.3,1.03,0.44,0.72,-101.29,42.45,203.88,0.08,1.26,0.06,0.83,0.44,0.59,-165.66,7.21,12.1,0.2,0.47,0.28,0.54,0.59,0.74,-125.92,40.64,45.42,0.44,0.61,0.38,0.7,0.83,0.58
0.91,-146.18,56.28,179.9,-0.0,1.48,0.19,0.87,0.25,0.64,-101.24,43.08,204.04,0.01,0.93,0.05,0.72,0.51,0.61,-165.81,7.31,11.92,0.26,0.63,0.22,0.76,0.78,0.83,-125.59,41.0,45.8,0.55,0.49,0.39,0.72,0.61,0.78
0.92,-146.16,58.1,179.82,0.02,1.39,0.11,0.77,0.44,0.47,-101.53,44.2,204.04,-0.03,1.08,0.21,0.7,0.31,0.5,-165.98,8.09,11.41,0.22,0.62,0.16,0.78,0.73,0.93,-124.82,41.86,46.41,0.49,0.55,0.46,0.65,0.75,0.78
0.93,-145.8,59.49,179.66,-0.01,1.68,-0.01,0.69,0.49,0.57,-101.69,45.73,204.15,0.17,1.4,-0.2,0.83,0.37,0.49,-166.26,8.83,10.76,0.33,0.78,0.3,0.88,0.62,0.98,-124.25,42.44,46.92,0.54,0.41,0.61,0.66,0.7,0.77
0.94,-145.81,61.15,179.26,0.1,1.54,0.17,0.89,0.53,0.7,-101.97,47.0,204.16,0.18,1.54,-0.08,0.79,0.56,0.71,-166.46,9.72,10.2,0.37,0.58,0.31,0.82,0.84,1.14,-123.49,43.25,47.57,0.47,0.43,0.7,0.58,0.86,0.65
0.95,-145.34,62.95,178.99,0.08,1.42,0.17,0.64,0.42,0.59,-102.53,48.4,204.36,-0.06,1.37,0.09,0.69,0.58,0.65,-166.68,10.48,9.25,0.2,0.53,0.44,1.08,0.51,1.31,-122.85,44.0,47.86,0.47,0.67,0.7,0.63,0.76,0.68
0.96,-145.09,64.55,178.31,0.02,1.47,0.09,0.84,0.53,0.7,-102.97,50.03,204.39,0.23,1.38,-0.03,0.83,0.54,0.49,-166.79,11.25,8.34,0.62,0.6,0.37,1.11,0.73,1.24,-122.09,45.05,48.2,0.37,0.45,0.76,0.89,1.03,0.67
0.97,-144.69,66.29,177.59,0.13,1.62,0.28,0.98,0.66,0.74,-103.33,51.51,204.63,0.26,1.48,0.04,0.72,0.5,0.57,-167.26,11.86,7.44,0.58,0.55,0.34,1.16,0.69,1.36,-121.31,46.09,48.7,0.31,0.49,0.72,1.0,0.57,0.59
0.98,-144.53,67.97,176.42,-0.05,1.44,0.19,0.92,0.51,0.65,-103.63,53.0,204.67,0.29,1.66,0.1,0.78,0.63,0.71,-167.56,12.68,6.53,0.59,0.49,0.41,0.99,0.63,1.53,-120.57,47.57,49.09,0.37,0.57,0.69,0.96,0.93,0.55
0.99,-144.28,69.6,175.23,0.23,1.37,0.35,1.18,0.51,0.72,-103.93,54.69,204.6,0.07,1.59,0.03,0.85,0.31,0.81,-168.0,13.49,6.11,0.77,0.72,0.45,1.03,0.68,1.73,-119.84,48.71,49.53,0.38,0.61,0.73,1.16,0.83,0.57
1.0,-144.07,71.18,174.03,0.19,1.36,-0.01,1.35,0.54,0.77,-104.29,56.51,204.53,0.15,1.67,0.02,0.91,0.53,0.5,-168.61,14.16,5.33,0.72,0.48,0.44,0.84,0.76,1.9,-118.86,50.19,50.31,0.36,0.66,0.59,1.11,0.85,0.46
1.01,-143.56,72.53,172.34,-0.01,1.28,0.13,1.43,0.65,0.5,-104.17,58.16,204.15,0.12,1.65,0.11,1.23,0.41,0.7,-169.02,14.97,4.85,0.92,0.68,0.51,0.99,0.63,1.85,-118.0,51.68,51.02,0.78,0.94,0.74,1.05,0.65,0.52
1.02,-143.31,74.32,170.89,0.1,1.45,0.19,1.82,0.42,0.51,-104.32,59.83,203.99,-0.0,1.68,0.01,1.25,0.17,0.8,-169.52,15.64,4.89,1.09,0.6,0.48,0.85,0.7,2.07,-117.48,53.35,52.1,0.51,0.92,0.57,1.25,0.86,0.35
1.03,-143.19,75.62,168.96,0.04,1.06,0.23,1.78,0.5,0.81,-104.25,61.78,203.49,0.29,1.78,0.06,1.36,0.48,0.76,-170.09,16.25,5.1,1.26,0.34,0.62,1.02,0.84,1.77,-116.73,54.94,53.55,0.55,0.96,0.68,1.05,0.57,0.48
1.04,-142.74,77.1,167.39,0.24,1.14,0.17,1.91,0.52,0.45,-104.1,63.75,202.54,0.17,1.76,0.2,1.61,0.42,0.98,-170.78,17.0,5.6,1.4,0.57,0.42,1.01,0.75,1.67,-116.2,56.74,54.93,0.6,1.14,0.61,1.29,0.8,0.58
1.05,-142.32,78.35,165.5,0.14,1.02,0.07,1.79,0.5,0.62,-104.21,65.37,202.06,0.16,1.7,0.1,1.85,0.55,0.82,-171.61,17.82,6.48,1.76,0.53,0.97,0.78,0.86,1.64,-115.22,58.19,57.09,0.78,1.53,0.36,1.35,0.62,0.33
1.06,-142.0,79.74,164.02,0.28,0.93,0.07,1.79,0.37,0.58,-103.97,67.06,201.01,0.17,1.79,-0.02,1.85,0.49,0.82,-172.06,18.59,7.95,1.8,0.6,0.76,0.83,1.09,1.39,-114.8,59.92,59.52,0.87,1.6,0.47,1.36,0.72,0.54
1.07,-141.84,80.63,162.5,0.3,0.89,0.05,1.69,0.47,0.67,-103.94,69.17,200.11,0.16,1.6,0.08,2.05,0.49,0.99,-172.94,19.38,9.64,1.95,0.87,0.92,0.64,1.11,1.09,-114.1,61.27,62.17,0.83,1.88,0.72,1.62,0.46,0.44
1.08,-141.83,81.43,161.87,0.28,1.0,-0.06,1.57,0.67,0.44,-103.52,69.97,199.26,0.11,1.61,0.09,1.91,0.58,1.02,-173.54,19.9,10.72,1.87,0.78,0.85,0.78,1.01,1.05,-113.78,62.03,63.66,1.06,1.93,0.47,1.5,0.61,0.45
1.09,-141.56,81.89,161.06,0.19,0.94,0.1,1.78,0.54,0.38,-103.44,70.93,198.85,0.37,1.55,0.16,1.9,0.31,0.8,-173.92,20.18,11.76,1.91,1.05,0.64,0.6,1.22,1.22,-113.35,62.61,65.36,1.03,1.84,0.61,1.35,0.83,0.57
1.1,-141.18,82.88,159.88,0.07,0.78,-0.0,1.67,0.69,0.48,-103.1,72.87,197.58,0.16,1.56,0.03,1.93,0.59,0.57,-174.63,21.27,13.95,2.27,1.1,0.99,0.75,1.24,0.92,-112.57,63.68,68.84,1.11,2.2,0.61,1.51,0.87,0.61
1.11,-141.13,83.54,158.99,0.33,0.61,0.01,1.54,0.47,0.57,-103.01,74.67,196.39,0.31,1.47,0.22,2.1,0.63,0.75,-175.56,22.06,16.39,2.23,1.1,0.93,0.71,1.03,0.71,-111.74,64.47,73.16,1.25,2.56,0.62,1.39,0.74,0.82
1.12,-140.83,84.51,158.17,0.19,0.73,0.09,1.22,0.44,0.61,-102.61,76.33,195.11,0.21,1.48,0.1,1.96,0.77,0.71,-176.45,22.96,19.2,2.08,1.01,0.87,0.87,1.27,0.62,-110.73,65.05,77.58,0.97,2.35,0.76,1.43,1.17,0.83
1.13,-140.82,85.13,157.59,0.23,0.57,-0.01,1.26,0.68,0.74,-102.7,78.0,194.07,0.18,1.41,0.08,1.97,0.69,0.87,-177.34,24.23,22.07,2.01,1.39,0.76,0.68,1.21,0.43,-109.94,65.03,82.52,1.23,2.51,0.64,1.42,1.0,0.68
1.14,-140.48,85.45,156.89,0.34,0.64,0.02,0.98,0.71,0.6,-102.42,79.58,193.05,0.07,1.22,0.25,1.68,0.8,0.63,-178.0,25.03,25.06,2.05,1.2,0.67,0.64,1.1,0.36,-109.01,64.92,87.52,1.16,2.47,0.7,1.54,1.22,0.74
1.15,-140.46,85.95,156.74,0.1,0.6,0.14,0.88,0.62,0.79,-102.05,81.16,191.96,0.25,1.29,0.28,1.64,0.75,0.57,-178.79,26.26,27.89,2.22,1.37,0.83,0.8,1.21,0.32,-107.75,64.5,93.17,1.15,2.81,0.91,1.34,1.29,0.92
1.16,-140.38,86.22,156.6,0.19,0.63,-0.05,0.7,0.8,0.85,-102.11,82.56,191.47,0.33,1.35,-0.04,1.49,0.76,0.58,-179.3,27.23,30.64,2.04,1.37,0.62,0.88,1.25,0.28,-106.71,63.67,98.73,1.11,2.54,0.9,1.36,1.15,0.9
1.17,-140.03,86.45,156.43,0.15,0.59,0.17,0.68,0.75,0.7,-102.01,83.87,190.69,0.13,1.25,0.11,1.59,0.95,0.51,-179.94,28.29,33.63,2.04,1.23,0.49,0.72,1.23,0.44,-105.38,62.49,104.5,1.01,2.7,0.8,1.01,0.95,0.82
1.18,-140.21,86.72,156.4,0.11,0.61,-0.08,0.35,0.76,0.64,-102.23,84.99,190.33,-0.02,1.17,0.13,1.3,0.68,0.46,-180.09,29.39,36.41,1.91,1.61,0.52,0.75,1.1,0.35,-103.99,61.25,109.97,0.77,2.49,0.99,1.05,1.0,1.01
1.19,-140.24,86.49,156.51,0.05,0.45,0.22,0.25,0.72,0.75,-101.97,85.61,190.0,0.1,1.12,0.31,1.31,1.01,0.61,-180.44,30.5,39.21,1.97,1.45,0.26,0.77,1.26,0.37,-102.7,59.74,115.56,1.07,2.33,1.06,1.13,1.26,0.88
1.2,-140.17,86.59,156.57,0.14,0.54,0.2,0.32,0.81,0.6,-102.08,86.47,189.83,0.2,1.36,0.14,1.15,0.88,0.63,-180.57,31.65,41.75,1.92,1.28,0.36,0.84,0.93,0.61,-100.92,58.26,120.83,0.94,2.37,0.92,1.1,1.33,0.87
1.21,-140.2,86.22,156.41,0.19,0.52,0.17,0.26,1.0,0.6,-101.97,86.9,189.73,0.34,0.95,-0.03,1.0,0.96,0.35,-180.58,32.76,44.54,2.04,1.76,0.42,1.16,1.21,0.77,-99.22,56.45,125.5,0.89,2.03,0.97,0.99,1.36,0.72
1.22,-140.52,85.95,156.56,0.02,0.61,0.13,0.33,0.85,0.76,-102.14,87.09,189.85,0.21,1.15,0.11,1.1,0.86,0.75,-180.57,33.72,46.96,1.87,1.34,0.19,1.05,1.23,0.9,-97.66,54.48,129.62,0.9,2.05,1.02,0.69,1.3,0.98
1.23,-140.43,86.09,156.57,0.1,0.29,0.11,0.33,0.99,0.62,-102.11,87.02,189.5,0.18,0.9,0.09,0.84,0.95,0.55,-180.1,34.85,49.62,1.81,1.2,0.28,0.85,1.4,0.7,-95.98,52.82,133.71,0.73,1.66,0.94,0.98,1.19,0.77
1.24,-140.75,85.85,156.25,0.33,0.41,0.33,0.15,1.0,0.76,-102.13,86.68,189.56,0.22,1.16,-0.08,0.82,0.89,0.57,-179.62,35.72,52.23,1.97,1.43,0.22,1.16,1.14,0.95,-93.82,51.48,136.91,0.56,1.46,0.71,0.77,1.01,0.77
1.25,-141.0,85.37,156.05,0.1,0.17,0.14,0.38,0.88,0.77,-102.03,86.36,189.14,0.26,0.96,0.07,0.64,0.72,0.47,-179.13,36.8,55.18,1.77,1.23,0.18,1.11,1.09,1.12,-92.2,49.72,139.52,0.62,1.26,0.78,0.7,1.01,0.84
1.26,-140.99,85.38,155.87,0.42,0.3,0.22,0.42,1.31,0.81,-102.06,85.99,188.97,0.03,1.02,-0.06,0.67,0.82,0.66,-178.93,36.95,56.66,1.97,1.14,0.1,0.86,0.96,0.92,-91.24,49.12,140.79,0.52,1.27,0.69,0.75,1.08,0.93
1.27,-141.1,85.27,155.85,0.11,0.3,0.27,0.17,1.33,0.97,-102.17,85.88,188.79,0.19,1.06,0.21,0.56,0.85,0.67,-178.58,37.93,58.01,1.88,1.04,0.32,0.92,1.05,0.96,-90.39,48.27,141.69,0.62,1.13,0.49,0.67,1.26,0.94
1.28,-141.38,85.12,155.42,0.36,0.22,0.25,0.45,1.26,0.77,-101.93,84.69,188.16,0.12,1.18,0.15,0.6,0.81,0.55,-177.73,38.59,60.94,2.01,1.26,0.13,0.85,1.01,1.25,-88.7,47.14,143.25,0.42,0.87,0.59,0.71,1.04,0.76
1.29,-141.24,84.92,155.37,0.37,-0.03,0.33,0.51,1.24,0.73,-101.97,83.67,187.29,0.16,1.21,0.14,0.65,0.94,0.63,-176.85,39.76,64.19,1.92,0.97,0.32,0.79,1.02,1.27,-86.93,45.86,144.41,0.67,0.92,0.45,0.69,1.02,0.71
1.3,-141.74,84.82,155.49,0.39,0.09,0.17,0.37,1.56,0.9,-101.87,82.71,186.17,0.25,1.09,0.15,0.48,0.79,0.53,-175.83,40.58,67.34,1.82,0.98,0.35,0.96,0.99,1.38,-85.28,44.79,145.31,0.52,0.67,0.38,0.93,0.91,0.78
1.31,-142.14,84.91,154.98,0.29,0.22,0.08,0.16,1.53,0.92,-101.7,81.61,185.01,0.08,0.98,0.07,0.71,0.82,0.43,-174.94,41.14,70.96,1.88,0.82,0.55,0.83,1.09,1.25,-84.02,43.61,145.63,0.52,0.68,0.45,0.78,1.08,0.68
1.32,-141.93,84.66,154.71,0.54,0.12,0.13,0.29,1.74,1.04,-101.5,80.28,183.23,0.21,0.95,0.17,0.47,0.87,0.62,-173.76,42.1,74.52,1.93,1.05,0.49,0.88,0.86,1.1,-83.12,42.87,145.8,0.59,0.8,0.26,0.93,0.95,0.89
1.33,-142.03,84.64,154.57,0.36,0.17,0.13,0.41,1.69,0.85,-101.62,79.36,181.8,0.34,0.94,0.12,0.71,0.81,0.39,-172.42,43.01,78.29,1.84,0.95,0.5,0.91,1.11,1.19,-81.8,41.8,145.9,0.47,0.65,0.09,0.89,1.14,0.84
1.34,-142.04,84.81,154.44,0.33,0.11,0.06,0.4,1.65,1.05,-101.74,78.21,179.95,0.26,0.94,0.09,0.6,0.72,0.49,-171.35,43.67,81.99,1.71,1.02,0.56,0.93,1.17,1.16,-81.23,40.95,145.86,0.45,0.71,0.33,0.72,1.17,0.83
1.35,-141.99,85.04,154.56,0.27,-0.05,-0.05,0.41,1.62,1.04,-101.5,77.14,178.6,0.14,0.73,0.32,0.6,0.93,0.47,-169.8,44.26,85.61,1.8,0.97,0.54,0.89,0.82,1.01,-80.62,40.17,145.52,0.47,0.62,0.32,0.77,0.88,0.87
1.36,-142.07,85.34,154.45,0.3,0.11,0.09,0.43,1.61,0.96,-101.48,76.17,176.83,0.16,0.72,0.32,0.45,1.15,0.51,-168.44,44.86,89.38,1.87,1.09,0.55,0.98,0.92,0.8,-80.41,39.26,145.35,0.42,0.63,0.16,0.74,1.13,0.96
1.37,-141.77,85.3,154.65,0.25,0.33,0.32,0.6,1.39,1.08,-101.5,75.64,175.45,0.34,0.58,0.23,0.58,1.11,0.44,-166.94,45.38,93.06,1.61,0.93,0.69,1.11,0.91,0.85,-80.08,38.65,145.14,0.32,0.66,0.24,0.81,1.04,0.92
1.38,-141.82,85.61,154.62,0.41,0.12,0.25,0.61,1.42,0.9,-101.6,74.76,174.28,0.23,0.5,0.23,0.58,1.03,0.52,-165.38,46.26,96.69,1.53,0.78,0.81,1.22,1.15,1.01,-80.1,37.62,145.23,0.26,0.63,0.19,0.57,0.99,0.94
1.39,-141.35,85.73,154.88,0.34,0.41,0.25,0.49,1.21,0.73,-101.73,74.31,173.22,0.09,0.52,-0.05,0.39,0.9,0.21,-163.8,46.91,100.33,1.24,0.87,0.78,1.34,0.93,1.12,-80.4,37.12,144.79,0.22,0.69,0.14,0.72,0.65,0.95
1.4,-140.91,85.92,154.84,0.3,0.45,0.15,0.65,0.98,0.95,-101.81,73.97,172.63,0.17,0.36,0.26,0.26,0.81,0.32,-162.41,47.49,103.58,1.28,0.84,0.67,1.67,1.0,0.93,-80.78,36.38,144.85,0.16,0.37,0.27,0.74,0.88,1.07
1.41,-140.8,86.36,155.2,0.29,0.22,0.24,0.49,1.08,0.97,-101.82,73.78,171.96,0.17,0.3,0.3,0.42,1.1,0.42,-160.84,48.05,106.89,1.4,0.71,0.82,1.68,1.13,0.94,-81.11,36.03,145.13,0.17,0.58,0.17,0.69,0.75,1.05
1.42,-140.27,86.5,155.23,0.23,0.32,0.1,0.54,0.86,0.94,-101.69,73.8,171.65,0.24,0.32,0.09,0.42,0.94,0.63,-159.41,48.65,109.91,1.01,0.86,0.78,1.79,1.11,0.94,-81.75,35.93,145.19,0.07,0.53,0.15,0.96,0.68,1.05
1.43,-139.91,86.87,155.5,0.27,0.5,0.35,0.59,0.62,0.74,-101.78,74.09,171.77,0.33,0.43,-0.04,0.45,0.91,0.51,-158.28,49.05,112.7,1.14,0.76,0.76,1.88,1.05,1.1,-82.41,35.38,145.41,0.12,0.3,0.18,0.7,0.8,1.04
1.44,-139.72,86.75,155.66,-0.04,0.48,0.21,0.56,0.9,0.73,-101.75,74.16,171.93,0.15,0.5,0.04,0.13,0.8,0.5,-157.51,49.29,113.89,1.05,0.71,0.78,1.94,1.1,1.06,-82.37,35.32,145.23,0.23,0.45,0.05,1.06,0.63,1.21
1.45,-139.75,87.07,155.45,0.15,0.32,0.17,0.57,0.52,0.62,-101.73,74.16,172.28,0.28,0.21,0.2,0.33,0.96,0.5,-157.08,49.57,115.4,0.83,0.66,0.54,2.09,1.28,0.84,-82.6,35.57,145.29,0.28,0.35,0.14,1.01,0.85,0.79
1.46,-139.26,87.16,155.91,0.37,0.53,0.02,0.67,0.48,0.96,-101.71,74.7,172.43,0.28,0.29,0.2,0.36,0.8,0.57,-155.8,50.0,117.22,0.63,0.62,0.62,2.04,1.05,1.02,-83.4,35.31,145.53,0.11,0.34,0.19,1.2,0.67,1.14
1.47,-138.94,87.01,156.1,0.12,0.57,0.26,0.75,0.62,0.74,-101.42,75.18,173.22,0.21,0.25,0.06,0.24,0.71,0.41,-154.83,50.31,119.35,0.58,0.61,0.53,1.96,1.36,1.02,-84.12,35.54,145.85,0.19,0.29,0.27,1.44,0.6,0.96
1.48,-138.75,86.98,156.0,0.09,0.23,0.27,0.51,0.48,0.84,-101.27,75.76,173.89,0.14,0.42,0.11,0.43,0.58,0.78,-153.72,50.55,121.22,0.38,0.56,0.57,2.06,1.12,1.02,-84.48,35.52,145.91,0.11,0.32,0.32,1.37,0.66,0.86
1.49,-138.6,87.15,156.13,0.03,0.55,0.25,0.72,0.66,0.65,-100.84,76.54,174.48,0.21,0.34,0.28,0.11,0.63,0.84,-153.08,50.81,122.5,0.3,0.34,0.59,1.86,1.27,1.07,-85.11,36.0,146.01,0.1,0.25,0.57,1.7,0.56,1.14
1.5,-138.67,87.15,156.2,0.08,0.66,0.22,0.6,0.78,0.97,-100.79,77.31,175.22,0.28,0.63,0.14,0.32,0.56,0.66,-152.42,51.08,123.56,0.08,0.32,0.51,1.81,1.19,0.86,-85.79,36.38,146.07,0.25,0.35,0.2,1.84,0.61,1.09
1.51,-138.46,86.67,156.26,0.15,0.46,0.12,0.69,0.97,0.79,-100.3,78.04,175.93,0.15,0.6,0.05,0.23,0.63,0.61,-151.92,51.12,124.28,0.35,0.31,0.45,1.74,1.34,0.71,-86.46,36.77,146.22,0.2,0.29,0.41,1.87,0.65,1.28
1.52,-138.43,86.47,155.9,0.34,0.41,0.26,0.61,1.01,1.08,-100.03,78.74,176.15,0.39,0.58,-0.02,0.32,0.62,0.81,-151.61,51.11,124.75,0.35,0.25,0.52,1.57,1.33,1.06,-87.09,37.11,146.2,0.18,0.29,0.37,1.88,0.75,1.05
1.53,-138.43,86.06,155.94,0.44,0.47,0.18,0.68,0.85,0.89,-99.57,79.41,176.79,0.2,0.56,0.0,0.4,0.39,0.91,-151.7,51.09,125.13,0.02,0.17,0.27,1.38,1.26,0.83,-87.77,37.54,145.93,0.2,0.38,0.24,1.7,0.91,1.2
1.54,-138.75,85.77,155.92,0.4,0.38,0.05,0.66,1.01,1.02,-99.31,80.24,176.94,0.3,0.51,0.08,0.55,0.29,0.81,-151.67,51.38,125.41,0.21,0.14,0.27,1.15,1.24,0.83,-88.18,38.18,146.03,0.08,0.19,0.23,1.74,0.74,1.11
1.55,-138.85,85.42,155.97,0.29,0.52,0.14,0.71,0.98,0.81,-99.08,80.76,177.26,0.09,0.61,-0.04,0.44,0.35,1.19,-151.44,51.28,125.21,0.01,0.02,0.34,1.14,1.11,0.82,-88.98,38.35,146.03,0.19,0.25,0.47,1.49,0.74,1.17
1.56,-139.04,85.08,155.76,0.38,0.35,0.29,0.73,1.29,1.0,-98.86,81.62,177.27,0.35,0.42,0.05,0.3,0.39,1.13,-151.78,51.29,125.05,0.02,0.19,0.22,0.76,1.09,0.84,-89.58,38.57,145.92,0.36,0.04,0.35,1.57,0.66,1.28
1.57,-139.35,85.05,155.74,0.21,0.26,0.09,0.73,1.12,0.89,-98.85,82.32,177.15,0.41,0.4,0.0,0.47,0.38,0.92,-151.97,51.49,124.64,0.29,0.15,0.44,0.68,1.05,1.01,-90.31,39.25,145.82,0.29,0.15,0.23,1.19,0.66,0.99
1.58,-139.7,84.62,155.86,0.43,0.31,0.15,0.76,1.14,0.86,-98.84,82.78,176.72,0.12,0.56,-0.02,0.46,0.56,0.98,-152.29,51.51,124.5,0.19,0.05,0.28,0.71,0.97,0.92,-90.99,39.46,146.0,0.22,0.26,0.36,1.15,0.66,0.86
1.59,-140.06,84.25,155.79,0.36,0.3,0.2,0.82,1.02,0.82,-98.75,83.27,176.86,0.35,0.59,0.12,0.3,0.75,1.1,-152.62,51.6,123.96,0.26,0.17,0.54,0.76,0.98,0.95,-91.67,39.72,145.8,0.33,0.27,0.42,1.02,0.73,0.98
1.6,-140.49,84.2,156.03,0.26,0.14,0.23,0.6,1.17,0.83,-98.86,83.67,176.49,0.25,0.32,0.19,0.67,0.69,1.08,-152.73,51.78,123.51,0.24,-0.06,0.53,0.78,1.02,0.95,-92.49,40.1,145.95,0.3,0.12,0.19,1.0,0.57,0.84
1.61,-140.87,84.03,156.23,0.3,0.19,0.14,0.57,1.06,0.99,-98.86,84.2,176.22,0.1,0.41,0.04,0.57,0.82,0.99,-152.72,52.08,122.95,-0.03,0.28,0.43,0.85,1.03,0.98,-93.41,40.53,145.82,0.28,0.27,0.3,0.78,0.57,0.69
1.62,-141.1,84.03,156.15,0.23,0.43,0.19,0.5,0.82,0.93,-99.08,84.45,176.15,0.26,0.61,0.24,0.61,0.81,1.12,-152.94,52.05,122.65,0.2,0.03,0.37,0.74,0.91,1.04,-93.62,40.64,145.98,0.25,0.19,0.38,0.64,0.65,0.74
1.63,-141.14,83.83,156.08,0.24,0.22,0.29,0.73,0.99,0.95,-98.87,84.47,175.95,-0.02,0.39,0.19,0.6,1.04,0.95,-153.16,52.2,122.52,0.3,0.15,0.37,0.66,0.98,1.16,-93.99,40.99,145.67,0.21,0.43,0.6,0.61,0.75,0.76
1.64,-141.57,83.69,156.34,0.25,0.08,0.2,0.52,0.83,0.72,-99.0,85.12,175.63,0.12,0.38,0.04,0.53,1.01,0.96,-153.15,52.35,122.25,-0.03,0.23,0.39,0.77,1.06,1.21,-94.66,41.13,145.89,0.15,0.38,0.4,0.51,0.77,0.67
1.65,-142.11,83.93,156.65,0.34,0.15,0.16,0.47,0.73,1.05,-98.97,85.37,175.53,0.2,0.32,0.08,0.46,1.11,1.09,-153.31,52.65,121.46,0.06,0.36,0.49,0.73,0.96,1.03,-95.48,41.9,145.69,0.23,0.54,0.33,0.45,0.74,0.67
1.66,-142.34,83.99,157.12,0.12,0.01,0.03,0.6,0.59,0.77,-99.27,85.72,175.48,0.06,0.19,0.08,0.51,1.01,1.1,-153.35,53.02,121.07,0.27,0.17,0.36,0.64,1.04,1.05,-96.15,41.98,145.54,0.31,0.47,0.41,0.37,0.63,0.61
1.67,-142.8,83.9,157.42,0.07,0.09,0.04,0.48,0.67,0.83,-99.38,86.08,175.58,0.14,0.08,0.02,0.39,1.12,1.05,-153.45,53.38,120.55,0.3,0.13,0.51,0.79,1.0,1.14,-96.65,42.53,145.46,0.13,0.33,0.39,0.4,0.58,0.7
1.68,-142.84,83.94,157.86,0.28,0.09,0.13,0.39,0.39,0.78,-99.42,86.28,175.4,0.11,0.38,0.0,0.44,1.03,0.99,-153.38,53.43,120.61,0.21,0.51,0.34,0.82,0.99,1.21,-97.26,43.27,145.4,0.3,0.57,0.42,0.12,0.72,0.84
1.69,-143.24,83.89,157.88,0.11,0.17,0.12,0.48,0.38,0.71,-99.75,86.65,175.35,0.18,0.4,0.35,0.33,1.04,0.99,-153.22,53.75,119.93,0.27,0.33,0.26,0.77,0.99,0.97,-97.47,43.58,145.08,0.12,0.39,0.41,0.44,0.7,0.6
1.7,-143.36,84.05,158.22,0.18,0.15,0.33,0.47,0.24,0.93,-99.74,86.7,175.4,-0.07,0.13,-0.05,0.45,0.94,0.86,-153.04,54.37,119.9,0.1,0.27,0.31,0.95,1.11,1.21,-97.93,44.02,145.01,0.22,0.45,0.22,0.14,0.9,0.67
1.71,-143.42,84.44,158.5,0.14,-0.14,0.07,0.53,0.38,0.67,-99.86,87.08,175.58,0.28,0.15,0.12,0.4,0.81,0.8,-153.19,54.41,119.52,0.03,0.24,0.41,0.92,1.2,1.11,-98.32,44.59,144.62,0.16,0.45,0.31,0.41,0.77,0.94
1.72,-143.98,84.37,158.7,0.1,0.09,0.15,0.64,0.13,0.69,-99.77,87.51,175.44,0.11,0.32,-0.11,0.38,1.0,1.01,-152.9,54.7,119.25,0.09,0.2,0.36,0.88,1.05,1.22,-98.74,45.19,144.42,0.17,0.52,0.37,0.3,0.91,0.89
1.73,-143.83,84.36,158.69,0.08,0.12,0.15,0.6,0.35,0.83,-99.96,87.62,175.64,0.1,0.18,0.17,0.4,0.76,0.77,-152.6,54.92,119.09,0.07,0.12,0.35,0.96,1.26,0.92,-99.18,45.92,144.19,0.19,0.62,0.34,0.19,0.9,0.9
1.74,-144.31,84.35,158.93,0.36,0.23,0.18,0.47,0.44,0.57,-99.89,87.88,175.79,-0.13,0.08,0.06,0.56,0.63,1.0,-152.38,55.11,118.73,0.08,0.19,0.36,1.06,1.21,1.09,-99.11,46.69,144.12,0.15,0.72,0.39,0.32,1.04,0.87
1.75,-144.33,84.29,159.07,0.08,0.03,0.26,0.57,0.41,0.68,-100.12,88.02,175.96,0.14,0.22,0.03,0.81,0.71,0.63,-152.25,55.3,119.14,0.15,0.19,0.23,1.24,1.51,1.1,-99.57,47.27,143.87,0.1,0.38,0.37,0.36,0.91,0.86
1.76,-144.26,84.33,158.78,0.08,-0.01,0.12,0.62,0.35,0.75,-100.03,88.34,175.88,0.16,0.25,0.1,0.36,0.82,0.81,-151.82,55.6,119.1,0.13,0.15,0.41,1.03,1.39,1.17,-99.85,47.79,143.91,0.2,0.65,0.5,0.1,1.04,0.79
1.77,-144.58,83.96,158.62,0.08,0.19,-0.05,0.47,0.53,0.64,-100.26,88.76,176.1,-0.02,-0.04,0.25,0.58,0.65,0.79,-151.26,55.79,119.18,0.18,0.32,0.26,1.1,1.66,0.99,-100.23,48.4,144.11,0.3,0.53,0.38,0.57,1.03,1.05
1.78,-144.65,84.0,158.52,0.2,0.13,0.03,0.54,0.35,0.6,-100.08,88.75,176.14,0.12,0.16,0.06,0.8,0.72,0.67,-150.97,56.24,119.34,0.17,0.29,0.22,1.22,1.71,1.13,-100.89,49.11,144.11,0.22,0.3,0.49,0.6,1.26,1.17
1.79,-144.83,83.81,158.26,0.25,0.18,0.09,0.47,0.62,0.58,-100.32,88.69,176.06,0.2,0.16,0.04,0.71,0.6,0.49,-150.5,56.48,119.67,0.14,0.4,0.27,1.31,1.85,1.16,-101.37,49.49,144.24,0.4,0.44,0.66,0.71,1.23,1.07
1.8,-144.82,83.72,157.81,0.21,0.19,0.09,0.59,0.6,0.68,-100.29,88.84,175.98,0.02,0.2,0.11,0.66,0.72,0.54,-149.99,56.92,119.7,0.31,0.2,0.34,1.34,1.91,1.33,-101.91,49.85,144.35,0.34,0.38,0.21,0.73,1.21,1.21
1.81,-144.89,83.87,157.71,0.33,0.23,0.16,0.54,0.51,0.68,-100.47,88.86,176.11,0.11,0.13,0.1,0.55,0.73,0.56,-149.93,57.18,119.95,0.17,0.27,0.41,1.33,1.78,1.15,-102.08,50.06,144.19,0.28,0.38,0.69,0.89,1.2,1.07
1.82,-145.07,83.42,157.29,0.02,0.37,-0.06,0.55,0.51,0.82,-100.65,89.05,176.08,-0.0,0.32,-0.04,0.68,0.47,0.63,-149.45,57.23,120.22,0.26,0.12,0.44,1.53,1.95,1.25,-102.75,50.53,144.59,0.5,0.5,0.62,0.98,1.44,1.21
1.83,-145.34,83.01,156.81,0.13,0.16,0.14,0.38,0.6,0.81,-100.52,89.09,176.19,0.17,0.27,0.03,0.7,0.6,0.37,-148.86,57.57,120.41,0.31,0.29,0.38,1.63,2.09,1.38,-103.86,51.05,144.9,0.6,0.46,0.39,0.95,1.3,1.25
1.84,-145.43,82.86,156.42,-0.0,0.35,-0.09,0.48,0.57,0.71,-100.33,89.03,176.28,-0.01,0.17,0.18,0.44,0.53,0.62,-148.31,58.05,120.64,0.25,0.29,0.6,1.5,1.9,1.22,-104.7,51.54,145.24,0.27,0.58,0.36,1.17,1.37,1.44
1.85,-145.22,82.43,156.18,0.3,0.18,0.06,0.67,0.68,0.73,-100.6,88.84,176.3,0.03,0.07,0.13,0.56,0.56,0.74,-147.7,58.62,120.95,0.17,0.05,0.42,1.64,2.07,1.41,-106.0,51.99,145.61,0.51,0.37,0.37,1.37,1.69,1.39
1.86,-145.49,82.15,155.84,0.26,-0.04,0.05,0.6,0.63,0.48,-100.5,88.65,176.42,0.2,0.21,-0.01,0.77,0.38,0.55,-147.05,59.07,121.12,0.3,0.08,0.46,1.72,2.14,1.51,-106.91,52.39,146.05,0.55,0.18,0.3,1.78,1.83,1.71
1.87,-145.44,81.98,155.62,0.14,0.31,0.1,0.57,0.6,0.58,-100.45,88.68,176.43,-0.01,0.22,0.05,0.51,0.61,0.49,-146.49,59.55,121.49,0.21,0.17,0.28,1.47,1.79,1.31,-107.97,52.75,146.07,0.45,0.38,0.42,1.69,1.77,1.75
1.88,-145.41,81.68,155.44,0.14,0.27,-0.04,0.5,0.76,0.59,-100.57,88.52,176.34,0.08,0.21,-0.07,0.62,0.39,0.62,-146.01,59.63,121.8,0.3,0.05,0.22,1.35,1.68,1.39,-108.91,53.09,146.44,0.48,0.11,0.26,1.79,1.84,1.88
1.89,-145.03,81.41,155.37,0.3,-0.04,0.22,0.64,0.82,0.51,-100.44,88.34,176.43,0.02,0.23,0.35,0.49,0.51,0.4,-145.37,60.27,121.87,0.21,0.08,0.28,1.45,1.55,1.3,-109.94,53.6,146.55,0.35,0.17,0.57,1.93,1.97,1.9
1.9,-144.91,81.19,155.58,0.18,0.11,0.0,0.41,0.54,0.29,-100.33,88.3,176.59,-0.02,0.22,0.08,0.56,0.33,0.59,-144.86,60.56,122.3,0.12,0.26,0.31,1.15,1.54,1.06,-110.88,53.91,146.49,0.44,0.38,0.36,2.12,2.0,1.74
1.91,-144.83,80.96,155.57,0.1,0.12,0.18,0.58,0.63,0.3,-100.01,88.26,176.58,0.04,0.13,-0.02,0.52,0.35,0.63,-144.44,60.82,122.42,0.07,0.16,0.29,1.35,1.52,1.04,-112.02,54.09,146.57,0.41,0.26,0.22,1.99,1.92,2.12
1.92,-144.42,80.85,155.54,0.14,0.25,-0.01,0.54,0.51,0.46,-100.07,88.14,176.68,-0.01,0.38,0.01,0.57,0.39,0.49,-144.15,61.16,122.55,0.13,0.18,0.23,1.26,1.41,1.09,-112.59,54.45,146.55,0.42,0.11,0.24,2.09,1.93,1.94
1.93,-144.24,80.71,155.67,0.21,-0.04,0.1,0.69,0.75,0.54,-99.82,88.05,176.47,-0.02,0.09,0.09,0.5,0.24,0.77,-143.61,61.71,123.03,0.01,0.03,0.42,1.18,1.38,1.13,-113.41,54.86,146.31,0.37,0.38,0.35,2.13,1.92,1.78
1.94,-143.94,80.55,155.78,0.08,-0.05,0.05,0.37,0.58,0.44,-99.62,87.94,176.57,-0.02,0.13,0.05,0.5,0.28,0.57,-143.43,61.77,123.1,0.23,0.3,0.18,1.05,1.15,1.2,-113.85,55.05,146.47,0.19,0.34,0.44,1.93,2.04,1.96
1.95,-143.75,80.52,155.68,0.17,-0.13,0.08,0.56,0.61,0.54,-99.49,88.07,176.79,0.0,0.12,0.11,0.39,0.36,0.43,-143.11,62.03,123.56,0.22,0.16,0.44,0.9,1.27,1.09,-113.88,55.39,146.23,0.31,0.29,0.46,1.57,1.75,1.87
1.96,-143.51,80.47,155.79,0.1,0.04,0.12,0.46,0.59,0.47,-99.41,87.74,176.64,0.18,-0.03,0.03,0.7,0.17,0.61,-142.71,62.18,123.87,0.19,-0.03,0.33,0.81,1.26,1.13,-114.29,55.41,146.1,0.13,0.4,0.33,1.69,1.68,1.74
1.97,-143.39,80.35,155.87,0.1,-0.02,-0.02,0.36,0.46,0.46,-99.41,88.03,176.49,0.24,0.14,0.02,0.58,0.11,0.58,-142.45,62.48,124.31,0.06,0.05,0.25,0.57,0.98,1.34,-114.21,55.66,145.76,0.22,0.25,0.18,1.43,1.72,1.76
1.98,-143.43,80.11,155.76,0.1,0.02,0.21,0.59,0.63,0.43,-99.16,87.97,176.66,0.27,0.14,0.04,0.51,0.25,0.76,-142.28,62.63,124.44,0.07,-0.13,0.25,0.66,1.17,1.23,-114.33,55.7,145.98,0.26,0.26,0.36,1.41,1.41,1.5
1.99,-143.32,80.35,155.67,0.29,0.29,0.13,0.42,0.64,0.43,-99.36,88.04,176.55,0.4,0.11,0.08,0.54,0.43,0.68,-142.28,62.82,124.36,0.06,0.11,0.31,0.61,1.12,1.49,-114.17,55.89,145.92,0.3,0.19,0.33,1.35,1.57,1.63
2.0,-143.34,80.42,155.71,0.17,0.03,0.12,0.45,0.54,0.54,-99.3,87.93,176.45,0.05,0.12,-0.02,0.54,0.23,0.71,-141.93,62.95,125.01,0.05,0.07,0.2,0.63,1.02,1.64,-114.1,55.99,146.03,0.14,0.27,0.38,0.98,1.24,1.55
2.01,-143.2,80.58,155.68,0.02,-0.16,0.05,0.38,0.7,0.4,-99.1,88.02,176.59,0.03,0.13,0.01,0.43,0.34,0.65,-141.57,63.19,125.48,0.06,0.2,0.34,0.76,1.01,1.7,-113.77,56.17,145.89,0.25,0.12,0.39,0.9,1.13,1.13
2.02,-143.54,80.37,155.75,0.15,0.06,-0.01,0.23,0.41,0.38,-99.21,88.14,176.56,-0.02,0.12,0.1,0.31,0.18,0.8,-141.42,63.4,125.84,-0.13,0.13,0.17,0.69,1.01,1.88,-113.41,56.22,146.04,0.17,0.17,0.47,0.61,1.39,1.18
2.03,-143.54,80.38,155.74,0.17,0.05,0.03,0.21,0.64,0.41,-99.26,88.07,176.53,0.2,0.06,-0.12,0.27,0.45,0.84,-141.09,63.41,126.2,0.27,0.14,0.16,0.64,1.05,1.97,-113.14,56.35,146.24,0.32,0.1,0.34,0.51,1.18,0.79
2.04,-143.61,80.39,155.78,0.22,-0.02,-0.17,0.13,0.45,0.28,-99.11,88.21,176.57,0.18,0.06,0.04,0.08,0.43,0.77,-140.8,63.71,126.49,0.0,0.23,0.01,0.93,1.1,2.17,-112.76,56.22,146.44,-0.12,0.4,0.26,0.36,1.33,0.88
2.05,-143.9,80.26,155.72,0.27,-0.06,-0.08,0.3,0.76,0.33,-99.4,88.2,176.63,0.21,0.01,0.01,0.24,0.43,0.88,-140.68,63.82,127.13,-0.17,0.11,0.29,0.89,1.05,2.64,-112.36,56.22,146.55,0.05,0.06,0.24,0.2,1.53,0.67
