0.02,-48.210827678352416,85.60661536557915,177.82783576588574,-0.157519484061477,-0.0136246332127378,0.040109125629129,0.2670035132174969,-0.0758736666530223,0.1200538584418862,-37.48660871561905,87.56444633357805,178.15535133183184,0.1938630425526857,0.0874155266473371,-0.1195709575219644,0.0065257109215931,-0.04988299460127,0.0732363370887401,-199.17211397963564,0.7167101453456218,9.073601509808812,-0.1302707706780426,0.1342608542593436,0.0578683324935365,0.1762442678033376,0.1518195154734891,0.2545545509980125,-149.6207524656893,11.932113414171171,18.380781839013043,0.0682867317745221,0.0316693368816878,-0.1625762301166746,0.0469641248698615,0.1379465923751532,0.0561466237195127
0.03,-48.11091025418342,85.62918946716763,177.92856978064296,-0.003502939083615,-0.0074281554636089,-0.0106453028103284,0.0288523488424913,0.2031132163945063,0.4379014528538782,-37.12872401267555,87.58639631168164,178.2442142852044,-0.0640544206140949,0.0334183958619969,-0.0851702205209049,0.0656133846178225,0.1633700383522131,-0.1617035137528386,-199.41230273433143,0.5996070994147156,9.290850396357044,0.0164756744292788,0.1331822017757406,-0.0514824575064235,-0.0138951913379152,0.0020370503692553,0.2162394705638896,-149.73149711280325,11.846246181084677,18.482378699111496,-0.1059081375118051,0.0860876758549878,0.0636774862670533,0.4122212932258211,0.2003404071581407,0.1845301182279062
0.04,-48.136000872482384,85.56718745886084,177.63908241264315,-0.0619624670908927,0.0875994934944509,-0.0739848483346927,-0.1247260066089581,-0.0551144176181059,0.236728410419348,-37.3175904421493,87.76325435719285,178.1700975306591,0.0055941412139129,-0.0184531670650021,-0.0428486807072642,-0.0224817624014262,-0.1135929874562973,-0.1240159616026515,-199.25410029967333,0.5795595494456405,9.190533314342058,0.0495489512660635,-0.0806412663868165,-0.1427206339681986,0.042112820935208,0.2718923881444259,-0.0627696043073099,-149.5899205519947,11.809786901853215,18.566964395576623,0.1077835338705823,-0.075692481288411,0.0487190380787493,-0.0540946601239402,0.0334530968543463,0.0811908670835449
0.05,-48.09993524589664,85.74213341175806,177.88496112139285,-0.0108244308825951,-0.1625091418162279,-0.0313665287277627,0.0578633952036136,-0.0190269090742001,0.0650316403247691,-37.164330125125794,87.65987399091385,177.86978006113333,-0.0110858750496902,0.0159932983818944,0.014219178903496,0.2247421486209925,-0.0688958039132093,-0.1447514496825644,-199.4219160553585,0.5489959697014966,9.273679900389066,0.0968237935992915,0.0921938644433749,0.1181989919532245,0.1456053686284586,0.070524241685718,-0.1030332452461219,-149.68766955849685,11.798536908806703,18.43555807722553,-0.2047687995162417,-0.0575943760808464,0.1081226468778623,-0.0139389919997061,0.0198644567190794,0.087593444196861
0.06,-48.128986854881376,85.74829982998652,177.7866004359798,-0.0735900597546276,-0.0645410464182119,-0.1067261035760923,0.0383366032804309,-0.0058086569767675,0.1959474379767959,-37.29174882514321,87.4574956092966,178.15681093106463,0.0588818513764801,0.0201634484931167,-0.0727828041954439,0.1325812787374833,0.0183764944886648,0.0163998291824326,-199.42671652491424,0.4887777010442074,9.304018062683491,-0.0726473450915945,0.0053349089098846,0.0749648787232706,0.0281434519762584,0.1316493530070607,-0.1575966594624086,-149.66176458213295,11.926364712692312,18.27851572268476,0.0449858677470884,0.0769060697863555,0.0652305326765792,-0.1192320293180115,-0.0100776399306739,-0.0019425975723811
0.07,-47.89291169691866,85.6053581601446,177.91883312603323,0.0143008585064724,0.1153645065289045,0.1224989179284324,-0.2434578556680098,-0.0346882863850069,0.0141591884727504,-37.19409828070072,87.57314802850132,178.02191855283968,0.1034325360090252,0.0906165784763778,0.1494430960530728,0.060814674642823,0.0385999149824449,-0.1295844866731669,-199.35086441875308,0.5036489307900538,9.44354481955937,0.0858006843391189,-0.1645399400535358,0.0347249441939886,-0.0038483068306294,0.2045544548296559,0.2682207048197724,-149.61847777153764,12.043686282977898,18.30212149005512,-0.1921874959139851,-0.0979451833727231,-0.0104943313575182,0.0360831176045568,-0.0351205785003395,-0.1178012312150368
0.08,-47.8534905317068,85.4556823921968,177.90338896471087,-0.0445404638341758,-0.0886996246455301,0.0702159072711548,0.335926337848872,-0.1392691595262578,0.2428350332697253,-37.373820479127225,87.64082500365785,177.93864911766735,0.025553011391843,-0.0616918822788544,-0.1005590126033883,0.0577918751485442,-0.1472768475612114,-0.0838986559035456,-199.25420378911195,0.4737316720211146,9.593727752439188,0.0732103181719447,0.0838160886085521,-0.0900094351148998,0.2094310400273095,0.3236528370650363,-0.0340620003124354,-149.6298540468319,11.852854755353466,18.38973362379033,-0.0669715296866535,0.148627239061392,0.1237645540931529,0.1845207748777637,0.107210568125449,0.1160996509239062
0.09,-48.04842288792903,85.50516625324093,178.03173034464135,0.0623165235134012,-0.0575865514361796,-0.0704894501082365,-0.015583044716298,-0.0115582509999233,0.0043512900740316,-37.44859326039218,87.30093278945589,177.94199030954658,-0.0106698962477497,-0.0060921035434339,0.1003283641609427,0.0496587604041974,0.0769402643296983,-0.0276428678495194,-199.10168193714165,0.4652303670589472,9.537985655268608,-0.0302079932131488,-0.102097774293638,0.0877195433704549,0.0941139310253563,0.2035514729349424,0.1249230582680677,-149.54224461340658,12.025080655625622,18.375354591019736,0.2582571680197216,0.1168622370320093,0.0513221058680261,-0.0719458135367617,0.1819394701639843,0.2126494690168042
0.1,-47.97774118989473,85.67472306903075,177.64772689479247,-0.0690015714035087,0.1710787503422177,-0.0928124665615574,0.0228912124492697,0.0457986429052016,-0.0358776367954996,-37.29744390643611,87.47758389743933,177.97566609818526,0.2090133488230891,-0.0222997178341438,0.0579450840386388,0.0702676719680992,0.0621586724323394,0.1128070224188894,-199.15161030269343,0.4133563270328813,9.378911104005043,-0.1183634674790561,-0.0369091416487804,-0.0355591910394935,-0.0300657577418881,0.0981186107902372,0.0515439968452602,-149.3502271371147,11.835043659190372,18.475430304440906,-0.0496258878703551,0.0326647210163589,-0.1090350789003477,-0.0526910786161478,0.125256008998029,0.0641358298961005
0.11,-47.96043315885164,85.51490645561515,177.64519115138918,0.2047749642177269,0.0447444969962953,0.026106685249884,0.0762313808494879,0.0088224551602835,0.101068237828956,-37.33004049856543,87.38623351744327,178.03622360967464,0.0395290434657709,0.0199493486696537,-0.1230118068476535,0.1356710319691108,0.3055912867703312,0.0112249377863877,-199.27538885182625,0.3467348813384512,9.334940166411643,0.2222328492285539,0.1270597145506022,-0.0167938477629865,0.1046584430460949,0.0285561113131866,0.1086173257157518,-149.23837287432454,12.229590938975548,18.48740895200229,0.2548503372307091,0.0835954853239781,-0.0362262087478849,0.0876362931041537,0.1402571127677644,0.1341802785181185
0.12,-47.85559825026585,85.63917435845025,177.87870841849684,-0.0408843518243017,-0.0402525173591591,-0.0663544898475335,0.0733141039128459,0.0943620537438754,0.0682294042668097,-37.38009283858843,87.50923675695425,177.98234658706198,-0.1222197309060182,-0.0335294989509148,0.0216382565497041,0.1060536492636077,0.0206941063880193,0.1531199941431819,-199.2280222966837,0.4122211704376332,9.266597152599417,-0.1422237492887005,-0.034357274664589,-0.0843682783831211,0.1095200293050127,0.1181124551174642,0.0621490748472509,-149.54215966775354,11.979061463113176,18.229289482543518,0.0133211408259742,0.0806681044474526,0.1512702984214273,0.0963700484947269,0.1580017472365387,0.16582974166012
0.13,-47.96709114254767,85.44340704965995,177.73141157229563,0.0922513839953041,0.1683655130232041,-0.080209212294886,0.0539650418837874,-0.0402100727939084,0.1706096794167348,-37.16477338903518,87.52600301038927,177.991432543199,-0.0307518183847615,0.0636066658263145,-0.0627420996738064,0.125000582141528,0.0124682802534351,0.0152145561062529,-199.40185075694595,0.5424003821183504,9.439264661229462,-0.1833927977299202,0.0331869896546769,0.2086644170129852,0.0303510252059412,0.1251989566458562,0.0675319330696763,-149.45375893336694,11.853824793815054,18.32443896636637,-0.032853644144929,0.0713414839791233,0.3393851944511115,-0.0656350221240476,0.2788962899591978,0.1441071646781221
0.14,-48.02529115400888,85.663777208053,177.8429527616385,-0.0632715166062445,-0.1600831728962376,-0.0991219973951139,0.0437997849036343,0.0669847793682906,-0.0299362652051615,-37.31529148278141,87.54498630909038,177.93964121369805,0.0441732166535743,-0.1801435317360277,-0.1194608848808319,0.0831109919013636,0.1767209845655781,0.1976423527066123,-198.92930572735568,0.4329862329684596,9.42723708809321,-0.1634204689649118,0.2094801468752325,-0.1071865310441608,0.0038009979159351,0.1404146595837173,0.071296586856918,-149.20644337381526,11.983249566199296,18.242156703278965,0.0105262107874272,0.0425675083154696,-0.2522180167185697,0.0325510612948762,0.0149706512020496,0.0743004685224394
0.15,-48.15147135500551,85.7481973995403,177.94982727343103,-0.0630511426567261,-0.1811168014333284,-0.1240130230647537,-0.0564054443583678,-0.0645421704116592,0.2645987785073356,-37.35779936731196,87.60569410409546,178.07977724644962,-0.1638621534253187,-0.0018131860477691,-0.0717380102733443,0.0730909232390959,-0.012207512857319,0.163303153386589,-198.86911742087983,0.617086008042369,9.353746972263547,0.0580521543757861,-0.0243912337613596,0.0623365503295134,-0.2684993093429433,0.0700117096568888,-0.0669896407524342,-149.14291586978956,11.995242541470242,18.285217962276224,0.0966872775614149,-0.0214838001114224,-0.0770132290582295,-0.0804256716201202,0.1508494229899236,0.0902800136367034
0.16,-48.10766101416977,85.67013643755338,177.89995635202914,-0.0160619418507967,-0.0156780645628512,0.1265458191205949,0.1515555153093504,0.0409715912006453,0.0618731287884041,-37.31880226791698,87.55413877254982,177.85135207928369,-0.0748299240747927,0.0876072948609613,-0.0017468330664737,0.1263408428241039,-0.0285199167731781,-0.0237117471292835,-199.166752094231,0.4019286168723934,9.457655894526928,-0.0380879444131607,-0.0082003052243237,0.0072694283687432,0.0402653517849622,0.0568329069363188,0.0541924506511435,-149.209293077505,11.996552397210708,18.34030815014955,-0.0784359204123806,0.010311718371214,-0.0128033057337532,0.0530716100372327,0.1797855827577657,0.141116130303095
0.17,-48.14564319759464,85.39862307133748,177.77409347081772,0.1014795508622988,0.1197401398725297,-0.1384663992748503,0.041496692419187,-0.0904127521273175,0.269841224615668,-37.36852018649421,87.47419397559032,177.91118170093128,0.2260251300944011,0.029565795092725,0.0032272769405489,0.2630453101131887,0.1658262456852686,0.4646387642288083,-199.09401600429348,0.3723302614527881,9.481694624005272,-0.1504645311589046,0.118263887213055,0.013677094982781,-0.21256575869997,0.0255862868335702,0.1168232919152829,-149.44431558402712,12.062739458197557,18.408533417311915,0.0348528444556838,0.0929733017056163,0.013831447182114,-0.0060158595961242,0.3281247741219767,-0.1928083851803111
0.18,-48.22109664244966,85.69765903550942,177.7997202079219,0.0618413682711994,-0.0427723009891331,-0.0275684132741407,-0.0345514892453178,0.0459870208956218,0.2830152173183202,-37.2550996763196,87.81179868752875,178.01755769758933,-0.039061635140414,-0.1257053523117645,-0.0745854321130269,0.321166281270545,0.1792063674400524,0.1388759705834434,-199.2492475573501,0.4914672324842663,9.439622150743409,0.0560745332642756,0.222179701026935,0.0725009741099815,0.0134630370369181,0.0825235112496065,-0.0493359173372376,-149.6331875651482,12.052525548989058,18.391803952269758,0.1782139148559088,0.0047667306247207,-0.0946709874299693,0.2220204933251224,0.0192283722682771,0.1380521311898294
0.19,-48.25186882320354,85.56593165760414,177.79287546879462,0.0097180224006788,-0.0800025529010488,0.1269642541085103,0.0581848921679834,0.1094387577783636,0.0287074382667867,-37.312058141765,87.6896040507233,177.9057319548224,-0.0027817376187578,0.173036441208108,-0.0353742900099134,0.077157356250414,-0.0037580610640669,0.3821098566864477,-199.23780845881933,0.263252895346823,9.43563217149854,-0.1913473204409904,-0.0851623761178923,0.2034306969796117,0.2360828281947474,0.1907103571692181,0.2094226695216401,-149.53801704127744,11.855881008082044,18.435963068252143,-0.0354433413114062,-0.0185257448846428,0.0781580548894444,0.0648274224401789,0.2085528462739465,0.0233109572670338
0.2,-48.15645103042814,85.66295133264768,177.65621116001353,0.0428471797202609,0.003563545124367,-0.0670932642361439,0.1416228216313556,0.016600970972275,0.0346840148066584,-37.41203969854468,87.4423293347424,177.96557813257385,0.0306978510634175,0.0984699478906847,-0.155015276276597,0.0273328722721603,-0.0461238297171143,-0.1314745360808254,-199.3342091135451,0.5958584629999535,9.412325532319118,0.1075297162791017,-0.0198783639556896,-0.0229496116513974,0.1039632579273278,0.2270266306568646,0.0296697547247945,-149.482459868176,11.80107460204971,18.4619716032955,-0.0917921048486687,-0.1092962264367682,-0.0413642469869241,-0.0543382714974024,0.0310453429855256,0.2243662470882645
0.21,-48.20963386043744,85.47420391112172,177.8861511250064,0.1303445461367719,-0.0055952608326194,0.1685489343431795,0.1198209681844799,0.0861986808631108,0.1328724008046679,-37.52063545056451,87.44226847431612,177.95509829373347,0.1674760246679228,0.0306364428370146,-0.0833013911571999,0.180357586184222,0.2241484017035618,0.1717869797864034,-199.40239720982083,0.5679856247422482,9.224302473720853,0.024075236009365,-0.0676779233083809,0.0371348082709306,0.1402037144254304,0.1476223221412702,0.1244711550907384,-149.55871028913,11.894274816203335,18.455449485318464,-0.0536379347879763,0.0250322266899547,0.1215881099391906,0.1329007113584643,-0.0098365152987426,0.0596650973080024
0.22,-48.08222085484076,85.78869598194106,177.74191470715002,0.0156402067362152,0.1471126822168851,0.0739430421982349,-0.0623873342064274,0.0246274159914256,0.2755863016332082,-37.3687176007229,87.55757441275377,177.84634263016028,0.0478103457377757,0.0318833709434488,-0.0666533994108589,-0.0259262022431372,0.1990192637047929,0.1991859473489202,-199.2783392540504,0.4170595392092447,9.227233125773315,0.023941761484037,-0.0235381902800071,-0.1042109791105974,0.044448978669399,0.0245683032022528,0.1162940096687334,-149.39570924690932,11.974330308546463,18.23599374079908,-0.0587726768262556,0.065842205478524,-0.0099511589458443,0.1515686834185545,0.0632423301908426,0.1979055002062921
0.23,-48.17753340356274,85.57945607554163,177.61185311856903,0.0878571519512288,0.0439923165220171,-0.040947112069055,0.2707301856251775,0.0895986779457758,0.1147541471835367,-37.371734803085786,87.34039775532557,178.04017877910448,-0.0542697981626758,0.0249787310336055,-0.0861534073635534,-0.0231792507142608,0.0037504990642028,0.1716963020992883,-199.2241214671012,0.4771999837812953,9.317289478003428,0.0621869596162706,0.1153424986808419,-0.0949092136417395,-0.0798430358698295,0.2717675527179272,0.1454682727424401,-149.56424388231798,11.934326476365753,18.190253083496017,-0.0241025597680883,-0.0555281690371472,0.1753624175373862,0.2454698774304044,0.024089659322203,0.0351090977745321
0.24,-47.84344359796725,85.60347163952662,177.6352448954255,-0.0704828299169527,-0.0769472409808128,-0.0371048634717042,0.157335940585605,0.0957860791812839,0.1459342861926639,-37.390151686007975,87.58397082863297,177.88231982084264,0.0474471249762676,-0.0564616655798362,-0.0248963221820702,-0.0798013100831894,0.0480982352647053,-0.0539639902696881,-199.16685200413704,0.3706692091885205,9.145606506565464,-0.0296683326363098,0.1374080560190928,0.0326299486625119,0.1951803057197931,0.0050050165379632,0.1760876785543282,-149.48652463665846,11.939804108897754,18.442372378855787,0.0461641181094689,-0.0075295031155305,0.0100103803036986,-0.1196949369996085,0.2745433359534555,0.3237994724738924
0.25,-48.116190115276375,85.49183165237945,177.8366988910656,0.0263148870785481,0.0775247959612759,0.1309110075565628,-0.0157697698031243,0.005621423573148,0.1389083085317345,-37.40058503737551,87.44813725360308,178.0008440615637,-0.0444312337351447,0.1024605799826857,0.1753099546449256,0.1019224602683068,0.2101402799473256,0.0708654238036574,-199.1783206897943,0.4641442706928818,9.177059245411735,-0.0743758515627786,0.0208573141241421,-0.0546090836702565,0.105087933218901,0.1341280538592431,0.1202634838684989,-149.50172054351788,12.006006958264772,18.39679261614916,0.0013718704385623,-0.0083482467794091,-0.1046831888735409,0.0780171387576111,0.3788230042908983,0.1442864617824019
0.26,-48.04763230248568,85.54590379066393,177.82305988243192,-0.0898145582973497,0.0767756585426804,-0.0375599585821195,-0.0033223637403055,-0.015740042962253,0.331742892841532,-37.61199770118698,87.40992283845269,178.0092091858429,0.0778526174084225,0.0301831718406085,0.1169468886749477,0.0931984965403677,-0.0170961612107608,0.0726832570103662,-199.32718078891585,0.4339354722226055,9.076000392505282,0.1055879875005292,0.0228969233975207,-0.3005096291698904,0.0899876328728517,-0.0893653169499811,0.0437619820029916,-149.54406705376806,11.898807388569304,18.31742238523165,0.1158566321499725,0.1139742387311139,-0.0001331408711258,-0.0094406273392474,-0.0138574570078435,0.2945447238367175
0.27,-48.11694964730075,85.45932355437905,177.72082646766435,-0.0107227322062126,-0.1319904605351214,0.1929790898610547,0.0866370036250656,0.0486434230865874,0.1139149270260248,-37.49606271357244,87.68830121231514,177.91443718910077,-0.0978553694748743,0.0083195341290499,0.1060585398181242,0.1381270990504091,0.1685685812830283,0.0565528106122304,-199.24414808602387,0.3434096703518012,9.280831161223452,-0.0708760020254147,-0.0228761623386717,0.2570223624882429,0.1469914439066851,0.0449797660053663,0.0412042991767547,-149.5730467803948,11.84937131304527,18.228991579196794,-0.0345555051881545,-0.1294371906426462,-0.0820271704569821,0.2032439063403999,0.1959378578369979,0.0858579120623357
0.28,-47.90184511242557,85.42480095764591,177.55601283309707,-0.1048459176018392,-0.0595247627304517,0.1051040639438377,-0.1040332476201804,0.007336322673375,0.2430546987991404,-37.27387699653969,87.59657952728571,177.98214512370492,0.0701175548397118,0.1273266239407535,-0.0657283456774032,0.1390913633520813,0.2165758743979471,0.0832277470824088,-199.38133185427847,0.4923641656672148,9.26042146713357,-0.002483176578445,-0.1104584286888856,0.0325410824638058,0.0697681497495351,0.015520757371791,0.1362842944498776,-149.69450821704436,11.944117946764514,18.127917807515903,-0.1527339216528257,0.1622237701571154,-0.0078954637609041,0.1141237296059869,0.0761860794925864,0.0695045919618767
0.29,-47.79942468456855,85.62978418300483,177.93881825044855,-0.0594021241721979,-0.0323213716881398,-0.0467121588563218,0.057388749296374,0.1307460962251642,0.1450838624800218,-37.34889614325652,87.682779089452,177.97899050152708,0.1045839801174193,-0.0796023941784147,-0.0792020018471225,0.2122577330833949,0.0862343986912662,0.0373663095962588,-199.25226631626012,0.4093440545954694,8.985927786703698,0.1929895553467877,-0.0806650884425468,-0.1863616743914146,0.096880821662732,0.0355068697335968,0.141812472097235,-149.55880640598173,11.655843980531554,18.1652738292672,-0.0008506059439688,-0.130824646385843,0.0075633320242365,0.2019121113971025,0.1246344842940547,0.1292153086901833
0.3,-47.574965558602585,85.79594500805989,177.76356001772234,0.0395461733054043,-0.0305816900241683,-0.0595401396592172,0.1157653656183099,0.0746847029557362,0.210844781375557,-37.29339096902423,87.46784006166719,177.97156279474953,0.0876053726443447,-0.1676847959949275,0.0670697107849508,0.0846320025254985,0.1284355336212997,0.0096140200300993,-199.23438881515656,0.5014869115383386,9.145183296158669,0.1939328023596039,-0.0754620599935847,-0.0332111016706371,-0.015942826072749,0.0817296705618109,0.039652593241957,-149.38486320927362,11.8741030908242,18.275676096085345,0.0125542468675886,-0.1435332374276476,0.0887896474931412,0.1480575838689717,0.0933167762266956,0.186734033949323
0.31,-48.12237507765453,85.66068891198037,177.71905966575537,0.0007613602808974,-0.1036389510850233,-0.2733163707000768,-0.1269952850132651,0.0461057035829735,0.2044918787012216,-37.51685462720283,87.48957914486293,177.8887027506413,-0.145247073970404,-0.0852641072155131,-0.0380961457052092,0.0665278604898517,0.0998374079697166,0.1452279318991696,-199.52560193298785,0.3602449198665243,9.142412879193715,0.0216219566190889,0.0997220448444033,0.1603897405476452,0.0072178911538945,0.0747425504970803,-0.0175657675454893,-149.4533599000432,11.732815755060123,18.217851081932164,0.0016064096465344,0.0434287937388352,-0.0712265083111088,0.1020163869732898,-0.0862218326604411,0.2442973358237025
0.32,-48.13996244374705,85.62197408452371,177.87182676112545,0.1761707568889997,0.190036184550461,0.1168348178959167,-0.0668010327815374,0.0713782581202907,0.3715342469580744,-37.26328741175284,87.44760410060488,177.8945325310002,0.1071938587605352,-0.0204880897650067,0.0888891206795037,0.0079581380815879,0.1105270975953085,0.0357080201930453,-199.2363788348566,0.3768981051528678,9.275018676802596,0.0772111989024033,0.0886819772058169,0.0442152747296997,0.1025195704320731,0.1797156021033878,0.0010676998062136,-149.42326845188734,11.795611335377634,18.129267014572715,-0.1214937843514599,0.066013111306461,-0.0908495944540878,0.1227016509628004,0.0192049626755882,-0.0955903121260968
0.33,-48.4984648959027,85.59968994295166,177.63941192817367,0.1869594039860727,0.0338245835599782,0.0425874555556957,0.0573897103395855,0.1686839837608828,0.2814113095137344,-37.35821093906527,87.49456140966245,177.92300269646924,0.0901432192798952,0.0932572635073524,0.0532154672562665,0.2995781843828039,0.1310529530441491,0.0153996831897109,-199.3360160581054,0.3952960122888338,9.105398288696634,0.1203674478876268,-0.0509767251921245,0.1433912012059252,-0.0485532197146723,0.3159565057403353,-0.0195637393470393,-149.65403702536528,11.987823112460855,18.31470549607361,-0.180643186971413,0.1617922129910297,-0.0633981769252646,-0.0005947143381999,0.134506292161943,0.2185395133052371
0.34,-48.546265384768766,85.62988987027879,177.6266423425921,0.0318672517104663,0.087750935429483,-0.1008016154108236,-0.1387713185220192,0.0385099651735685,0.3445790479623357,-37.24578900043944,87.53799818392781,177.89931932595132,-0.0076444608973994,0.0795479997253458,0.0109144374157426,0.0233398084726921,0.2322707106867093,0.0588560135779273,-199.3111741329849,0.4794532644768572,9.156337333245574,-0.0782056994353927,0.1536010675651518,-0.0116900401489169,0.1044897731817713,0.1884003027949999,0.1851047641787644,-149.40288341968397,11.60629539147291,18.20926337751072,0.0097215216370446,-0.1104263287371563,-0.2841144678221103,0.0892549415192234,0.2940847606103157,0.0662863976790754
0.35,-48.42262755793728,85.47576783635606,177.76913511307035,-0.0065520313256111,0.0716371469757012,0.0351149239788986,-0.074305489210428,0.0206327399216085,0.1887072455229128,-37.29772638847955,87.48269932084338,178.01212305246173,0.0075389352698815,0.2414494893869783,0.2272316374914276,0.1911665514128501,0.1585373509787881,-0.1833762895535495,-199.1075329256313,0.5377250759313171,8.970492632962172,-0.1280250958945011,0.1318690429630293,0.0240130359870025,0.175349192714233,0.1575957737646322,-0.0996368057276548,-149.51231466914516,11.73807213334988,18.2528206499953,0.0258099798258595,-0.12843463085165,0.0815352051943171,0.2763075438362106,0.1591926678372412,0.0542440074911089
0.36,-48.47466853671538,85.60857963332302,177.67310979755663,0.0374500880706238,-0.0545844830365293,0.0570354751393008,0.1909059016909617,-0.0500441140609263,0.4210838444466314,-37.45213721358852,87.65214361939944,177.82660384141175,0.0522198304050365,0.0824587353683424,-0.0134577725548344,-0.0848891207159544,-0.0045303704807566,0.4558722439350087,-199.08087246929213,0.3642398145057964,9.208644600325336,-0.0952297813463747,-0.0836094828211832,-0.0904817067451855,0.1136738979168959,0.1046987151545145,0.1390463611862788,-149.6649148209205,11.823568289671226,17.995966640591963,0.0744434662880552,-0.0516937922340015,0.1357443074167746,0.0654410096203651,0.1107580461775003,0.1675743941665981
0.37,-48.518915378579706,85.75116124842245,177.6601437245004,-0.1494684265256014,-0.0027320090054774,0.1306370723774467,0.0088964177765173,-0.1689919394281124,0.310796246717943,-37.40863825752755,87.74461715450636,177.90563397831073,-0.0094086917039863,-0.1513736880870043,0.0265039188104394,0.0192596096161462,0.1563867645697449,0.2797701224434966,-199.0958198773361,0.3977873366569139,9.167683416755112,0.059088490623152,-0.0658213184369689,-0.0200551739059685,0.0803710235882679,0.1497767201310181,0.2662948905422809,-149.5283748505486,11.684892842534918,18.220797345059218,-0.0674116069088007,0.1141064957358044,0.0661492360413509,0.23458127269943,-0.3473102924221345,0.0906687237069229
0.38,-48.55092644637073,85.72895983239081,177.775585212525,0.0920176174801616,-0.0646611665613372,0.1897440173312849,-0.1039174540537785,0.0972305192064076,0.489761578914154,-37.48213271423262,87.6191224159306,177.73917071231733,0.0331520670678324,0.1215198344544964,-0.1781565959213267,0.1098128063459252,0.2051389827139769,0.2566729052955134,-199.1854898743289,0.5903221512281176,9.123133980622192,0.0084547734534582,0.0165571483600399,-0.0039913387570242,0.1832450659780508,0.0134847201791405,0.3990814384870327,-149.35497781867068,11.902630034174884,18.18127281170126,0.1185509833418949,0.0284510176337748,-0.0519401979985543,0.393307249677334,0.0247840106252945,0.050529940894772
0.39,-48.44165669204821,85.74229139599205,177.72520792197838,0.1663797322589957,-0.2149111036298985,-0.0086904112763854,-0.1066517144353744,0.3252854277921884,0.6098631069551574,-37.54278943653446,87.46111512227844,178.07669224580664,0.0378671886095837,-0.0013599183382223,0.102812563467238,0.2021416125722119,-0.139272413095176,0.2958704675668528,-199.15072819602403,0.3438631581218205,9.14764412466311,-0.0178220773236571,-0.0075545385061475,-0.0796324905198544,0.447195350985361,0.2307117179613214,0.2224460517673977,-149.17864328459467,11.816924270443378,18.25400410352313,-0.0729969205291287,0.0522553980941228,0.1475483131673688,0.7084493396902832,0.1332090623004495,-0.0048687087992695
0.4,-48.43744435609496,85.34406927713594,177.7555790052999,-0.0747200100597379,0.0043077071026227,0.0594895807855327,0.1653462072411588,0.000755236368523,0.423548733939912,-37.33918565458952,87.38545337621011,177.7579093736374,-0.0338304765929521,0.2274624884229686,0.0854012707443909,0.1115679763691366,0.0021700219990576,0.4261529807181805,-199.01411975242792,0.1705112804804842,9.237628061774286,0.0098112618541153,0.2003776472181343,0.0718951669124232,0.2025446357391302,-0.0596179008001132,0.1484566326402049,-148.7891289331961,11.952718750148676,18.47715024018889,0.1584896236471724,-0.140571880740306,0.206082505735487,1.0788944388925883,0.8714264949696024,0.2651580927525698
0.41,-48.28552239739002,85.35176849655426,177.7444853588711,-0.0925190730864546,0.0714672004751298,-0.115495507593362,0.0184554403185493,-0.0470381490115,0.7237019114920056,-37.42291471386672,87.4038735642038,177.67787915988973,-0.2229699251168192,0.089568254156117,0.2137809850797106,0.1747007090343007,0.1472243488011669,0.4112014258662266,-199.07348157283693,0.0857027146613708,9.297777799692652,0.0098452288320081,0.2212782586303074,0.3500734280333381,0.1937891135898495,0.2405042844335809,-0.1440357495663149,-148.46498424060678,12.10251287506305,18.429483026435992,0.0719968048598091,0.1878659858309894,-0.1511301893564149,0.9163040736916744,0.5809167453058868,0.2204198344207532
0.42,-48.29689636516031,85.20686588595561,177.69735239020005,-0.0266022639054551,0.0682587620148261,-0.1081969897651444,0.1284951518078132,0.0720738411553613,0.2806791796511745,-37.43769113520116,87.30105959822602,177.74934477199466,-0.0657025731524617,-0.0910359464008143,0.1050600452116563,0.1306781823247295,0.2751886561730744,0.3140485475912494,-198.9319150605193,0.4041987929313242,9.175413863437376,0.0927307062138617,0.173654712992505,0.132169178664386,0.1229366872657306,0.3251465044051402,0.1497619600676037,-148.42186611678534,12.321960724874256,18.29478514083901,-0.0531939902658964,0.335190449931893,-0.1068791208927087,1.067556689497202,0.5552548036121717,0.1334997903925935
0.43,-48.018693015332005,84.99561601736036,177.8200854304643,0.1774336530961502,-0.0504270417720519,0.1001803994702868,0.1226861399070921,0.2236070809409967,0.4603992533699509,-37.334535045118045,87.2849143830578,177.57049825681807,-0.0420714582597692,0.0152028598487009,0.1424277119929042,0.1467700129667901,0.1567326743805983,0.229820795271178,-199.06695896516385,0.568850255571062,9.107014154655731,0.1328116366976596,0.0957974580663093,0.0189090431688505,0.3846385095568923,0.207643250879256,0.0960433335398725,-148.63940757025352,12.882252244708123,18.06964022456625,0.1278197486936952,0.2565220846467939,0.0563304070375586,0.9996340982389884,0.4255918487457565,0.2191158460595139
0.44,-48.04483887485532,84.97925469672252,177.69691492838612,0.0293820550438401,-0.0855012612472459,-0.1570873072592892,0.0342498369770176,0.026798188012554,0.6150391949155517,-37.27898900172464,87.37302986967576,177.48294153070876,0.0701036547950004,-0.0380215306785531,0.1121590754790424,0.3242492369791436,0.0408702826253018,0.3133088884470157,-199.06395090940927,1.048250147302516,9.38875584617544,0.2209199731676112,0.2166845746640785,-0.0879793026952312,0.5807334885580614,-0.1803727662424387,0.1900957987952263,-148.67686835025953,13.436476808330278,18.270561155443623,0.1184113825714154,0.3058266389869079,-0.2052474627017579,0.8309908450336133,0.3031518939765125,-0.0327832760214532
0.45,-48.0170804246354,84.99062064859703,177.85171889001697,-0.0988524763400161,-0.0069109777173589,-0.0260567103785641,0.0069187629419911,0.174125542373838,0.6670263049084297,-37.41792125620659,87.34058698539631,177.5807231092884,0.0665133810588651,0.0444465505551089,0.0211140457137611,0.4822639638699052,-0.0800121232322576,0.2157689696274278,-198.9878529566431,1.3904992467299655,9.575500458177869,0.0940731628127936,0.4398608077622786,0.1932786961200735,0.5623212880208706,0.168105177103905,0.190616658138789,-148.9103817857881,13.79526888572977,18.244480150703534,0.0593372037842982,0.5258273570269597,0.0714587056118547,0.8876973223802064,0.0218697706488921,0.0036777962557903
0.46,-47.763936555214336,84.58585515319594,177.7017723237573,0.0321202984916538,0.2237782414047202,-0.0172373984674438,0.0846127474867148,0.0001971685682068,0.4577276243829886,-37.51671766840483,87.46913803446247,177.74599633274457,0.1455686522924876,-0.1017714167442544,0.106160278427437,0.3435013580628031,-0.0267212315513432,0.0114067509082483,-199.22234426353813,1.690674333941352,9.812794607582612,0.0480812178141193,0.2520497735763014,-0.012055717571322,0.5739753822534044,0.2529618447546935,0.0151163916072613,-148.9221213300523,14.343681680741632,18.05587007828912,0.1972101623714159,0.3514285769629824,0.1291030721968398,0.7711219987020281,-0.0650365134181202,-0.0046897516961743
0.47,-47.791578999292256,84.83935895076226,177.85173080838854,0.0388540674732501,-0.0839895267206113,-0.0842073751650657,0.0131854620746466,0.0414724697602648,0.3860056652057446,-37.39474894720574,87.54413955807486,177.53206669079228,-0.2099335635609154,0.2475353039243571,-0.0216594006747449,0.3945073775765692,-0.0452564029422423,0.2169254341823624,-199.25006530242547,2.054283685909749,9.966298221998509,0.1282522016000025,0.6272395238704195,-0.1450420575559155,0.4648756668973106,0.4174756146989945,0.3538021376675559,-148.77975391139353,15.086593145054216,17.94126888668296,0.0520787630847386,0.4826713026209923,0.0891774514430629,0.7862086998721383,0.0768482662026159,0.0207486137059373
0.48,-47.79348487216707,84.71648425236754,177.76221098548305,-0.1697647828606375,0.0271892902572462,-0.106820403956884,-0.0082415636656334,0.1384578050886719,0.5567485247829779,-37.23101923176871,87.22519760140158,177.67169037445146,0.0730858445388156,0.3537725056799821,-0.0012849239631452,0.3734440341427625,0.2138538287125217,0.1494980704252492,-199.11881731784436,2.442243946183989,10.313700874561436,0.1686732275300037,0.3571007573688919,0.029794110918779,0.4894092399766319,0.3285309366967475,0.1199968478608436,-148.587672383391,15.581078266710392,17.734914132756263,0.1636036714462176,0.6424723527615426,0.2082510519723799,0.50354882670432,-0.1366253897930739,0.0891394674889228
0.49,-47.81490886837414,84.63173452910019,177.97189708142912,0.1234787246371328,0.1259575426645244,-0.0086763263274085,0.1559171144787854,0.0650119283719333,0.3508510628622463,-37.489000922320415,87.12015626850292,177.86044682413632,0.1755943063136842,0.2777269582829994,0.1885619494083614,0.4419509979089165,0.0680603188249882,0.2190366683763654,-199.3924711113072,2.9391054418611278,10.680780530654152,0.4483501790030513,0.3193698085143336,-0.0274407094838476,0.1265875697703928,0.121068999047032,0.0278800429682496,-148.5086095738212,16.291542033265625,17.86632159295228,0.1940310396687659,0.6376394400314295,0.1392323707002729,0.0578587265395838,0.2627471881143319,0.162102014657447
0.5,-47.6173815623714,84.65786792879841,177.84432581741262,-0.0576141397358003,5.838534309573172e-05,-0.1222774131182566,0.1977954248312619,-0.0402582530809211,0.2810403421597738,-37.20865927413477,86.98088500173537,177.66352051575674,0.1431874291849918,0.2598393691334524,-0.0592756367668699,0.1751838992925956,0.0426221302276826,0.1097799317558863,-199.48985966609416,3.4391921537007613,10.709295146055595,0.1266848319767823,0.2847413716793547,0.1793370456071169,0.1304193954437421,0.2583025294851186,0.203709251910246,-148.59161379211568,16.779775066975393,17.65371258822362,0.2001285151177954,0.454986254689063,0.2852285750914641,-0.0803445237276094,0.3533888555486192,0.0974005490282711
0.51,-47.622880653960415,84.52370193257532,178.00277248112246,0.1890846182406076,-0.0554235696889671,0.0161168220247737,0.4374049809930324,0.2539720871369627,0.3381446778916252,-37.36813994725594,86.85452838046443,177.77620100842043,0.0365214558388881,0.1350364170295107,0.0091516423930916,0.5399634823640291,0.1847683637279727,-0.1407572213124167,-199.42971061094283,3.732235283012909,11.163509691887008,0.2022949122732535,0.5472290860953817,0.0188300024449236,0.034057708015649,0.2857112488665586,0.1693258426095307,-148.5466029850451,17.423711528465628,17.71677855387975,0.0928367953615081,0.441960010157071,0.3020442253521037,-0.0330749635027334,0.5821693921443394,0.1851714881812542
0.52,-47.532503872732704,84.44210599319473,178.16892579819853,0.0712510315562406,0.1188109270341175,0.0150406934930948,0.3037532411114179,0.2290408140128915,0.3459032446456553,-37.08294040110279,86.51811314533632,177.86017257585252,-0.165340069040579,0.3828723485275803,0.164072774879475,0.3777399937362894,0.3771949351473935,-0.0071548394576218,-199.61413469892523,4.0498919749882365,11.133181166305611,0.1912728358626359,0.3269951744195839,-0.0018684852038109,0.0215237511875889,0.3671893499715033,-0.1188690725888124,-148.29717545678665,17.79377984866409,17.810575627864598,0.1567892553492273,0.4225644796065852,0.2295271173330584,0.3478920847454032,0.554534161875677,0.2451806264696581
0.53,-47.38916750586239,83.92867361378215,178.0432642052559,-0.2019140460218829,0.1079510815914533,0.101833035466115,-0.1110224602705384,-0.0474660923131202,0.4272827367980877,-36.86175712921252,86.0302762567549,178.15018406176122,-0.0323491827209835,0.4248855954270514,0.2005773446932162,0.4823547904195489,0.3164518643536187,0.0707566276623118,-199.46684910148895,5.076162258217465,11.502477889159309,0.2220376560145329,0.1926966723944038,-0.1511909978585437,0.6610627029316403,0.2890842507708562,-0.0323611097422003,-148.2765157719705,18.345854315787864,18.088387423986447,0.1690297991173119,0.3058712914615388,0.0481451898221964,0.5219036628332251,1.315982412947151,0.0992435604335018
0.54,-47.27016107617966,83.95542397568309,178.10607442225495,-0.036374621591848,0.2328184628446408,0.0363689323171264,0.2352950818157333,-0.0051406804398984,0.5667348117790526,-36.91946610825027,85.33136028661798,178.19011569783154,0.0137607520290952,0.6966613371613068,0.1976180969858064,0.5707650825190079,0.1432167583861506,0.1882633253268865,-199.53847031405215,5.473853011560526,11.680209236725224,0.0284307727734761,0.2208310718307324,0.1300012391175324,0.5228566343040176,0.3038694814148471,0.0634575778155105,-147.98699683306995,18.918710985934357,18.574263435744008,0.0312198856741443,0.3788505315525419,0.1924271133231551,0.477083371906498,1.5729922387540245,0.1981053276141344
0.55,-47.18710448678565,83.84514682451405,177.87762231700643,-0.0314069088487065,0.1082693578764379,0.0431856670562354,0.094502935652858,0.0279199189339894,0.4688157986453705,-37.03949237110192,84.57768823483815,178.31726341757022,0.1221410199592113,0.6966956095110073,0.187259135842321,0.4639725680114808,0.0570023832432676,0.4282889420304468,-199.1578524073616,5.460601762812932,11.986367590668609,0.032805880925757,0.1714692867095643,-0.0360591146237068,0.7676370506210615,0.2358463310607482,0.0547933337252757,-148.22811225384618,19.03097149582224,18.77526085280469,0.3083930771087213,0.353632681030219,0.448909062567027,0.8001386385893458,1.159536738033036,0.1286502048441833
0.56,-47.320253892419785,83.53442570378704,178.06195655456062,0.0631787707827956,0.1129844257804284,0.0853542321374269,0.3181225399904664,0.0397867627410423,0.7850198016279182,-37.141732090208095,83.90053070829445,178.33774467686092,0.1571002133862294,0.6633650171392826,-0.0969499469950907,0.7619459920357071,0.1172727198797535,-0.1678066729294822,-199.04314761155564,5.709201157540529,12.136040396411484,0.1041511708931274,0.0991006888829032,0.3033309079834837,0.4457176040772031,0.274217078429834,0.0579770640377672,-147.73547914378605,19.41082073627952,19.096584229547894,0.3797017130304303,0.1504649210172853,0.2633321395870158,0.6589333758119144,1.045495607533352,0.2395931392457442
0.57,-47.27653555264181,83.59395150180856,178.1785815398987,0.0618159380238722,0.0998495636621583,-0.0377709017807859,0.2551979201338066,0.2340488697548031,0.5465780938418985,-37.057669967551,83.32260903801078,178.3682805517095,-0.0259015577723687,0.7428232813612307,0.0283239873532306,0.4200066115320574,0.0956873986870543,0.2281360022467541,-198.7839735733348,5.918723690712147,12.17848008134806,0.1336383114956187,-0.1632797172494094,0.2761078807654376,0.5334950923424348,0.2073607114937777,0.3227997644457587,-147.59257094616964,19.650028163253648,19.631931200295867,0.4779898503108266,0.1762480042526788,0.1001198567596934,0.497534991976192,0.9333016709819276,0.5251433529143729
0.58,-47.423914431039975,83.28226149935686,178.0933537295382,0.1912222780868407,0.0925525557131219,0.0507716032407417,0.1689485264651221,0.3308495057644274,0.6503834973267258,-37.145413829065376,82.4335173529402,178.30583492114627,-0.0759260124555196,0.8254435951353452,0.0177924267122823,0.2914280566985301,0.0101063675157827,0.1396591095975153,-198.23752771058776,5.893127780336901,12.387410483514302,0.1123668961276645,0.0918335956290715,0.2714254784407553,0.3854823962737703,0.0809623327610176,0.5210650745396607,-147.19016484274522,19.77785976155173,20.24202149937093,0.3975630448236062,0.1185572246199194,0.3223871299464748,0.5698746429326319,0.877946015061007,0.7916207584311583
0.59,-47.507023075589935,82.96279776985736,178.11011908490647,0.0881706463468865,0.0887967036843595,-0.0285808959069619,0.8766055573737122,0.1159715263782293,0.3847691030206415,-37.15835157026455,81.28193212399252,180.28643525939864,0.0107780487421666,0.9018740031907806,-0.0679352235487284,0.2240249559838637,-0.0672422650244627,0.2704866214823536,-197.9927056361853,5.934264535450235,12.352162478318627,0.1370151546042371,0.0347564488774854,0.2509997813621601,0.4315191165672451,0.2006699978980094,0.8959794923019396,-146.65697546449624,20.3116598537202,20.60014854813245,0.4579916283128741,0.3274600767913325,0.2875374389867545,1.012232378238072,0.6955060108811864,1.0773922481798577
0.6,-47.55715073974034,83.01131278492788,177.9923478598013,0.2225916567542675,0.2199316959369784,-0.0481733264564061,2.746836024598433,0.1583985561900457,0.0224388622096281,-36.961263505520485,80.45658295158483,181.58183330514788,0.0793277625754978,0.9699895255636896,0.2597387864837703,0.9432607584922162,0.0366362538030649,0.3902715527612201,-197.67778390383623,6.01406666470368,12.453600432248264,0.1973172330619399,-0.0140320726611496,0.3895038376770108,0.6847000277267656,0.4357021252191749,0.8750570632312283,-146.2481925532047,20.507023385060453,21.184335372968103,0.6995408227827973,0.150057997383428,0.1705154823744279,0.7306513088031901,0.569637394799979,1.0430031759960514
0.61,-47.650717090906426,82.30894219172563,179.36827187585746,0.0244306296943285,0.7081353403082401,0.0184697646971578,1.8525745334506587,0.2549134269039257,0.2823163911414976,-36.92528763097456,79.28039622576354,183.259960563748,0.0179976351403226,1.1933087821043036,0.0975087664550541,1.0439268636723795,0.0453673152504796,0.1771871059018721,-197.39212709356607,6.04739527678925,12.59253820194075,0.0736902149158214,-0.0119676049346287,0.2270776523720553,0.5681026473590624,0.886687264980668,1.070099363097356,-145.93601128795623,20.78871365696606,21.889217210775826,0.6437766944360144,0.1722927829734331,0.3715668892240247,0.8490155778855619,0.6793076060392487,0.9490046789837536
0.62,-47.7209172762764,81.8650401884804,180.58357784213803,0.0338286328254579,0.9183746279790258,-0.1545474775148986,0.9533188780578108,0.16614328028908,0.4358848659661973,-36.904748059620346,78.14706021616162,184.5127663828592,0.1868710100328434,1.097889668191057,0.2837088107889418,1.3435766543192094,0.2353392335108524,0.2889769033777397,-196.98937585268783,5.925961059566258,12.5510964836642,0.1917692087527042,-0.0897160436092004,0.4914437558750836,0.789252925612831,1.1563041579671465,1.0505617469202226,-145.4138764219334,20.75670786495965,22.387249797176658,0.5626143105851005,0.0739353914507248,0.3433061204003877,1.0571970031963578,0.4377419744662009,1.23030285668739
0.63,-47.85788907011974,80.8478303182488,181.49413288514825,0.0151495757819016,1.0942740212322095,0.185392791525489,0.8052543148262656,0.0893205634664343,0.6331684222558743,-37.23088296343736,76.79615263148594,185.8452432504011,0.1174314163322353,1.2599327977903452,0.0564830997137556,1.187509969879137,0.076757771669104,0.2599139919488253,-196.48261277567164,5.912838722747798,12.786522312065,0.3575311969192807,0.1724868267817974,0.7837039547069821,0.9696046557599662,0.8553634367206249,1.0074199793898768,-145.06645422719112,20.76507534367363,22.858409721038,0.5333138482101556,0.0491626012258775,0.4116032988593162,0.7832738378378108,0.3106191818850754,1.267509979348236
0.64,-48.123931255464,79.74362508030875,181.9053860290781,0.0124563282106344,0.5732199241683057,-0.0232326674453737,0.7708085389032433,0.306297357051857,0.3673635089452643,-36.7570153653494,75.16783272284906,187.0880464589319,0.2655772254839763,1.597432703527936,0.2623233339674006,1.421033841864796,0.2964417911558581,0.3105486755229158,-196.0575134579156,5.876779319066511,12.8978187991269,0.0501775388396806,0.1891336014737112,0.5771362206829874,0.5890602590572644,0.3481518468140604,1.124377522018785,-144.49196372515442,20.8879033103271,23.049590931423097,0.3114394549324997,0.1713303451995033,0.3685131684562855,0.8719314708884115,0.2858026839436723,1.578363250735068
0.65,-48.7457165355664,78.77362201265404,182.3881101566732,0.3415875738582006,0.2559704995911203,-0.0495134285868194,1.3107070194829415,0.5878168616385158,-0.0653641955682088,-36.66868511466057,73.68076258796738,188.04799157611504,0.070828162377763,1.6063269604768415,0.0150230220894312,1.5000589962852828,0.2590922944301464,0.5600636376269194,-195.27988351761843,5.868515228149797,12.947729742011688,-0.0122615306673658,0.2618349546271018,0.5941978441599237,0.6310061972640588,0.7402263497835626,1.4812541143845812,-143.69602604218275,20.984581538326918,23.623922770824837,0.2695750907616772,0.0001317437119944,0.4140889337769061,1.006553237557228,0.3308817072107392,1.938715360535277
0.66,-49.17760317183085,77.96183439347975,182.78296878851168,8.197715531642336e-05,0.3181995316502098,0.2224620880668672,1.6862249541604577,1.0512916125448484,0.4218902924913552,-36.62669331193039,70.15378966290946,189.52928723588107,0.0752508621915192,1.6410311239464943,0.2489816753739918,0.1355238230630157,0.2675696378763562,0.1381143812634359,-193.8318045826335,5.445005325055074,13.01043025803823,0.0090086504230275,0.2042729121224604,0.6945592326337964,0.402886373222826,0.1729719530780963,1.6763424719014657,-142.82547711142834,20.94717653035812,23.885073467780057,0.2828599166141772,0.1048088388846449,0.3266487664296725,0.641740003498333,0.3390409432138979,1.5757348612040114
0.67,-49.090568579619706,77.63002499061096,183.3113168873788,0.1483034917061355,0.4365365511933944,-0.1588707714721511,0.3269128845805564,0.5717245757551602,0.438538477987169,-36.4968238406624,68.30425760162541,189.6286125209369,-0.0070880146519363,1.6735734288695567,0.1934129605766807,0.3624501347929132,-0.0452364052212022,1.2433765940003214,-193.00664365694792,5.432450559395568,12.907620715599288,0.0574992443485801,0.4185705245009604,0.5578791469750177,0.2788448880845069,0.0735935574262271,1.9031562938047348,-141.98872601825028,20.71069587228288,23.773514369040427,0.241662612586742,0.475771798150805,0.2498974900125002,0.9340326074632542,0.4484531051003456,1.689198570501267
0.68,-49.43013889440133,77.15766820135035,183.43445312489044,-0.0333906277384079,0.2661646586635816,0.2549967790649772,0.4149490347028862,0.2534227481562239,0.3092330529665954,-36.28965417816267,66.33915636597865,188.85863074214265,0.0819708047369697,1.9232246836481133,0.134241801682725,0.0763312061482806,0.4909706356668623,1.2533781497306065,-192.1205212009416,5.103340074760566,12.936971204527412,0.0888057966494821,0.3755379187830082,0.6328054741336622,0.3577874862456027,0.375309397744217,2.0103739669817204,-141.98035197411954,20.371068195630865,24.086234892380897,0.2586532776824424,0.5337596390196709,0.2858970753998714,1.018739014681742,0.6020196548392003,1.5545826188771026
0.69,-49.85179306155307,76.47970653236969,182.93829375863615,0.5034128847976826,0.7144977691861756,-0.0201037982878915,3.174315036487945,0.486651973607152,1.0336658685391389,-35.94024359842636,64.70748065427807,188.3821202985923,0.0049904557822598,1.4972186041516025,0.1544719009341432,0.9174004485976448,0.2462810929018023,0.3332332245625119,-191.42284096356096,4.977258632186836,12.986541732757438,0.0541672911196589,0.5126476068410708,0.4660605204697782,0.3450751073665442,0.2310004350034413,1.6401689474710466,-141.41611392665095,20.103918930112087,24.10186977716142,0.2120288074332605,0.4074055257417534,0.1605662823485638,1.4966809742023823,0.3044035900276604,1.5317465295447366
0.7,-50.21396840140109,75.97636097406887,183.19798188373335,0.2348787572774655,0.8667032314321825,0.0769188081214137,4.038465266733079,-0.1382319275750992,0.926615406275338,-35.89601945617484,63.73311015430658,188.1638765170265,0.0697875504036996,1.470833862373824,0.1876191966150722,1.5200540161291678,0.0909545689209264,0.9049951237102172,-190.75156854363897,4.59043525004027,13.005704406227876,0.1843968772806095,0.4225123380744452,0.5690455429243886,0.7401708216052074,0.0674725529792781,0.8545328729254067,-141.06494307116213,19.68532860843717,24.439550021106527,0.2126242377321722,0.5990716169252068,0.1014096956729625,0.7694802618173509,-0.2341624161126806,0.7724992226191857
0.71,-50.74164532491793,74.48342065319099,184.0416008778753,0.2502351519015183,1.4326834599834906,-0.0433735386779772,0.8373920760342708,0.3358060403018128,0.994292552818396,-35.86480705175656,62.29188273978792,188.0559457580172,0.2786960479129465,1.5687523350628487,0.1748141162065692,2.6668973999947174,0.1621022625124588,0.2871232415153619,-190.1857837497696,4.116290265180809,13.20732740286618,0.0550989302101506,0.5020550016126183,0.6269979420617982,1.1053294929402415,-0.0065839951851139,1.2499842514709536,-140.66368346445614,19.16346213101491,24.40348612986952,0.3322537852720845,0.5616057894278872,0.1825222982251903,0.3617415762480684,0.4261278337391039,1.0285419780721097
0.72,-51.15212879096911,72.77064986051273,184.62615871918524,0.1916280242476311,1.321215665733787,0.0126282206952631,1.2168780223778346,-0.1117551984652578,1.123760680023255,-35.92789165953651,60.49509180910725,187.823914538082,0.3599360911573002,2.081606207964697,0.2434973267348303,0.8625514239516768,0.4009237911510568,0.1620280745789661,-189.4504667707781,3.794831070082604,13.281533023944515,-0.2303828321256308,0.525506879298574,0.5501785639003954,0.644503727119936,0.3314607027047808,1.2327661841956672,-140.2539971807276,18.870755852631877,24.361364622968846,0.2087517327547798,0.4313883410501049,0.3281154306979325,0.6297923226594747,1.026782900762851,1.0333272364432438
0.73,-51.68026245392444,71.19918287728022,185.142282487343,0.265499889603639,1.3556962237459236,0.0964457679309239,1.0556829087928297,0.4459248524111334,0.4405430038013213,-36.12542319565738,58.33110606782696,187.97759807444683,0.2731961894570111,2.076101137264479,0.3370214607862735,-0.0182919229319536,0.1899235886314182,-0.0206202993062493,-188.86920463763008,3.4570475947651302,13.025610948341908,-0.1518280207156664,0.5463874679704775,0.5967234912107077,0.1729896600698197,0.3613207691854769,1.488660343862504,-140.13063258729625,18.596383955277176,24.45253244754154,0.1798575719537349,0.1870443638954722,0.3194458951175919,0.4380221375453397,1.1328203278647826,1.1569570565467726
0.74,-52.27223395585883,70.11505044035081,185.27153381085435,0.528566622629463,1.108881725248419,0.0750097337373146,1.0270285942681938,0.1648976033463368,0.6983830100622637,-36.36720080201026,56.1167043026223,187.73819476436344,-0.1195162134806238,2.047237959523234,0.5170329644872848,0.4020211868821248,0.1041171755714422,0.9211632584021394,-187.8989238316688,2.9361933824051643,13.155974986839889,-0.0836047232173079,0.5373654804567225,0.5675779167568517,0.158636654475214,0.929387036399264,1.7668768770917207,-139.55159105625393,18.49169589323309,24.31802172507671,0.0902303410255963,0.3562498641511364,0.0015129469457319,0.5095204923576943,1.3340360513595526,1.576978126441868
0.75,-52.94306841319644,68.85939877141169,185.78563683376768,0.3122201336688744,1.1228056285994965,0.1042929798128906,0.2883948805045193,1.0590566250934486,1.467972895224175,-35.94891633251423,53.70354252069725,187.34876147286397,-0.0849351414128869,2.132135510043399,0.401300489168477,0.4021779537176014,-0.0573512171292006,0.8574926525848896,-187.3943641118032,2.655618512696655,13.16799153875159,0.0808781807337863,0.7055653810115846,0.4011778197897063,0.3274184302103762,1.755169430618924,2.4096272638540555,-139.5266253960321,18.05754877580681,24.70963112035281,0.2581585262892142,0.2863386057601129,-0.0171861130034228,0.6842170593301352,0.9530678715106358,1.8389897048598864
0.76,-52.95384722379155,67.6613037882731,186.38487535755917,0.1912082138598279,0.8561513238403956,-0.0020912397073503,0.9650584650015172,1.9568285734970845,1.8514171225064449,-35.370224716118884,51.45037954136602,187.02623814118795,-0.0240886281123135,2.049446836889662,0.3480816945619817,0.0458858362171774,0.1852468964735625,0.3910504871434525,-186.9077380893173,2.2981743778195267,13.204809375846509,0.0541971027570633,0.449809895384011,0.2578218662566205,0.0761867884862196,0.9644698792953608,1.9457143884529329,-139.61745690410123,17.74568024717954,24.79646242652237,0.0009542806042074,0.165845065049661,0.1267097245672744,0.4735776025441428,1.2306783684830886,1.5342115056588803
0.77,-52.910733351730265,67.05787545356519,186.84706837842245,0.0555480175795762,0.962593336200626,-0.043196019368237,0.7830230127761912,1.7734996624091155,1.1576476633749049,-35.356184251704285,49.3449339608678,187.21729082763133,0.2363560160248135,1.5117168552891245,0.2174976462165764,0.4408734234504714,0.560225308503929,0.3202275766135516,-186.74362721756697,1.852540537206318,13.291602570917004,0.1819018795510252,0.3453416407819954,0.1758281643394239,0.3158028189609934,0.1876354963308248,1.4094570287128187,-139.79331806756394,17.513858822894658,25.091629073163737,0.2268417718759159,0.156140824165496,0.2252998382454543,0.336560909222116,1.023132773344989,1.2324837251241323
0.78,-53.21768768558349,65.90599592146351,186.75090900712632,0.0685724836113902,0.979754238774028,0.1631687416922463,1.0841956503523826,0.4040378696667922,1.099812620410705,-35.502038586121834,47.42502940934188,187.31375455898743,0.2401366884391234,1.7112013036578055,0.3312287443333638,0.2219358679527603,0.7770841737037156,1.893804138676972,-186.8724187204305,1.4986683123134183,13.310883661354346,-0.1743985290535976,0.282456470831147,-0.0142613027561984,0.0513728213011145,0.6489558262211301,1.762675133842906,-139.80603524649635,17.18197019282836,25.32093529073137,0.1767727410960587,0.2748876664468563,0.2023028489050345,0.3774757146981753,1.2940335310729725,1.4032676451084811
0.79,-53.87197187703997,63.79171924569864,186.5852544667732,-0.0809963344245591,1.0730924427064952,-0.1600506398171462,1.2257124748111243,0.4672167488823749,0.8089608726255633,-35.48279088172626,43.32292165611763,187.30123164637843,0.331014311229578,1.659660547010992,0.2888486488600622,1.2946540364544123,0.3154323152274139,0.4427313966637906,-186.24052410174372,0.5700666722954966,13.51575418473251,0.0242466415547794,0.4122785524539522,0.1258313723642913,-0.116915878677955,0.1645588781834192,1.024959954934027,-140.3065490054358,16.541948832017894,25.751943041180606,0.1221217361146663,0.4107529607467576,0.328577190941872,1.060918189854423,0.3729770156901362,0.7945854554721592
0.8,-54.010107536886565,62.51568912067711,186.76620878384213,-0.1627442388570233,1.0196115574798617,-0.0388597212908948,1.2845340213030578,0.3490469869731952,0.9552427565288364,-35.535102708605564,41.44373977619431,187.2926495592365,0.1440898843189993,1.1381808958797646,0.3139368507992273,1.4590494909470428,0.0393167096128173,0.2051099929539909,-185.7877493316394,0.3569388380129595,13.459672013632806,0.3064911032764704,0.2396332715820952,0.4310719832915132,0.5717047107997492,0.1608123673466781,0.3056292726718859,-140.3178833855869,16.065385899282134,26.01916036414182,0.0071723454328541,0.5074201024749204,0.0186140295177134,0.43013451564195,0.6310359280745906,0.4342256567916596
0.81,-54.11521827433566,61.41935420106307,187.2899836104275,-0.0119854486879806,0.9457481115586778,-0.08461890871398,0.7930929202526613,0.4454420629011755,0.2478458299471554,-35.546874113141136,40.106700886167154,187.26598916853388,0.0084755693525613,1.487570654654009,0.0489848422527111,0.503057070352793,0.6297051422451496,0.4836287315645706,-185.3413341883192,0.2219499484316907,13.534180693744874,0.0130636687159174,0.4612206714554415,0.6438408886234828,0.604561964442194,0.8848466766148959,0.2558634556019605,-139.87872615406422,15.810991564862498,25.8273935292993,0.0685081039315765,0.5300413849189447,0.2443146699587239,0.0689974532621449,1.4145643777581611,0.8492521546151186
0.82,-53.93139827304822,60.72557126152944,187.44955724398187,0.1523570260754661,0.7088225871890774,-0.0387949004916515,1.4062846590732905,0.4775163362160831,0.2334983537727724,-35.59200264658964,37.9892600723163,187.15119165750988,0.1387516666653127,1.5962750323292934,0.2195784709255846,1.5221041009347884,0.412054666954979,0.935035399805778,-184.34623795138765,0.3787572127297519,13.243139224500608,-0.0345064832134542,0.5266557839889765,0.5222475184550202,0.8666678455388658,1.4189633900517375,0.350678408883167,-139.4799558982877,15.7021783948899,25.602890796862564,0.047664997253482,0.3067291112108873,0.3288387819138008,0.1453720532601536,1.807774170509844,0.5810336471021046
0.83,-53.63568717581904,59.92381639566772,187.6408075461667,0.3189397208393864,0.6115894008107607,-0.0928303429297841,1.1748309274608686,0.5024792213270145,0.2510696776450927,-35.9256140452112,36.17064031999344,187.0949448940492,0.1838455040276345,1.5778433758738264,0.0325423633913902,2.18401224702613,0.0049945426590382,0.9386358991762268,-183.9186328583762,0.5632285130678443,13.35011983013904,0.1743852810130563,0.2347837288277652,0.3546532414453944,0.950858428008998,1.743615460104314,0.5875656897557877,-139.76330860363043,15.618354648104138,25.357212771096272,0.0497730582327732,0.1611854203763171,0.5274692060650051,0.2004289100061156,1.4080097638315552,0.2733144531054262
0.84,-53.5355967211096,59.39559884422713,187.99687473008836,0.1008037363743039,0.7027561929444199,-0.0463025734465501,1.429918975151594,0.2199076488984634,0.2452041720529567,-36.1370070235285,34.509946918682175,187.1395512428774,0.0714085132565195,1.593443769246089,0.0794715329756755,2.3871208628669534,0.2271593754290226,0.8779584302492499,-183.3692528880787,0.7980502869727584,13.293741812021835,-0.0187396471429312,0.3394875322519274,0.2692706498121873,0.423226731578035,1.4888508723024858,0.3325423562759834,-139.6983110541847,15.513359118928136,25.263460145642927,0.2900787369854575,0.1773139568949239,0.4587846494998319,0.1910214613297264,1.2581138206803295,0.1602380009412994
0.85,-53.211351174102695,58.30097369227522,188.2829263289392,0.0154053336035926,0.8618096585263018,-0.1050415026246454,0.848528778748076,-0.0376894653809031,0.1695297027005939,-36.20877167513799,33.066684863949334,187.1545340582049,0.3822010584288803,1.0083069615776428,0.2200337242924548,0.7346546573969865,0.5709857728620317,1.007940063500309,-183.2120207155671,1.0238938068938246,13.193185329577002,-0.0071933449870807,0.3492835727356363,-0.0012668138422643,0.4888805841616231,2.192495278869841,0.3429186614084655,-140.55277900584755,14.88880965357289,25.53157750658246,0.3084307118745913,0.0351748120088187,0.8643553341979859,0.0624903122190434,1.2201940556130155,0.2556660730730794
0.86,-53.246494033823154,57.59279068784293,188.6361470683873,0.0203697090442508,0.6820143471753783,-0.078329836725784,0.5253586835684785,0.1239970837638828,-0.1455954192028673,-36.77232409921406,32.27576486013753,187.31546221811988,0.0035207730673976,0.5134261868907548,0.1358437793796416,0.2242726233041284,0.682726643840281,1.8854900495505809,-183.56628242199915,1.280736386085526,13.508002735875762,-0.1279887494868858,0.2824490584763591,0.272499335448141,0.3127836448998955,1.2147854242400866,0.9992708055485592,-141.66418179317918,14.802178164954274,25.493729622411987,0.0925206923467077,0.3111401818560749,1.2350074374657976,0.2352088876331929,0.676967640929559,1.2994732334376111
0.87,-53.03909638918661,57.18727204303297,188.9610338170177,0.3110986253161655,0.4886971479126856,0.0406600629655283,0.4462857993243841,0.2302813061551216,0.2859212569108763,-36.72220200823356,31.47739003885713,187.24665258566813,0.1556624992839661,0.6579452670239606,0.1391893301070752,-0.1761226879779922,0.6139384986053497,1.9782651468963173,-184.0928016776644,1.450769304312124,13.38654440154235,0.1786435309116173,0.1843027222720613,0.4373947430671794,0.3111589392037113,0.9547838668670864,1.383435040636138,-142.79587875181838,14.394259784984136,25.670736965481836,0.1657676509662905,0.0884047101105015,1.0547092702042122,-0.0463398625563158,0.851952990300456,1.509323454726125
0.88,-52.661054682741856,56.6558457513656,189.1659206871928,0.0600924282626127,0.5473619951704687,0.3167643881336669,0.7239936834759482,0.4369279572644013,0.1804844127976437,-36.820539372221866,30.10072092509504,187.23946651829684,0.1219181908385169,1.1236199346241404,-0.0115348992430343,1.2730270754303143,0.0221034953974321,0.5554285042627809,-184.4057272306739,1.81205077786002,13.629146640337456,0.2293216281022763,0.1176853883600508,0.3405563733440826,0.6678449006403933,1.337731362914635,1.595578723562634,-143.9110143091563,14.079188118008632,25.94537223107073,-0.0542852100907683,0.2472516326680058,0.7428912379921975,0.6727266000998704,1.0057579552977962,2.269939033669085
0.89,-52.7126372320936,56.3054799389486,189.220063546208,0.1000587745968633,0.5093219233456354,0.1545843399689893,0.6106518848785637,0.1597919757640077,0.4177825854433444,-37.06779818211925,28.73991298161293,187.21080734945215,0.0724840158662357,1.2324645117694482,0.0273949170127628,1.491634023684719,-0.0198705622554155,0.9905412673640512,-185.0734100816901,1.883833357475594,13.62215041307677,0.1225348800338484,-0.0966171093498845,0.4177030453869981,0.2158930693334354,1.0463499725986911,1.914780277997596,-144.51683817884853,13.844467147342698,25.96725553037624,-0.030984369669132,0.1131612708754288,0.5786560503234272,0.3881477837640247,1.168315861496747,2.164003725511883
0.9,-52.44400486417505,55.4696987189945,189.6085580383442,-0.0291406069401655,0.5235991986090898,0.0521645686089227,0.7265451592663763,0.3003752390730168,0.2354037444122227,-36.99943057369699,27.750582160507395,186.95957222042625,0.1386796784448298,1.2041745366142036,0.0355396308835886,1.4983040010583586,-0.0092204881840456,0.7878882897021747,-185.40816981877333,1.7537459315663195,13.870739955906185,0.3250006712013446,0.2528091801820079,0.2619931894548625,-0.0947055272771385,1.1142065695709522,2.141626057468042,-145.48199500058942,13.858335858129353,26.197376565309163,0.1147645132175391,0.3999663463305821,0.8486211924179042,0.6640815785414791,1.23367485402866,2.0288691650255344
0.91,-52.42809883084226,55.14475477762681,189.8400436662912,-0.0125985100827816,0.4376631652567207,0.0821368478580188,1.205139985220861,0.4521836405569188,-0.0082731890132583,-37.208794543360725,26.768832940236614,186.8780342085476,0.3352811754030173,0.95678632109709,-0.0505646088033244,0.9507148483827708,0.3264443024628646,0.5708151647815218,-185.7564458961911,1.82020677518872,13.860282370559997,0.0280369923017693,0.0638927159873193,0.3106009577961525,0.2884880100652702,1.118320877542718,1.4023777635462094,-146.84930595259044,13.419901783257174,26.351341140382107,0.1003363031596526,0.0642361156384742,0.952490791140127,-0.0948575756824866,0.5371010339102282,1.3804933284346523
0.92,-52.30617127339871,54.362781637885554,189.67262193930236,-0.041895132406683,0.2058239982491294,0.0493510583835339,0.3064072954549812,0.4320326392176235,0.4504772061827104,-37.11536354575773,24.736164637402545,186.4986425211808,0.188317859231897,0.9238822681255556,0.0562948769586204,0.7006969463609896,0.3323290936100747,0.8246685698461667,-186.78788289409923,2.1578077044278494,13.175740820274097,0.244404948450674,0.0434219427020175,0.3030311037825463,0.7764765629541478,0.6989248804437694,1.796630622520068,-148.58152457208664,13.034811872442992,26.53680254437249,0.1324790605466659,0.1142307327407769,0.6470579659860731,0.7078037040542411,0.5814899780198274,1.7981925708711044
0.93,-52.452110870225866,54.22466243322243,189.8159911754612,-0.0027564729336096,0.3449983331025724,-0.1511780544990969,0.1378306287261095,0.4192394456398036,0.1565354190898485,-37.33135250643649,23.967038308688934,186.4687511462485,0.0137661623954587,0.6251267642306118,0.1400775345326294,0.3678538793624398,0.3013043890622225,0.6334907887295722,-187.11730757875404,1.866441290500359,12.923588504908622,0.2265791119171027,0.2592214795226668,0.4051406034795775,0.3059938734812148,0.4414845380692092,1.718220093174892,-148.9942942822911,13.021387701191196,26.45433942180505,0.2185156561798862,0.1184681550973964,0.4076263121072715,0.2264525046702369,0.7487142052655673,1.6330124583305248
0.94,-52.34158279720231,53.82247046516708,189.7418415914693,-0.0885006741230743,0.3649130433749704,0.1340508607631747,0.4475539746474238,0.1833675135783669,0.1173274259683343,-37.412262778221184,23.11388468255838,186.31822004543497,0.0485049152689925,0.8792231653345012,0.1324150959765099,0.6388309527544896,-0.0463899122933916,0.3736959044510505,-187.41437518812103,2.0802605186320915,12.6849180716781,0.3283742091727905,0.1532233727634221,0.4463526808244054,0.4600407359620667,0.6764310876209362,1.6013740534604737,-149.51347989659408,12.536940667562863,26.268309487296268,0.1914012384730635,0.0444092206928513,0.6563283006161925,0.3536214164973655,0.1707278440526149,1.5226851963525545
0.95,-52.3772640289244,53.42979556940851,189.8955979616933,0.0513315710888359,0.2566129554911242,-0.0719080751638793,0.7049616073256942,0.3207985151931972,0.2685481366386111,-37.53964184712198,22.209127940749728,186.23835690335105,0.1077229055712134,0.8436798362371624,0.0021526424914551,0.4012025247793231,0.2325096790099116,0.35402229999597,-187.8482252161016,1.7205800674070189,12.38132638363621,0.3076020544071455,0.4434272609928052,0.4169283735994085,0.6205527832883717,0.5185008365678444,1.4423087882006214,-149.7356862191178,12.403326235849288,26.20823926495637,-0.0566179975842525,0.1136834414141665,0.6693792905478436,1.215909829452955,0.9593794068652274,1.346436296860223
0.96,-52.33058181748007,52.99691720020827,189.94241877151472,0.2096719858555662,0.0802799961495847,-0.1495567613376315,0.7753067404025222,0.0242388869006771,0.1818313931103303,-37.36275372907591,21.91667178893846,186.1008277084413,-0.0006602002853442,0.6649453053073968,0.0591117242435574,0.3343038770400283,0.1663781207929962,0.7148419389535753,-188.13479087442784,1.5871460690374648,11.738304876037285,0.1983619043233095,0.1844918124431865,0.2601834270601058,0.3637088812034584,0.1122318332390222,1.127929139322495,-150.500259921839,12.063940813348918,26.63041660080053,-0.0851540067984549,0.3588188050715777,0.3752253986392588,0.8291056322964603,0.5412036083894852,1.536789947312838
0.97,-52.51905869749465,53.04068446038118,189.9548832777809,-0.0696834743614724,0.1880541255302992,0.0882514108811886,0.738175777057343,-0.0836038665682583,0.279731928715324,-37.48353273783879,21.29677964195928,185.79626766801545,0.0496951232324313,0.5668355108422121,-0.0738064527396674,0.3141328611655847,0.3190633056797693,0.6411866839750069,-188.2298975150156,1.7614780063837128,11.532534999671215,0.4127530256104487,-0.0238416625044605,0.1165212894257282,0.8795938129779308,0.7151402688613839,0.7165100376024695,-150.42768276815485,11.900946268059029,26.621723851839747,0.1445643342534418,0.005716610417683,0.3757754004827294,0.8543525692868853,2.505181941723328,1.9665452769592653
0.98,-52.56432729950984,53.11332882082447,189.96217270041365,0.0229574249199633,-0.0401617689040274,-0.0302322021076591,0.3691935864020583,0.1531999414573133,0.0999495470940525,-37.61413075030015,20.761993256061658,185.9706026166156,0.0140547498975587,0.5515079129343035,0.1006089627007797,0.2151653925770215,0.0588604043734496,0.6349221012106648,-188.2319612005788,1.6256689913760347,10.819986205730247,0.4462983390411417,-0.0020957445769803,0.3307882952126779,0.9679944085362316,0.9029687589372256,0.2571646494170486,-150.16650906260813,11.986433542345717,26.40591512056844,-0.0229808782300556,0.0411148555732131,0.5307035731228337,0.621513186194188,0.7941560557600579,0.4694551284490104
0.99,-51.98358854936976,52.827980267887234,190.1357424056184,-0.0228123164467333,0.1063430906864657,-0.0382975312591401,0.2148943399829882,0.2996823586669286,0.149722997170024,-37.53688358090566,19.89954396280237,185.8406851947472,0.0222034693075381,0.6284856289288375,0.332482502205649,0.284870283629775,0.4000101144541233,1.0326967003843923,-187.78639535445365,1.6056369260621992,10.434441234342549,0.6702410584654961,-0.0902277486470858,0.3711336174333747,0.0033698275892891,0.9304636127920926,1.049223523189822,-149.69333659933295,12.35142374379338,26.205201711967742,0.0761580171248003,0.0108197051753908,0.3943101495639894,0.6114545019498944,1.7795503920760056,0.7398747637262935
1.0,-52.17427711727253,53.02041945337572,190.0212978438504,0.1455224647841062,0.0490458531607315,-0.1425128103493625,0.4693216350501512,-0.082208449497492,0.1023230337719021,-37.58594173631833,19.123551262478017,185.69504197777096,0.1368617727340755,0.6124977015884869,-0.1047894074369333,0.639756124899384,0.2435505167504189,0.572758353089404,-187.33490397070656,1.3841356303057064,9.526130295524336,0.4039498557471672,0.088244696081871,0.1243208342964831,0.0910925138300023,1.2556725808418698,0.9905937429963664,-149.49108786114283,12.454975731682431,26.974501547316613,0.547885645608686,0.0833075202613814,0.405216350236444,1.2696580615496338,1.3853532807202942,0.2175933750576374
1.01,-52.03156850946933,52.663377969254185,190.25923502171864,0.047958319582941,0.0521626192617791,0.1956414193900263,0.428155594563044,0.1244325590805729,0.0393046202134284,-37.73689231834943,18.57275629635739,185.8906279654491,-0.0899620520446077,0.6196557422390855,0.2413571824080718,0.4593069580103223,0.4536119271516654,0.5346571447330308,-187.4294468633906,1.3669788679843409,8.980150748176563,0.3338082399559087,0.069041851592692,0.2136957319988741,1.0049219245150698,1.014780289737819,0.5982492293430937,-149.59656460810422,12.409240828423428,27.369154222334096,0.5080071048901207,0.2361391907746439,0.2652196774263265,0.1974388007572861,1.7949709561728455,0.6765242147548215
1.02,-52.08913693202123,52.41761835356014,190.17007812394132,0.050180471652918,0.3250394602175362,-0.0513552323098221,0.5433504210157882,0.1571261769725372,0.1925648793360433,-37.65438473715595,18.1953433784451,185.77063009380112,-0.1137688926478151,0.2884168699033205,0.1209902321963247,0.5307950431589746,0.0253343700771954,0.3182232950361133,-187.4939150438522,1.1857919461373534,8.660116063058382,0.2930856566849217,0.0802330131021198,0.1067413728567484,1.1550485758067246,1.083150500361374,0.4719282189155998,-149.39133555412673,12.27311483174331,27.837140258081483,0.4446135877225574,0.018357557192524,0.1748631872255922,0.2972306407578844,0.4086162254822542,0.211672544759154
1.03,-52.37952455407829,52.20667657840358,190.03465423277123,-0.1245292430078841,0.0670964151016337,0.032507524986984,0.693543744270677,0.0721848194416496,0.1130702492562894,-37.87775449658871,17.739321718926654,185.75037549980183,0.111718633476531,0.2332431015218014,-0.0907014302489563,0.0602453986205331,0.1313695096530437,0.3257610815432625,-187.62906253270503,1.461759414267214,8.454503212435919,0.3509346906408392,-0.1092427457381222,0.0824437602029304,0.9596405831973708,0.5781050415574516,0.3335448181167819,-149.38026233028313,12.305706714680156,28.319655030847752,0.415069273839874,0.1221782452612395,0.3104995495212806,0.4349239128037936,0.0951295263704015,0.2813337796376202
1.04,-52.42050228749186,52.42080956773397,190.0182196328469,0.0347451428954541,-0.1420945609506614,-0.0430389859258119,0.8503470795006692,0.0867032949245273,-0.0361731968180479,-38.15495117764652,17.288741977005557,185.37082422052447,0.0765122734312707,0.1993922716136935,-0.1234327854456313,0.294870255905051,0.1966511813129611,0.7845743741567376,-187.7195771462178,1.543228377553583,8.09687580645666,0.3970158163335598,0.0159320172355471,0.0709933817170587,0.7716001127337623,0.0324125776692465,0.7676602932826038,-149.083663127083,12.441260962648476,28.47456890826581,0.3107494461879623,-0.020102139363998,-0.1430462488473708,0.44502957873086,0.2398135476139113,-0.2186900520053635
1.05,-52.706904356719065,52.39039639190283,189.8010639152983,-0.1773687233814254,0.0025956908111505,0.036984142431286,0.6047952149883311,-0.0101771094038333,-0.0855128737230954,-38.10476024356295,16.637922467746648,185.12552746776063,0.0277924130339966,0.1946457327394028,-0.1778509316156106,0.2332178541020588,0.0827683217344946,0.639720762262487,-187.86628579933577,1.8117324633611311,7.439520892187158,0.1385350244523045,0.1568691711835966,0.2116909368465361,0.4745861848976812,0.2975810357383986,0.4085961358642144,-149.99320366432283,12.192913988493508,29.525353994585267,0.2848043665996767,0.1929740770138252,0.5241814723324428,0.4324628688982682,0.1196659007528323,0.4205460949273613
1.06,-52.62893850318279,52.63982811898822,189.79117571795683,0.0057373279657136,0.0001410160947359,-0.1134319314342172,0.4036849243194836,0.2969859918135675,0.0448180164942784,-38.03856041913844,16.384354351980935,185.03229869451044,0.0533662225317025,0.3596046154250505,-0.0419538531427155,0.4874558546780925,-0.0903414906230952,0.1185970743457043,-188.48336151432775,1.9198035349443483,7.193180398138411,0.2950169002277323,-0.1514334825629522,0.2467951216108007,0.1526291712394487,0.0387473993734644,0.4186516729395952,-150.75365963357638,12.231832022758546,30.06102696186855,0.3521259337554867,0.224328398113968,0.547214281523227,0.3770995590470753,1.4002187927722154,0.118449341688056
1.07,-52.5153313617024,52.598875157546274,189.81837964420785,0.1236574993970455,0.135461947858226,0.1174397544154204,0.4650781632014459,-0.0645623383197967,0.0963498938027867,-38.17373428514546,15.8588400513439,184.99176968677705,0.176330596960458,0.1885910085838091,0.0514035627916483,0.5543670648759612,-0.1284567592266708,0.2937429732044739,-188.74157272781963,2.0412757766034515,7.169533368387679,0.0546897672243599,0.0996604440431322,0.1150183015736588,-0.072420556607249,0.6733258009675653,0.3831212525182539,-150.97364282065547,12.162076030792484,30.332726678561848,0.4134006159693838,0.1512355369755364,-0.0666561329707172,0.5851029858130465,0.61034663960609,0.3512197870404246
1.08,-52.58488398672914,52.65979238501514,189.9304840305156,0.0707272113994054,0.0579288215901572,-0.1512954227060741,0.4726477608245987,-0.1220001777229885,0.0288888313833556,-38.20168156142202,15.965520089402771,184.7817014835668,-0.1071310380098796,0.2713822242225269,0.1021753077487736,0.6489057224747857,0.1374511965399969,0.0894384763949572,-189.0093918070657,2.137876124230982,6.90895456791966,0.3016124226622924,0.1788510137482053,0.2551810312536833,0.483655082183716,0.0393928817019934,0.7477378328005502,-150.95244032816802,12.39503218146892,30.736026814278784,0.2526081770369943,0.1870089363498895,-0.0023129637310951,0.8497083454707924,0.0719788563167883,0.4585638895082863
1.09,-52.43858911108765,52.634784464082,189.85751091559555,0.0294916336185723,0.1105588504438937,-0.1618952250718908,0.5860001984707708,0.0334283192828493,0.2361660702416637,-38.10908847043086,15.62223363101415,184.89086288982048,-0.1562172101868163,-0.0597544625300925,0.0743385082813522,0.6350332630306598,0.3549840287187467,0.7046967782132112,-188.86881048253116,2.4493109846734944,6.667761983024648,0.1088785385930576,-0.0221307319310373,0.2032672488366752,0.6008501787945235,0.8355833572837539,1.317540019268819,-150.9913237037381,12.39897247475803,31.186769970052783,0.3293324904227065,0.0553559243880288,0.332186004752908,0.1032266699970614,1.9012814665860676,1.7788253676064472
1.1,-52.51765252254826,52.78128650197379,189.738034061756,0.0930087616862519,-0.112619137918448,-0.0299601090360069,0.3648769236225376,-0.0118278588008194,0.0734470068535433,-38.11098757097532,15.480986399610092,184.7367746674701,-0.0008428685415293,-0.033049624344652,-0.1175493785254679,0.4746961478667734,0.4195787805659486,0.6848543775540741,-188.92769631473712,2.1600911075835545,6.337948759062653,0.2850217203858868,0.1538538279733653,0.1078859015405069,0.4677184502932637,1.8826402066592267,1.2814601498090543,-151.37000248180246,12.014048222581922,31.791411419021728,0.7399627647133283,0.100675067105179,0.051666701299191,0.2903030395317112,1.6116780225189524,3.1523077388180747
1.11,-52.38799925400701,52.89580811305552,189.9800586264542,0.0990418533452064,-0.0009518803185948,-0.0106953914872034,0.4000762696822106,0.0714212352938692,0.073147393307492,-38.24092292094938,15.358932136750376,185.0736679839644,0.0289140315149885,0.1571984641063865,-0.0736428748697941,0.2330352926404207,0.220374218396754,0.8290276934851415,-189.55179403741096,2.1582210771163983,6.21838415689935,0.3035836081389254,0.1688459887191615,0.5019779229912479,0.3392891081185327,2.642067879476436,1.2311407438386206,-151.16114053864274,12.146543899691482,32.44605328928003,0.8971609711682649,0.1459122811789071,0.2088272311951123,2.1003220174471964,3.060532078871073,3.688734126436168
1.12,-52.41762880424481,52.92285875398595,189.80941977597743,-0.1614603527444003,0.0829391418209614,-0.1261679714570088,0.0197061344596598,-0.1491016144780222,-0.0613320486572292,-38.26279181977509,15.249330003884024,185.06453147395857,0.0426006668913778,-0.076578300258581,0.101508364825922,0.4623669983396219,0.4962187267583241,0.2159957224297953,-190.18376077870664,2.2822083852856423,5.947024404714273,0.3356657053034333,0.2024246137228237,0.4510602882315899,0.3720920902901544,1.7641946390525896,0.8012627394739686,-150.96170071588435,12.280510806975055,33.582066725249774,0.7318913474460579,0.4697151674008599,0.2916993371928291,0.7237370172089254,1.5644891068462743,0.1231843324826337
1.13,-52.37366665949031,53.11497568045388,189.8750799996666,0.0875664337047077,0.2029067561179676,0.0570545541177355,0.1720087627333361,0.2038309694601178,-0.0291884030729863,-38.47198875642165,15.307152239440418,184.9434350241352,0.0215340867787977,0.1677423543344652,-0.0407435895185989,0.5660705436354433,0.19039703329902,0.3834857451924799,-190.78518377595887,2.6046859123265214,5.481115100617437,0.3221640693047416,0.0935846677517555,0.5690534000717403,0.5277893054178254,0.6527565924535781,0.7789484272343842,-151.27605786003588,12.32822543733433,34.56739303685144,0.5739717735514516,0.5253824788513188,0.6095887125282619,0.3063481440599689,0.7357224486439319,1.6716705022128775
1.14,-52.17495905145513,53.36875168026273,189.8437701135896,-0.028782319787339,0.0785783482669714,-0.0363985300347811,0.105324925063698,0.1177492164389147,0.2796659322438426,-38.4380993540218,15.223306716863414,184.9418703405979,-0.1029744415094348,0.0401427907909887,-0.0197974398823743,0.471095592436018,0.1032623483948997,0.4552556112160332,-191.40099587675704,2.643111342565561,5.122053198535353,0.0890211795865237,0.1011070739342103,0.3287834652308701,0.7902530009443064,1.6089589318674764,-0.147703619610105,-152.33336594918947,12.113606956979986,35.425137321245,0.2860312819158813,0.1712143310252921,0.7358094264879294,0.1257100350855434,2.079018330969906,0.2424205907931144
1.15,-51.89203871072217,53.13172160880882,189.8212231718096,0.1491268526484139,0.0077313286340034,-0.1016951770151314,0.0941394313903264,0.0691100370569241,0.4476113706291629,-38.50637642033289,15.128343189686618,185.07025224389292,0.1791526650568155,0.0944651803708472,0.1262843862563822,0.4152763017780726,-0.0985376433138722,0.098420253044746,-191.6344713105345,2.5104303070868843,5.046102707546529,0.2440815890159174,0.2700518314278299,0.1973096557704208,0.7611559836270612,1.4018122410798195,0.1031834284410392,-152.55175550049805,12.17626217545998,35.88568252956221,0.422441716862084,0.1789890391818089,0.1009323192033278,0.5331695930164326,0.6073935289847793,0.4893024373086813
1.16,-51.987008761872765,53.17970957898064,189.89324999210365,0.0383399713514906,0.27249816492446,-0.0116037235722021,0.0940426698547747,0.0256003025184493,0.231206730504598,-38.525089073461366,15.301935075899085,185.1580713717032,0.2286248201010078,-0.0716483970885017,-0.0311055408614533,0.3460535084640916,0.1418076144315188,0.1134491800675499,-192.2521609311008,2.5985168708703963,5.124084460380862,-0.0369636698750735,0.0566408717638754,0.1199280685757587,1.0309292893609563,0.9684202640413856,0.2066036493002655,-152.4795729227056,12.18306304646832,36.15616293711111,0.3737309167852902,0.234627320983325,-0.0103560863156371,0.5113601101030675,0.7351367808911489,0.2167466158221334
1.17,-51.69243275839876,53.280642093240594,189.90000075490465,0.0337918763776476,-0.0049965813574907,0.1599348064253527,0.3623830733883457,0.1483201110089121,0.2545805400017522,-38.62290313651948,15.428132746739342,184.9442003095151,-0.0753796509850951,0.1655020070311558,0.0042324503456855,0.2385756929740928,0.3954347127592844,0.2027409726441431,-191.9630953995536,2.554131911348545,4.793326439705048,-0.0084048957680714,0.0983021747214386,-0.0654124324954361,0.2656579430251509,0.0639596859486082,0.1863388690009656,-152.6248926169101,12.321489188520866,36.69283349544669,0.3530724527882488,0.4430073834730569,0.3281562369124754,0.2258929598262881,0.1315343108536623,0.1176530407050365
1.18,-51.82802637842165,53.4323726611562,190.00719860190236,-0.0026050760609126,0.0160631661926038,0.2267382200977176,0.2469083437602539,0.0633493141521753,-0.0997589686894764,-38.59540941877752,15.450758109816965,185.001689904537,0.1807597889636449,-0.0734502505971641,-0.0785619857358703,0.1165808851450742,0.4057425708023545,0.0123879009310347,-192.71100150461768,2.839956291164296,4.624984303255784,-0.0281019366032919,0.1025361874480933,0.3240429246596943,0.5801113928760672,0.2941996725845494,0.2459307569691356,-153.65560643442225,12.46741945263302,37.7922794237824,0.4871069717149743,0.1550981065327052,0.0145322286010312,0.1396097289413026,0.2487397999129848,0.2129626135553113
1.19,-51.77059605122754,53.318136931315934,189.72828634481448,-0.0496751876722013,-0.1203457369750119,-0.1148168701880225,0.1373165182046657,0.0495333697281953,-0.047790736636918,-38.39563600809954,15.347049296795475,185.0429373044861,0.177527303013831,0.0408535148999182,0.0005176468500386,0.043379757673176,0.1935481795859986,0.3055574959382267,-192.8220602882433,2.7164123003056457,4.609557585103238,0.094196118733388,0.0381953081209861,0.1245078282521936,0.3187585680986463,0.1226753554835952,-0.0005415682290876,-153.33822550018755,12.995454996139571,38.11683697151172,0.3235218945836913,0.1140863619672366,0.3748231992286102,0.0370712211676542,-0.1404636343566884,0.5161348983426287
1.2,-51.51080955223923,53.67233093134876,189.7735435319865,0.1708914164246275,-0.0154790072946318,-0.086354496943706,0.3597361910304031,0.2592952510476631,0.0754333849238383,-38.603480331570886,15.634307067725002,185.20249033553384,0.0896928011654393,-0.0983053479378515,-0.0858665501296528,-0.0264975451436332,0.5438175608077667,0.2770142078502305,-192.89117065801096,2.860251427165097,4.510326446558183,0.0793918139960021,0.1529488374136129,0.029272568109853,0.1141495286270963,0.7497684405771315,-0.0263126969518737,-153.30761768232628,13.197345690865845,38.18987988403831,0.4826294618194076,0.1791824866211695,0.3588240274036503,0.2862627152450341,0.4264125405482137,0.9390126226428276
1.21,-51.40821129929056,53.48728771483846,189.89090596995567,0.1277294667767321,0.2549014562611911,-0.0126286024683867,0.6801825067586169,0.283110999458404,0.1448564245022763,-38.55993494710564,15.508732737060583,185.16738902898493,0.0949119750111793,0.2394749285561022,0.1303304704701962,0.1044233282816832,0.2383667894446229,0.5646797767454385,-193.07995129491584,2.710152630601432,4.556372652469079,-0.0345286179880353,-0.0950445443836896,0.200730566770795,0.6481765027780334,0.3724289740708574,0.0640621127451032,-153.26820684255875,13.21830367709576,38.68839225445188,0.3180141992335389,0.1558281617604444,0.0221718755211479,0.3558736557494492,0.3162903403007485,0.5746632000117047
1.22,-51.4432647412083,53.854901927714295,190.13166016793377,-0.0865417479911373,-0.0174980075078191,0.1215934469842934,0.4539531389756923,0.2929957741756094,0.0914166996016097,-38.62600863900959,15.449538266197337,185.1941617423158,0.0554312688923986,-0.0322513420054543,-0.0264428919563648,0.3223880557963632,0.3417140132995416,0.4572706585768429,-193.3551826038884,2.734072660209866,4.638748392371931,-0.026474961110039,0.2446029928643646,0.3612524086922847,0.4205824909659778,0.455923884328887,-0.07470112086076,-153.21309472365328,13.528477412627002,39.23552148713065,0.3440010316018573,0.5374853245925997,0.2462357032347178,1.2305295588883676,0.3072021218578278,0.5046681070458358
1.23,-51.53368811766696,53.76831488059928,189.79065346437972,0.0089596955005396,0.0640370128811728,0.000837325890879,0.2830554373521836,0.2740968933113021,0.0073536764818567,-38.43534699642656,15.38950417851816,185.0644842542246,0.1327013025205721,0.118756494454237,-0.0659499062398911,0.2543372119287252,0.0204467459130072,-0.0490428795524034,-193.68178030389868,2.653194999927621,4.961871750446679,-0.1009230850182324,0.1531758555377098,0.2362539386664815,-0.0019674484886023,0.2011768158819127,1.0066035381487373,-153.47645121514057,13.521844916493372,39.48232261196094,0.295539238376249,0.0469349556653878,0.0133505094674583,0.3945061819898436,0.3371216808787374,0.3821065777855009
1.24,-51.55905328133165,53.71488807866584,189.9092484088632,0.1241610556925182,-0.0243141239946095,0.0636128758645284,0.1914096529158098,0.0732333594690833,0.0819557448318834,-38.636042201224896,15.390715255189688,185.1359286425616,-0.0455115458601296,0.1856130399625652,0.1320228788791335,0.6358135319653481,0.2246410675860756,0.5253295771578536,-193.74381229431648,2.6235091763049736,4.551799635026765,0.0761182920242984,0.0718611051040424,0.2260676353217505,0.3114148608603702,0.2562118701045267,0.89168431611393,-153.35992783838358,13.804544308225978,39.86031937945406,0.2221285585436926,0.1375428111384893,0.3952828938671691,0.0757081315522886,1.6069529399488154,0.5931254728626999
1.25,-51.42736389230372,53.90717014434673,189.79869553653515,0.0068451421491007,0.0035219598441445,0.0946268400996653,0.4859644738293334,0.2657294390240065,0.2662792679282301,-38.306588781675885,15.07562630174214,185.13645957378927,0.0397785342056439,0.3350678729515244,-0.1070767537859777,0.9766888611569344,0.3885519420835593,0.0780991219062475,-193.60658843524465,2.453502125270327,4.391214863108662,0.0782350057087947,0.0213369775471248,0.3408370840781029,0.200777357375074,0.237193424684855,0.8487035275026654,-153.0082344669647,14.139152211798796,40.07169362445138,0.1620705853119647,0.1945836450750454,0.4974050696917129,0.7449762253267701,1.6991264895548956,0.8237335058342011
1.26,-51.24277045091983,53.99058608909465,189.64855043383648,0.0094828239712391,-0.0363316348762845,0.0285764157627559,0.8443207660416263,-0.0564542385395555,-0.1809005027793274,-38.47669839673219,15.25327765870036,185.13030623864677,0.1274510101284942,0.0104713303082163,-0.164309320096012,-0.0815362173907364,0.0807907866769311,0.6379449370982022,-193.81438436164,2.7145516369428395,4.258743797663768,0.2558108356566211,0.1047178040180237,-0.0028898144077892,0.3260883799020902,0.7328144328179613,0.2287359139355235,-152.76840079718622,14.61270026044724,40.20623153684719,0.1529245867783369,0.3324079194048447,0.1393911851941975,0.3667141754896499,0.7515180018091648,0.2891511891955229
1.27,-51.44074333510416,53.97469599774111,189.61391974694297,-0.0781174347324008,-0.0049957498712572,0.1412841341104026,1.021875740115923,-0.0232484198151725,0.057119389654404,-38.49224624485733,15.172333635594622,185.2021116647001,0.0586038787783815,0.0437860929342453,0.2499592871358688,0.0923836930007979,0.4770398001237209,0.1036148191613583,-193.9721344633786,2.449229070707976,4.3397401721597815,-0.0283314810366798,0.1013967596770126,0.1275336879914396,0.4391031263533977,1.0367214994716372,0.2378556485753766,-152.690749031668,14.787507215173976,40.305737723246885,0.0369285784821431,0.2146175362794729,-0.0290980425882598,0.3053504966003773,0.1993485497154288,0.2888049675440384
1.28,-51.14129335475433,54.03549617763779,189.7638627228897,-0.0803622850579992,-0.1110445249735708,-0.0065323355874764,1.058138143202313,0.2867107439803634,0.2135225532989146,-38.37786338950647,14.971233595267275,185.1024070561145,0.0497250010056405,0.2770973122161634,0.148411429836508,0.2568854944861742,0.3427988726261342,0.0878308150523602,-193.971874104442,2.5482332544542943,4.4285218615699,0.1126846226397727,0.0502195821632039,0.1055397186336417,0.188128686844619,1.280440333733887,0.3581557836549449,-152.82421853629117,15.130454971494409,40.31241657548446,0.0932392461726488,0.2580611410219144,0.3603343866088474,-0.0302451515713867,0.2335231619089525,0.7124728427971058
1.29,-50.94287073347732,54.245394300810496,189.87699472838565,0.0064430872930129,0.2490741923489633,0.0218258579736033,1.0674985454171302,0.3200148069215572,0.287599570725423,-38.30347801974437,15.13745956084459,184.97474503418945,-0.0432608805275264,-0.072863800308239,0.1261239538443225,0.3043134634374487,0.2772418809469841,0.2814861772000995,-193.7813017526232,2.319049885453672,4.118189860746823,0.2254583387907557,-0.1229508466682137,0.283645505761924,0.103599743274948,0.879937509803141,0.1243618571470185,-152.36072179032877,15.23920368129674,40.58080897761684,0.3736525525696424,0.2334018670204843,0.1287041271664769,0.3983887719038621,0.1964416650509424,0.3934120362742038
1.3,-51.10704357507738,54.44779342264033,189.665780758868,0.059805069269868,0.4730263436872235,0.1397276522887471,0.9079400933314766,0.0008444477847373,0.3749823988537459,-38.05562415324751,14.879471705785226,184.87134325711347,-0.0221136700106202,-0.2457873114329264,-0.1848645475646289,0.5139296519787073,0.414800539324144,0.3452051142181851,-193.89754245208587,2.3038270026803214,4.280472490701253,0.0479847319826136,0.2629050865900888,0.2713248175513919,0.1293445304329694,0.1679908188174063,0.1229672115994599,-152.39617225531666,15.229222326875131,41.15057409432583,0.3942778192976393,0.0576134971341214,0.0379836389118483,0.0479086172371072,0.0371998391537205,0.3622424730027139
1.31,-51.14578987943413,54.83609917952317,189.4698074686979,0.1589715978633106,0.1740103383201678,0.1397505418067209,0.9676964786546918,0.3305608558384324,0.2032217624293247,-38.058159802433664,14.951367338478512,185.10332318380895,0.1195145212720067,0.1398774861380633,0.1913487653792664,0.6674875541226845,0.4568054305401718,0.2751011372339407,-194.0590031169048,2.358787075042931,3.9254827872346,0.184184046106045,0.0376339217478257,0.1512119962027277,0.3897654814230111,0.8716105125872733,-0.1607760799656842,-152.57667875343373,15.266316110210097,41.30019006835783,0.1443363410330243,0.1296667258526704,0.1467140968775667,0.1323266398052644,0.9039916996983668,0.9588133160831238
1.32,-51.17570783998663,55.264725657486814,189.42882662289253,0.0583832985241983,0.1931010305913656,0.0419205047263161,1.2884414756668363,0.253004012137716,0.3702599584059831,-38.0781716546468,15.0761501314823,184.95582369487377,0.0146702443496559,0.1311003151296236,0.1234437761057301,0.5138911720824787,0.1987858593865579,0.738597800813273,-194.0713279574139,2.3539462558965383,3.685824351269643,-0.0435622334733738,0.0444618193727739,-0.0369716132926292,0.3585693664666434,0.6606657424041986,1.4806791941902322,-152.50462465281046,15.50914640983974,41.71256303182197,0.2893155867796443,0.2604359426081916,-0.182340810649112,-0.0134895110275523,0.3298593516810603,1.0749591889883778
1.33,-51.27907093504376,55.44776838191247,189.48725808609788,0.0126590597824888,0.1364860800629562,0.0528768725268918,0.9633318640445704,0.2500304940684074,0.0179511566056893,-37.97448881146899,15.166845535206496,185.12124350395,0.1618301279298178,0.2409510767810693,0.1105620782224612,0.5172965269227204,0.7260667779231902,1.2903669081433002,-194.24335673358013,2.4764689008826046,3.69835089209948,0.0958299799266456,0.0379918867763686,-0.0190277923117674,0.623601605468698,0.4635876190947687,1.736316967169674,-152.45277887252888,15.50699326642491,41.96738261936123,0.0387950896531831,0.1069234432187864,0.2873105991083568,0.9481039549001096,0.254764832069521,1.31843310521178
1.34,-51.20907866468984,55.86797022333873,189.47590863682095,-0.0398144721798673,0.4048175154688684,-0.1229535878727521,1.1174776546985443,0.2288348539068498,0.0755954572133125,-37.8111525273089,15.490094710011505,185.4253233648061,-0.0399934262766978,0.0821720701350826,0.1522289595995436,0.7296889308839938,0.9454436339030388,1.3647283446873792,-194.12871304737345,2.373948988794852,3.715102998312649,0.0063292836214177,0.0990607720475911,0.2114660329844364,0.2050561490947674,0.2295694420293306,1.0135575220956996,-152.4570098972585,15.611320616715268,42.25065678136195,0.1461472811719658,0.0133793991943447,-0.0544805776019767,1.673984979311555,0.002471668923621,1.6310074592857784
1.35,-50.91343992913335,56.07533691722646,189.70116679641825,0.1257433485791826,0.363930395190075,0.1991936540213656,1.1128079127969797,0.0984556169867564,0.1565873952037645,-37.8520764030409,15.60323433006624,185.198991022258,-0.1822197406505568,0.2143668334672555,-0.0303867833001926,0.7343884004895838,0.6155926445656699,1.4499385285019408,-194.61201911198225,2.43510173971558,3.4530386773578896,0.0445228790629516,0.0910988160589467,0.0836887828171174,0.9307738764153712,0.8446010540179084,1.2511528958236071,-152.55691538342342,15.755997842246291,42.74817523605669,0.6115931749569723,0.2921462905333727,-0.1431387142615335,0.6244174037272779,0.2458541503455103,0.940882027440309
1.36,-51.261360746843,56.56887342406433,189.6343334681818,-0.0259564881455937,0.346108936762478,0.2104634369103107,1.0537627640936529,0.1069911638163069,0.044015119581857,-37.9656097199001,15.865390593214244,185.1213816362797,0.1648591285029504,0.3471662746911557,0.0650047661810265,1.0802001955481937,0.2825739066225267,1.3575233323519975,-194.58244312530456,1.9505218424196376,3.3145308015260184,0.138581242208971,0.090210126195266,0.227611569577374,0.6440545514981298,-0.0440587355928137,1.03169166223883,-152.82941942208976,15.943287217916836,43.69638939305307,0.6586180419156222,0.0937922464797641,0.3248924628972544,0.4179876546471852,1.8282626395767587,0.7051720624598712
1.37,-50.99792516297107,57.12113455372899,189.60919125450215,0.0496361927859245,0.4827166512597615,-0.1298428108071262,0.7844835871872653,0.1719373820020527,-0.1614197418462672,-37.78291966856818,16.203398530101047,185.24870584166743,-0.0287579793508466,0.2570628055269495,-0.0742386481048421,0.8011749891728933,0.1535411045166259,1.1423916216773975,-194.72033978600984,1.810694284138316,3.368350090467874,0.2231158534178435,0.2842956690657037,0.0047006337831613,0.1282971454624828,0.5844473680983776,1.0774298202764794,-152.90031999670117,15.998052866430598,44.36169834826664,0.7800828487696878,0.2676425390508458,0.0901644944245742,0.569774411316382,1.970342341927838,0.6981646428494898
1.38,-51.08610051479889,57.62305482315453,189.55619034760133,0.1544834940593406,0.2605151662869097,0.1759950528725965,0.6463130835230834,0.1489947613725702,0.1576133903520829,-37.68667137410833,16.68940053644781,185.37225140552565,0.2217891694248848,0.4035044551322475,0.1360496809695658,0.929536045645225,0.5915630183906623,1.4922059425945875,-194.93674603364096,1.5125383118918023,3.275684728182329,-0.0329741113013169,-0.0507928693562199,-0.1551726198741374,0.4426258284127508,0.6024280573918934,1.21891647659969,-152.37835114059936,16.20927290531033,44.81712836273919,0.5061927953888453,0.1585898347307235,0.3853220438928416,1.2523081638130151,1.3809798250967762,0.8380339523403197
1.39,-51.20684661942907,58.37897412750165,189.2079698184093,-0.0147002579621785,0.5421630894437952,-0.0432447207206034,0.688174663569179,0.3501593052605203,0.3508238471937623,-37.69323171489332,17.118171675523367,185.44812339363276,-0.0440013205073646,0.3088491424871154,0.1719239002524509,0.7346043463880818,0.2386349525621313,1.5247563226425518,-194.8160145938064,1.251720887674022,3.219820908784956,0.1520818797268137,0.1937918919101017,0.0506351390976117,0.2298398769099004,0.1527391367293913,2.425159069362047,-151.95018132377962,16.827638516469502,45.52949850735843,0.5833058359240836,0.2069625568465227,0.680930879604456,1.1080188670378883,1.2833403629048494,1.4167333770114598
1.4,-51.31388735532872,59.02655966640797,188.97601235551912,0.114477541778107,0.5751356000077679,0.0357672430692041,1.076662448282319,0.1612552814320452,0.108747161008959,-37.68794276509395,17.816972076155277,185.4720713166465,0.0663039980770601,0.5088060065567589,0.0054600733440809,0.8581215874428111,-0.01011134160273,1.5317345722555784,-194.7081735655799,1.12909691571028,3.536277987278176,0.248460661692619,0.2147144879778419,-0.0332948245638287,0.4827022126912054,0.1843228866200947,2.219813144068807,-151.9033697502719,16.882550400934583,45.79505693955481,0.7035947723842937,0.2736751619306444,0.3271427459085347,1.3591045758812417,1.6145797283515049,2.0287685271427067
1.41,-51.3745197520465,59.51030839797108,188.963026935468,0.2676311567526672,0.6193945209330495,-0.0585096140440367,1.2840345601025858,0.0141396146731149,0.2676406800301827,-37.667066182344975,18.467991799094087,185.51217438505168,0.0093720337633397,0.632199857339364,-0.0375672734036434,1.1421722783861044,0.3568346569435014,1.1995129516147418,-194.840888359729,0.9287165530966296,3.5403898945493584,0.2081763866929782,0.1527153879710137,0.0232910565256248,-0.0134213915081558,0.5503479039053844,1.807538733984331,-151.28732679392908,17.40170118729952,46.58448539335328,0.7225261557785001,0.2201295952709467,0.5450566934718056,0.7090396258569481,0.8092700133657361,1.0876159456529195
1.42,-51.407181221409445,60.28456674357821,188.40606209755825,-0.0344299962152429,0.6273731765676236,-0.0090892894852188,0.5362347312262704,0.1345375992872455,0.3289813593540216,-37.65600646038676,19.100077429939198,185.3588770973085,0.1068610903965477,0.6900896917939405,-0.106277134321986,1.3444034875263662,0.5354290503409176,1.1161314881726438,-194.8316740139461,0.6359246851001942,3.7355493933764423,0.2499476110161493,0.1186556892764559,-0.151153264841321,0.2722036408845922,0.2320556196454727,1.606554872467514,-150.71765302310274,17.939956919156586,47.0598299457398,0.7393786248592088,0.1994671098675506,0.1813987675754536,0.3488069732271679,1.8153221533129595,1.1254078001453065
1.43,-51.310654380561616,61.10844737968469,188.52615951512445,-0.0244197651605116,0.5898968474633299,0.0544331130065918,0.1420016420076985,0.258459636605671,0.4452210314529803,-37.42618612006752,19.83039189495738,185.503298156848,0.0904550473242326,0.7471472250356357,-0.0214698477015986,0.5965060300706615,0.3153649425574858,1.1760030445724916,-194.87607067392085,0.5774281759873136,4.056294095407703,0.1578602176556494,0.3089978864889844,0.0379616394553146,0.5486355078786016,0.136935763545234,1.7772443139145877,-150.63332591276975,17.9055780504086,47.78929726106762,0.7481055582159881,0.0446073184388737,0.0303369820799961,0.6806302283546375,1.6800659697376072,1.766416428118172
1.44,-51.49772848729479,62.67711976089696,187.70088180075516,0.1364807186583019,0.6707676073307474,0.0828247687473635,0.4262488544967359,-0.0342674381075312,0.5987695986075634,-37.27039727975375,21.87316818177656,185.56087079322447,-0.1105233632440111,0.8434911730894733,0.003869715259762,0.8081197217883003,0.2481382034826588,0.4869936735847264,-194.47835369510665,0.0987592426868285,4.371860788543272,0.1178634683529134,0.2878115640115725,0.0550366548600479,0.2091672093450018,0.2995500130170085,1.6758913575918284,-149.73389243894044,19.016045844918903,49.18268722706801,0.6760333714817026,0.3311232033174873,0.4908113477633845,0.1286699677771662,1.3060245667182289,0.6124128988716295
1.45,-51.531656074370446,63.74862921739391,187.4091887317074,0.0278953379823586,0.8423481631843194,-0.003674440395388,0.384116239037163,0.0895693265140864,0.6770149152212028,-37.31835622011771,22.69541428179124,185.66224704267933,0.1852916231367075,0.8075918100946344,0.1397814360866985,1.0042329265640566,0.5067483201136505,0.8547039467147084,-194.47772794364516,0.2496216322278568,4.60450802033735,0.4769632621182579,0.1441886744667731,0.2339568535270343,0.1294082203125057,0.2136753606934217,1.5485925189768728,-149.20037777059628,19.713702354979382,49.675084536427576,0.6987295999737162,0.1483932311584516,0.2183796068016689,0.2341671823425825,1.5955455229774382,1.4000184943272695
1.46,-51.82163040190494,64.41500128670462,186.9829400391951,0.031080662705937,0.8133157113292074,-0.0731534805750823,0.7201801478332797,0.2035491909860563,0.5503912337296558,-37.26502713055525,23.886547947047607,185.8616874651829,-0.0114622863217774,1.1662940104898831,-0.0654105722612455,0.9175778596013692,0.4305541112680514,0.9283141805691786,-194.53776317870293,0.3011306607754831,5.096493178143259,0.4350466825984803,0.1518284636777328,0.0585886646595765,0.911869560234474,0.0822927629966327,1.2824493585348498,-148.8877535326164,19.81729107237499,50.49547911338728,0.5683983165610449,0.1690581514790355,0.2410287290076828,0.0345430290023579,0.9311215659105728,1.7486679583545768
1.47,-51.88740235133875,65.339049902248,186.67498859258208,-0.2052097437089719,0.9363366284941947,0.140738510228861,0.6238901994432927,0.3482748678803387,0.3464120931714496,-37.050685053692526,24.923747722198105,185.8825184966605,0.0495638824406058,1.2251577459567429,0.2502871917620486,0.4806506334208776,0.1389254438211278,0.7794512037237418,-194.5395140664271,0.3442309471650531,5.510014811063198,0.3700286951352276,0.1105572576642886,0.0364910433381181,0.7025863399193997,0.5079216955859658,1.3937544651402265,-148.48111354626772,20.129826862825745,51.39732006357322,1.0152523217165743,0.021348900470839,0.1311220292250994,0.8076721805093048,1.0315396052550745,1.6658237225428336
1.48,-51.8129881885839,66.60833546819156,185.9881312340294,0.124767614695527,1.0124322327979365,-0.1009951958672265,0.086603575410653,0.3368336018708301,0.3043501832930368,-36.976991866916656,26.22724630886891,185.94259202476664,0.0448447584442723,1.0284096061505543,0.1846205069746828,0.333218987170905,-0.0030413897359846,0.5182002019811085,-194.37959087527256,0.5602983867532937,5.91227226446276,0.0969147033559464,0.3221544266666993,0.2106834207376579,0.6256621182581558,0.748234902269162,1.4327476878757173,-148.38220700037795,20.738462647477828,52.12542034863505,0.6692371139452018,0.2014361118015365,0.4521529436578375,0.4365829104029264,0.6667223923628416,1.2021564914629514
1.49,-51.9462081331037,67.4426750594628,185.59163781361272,0.0690402741330652,0.9006663150769262,0.0327753028089566,0.3115349472000037,0.1808656694832669,0.5858318388215389,-36.80424583410076,27.50480559944445,186.2512907610708,0.2009403400837248,1.0138900693024189,0.2417412085350624,0.4025122372273763,0.207527469835319,0.2234766702455917,-194.14982440651568,0.9616710530080408,6.011002646512649,0.2165228159321524,0.1740857480232812,0.1272585059359545,0.2503729074257655,0.1400667935274118,1.021227578828785,-147.62196842183056,21.011389081581285,53.03639345266178,0.8228087855436752,0.1150997522175689,0.4326650711139614,0.2034149098697221,0.4156347565746056,1.2598535683058465
1.5,-51.92482112320046,68.70507983940031,185.0723708532191,-0.0474739317397827,0.9235392047995348,0.0331407875440556,0.1888422203671246,0.1618665980411999,0.5816657241726348,-36.82681024204885,28.628270250570797,186.1148860779712,0.1272530312805629,1.06465049006416,0.1954486402489064,0.5991346054031338,0.4127787964450635,0.4142381358845873,-194.06579917066355,0.8825985369217025,6.421653277866056,0.4589501110288987,0.165260191485762,0.1665771157265346,0.255803937921934,-0.1684553659312193,1.0033716307637124,-146.9906946612007,21.75855351918897,53.85068181396996,0.7121576819770188,0.3311307185620555,0.3711309235387126,0.403186694796537,0.3308341650935755,1.1203423879975447
1.51,-51.8334728879749,69.68916024155928,184.51093775171745,-0.0680503790439805,0.8323297180639166,0.0301495672265383,0.1891470704678351,0.068038386550314,0.5253144700506409,-36.6291318090173,29.819861975349077,186.3088539621153,0.0604998526704869,1.0237239029909926,0.0684195202028433,1.0158382733962856,0.652684339833929,0.1615422722076933,-193.78946453838017,1.3182976722621518,6.707005111521622,0.3000750584104704,0.2202102867659234,0.1440899902263718,0.3541491066422456,-0.0146623981670959,0.4520127610565197,-146.2457327982011,22.23101533410872,54.83203333650464,0.9344766475508992,0.091206975440126,0.4696371159159953,0.4629132966363741,0.0026529214795164,1.0895279414462138
1.52,-52.04563165987419,70.64480974797155,183.9548098985541,0.2113902875882391,0.9249507449073106,-0.20677800921986,0.054033211702202,0.2467415854388865,0.2709627974804523,-36.66407564175546,31.107029784174262,186.55695447730432,0.1242451634262955,1.1220904903952835,0.1221087604416081,0.6243407753522222,0.3167342315541016,0.06148080806727,-193.66990898010695,1.8434445371550248,7.201666726980534,0.3849927533587898,0.3538020228195681,0.1542610397292719,0.1525803638369248,-0.0043759783314293,0.1464055812295675,-145.61520628606254,22.90606279059262,55.638299473182855,0.7465507831328937,0.255020967406269,0.2062481122462107,0.0333917148911908,0.456254675058673,0.1904851749780446
1.53,-51.75350682411128,71.60475488830998,183.3645699865316,0.248005337132465,0.6369372105148947,-0.0077749848429865,0.155190936020955,0.0430153689638189,0.4601223411405574,-36.50993052467118,32.688569989944384,186.5829703508026,0.0213432726016931,1.2997925675686548,0.151471865246513,0.4713796553263032,0.25258033501611,0.1491465284321085,-193.30889251279385,2.0559520838666385,7.631306871850689,0.3750534727328884,0.3070331723670149,0.0822934928543327,0.1157687841595872,0.0394124216254657,0.2024864655095889,-145.3260574420449,23.195027543285303,56.38767784196303,0.6254753503767735,0.0866783593001754,0.466378851994781,0.3618117729514848,0.492041855588581,0.2855708553140585
1.54,-52.0203004267584,72.49048208920925,182.65759219169763,-0.2089743725987732,0.8056894977195453,0.0802820506930568,0.0811967438736543,-0.0871095308096364,0.4735010357730689,-36.43819867644503,33.37186737975166,186.39985365965063,0.0206309433642821,1.179627022433852,0.2383267204610621,0.1649473979069226,0.1456241440409144,0.1110363135578271,-193.14791998782303,2.1901276613051186,8.020938833644191,0.2183001073192427,0.2583438322882762,0.2976114120299203,1.5338060900068566,0.2220227685755763,0.1461957711262541,-144.79106525344008,23.541728479059223,57.46491905232048,1.0574449895608655,0.0860792356839244,0.3941925665068975,0.5521820291708467,0.2458476090523511,0.4457928818146534
1.55,-51.90556882705565,72.97212903929803,182.3332498823016,0.1533967988912968,0.9724912736579692,0.0211793829728627,0.1652504450156607,-0.0641538167864091,0.4440760723170689,-36.45885233195856,34.746659365080745,186.8504763074152,-0.0541959943084681,1.1243081779833903,-0.0001018335320424,0.3409856560170635,0.3774640960079556,0.3549363774876748,-192.9156072983153,2.7145415882565582,8.415665984344948,0.5570687545577782,0.3095666967426881,0.1087372337282757,1.2600625600821491,0.4160855365914334,0.2630011136842731,-144.09495715776671,24.159996838629517,58.08027768947115,0.7353726082658857,0.2023993196205793,0.3136866738169039,0.8967510255653971,0.1250924579651149,0.1587057358638396
1.56,-51.821806879950906,73.71289410662509,181.3113718259584,0.0074431532342854,0.839490113992148,0.158195488792899,0.2514735046887363,0.2793925171031566,0.5326611192134032,-36.094378986364575,36.506726634576935,186.7154714271831,0.0717304395123262,1.458937998709558,0.2713037121846202,0.3463134735324431,0.3669354987568407,0.3353057284656582,-192.46823050148808,2.9995090549980383,8.917396469808795,0.3888068925702166,0.2970768457180461,0.3218770026774892,0.1257879419004845,0.9598073586896994,0.2191414271481911,-143.7393761145511,24.410582314174,59.13817555160779,0.7319429255417921,0.4563565099080888,0.32950758407891,0.2391994395102788,0.8833965290537984,0.6838495315851053
1.57,-52.11758157950492,75.66709490371893,179.45109222065992,0.1999462613072743,0.777852895900903,0.0185136718724594,0.2947247562468978,-0.0213515209838769,0.2234653023551205,-35.960040134947455,39.065903200868746,187.1270220911826,0.0913226044186032,1.4096832472542005,0.2076410182152258,0.3574264194172205,0.0094477195822652,-0.0778710442671766,-191.84721411698095,3.463668548804054,9.46442331338136,0.5331784820725096,0.1655582093525854,0.0999666411558928,0.4239713150409488,0.4109443513014549,0.3971381917674038,-142.86360787523464,25.81270471547777,61.10402672075461,1.0518994774820292,0.3687787224852646,0.4812669750711716,0.3072953305295214,0.3189853673112205,0.3982664022068745
1.58,-52.08556409746579,76.55495746686444,178.08534059079562,0.2297421129169518,0.735730543853595,0.0492807832075065,0.1510128827633131,-0.0543913563432493,0.4913355664442199,-35.95878276945133,40.43434404278353,187.15398128897056,0.0929683895264602,1.446989565757065,0.2868782172109684,0.0721688145264874,0.1065473360375048,0.2136738244908168,-192.11184448204324,3.75812701808573,10.17424714054364,0.6970402577492247,0.3619957974689535,0.0022717602482016,0.3026541557917237,0.1134113895110952,0.4956022905326162,-142.49913206375425,25.966623495609813,62.340312863241806,0.7873663233590079,0.3655355006081088,0.0177942952630554,0.6334826277578041,0.597082110780206,0.0479090396651001
1.59,-52.14004073009069,77.47783496687124,176.86172681190592,0.0094494292862508,0.7468091322176948,-0.0325255013550659,0.2562487657303796,-0.042910792435143,0.3020710986085165,-35.747401948706674,42.1217173312401,187.6557067387794,0.0723008012616174,1.2812879792703589,0.2242763168841235,0.4628944537333715,0.2735296036290007,0.3385349457217932,-191.90172014597263,4.278679931183347,10.648253173678205,0.3753794303120655,0.15230002803989,-0.0387421828918652,0.4663814221023731,-0.0149127718915106,0.5984837183389179,-142.323609724252,26.389451847814364,63.55529357702549,0.9506423042364552,0.3647128309323011,0.0811793341396303,0.2127940898689883,0.5391466256443453,0.2189154425126529
1.6,-52.36428144936933,78.01728750553835,175.7296002775927,-0.076975647261912,0.7402478399704746,0.1964775436293141,0.2532595612005792,0.2284591046090549,0.1050753178411512,-35.41027453796534,43.65724603731245,187.6399241267848,0.0024824595562072,1.399015371804162,0.367666790439154,0.2411317116838202,0.2413307107869743,0.3818148379601037,-191.82779936459656,4.425734943099514,11.230508590074072,0.5988132125322769,0.0466892743060773,0.0776297280204307,0.7708652937820933,0.013966322024086,0.4222347122637375,-142.3540802141957,26.54407786297869,64.72820298376887,0.9139155164201912,0.4084226840652337,-0.0368201706408515,0.2261180777825855,0.762747122428586,0.0718928448549045
1.61,-52.46490903609768,78.96926160531629,174.3148260017881,0.1739165682078077,0.9684608010562276,-0.1642505879930774,0.4098321006717217,0.3034368134942692,-0.0107751511980464,-31.56350785242554,44.94228492362473,187.88558542576544,0.2797269097987589,1.3668759779771444,0.1154270656805458,0.0548405515300389,0.2154288392658651,0.7155775501960852,-191.9067598273606,4.670918602911861,11.619562565167012,0.4258828284221969,0.2024251972016592,-0.1753730127633483,0.617987147969104,0.0934981861509962,0.4694200797514002,-141.90618764379764,26.897770147261244,65.90783508884493,0.9712974098280812,0.4810627110379891,0.1065313633970757,0.0768062252684341,0.6689087262550909,0.102831356628039
1.62,-52.68893189648424,79.75427388751953,172.3639835370188,0.0638607723866514,0.9501257504102004,-0.0703191223696761,0.1609869793188925,0.4176343951841686,0.0109217530826577,-32.16713491869235,46.55985943901069,188.1052400834192,0.0674037147529243,1.5217621979554212,0.1189328496331005,0.0161184076194172,0.0928469517071479,0.1349660242731861,-191.78746594741764,4.707936768812182,12.48203188124574,0.5111311133483523,0.1455426648268097,-0.0216825078115951,0.2200729342061896,0.1956100666301835,0.6391580672464111,-141.80979506606835,27.20488672865221,67.16107915071541,1.0551712107117757,0.5169723179050101,0.0846801727537946,0.5452113028849965,0.675514733849399,-0.0419859836799589
1.63,-52.754640179784,80.46341885935857,170.0782780761919,0.3491585984991662,0.9202676305846096,0.1443074161521655,0.9372932543254195,0.3896834205889845,-0.0560829976660003,-32.3777806465927,48.06520150081359,188.34280085557444,0.1389146707106237,1.2730492797529296,0.1781883767673489,0.3027864786243276,0.0850945586500307,0.3419758237758261,-191.9978792641054,4.967515545607293,12.83531631917956,0.5269825315487928,0.1492125732813434,-0.0384305887087133,0.3867061397832781,0.3177376701321008,0.7073100399083109,-141.62682791984446,27.52400154295871,68.61143704213654,0.9183879217860834,0.4324836472475075,-0.0267703338479828,0.3694073585536234,0.2300967647712936,0.3369220513575186
1.64,-52.98021514930439,81.20968079617442,167.78678131081114,0.0839738244344596,0.8985291057223229,-0.0839325639930622,0.4499415130759623,0.4667036087517783,0.1707277926837681,-32.86186008718278,49.54825104334738,188.4887580837695,0.2966463839789811,1.4018248165456644,0.0515019853668378,0.1705610375463537,0.2901858229678082,0.1545148155097273,-191.94621470853585,5.105747038061588,13.735898060102032,0.658781993448286,0.5108327564381143,0.2205358912895393,0.6577805115007115,0.0637578230918645,1.1658602558614268,-141.67773310830398,27.544917161897175,70.02828820485433,0.9880635168079872,0.5259782562939074,0.0481925829440559,0.0679013173381569,0.5775239511689965,0.197027183913575
1.65,-53.13986794192683,81.84757916944264,165.41066727117558,0.0787762303291994,0.6516827303379928,-0.0392023947920945,0.3268015777464261,0.2085675989808276,0.2048740713724659,-33.323001037648666,51.138504850714,188.62279782822148,0.1043507462530311,1.2966379582692331,0.3200698955364888,0.2390134552254855,0.093100044588941,0.1597302050098685,-192.0291062213513,5.216053524975202,14.31893600985458,0.667525846550982,0.0060144439622974,-0.0313475030048314,0.0903062407348187,0.4328072981232859,1.182712488780206,-141.76762405129213,27.68649136493047,71.18643288274598,0.9445759217347658,0.831112399611403,0.372699456799162,0.2693591348045332,0.2148702606952626,0.0599404522716389
1.66,-53.03327401060015,82.23158033709332,162.78322394430006,0.1538750353659632,0.4860205863131347,-0.1441191276672849,0.3493247032083311,0.4003470953872651,-0.0463453286755818,-34.00634157671505,52.44434042013706,189.22378877918075,0.2312994277278507,1.4720578704606693,0.3226280925203797,0.3175647023158048,0.090825545107791,-0.0284605569340648,-192.0321101286977,5.569173902622371,14.909831689482276,0.5676623052129952,0.3213133308709509,-0.1018778762081532,-0.02136595557602,0.5112140391898452,0.7916327650220639,-141.36872702186412,28.45532056323743,72.82821610525028,1.1063108165198257,0.613058507608339,0.2565835125877926,0.0375973719073875,0.284239219326781,0.4801483014574207
1.67,-53.38781474979093,82.8682001052191,159.70998833162602,0.1291393501466411,0.7666953118300647,0.1199197078374358,1.0255074429334157,-0.0894061947548437,-0.137066545694685,-34.72347166871022,53.97988237620052,189.26624342425552,0.0821388104166505,1.3499532094164433,0.1600656787869521,0.119477523837653,0.1332786287499172,0.0446223073358712,-192.2603041513139,5.767930750272291,15.91445292703516,0.8850647057585418,0.4255048771766931,0.2056782800842521,0.7805406757962954,0.2202961576024206,0.6472722361756902,-141.07073324000237,28.98471037046543,74.52308267224953,1.1078916336422309,0.82311349924552,0.0418409017445229,0.1018759240231567,0.4700939776578411,0.5596273525774101
1.68,-53.46371761309935,83.32139310914042,159.55092816122547,0.1311229729916189,0.6035845728571778,0.1078279085002774,0.6845140323845698,0.3453993489803277,0.125428828359291,-35.12332741250757,55.57466773953844,189.74858540783177,0.2451370796443777,1.4235769947716868,0.0745312500163703,0.3705013988292568,0.0756078581883695,0.040318371700152,-192.71274862326212,6.088678448542349,17.056988987360825,0.983694212990916,0.3553053573677786,0.2887659006541803,0.3346723030085995,0.2616822481854636,0.9690865995854504,-141.219658865164,29.06855517886588,76.43051928990461,1.1522308300720294,0.8065176654510087,0.1967478497288179,0.1966103723570999,0.6040773695586094,0.3738595935506935
1.69,-53.65815543039299,83.89070907803254,159.30882567188405,0.1216233043309857,0.6911091722608673,0.0321480174136008,0.1808075211726606,0.2747860130179623,0.1968488191399774,-35.6535248140299,56.85574346844345,189.36495940442103,0.2155633218953192,1.2513457146069638,0.146869529798597,0.4752638403998528,0.0323164980971046,0.0936241329480323,-192.82341549467856,6.341339938974329,17.91465787092336,0.9993303088214114,0.503286620648254,0.2927051007591454,0.0780972370613337,0.0352018608710263,1.211709013674507,-141.10315178234842,29.603823625989502,78.28651036460018,1.16214043253291,0.9155199258114852,0.0892508071683098,0.5323158047797435,0.6574252775576221,0.2728112411542264
1.7,-53.91459995367626,84.48980867470453,159.22590076234724,-0.0743451912125965,0.3980741530541802,0.0911889039167845,0.3654592594203222,0.3023643098559829,0.4859732737773157,-36.20266961410581,59.84280278944696,188.61480196752655,0.2552606035177563,1.2624033956466032,0.0508938154991443,0.4225423574272594,0.0969274618103615,0.0319255347973011,-193.5796733268116,6.732602790585579,20.38070837176216,0.9002659143334223,0.3436810474448855,0.3417202600718799,0.1128368170684789,0.1717236129083817,1.2261088861865996,-140.8630985759657,30.506067181653115,81.96451619879633,1.0770444567355155,0.7938392933311245,0.1693361899965959,0.1171482918418742,0.7158575264535965,0.2779317605811615
1.71,-54.09426924659256,84.74963777183707,159.30951406246936,0.0103400243321157,0.4718224787235903,-0.008016672800581,0.5131014092757324,0.2596132409535628,0.2676789959766895,-36.44618242291422,61.29244781170549,188.0322935559673,0.1012518167174362,1.3233523741757889,0.0647771458698618,0.4096277580223401,-0.1183345200558004,0.0297398802067033,-193.76500047474568,7.205773272794153,21.423147179459708,0.9858954493998824,0.3476407758796643,0.1489494810480657,0.012444718981999,0.374029363719935,1.2111537990078085,-140.41748043146953,30.899438692863765,83.69071505973123,1.2145139011677255,0.8914277162304433,0.3211877712027089,0.0543081138120245,0.6890605783943716,0.647411567817234
1.72,-54.113735196185125,85.01656069716977,159.22999576131596,-0.167750972075065,0.6626561985458346,-0.0749753727557143,0.4574895172581339,0.1257821839629976,0.5813822263165324,-36.87968107400136,62.82132223747688,187.4390805917624,0.1956132584810863,1.1751495941811043,0.2114649290207142,0.4853184116002273,0.1109547376727874,0.1205158894422587,-194.1523903316659,7.280623399396517,22.895801028306977,1.010313643143924,0.2257275061063068,0.3200054019478635,0.4551980177766452,0.5881211930680789,0.8566425560426845,-140.44278234481473,31.262525813147796,85.38851749298233,1.3623302616962696,0.7141555895644336,0.117897480214742,0.3936624435517946,0.1898643965485568,0.1151723288519609
1.73,-53.99269587031957,85.1497169027536,159.34883910685917,-0.0316499086192608,0.3191454296664467,0.1100337936302313,0.3711327519828487,0.1527865135708117,0.3649798446639316,-37.29356856148861,64.1003604715195,186.86472187888708,0.1897650444272653,1.2872410893673816,0.218181687421482,0.7433785325020458,0.1927116711822038,0.3300970912236975,-194.22438316647083,7.646241980653713,24.183429007872277,1.11618480396399,0.2811777732372786,0.0559536745709279,0.2797479794306703,0.6978951697182265,0.6738994877776082,-140.38263604090966,31.179521406222776,87.42772133863652,1.2477478681702,1.0255663975830256,0.1813755815360163,0.0596943085012259,0.4296272725980876,0.0544259671897469
1.74,-53.992806396777056,85.41856513471869,159.3116233705081,-0.2294799880774102,0.4391655790859628,0.100222073432325,0.3611677853612504,0.150911182139035,0.4552716660377024,-37.58629543718946,65.53261073595044,186.33498753923564,0.2074430739475559,1.203967387196874,0.0617043311563331,0.6739938456956384,0.1708176262255729,0.1015385978992374,-194.54284350878365,7.751100510468357,25.31913690691724,1.1944965494532558,0.3370016654155892,0.136108087635082,0.0912633037261517,0.2427447073491259,0.3815234097009313,-140.32877116888147,31.47646220285955,89.273458312397,1.33795594392724,0.7238737706750771,0.2578041557605621,0.5728182584356145,0.5558444539849586,0.7317643182076635
1.75,-54.090170984065296,85.25353956528848,159.24713102059104,-0.0153968624814183,0.4402642487351471,0.0243137666468689,0.4065223340643663,-0.0214183563093092,0.6765708369564019,-37.83353697146444,66.84515021291406,185.8435338429869,0.0651901725632494,1.283328986541211,-0.0080802445354432,0.3340044816069896,-0.1030182234283132,0.2401071702380898,-194.4751235364835,8.036271668858385,26.673309409550907,1.2370235948825383,0.366426857747446,0.1855671294555599,0.4204454004246601,0.4551720999281707,0.0057133935755825,-139.5669434240713,32.16308995835686,91.55432786597106,1.2197662895649968,0.7765265962444272,0.5574039340384932,-0.019067084941874,1.21606867185245,0.9251271542415628
