0.01,-120.76,75.5,176.02,0.08,0.01,-0.09,0.06,0.2,0.19,-128.05,83.16,50.5,-0.03,0.18,0.03,0.16,-0.09,0.12,-170.77,5.71,1.8,0.39,0.15,0.17,-0.03,3.5,2.61,-167.77,11.39,20.28,0.34,0.09,0.13,0.08,0.07,0.16
0.02,-120.74,75.66,176.1,0.06,-0.06,0.09,0.03,-0.03,0.17,-127.89,83.27,50.64,0.14,-0.04,0.25,0.01,0.07,0.06,-171.18,5.77,2.13,0.17,0.11,0.31,0.03,0.26,0.43,-167.72,11.7,20.4,0.08,0.04,-0.06,0.07,-0.08,-0.1
0.03,-120.91,75.51,176.11,0.01,0.07,0.02,0.09,0.02,0.04,-128.03,83.16,50.48,0.09,0.06,0.04,-0.05,0.11,0.01,-171.02,5.79,2.16,-0.04,0.14,0.17,0.17,0.43,0.51,-167.79,11.38,20.51,0.02,0.07,-0.08,0.03,0.1,0.09
0.04,-120.94,75.72,175.8,0.05,-0.1,-0.03,0.13,0.09,0.28,-127.9,83.22,50.44,0.01,0.17,-0.03,0.14,0.26,0.35,-171.15,5.81,2.08,0.07,0.23,0.23,0.16,0.73,0.34,-167.97,11.64,20.45,0.12,0.14,-0.1,0.08,0.21,0.01
0.05,-120.67,75.65,175.98,-0.03,-0.02,-0.05,0.31,0.2,0.07,-127.99,83.41,50.53,0.03,0.08,-0.01,0.0,0.28,0.16,-171.39,5.77,1.98,-0.08,0.19,0.27,0.76,1.68,0.29,-167.89,11.57,20.35,0.05,-0.13,0.05,0.17,-0.0,0.13
0.06,-120.76,75.51,175.94,-0.08,0.09,-0.03,0.12,0.18,0.13,-127.96,83.31,50.49,0.01,0.23,0.02,-0.02,0.02,0.09,-171.58,6.05,2.07,0.14,-0.29,0.41,0.94,0.97,-0.07,-167.98,11.45,20.38,0.13,-0.1,0.03,0.14,0.07,-0.08
0.07,-120.85,75.64,175.95,-0.04,0.2,-0.16,0.1,-0.04,0.24,-127.99,83.18,50.35,0.14,-0.04,0.08,0.31,0.04,0.18,-172.06,5.75,2.24,0.29,0.33,0.07,0.69,2.81,0.88,-168.01,11.57,20.53,-0.16,-0.16,-0.07,-0.01,0.08,0.07
0.08,-120.88,75.3,175.76,0.11,0.14,-0.13,0.19,0.18,0.41,-128.2,83.16,50.35,0.05,0.1,-0.12,0.2,0.13,0.14,-171.76,5.81,2.59,0.26,-0.01,0.22,0.68,1.38,0.15,-167.78,11.57,20.33,0.05,-0.11,-0.12,0.1,0.21,0.24
0.09,-120.95,75.3,175.68,-0.03,0.17,-0.0,0.35,-0.02,0.9,-128.16,83.18,50.42,-0.03,0.32,0.07,0.04,0.35,0.13,-171.44,5.78,2.71,0.11,-0.1,0.23,0.08,2.65,0.51,-167.94,11.68,20.33,0.01,0.1,-0.09,0.11,0.29,0.27
0.1,-121.3,75.17,175.87,0.17,0.02,0.09,0.05,0.29,0.98,-128.26,83.15,50.3,0.01,0.69,0.2,1.05,0.02,0.88,-171.21,6.24,2.62,0.13,0.13,0.29,0.14,2.2,1.23,-167.71,11.63,20.48,-0.04,0.1,0.06,0.05,0.05,0.15
0.11,-121.41,75.1,175.58,0.11,0.18,-0.08,0.31,0.59,0.66,-128.29,82.69,46.27,0.06,0.39,0.15,0.36,0.25,0.85,-171.67,6.02,2.88,-0.01,-0.07,0.46,0.12,1.23,0.85,-167.96,11.42,20.43,-0.05,-0.01,0.01,0.04,0.1,0.25
0.12,-121.26,75.15,175.69,0.04,-0.1,0.06,0.27,0.28,0.88,-128.59,82.8,45.61,0.05,0.08,0.08,0.01,0.19,0.75,-172.13,6.06,2.77,-0.05,-0.04,0.47,0.23,0.2,0.36,-167.87,11.65,20.45,0.12,0.03,-0.12,0.09,0.12,-0.1
0.13,-121.26,75.12,175.58,-0.05,0.16,-0.01,0.16,0.02,0.87,-128.71,83.13,46.19,0.12,0.02,0.16,0.31,0.11,0.46,-172.02,6.1,3.06,0.19,-0.0,0.18,0.48,0.36,0.56,-167.72,11.32,20.4,-0.21,0.03,-0.03,-0.16,0.19,-0.0
0.14,-121.44,75.08,175.71,0.08,0.2,0.03,0.21,0.1,1.18,-128.87,83.1,46.32,0.07,0.28,0.07,-0.09,0.28,0.61,-171.86,6.19,3.33,0.18,-0.09,-0.0,0.44,1.23,1.35,-167.88,11.47,20.42,-0.24,0.08,0.02,0.25,-0.05,-0.18
0.15,-121.37,74.93,175.57,-0.06,0.14,0.03,0.38,0.11,1.4,-128.99,83.53,46.27,-0.11,0.26,0.05,0.43,0.08,0.29,-171.67,6.25,3.46,0.02,0.07,0.08,0.5,2.52,2.43,-167.84,11.57,20.56,-0.11,-0.13,-0.08,0.05,0.15,0.03
0.16,-121.02,75.05,175.95,0.23,0.04,-0.1,0.65,0.23,1.49,-129.11,84.52,45.94,-0.1,0.65,0.01,0.13,-0.06,0.58,-172.65,6.46,3.81,-0.1,-0.04,0.6,0.11,-0.01,1.7,-167.91,11.66,20.42,-0.05,-0.03,0.06,-0.05,0.11,-0.1
0.17,-121.23,75.28,175.8,-0.03,0.2,-0.12,0.76,0.55,1.6,-129.28,84.91,46.04,-0.07,0.64,0.25,0.51,-0.15,0.86,-173.03,6.18,4.22,0.14,0.23,0.21,0.5,0.11,1.75,-167.95,11.52,20.51,-0.08,-0.0,-0.04,0.3,0.14,0.01
0.18,-120.96,74.99,176.03,0.03,0.18,0.06,0.29,0.38,1.8,-129.42,85.34,45.96,0.02,0.83,0.23,0.62,0.22,0.8,-173.0,6.07,4.46,0.35,0.15,0.06,0.96,1.1,2.33,-167.73,11.44,20.17,-0.04,0.02,-0.03,-0.07,0.05,0.14
0.19,-120.94,74.88,176.23,-0.17,-0.02,0.02,0.35,0.49,1.32,-129.39,85.87,45.82,0.04,0.95,-0.03,0.69,0.51,0.82,-173.11,6.23,4.57,0.26,0.21,0.02,0.47,2.61,1.38,-167.84,11.43,20.42,0.06,-0.23,0.09,0.03,0.02,0.17
0.2,-121.1,74.78,176.58,0.01,-0.13,0.17,1.09,0.26,1.24,-129.19,85.8,45.94,0.03,1.25,0.18,0.6,0.43,0.63,-173.21,6.36,5.02,0.38,0.18,0.21,0.67,0.29,1.53,-167.82,11.44,20.6,-0.17,-0.0,-0.04,0.07,-0.09,0.19
0.21,-120.93,74.78,176.74,0.11,0.4,-0.05,1.75,0.18,0.97,-129.11,85.38,45.74,0.06,1.43,-0.06,0.53,0.17,0.37,-173.67,6.43,4.91,0.23,0.16,0.04,0.75,0.43,1.54,-167.73,11.64,20.6,-0.12,0.02,0.04,-0.02,0.16,0.07
0.22,-121.26,74.27,177.05,0.09,0.74,0.13,2.25,0.24,0.51,-129.23,84.46,45.97,0.09,1.37,0.11,0.71,0.3,0.02,-173.55,6.54,5.35,0.31,0.22,0.11,0.65,0.92,1.42,-167.65,11.51,20.46,0.13,0.22,0.17,0.09,0.22,0.12
0.23,-120.99,73.53,177.13,0.25,0.88,-0.03,2.91,0.02,0.34,-129.29,83.26,45.9,0.03,1.51,-0.09,1.0,0.36,0.49,-174.27,6.74,5.48,0.22,0.38,0.51,1.06,1.12,2.36,-167.89,11.42,20.49,-0.0,0.03,-0.09,0.11,-0.03,-0.09
0.24,-121.22,72.16,177.32,0.18,1.51,-0.05,2.06,0.23,0.23,-129.29,82.61,45.93,0.04,1.6,-0.08,0.93,0.13,0.69,-174.99,6.61,5.67,0.15,0.09,0.52,0.24,0.53,2.1,-167.85,11.54,20.42,0.3,0.01,0.01,-0.23,-0.07,0.02
0.25,-121.82,70.35,177.49,0.03,1.92,0.15,0.89,0.06,0.61,-129.33,81.13,46.0,0.04,1.69,0.01,0.73,-0.02,0.13,-175.5,6.67,5.76,0.16,0.01,0.46,0.41,1.57,1.14,-167.84,11.56,20.52,0.0,0.14,0.01,-0.01,0.25,0.17
0.26,-121.97,68.28,177.13,-0.04,1.57,0.14,0.67,0.33,0.59,-129.06,79.08,50.45,0.04,1.84,0.18,1.14,0.06,0.28,-175.56,6.7,5.44,0.1,0.06,0.1,0.39,1.55,0.27,-167.97,11.44,20.38,-0.01,-0.02,-0.01,0.05,0.09,0.06
0.27,-122.22,66.47,177.15,0.16,1.74,0.01,0.56,0.22,0.41,-128.85,77.42,53.49,0.39,1.96,0.23,1.4,0.05,0.21,-175.51,6.9,5.65,0.15,0.15,0.24,-0.02,0.22,0.63,-167.91,11.32,20.37,0.1,-0.02,-0.01,0.23,0.22,0.05
0.28,-122.81,64.6,176.75,-0.0,1.77,0.2,0.35,0.3,0.46,-128.94,75.35,55.73,0.15,1.89,0.18,1.41,0.0,0.24,-175.59,6.76,6.02,0.03,-0.1,0.29,0.72,0.78,3.01,-167.76,11.53,20.42,-0.04,0.01,0.08,-0.04,-0.09,0.04
0.29,-122.79,62.6,176.62,-0.03,1.93,0.21,0.15,0.39,0.81,-128.81,73.21,57.36,0.07,1.86,-0.09,1.45,0.34,0.16,-175.66,6.83,5.96,0.2,-0.13,0.33,0.39,0.23,0.37,-167.82,11.33,20.44,-0.07,-0.02,0.09,-0.08,0.04,0.19
0.3,-122.98,60.6,177.1,0.04,1.49,0.04,0.11,0.07,0.38,-128.56,71.22,58.69,-0.06,1.93,0.33,0.9,0.41,0.08,-175.71,7.03,5.94,0.3,0.21,0.11,0.76,0.09,1.67,-167.87,11.55,20.27,-0.05,0.16,-0.09,0.02,0.07,0.14
0.31,-123.41,57.46,176.98,0.06,1.35,0.17,0.63,0.81,-0.06,-127.95,67.13,61.18,0.16,1.47,0.01,0.61,0.91,0.17,-176.2,6.94,5.83,0.11,0.18,0.06,0.95,1.53,1.74,-167.8,11.55,20.49,0.22,0.01,0.0,0.02,0.06,0.18
0.32,-123.85,55.85,176.74,0.24,1.67,-0.12,0.49,0.16,0.29,-128.27,65.52,62.24,-0.06,1.63,-0.04,1.07,0.73,0.04,-176.09,7.17,5.46,0.26,0.05,-0.0,1.01,0.49,0.37,-167.83,11.63,20.43,0.01,-0.03,-0.05,0.08,0.29,0.22
0.33,-124.48,54.13,176.69,0.15,1.65,0.04,0.83,0.49,0.59,-128.32,63.45,63.29,0.17,1.5,0.01,0.81,0.24,0.29,-176.49,6.99,4.91,0.54,-0.03,0.08,0.38,0.18,2.03,-168.03,11.55,20.47,0.01,0.08,0.01,-0.01,0.13,0.1
0.34,-124.75,52.62,176.5,0.26,1.44,0.08,1.29,0.38,0.85,-128.61,61.91,64.16,0.16,1.91,0.08,1.32,0.08,0.77,-176.63,7.05,4.77,0.42,0.05,-0.04,1.24,0.83,0.48,-167.9,11.49,20.38,0.02,-0.06,0.09,0.18,0.16,0.17
0.35,-125.24,51.29,176.73,0.09,1.04,0.12,1.28,0.74,0.83,-128.68,59.5,64.98,0.06,1.77,0.23,0.06,0.15,0.4,-176.66,7.14,4.45,0.07,0.1,0.06,0.42,1.18,0.43,-167.78,11.34,20.35,-0.08,-0.02,-0.05,0.15,-0.02,-0.03
0.36,-125.49,50.36,176.59,0.28,1.02,-0.01,1.01,0.58,0.17,-128.69,58.01,65.5,0.24,1.55,0.0,0.28,0.26,0.48,-176.76,7.28,4.08,0.12,-0.05,0.17,0.6,1.56,0.02,-167.67,11.53,20.28,0.02,0.07,0.11,0.23,0.13,0.06
0.37,-125.95,49.18,176.69,0.11,0.9,0.06,0.86,0.63,0.59,-128.64,56.64,65.92,0.04,1.17,0.18,0.62,0.39,0.44,-176.82,7.33,3.91,0.26,-0.05,0.34,0.85,0.57,0.41,-167.75,11.68,20.45,0.09,-0.18,-0.06,0.03,-0.15,0.2
0.38,-126.1,47.95,176.69,0.1,1.13,-0.02,1.3,1.09,0.66,-128.98,55.65,66.51,0.17,1.42,0.03,0.01,0.1,0.37,-177.4,7.28,3.61,0.56,0.12,0.43,0.18,0.37,0.16,-167.95,11.71,20.52,0.2,0.12,-0.11,0.44,0.22,0.15
0.39,-126.29,46.7,176.41,-0.03,1.22,0.33,0.89,1.4,0.89,-129.25,53.96,67.05,0.28,1.4,0.23,0.55,0.34,0.56,-177.66,7.16,3.19,0.63,-0.01,0.33,0.28,0.13,0.97,-167.84,11.54,20.67,-0.0,0.19,-0.08,0.26,0.13,0.06
0.4,-126.09,45.54,176.6,0.06,1.17,0.05,-0.08,0.18,0.59,-129.12,52.03,67.23,0.11,1.61,0.16,0.74,0.52,1.5,-177.96,7.04,2.87,0.48,0.05,0.29,0.37,0.25,0.49,-167.85,11.39,20.69,0.18,0.06,0.19,0.16,0.27,0.17
0.41,-126.2,44.21,176.84,-0.08,1.34,0.04,1.76,0.62,0.48,-128.68,50.42,67.8,-0.01,1.38,0.07,-0.15,0.35,1.22,-178.33,7.04,2.41,0.27,-0.14,0.28,0.49,0.3,0.21,-167.57,11.37,20.61,0.13,-0.03,0.16,0.2,0.48,0.48
0.42,-126.21,42.62,177.37,0.12,1.4,0.14,1.96,0.81,0.25,-128.79,48.89,68.02,0.04,1.39,0.04,0.4,0.04,0.46,-178.78,7.09,2.26,0.2,-0.03,0.29,0.05,0.16,0.5,-167.6,11.56,20.7,-0.02,0.05,0.05,-0.03,0.61,0.34
0.43,-126.45,41.21,177.43,0.08,1.08,0.09,0.55,0.38,0.62,-128.83,47.96,68.47,0.34,0.94,-0.01,0.34,0.2,0.93,-179.17,6.94,1.69,0.37,-0.07,0.3,0.14,0.1,1.17,-167.28,11.42,21.01,0.16,0.3,0.18,0.35,0.76,0.41
0.44,-126.31,40.61,177.84,0.26,0.85,0.01,0.31,0.24,0.6,-129.63,47.11,68.98,0.3,0.72,-0.01,0.19,-0.12,1.32,-179.31,7.16,1.34,0.49,0.17,0.25,0.56,0.34,1.05,-166.92,11.33,20.98,0.17,0.28,0.26,0.34,1.3,0.8
0.45,-126.22,39.84,178.28,0.5,0.4,0.27,0.8,0.07,1.1,-129.84,45.99,69.0,-0.02,0.66,0.03,0.42,0.12,-0.02,-179.76,6.73,0.77,0.51,0.26,0.73,0.18,0.16,0.14,-166.48,11.26,21.34,0.22,0.3,0.29,0.14,1.34,0.64
0.46,-126.01,39.68,178.87,0.15,1.65,0.15,2.93,0.1,2.07,-133.52,43.41,69.38,0.07,1.34,-0.03,0.64,0.07,0.54,-180.41,6.4,0.21,0.09,-0.07,0.1,0.42,0.28,1.07,-165.18,10.95,21.31,0.06,0.28,0.46,0.14,1.2,0.51
0.47,-126.07,42.14,179.73,0.46,2.32,0.05,1.7,0.36,0.71,-137.57,42.2,69.43,-0.19,0.91,0.04,1.18,0.06,0.01,-180.81,6.41,0.72,0.53,0.1,0.71,0.89,0.27,1.01,-164.26,11.33,21.6,0.39,0.2,0.75,0.2,0.53,0.79
0.48,-126.26,44.11,179.57,0.45,1.45,0.27,1.38,0.47,0.62,-137.41,41.5,69.5,0.28,0.67,0.1,0.93,0.15,0.95,-181.37,5.96,1.6,0.65,0.47,0.38,0.82,0.71,0.34,-163.5,11.13,21.32,0.15,0.26,0.79,0.46,0.32,0.65
0.49,-124.09,45.77,178.66,0.73,1.47,0.16,-0.09,0.04,0.33,-137.52,40.87,69.84,-0.08,0.44,0.0,0.03,0.69,1.13,-181.9,5.64,2.1,0.81,0.25,0.26,0.44,0.75,0.73,-166.0,7.98,21.41,0.88,0.39,0.47,0.81,0.32,0.71
0.5,-122.1,47.47,177.7,0.82,1.94,0.49,0.46,-0.11,0.73,-137.41,40.49,69.93,0.11,0.5,0.17,0.03,0.3,0.16,-182.12,5.52,2.95,0.64,0.43,0.2,0.11,0.53,0.97,-168.5,5.07,42.88,1.51,0.29,0.2,1.54,0.22,0.17
0.51,-120.32,50.19,176.18,0.8,2.24,0.33,0.52,0.29,0.42,-137.14,39.68,69.94,0.26,0.78,0.18,0.1,0.19,0.22,-182.19,4.99,3.42,0.53,0.08,0.04,0.14,0.65,0.25,-168.17,5.27,44.43,1.43,0.61,0.23,0.68,0.76,0.34
0.52,-118.7,52.93,174.9,0.43,2.47,0.25,0.23,0.62,0.27,-136.81,38.8,69.33,0.05,0.86,0.08,0.62,0.34,0.74,-182.45,4.82,3.85,0.63,0.28,0.25,0.72,-0.05,0.56,-168.23,5.85,46.08,1.24,0.36,0.37,0.37,1.08,0.89
0.53,-118.2,55.11,173.92,0.19,2.34,0.06,0.71,0.37,0.47,-136.64,37.89,69.4,-0.1,0.71,0.24,0.91,0.29,0.41,-182.8,4.39,4.47,0.71,0.18,0.11,0.79,0.24,0.57,-167.59,6.34,47.41,1.38,0.49,0.25,0.34,0.25,1.25
0.54,-118.22,56.64,173.55,0.22,1.72,0.09,0.37,0.2,0.4,-136.32,37.54,69.63,0.11,0.25,0.2,0.93,-0.02,0.23,-183.1,3.98,5.09,0.53,0.41,0.16,0.5,0.38,0.15,-167.79,6.93,48.96,1.21,0.47,0.13,0.23,1.06,0.23
0.55,-118.09,57.86,172.94,0.24,1.51,0.08,0.2,0.64,0.7,-136.36,37.29,70.17,-0.06,0.05,0.15,0.44,0.56,0.86,-183.15,3.67,6.08,0.68,0.31,0.27,0.97,0.18,0.76,-167.54,7.42,50.7,1.56,0.19,0.47,0.61,1.33,0.27
0.56,-117.82,59.41,172.2,0.36,1.42,0.06,0.38,0.82,0.13,-136.09,36.84,69.98,0.05,0.37,0.07,0.47,0.34,0.4,-183.45,3.4,6.59,0.72,0.43,-0.07,0.87,1.44,1.43,-167.13,7.86,52.27,1.39,0.35,0.42,1.12,2.33,0.7
0.57,-117.45,60.4,171.52,0.02,1.05,0.22,0.23,0.68,0.27,-135.81,36.67,69.61,0.15,0.42,-0.0,0.35,-0.0,0.0,-183.68,2.85,7.18,0.76,0.59,0.02,0.79,0.08,1.38,-166.95,8.36,53.7,1.31,0.53,0.49,0.56,1.26,0.85
0.58,-117.04,61.86,171.01,0.14,1.1,-0.13,0.06,0.47,0.35,-135.6,36.08,69.92,0.06,0.45,0.11,0.73,0.23,0.39,-183.78,2.29,8.01,0.6,0.39,0.14,0.41,1.34,0.35,-166.84,8.75,54.9,1.24,0.58,0.48,0.16,0.14,0.96
0.59,-116.97,62.9,170.47,0.11,1.17,0.04,0.31,0.04,0.44,-135.4,35.91,69.77,0.07,0.03,0.04,0.45,0.19,0.49,-183.97,1.73,8.8,0.6,0.41,0.26,2.53,0.86,0.78,-166.51,9.45,56.65,1.32,0.68,0.49,0.38,0.93,0.79
0.6,-116.73,64.14,169.5,0.17,0.75,0.16,0.5,0.38,0.1,-135.31,35.67,69.78,0.06,0.06,0.14,0.4,0.11,0.72,-183.91,1.42,9.24,0.77,0.28,0.12,0.63,0.46,1.0,-166.38,10.13,58.24,1.51,0.42,0.62,1.9,1.16,1.3
0.61,-116.51,65.8,168.35,0.05,0.86,0.17,0.33,0.47,-0.13,-135.4,35.32,70.38,0.25,-0.01,0.02,0.81,1.15,0.14,-184.8,0.63,10.83,0.84,0.48,0.65,0.82,0.26,0.32,-165.8,11.07,61.22,1.0,0.57,0.34,0.82,0.99,0.91
0.62,-116.77,66.35,167.69,0.19,0.72,-0.09,-0.04,0.7,0.15,-135.25,34.93,70.5,0.08,0.23,-0.05,0.64,1.03,0.06,-185.6,0.21,11.87,0.77,0.7,0.55,0.07,0.49,0.42,-165.81,11.57,62.67,1.15,0.64,0.63,0.6,0.08,0.98
0.63,-116.77,67.51,167.31,0.04,0.79,-0.07,0.33,0.15,0.15,-135.36,34.82,70.25,0.11,0.28,-0.1,0.47,0.12,0.76,-185.81,0.12,12.64,0.73,0.24,0.05,0.7,0.64,0.34,-165.6,12.05,64.34,1.1,0.52,0.51,1.27,0.86,-0.01
0.64,-116.91,68.1,167.05,-0.02,0.68,0.05,0.3,0.55,0.17,-134.94,34.5,70.41,0.13,0.33,0.18,0.11,0.42,0.82,-186.26,0.44,13.36,0.53,0.31,0.12,0.67,1.92,0.25,-165.49,12.7,65.45,1.28,0.63,0.21,0.62,0.99,0.88
0.65,-116.94,68.62,166.81,0.12,0.34,-0.09,0.58,1.09,0.27,-134.89,34.02,70.04,-0.01,0.47,0.09,0.21,0.15,0.68,-186.9,0.84,13.9,0.89,0.52,0.65,0.07,0.5,0.19,-165.45,13.06,67.28,1.41,0.44,0.5,0.3,1.11,1.46
0.66,-117.05,69.23,166.16,0.21,0.18,0.19,0.61,0.44,0.91,-134.37,33.74,70.12,0.12,0.24,0.11,0.02,0.25,0.72,-187.83,1.61,14.97,0.83,0.75,0.8,0.77,1.51,0.33,-165.94,13.47,68.73,1.39,0.63,0.16,1.41,0.31,1.78
0.67,-116.77,69.51,165.34,-0.02,0.38,0.14,0.28,-0.14,0.08,-134.31,33.55,70.08,0.13,0.13,0.01,0.16,0.69,0.64,-188.69,1.79,15.93,0.81,0.49,0.51,0.66,0.22,0.61,-165.73,14.11,70.39,1.34,0.62,0.48,1.99,1.55,1.04
0.68,-116.45,70.01,164.73,0.12,0.32,0.16,0.28,0.8,0.38,-134.26,33.8,69.67,0.21,0.06,-0.04,0.18,0.57,0.08,-189.38,2.43,16.61,0.57,0.45,0.23,0.41,1.06,-0.02,-165.48,14.51,71.78,1.29,0.56,0.72,1.47,0.79,0.85
0.69,-116.29,70.29,163.99,0.17,0.47,0.1,0.23,0.38,0.59,-134.16,33.75,69.49,0.24,0.08,0.05,0.28,0.31,0.01,-189.41,2.74,17.18,0.82,0.52,0.42,0.54,0.35,0.96,-165.79,14.98,73.35,1.38,0.6,0.28,0.13,0.74,2.2
0.7,-116.17,70.75,163.7,0.21,0.3,0.02,0.17,0.43,0.23,-134.0,33.85,69.78,0.28,0.29,0.25,0.21,0.08,0.66,-190.09,3.03,17.92,0.84,0.64,0.21,-0.01,0.29,0.96,-165.24,15.41,74.93,1.12,0.46,0.69,0.85,2.09,1.63
0.71,-116.12,71.14,163.13,0.0,0.35,0.05,0.06,0.94,0.3,-133.76,34.12,70.33,0.51,0.33,0.31,1.16,0.8,0.23,-190.62,3.62,18.66,0.46,0.26,0.22,0.68,0.61,0.42,-165.17,16.0,76.29,0.89,0.41,0.39,0.65,1.25,0.86
0.72,-116.11,71.67,162.69,0.0,0.45,-0.04,-0.09,0.7,-0.07,-133.96,34.42,70.8,0.27,0.41,-0.01,1.2,1.33,0.07,-191.21,3.82,19.6,0.7,0.39,0.21,0.31,0.6,0.26,-164.93,16.47,77.69,1.18,0.59,0.29,0.81,0.05,0.12
0.73,-116.07,72.07,162.0,-0.09,0.35,0.34,0.51,0.15,0.15,-133.99,34.09,71.11,0.06,0.44,0.28,0.37,1.77,0.09,-191.3,4.13,20.49,0.81,0.43,0.29,0.42,0.9,0.32,-165.01,16.91,79.13,0.94,0.47,0.53,1.98,0.17,0.66
0.74,-115.77,72.36,160.99,0.14,0.47,0.01,0.4,0.25,0.03,-133.68,33.29,70.85,0.15,0.64,-0.04,0.73,1.58,0.23,-191.97,4.46,21.35,0.85,0.44,0.4,0.96,-0.06,0.63,-165.19,17.28,80.5,1.06,0.59,0.43,0.43,0.98,0.9
0.75,-116.04,72.78,160.12,0.05,0.36,0.05,0.16,0.5,-0.2,-133.84,32.73,70.21,0.59,0.53,-0.08,0.37,1.18,0.79,-192.84,4.78,22.29,0.77,0.45,0.63,0.94,0.7,0.13,-164.87,17.69,81.87,0.91,0.47,0.59,1.62,0.36,1.33
0.76,-116.18,73.62,159.12,0.07,0.26,-0.05,0.04,0.15,0.45,-133.29,32.52,69.5,0.07,0.21,0.27,0.49,1.19,0.76,-194.2,5.51,24.31,0.69,0.5,0.28,0.89,1.11,0.83,-164.93,18.68,84.14,1.12,0.65,0.61,0.12,1.13,0.34
0.77,-116.13,73.77,158.79,-0.01,0.31,-0.22,0.17,0.18,0.22,-133.54,32.33,69.67,0.25,0.26,-0.01,0.44,0.78,0.47,-194.5,5.78,25.21,0.79,0.46,0.47,0.61,0.9,0.28,-164.63,19.02,85.63,0.87,0.55,0.63,1.39,1.71,0.56
0.78,-115.96,74.37,158.18,0.06,0.35,0.0,0.2,-0.13,0.14,-133.85,32.03,69.95,0.52,0.18,0.01,0.23,0.67,0.05,-195.17,6.33,26.21,0.79,0.62,0.19,1.3,-0.06,0.94,-164.76,19.43,86.96,1.2,0.31,0.49,0.6,1.01,2.43
0.79,-116.2,74.49,158.06,-0.11,0.17,0.2,0.38,0.18,0.19,-133.96,32.28,70.31,0.26,0.01,-0.03,0.37,0.67,0.01,-195.76,6.87,27.21,0.89,0.69,0.32,0.76,0.69,0.91,-163.59,20.06,88.65,1.15,0.42,0.83,1.93,0.1,1.94
0.8,-116.23,74.77,157.49,0.06,0.16,0.19,0.24,0.39,0.64,-133.95,31.79,70.58,0.11,0.12,-0.01,0.49,0.6,0.49,-196.68,7.48,28.38,0.91,1.18,0.43,0.46,0.66,1.26,-163.06,20.67,90.31,1.13,0.32,0.6,1.46,0.45,1.25
0.81,-116.11,75.18,156.89,0.09,0.39,-0.04,0.04,0.1,0.4,-134.05,31.73,70.36,0.2,0.42,0.05,-0.06,0.08,0.19,-197.08,7.88,29.56,1.11,0.92,0.4,1.16,0.33,0.7,-162.48,21.06,91.88,1.36,0.22,0.47,0.89,0.7,0.85
0.82,-116.27,75.52,156.34,0.1,0.29,0.06,0.3,0.38,0.61,-133.91,31.18,70.32,-0.04,0.21,0.17,0.32,0.52,0.15,-197.52,8.56,30.89,1.09,0.75,0.22,1.66,0.17,0.42,-161.65,21.32,93.36,0.98,0.19,0.34,0.08,0.46,1.09
0.83,-116.72,75.69,155.92,0.05,0.11,0.02,0.61,0.37,0.49,-134.16,30.86,70.32,0.07,0.01,-0.1,0.33,0.27,0.87,-197.69,9.43,32.1,1.05,0.78,0.19,0.3,0.65,1.0,-161.82,21.82,93.87,1.12,0.1,0.96,1.52,-0.1,0.49
0.84,-116.93,75.98,155.73,0.09,0.21,0.09,0.8,0.5,0.76,-134.24,30.51,70.23,0.09,0.26,0.07,0.31,0.14,0.27,-197.97,10.35,33.37,0.74,1.05,0.1,1.02,0.79,0.36,-159.98,22.45,95.28,0.84,-0.07,1.11,1.14,1.79,0.77
0.85,-116.88,76.53,155.09,0.08,0.32,0.05,0.39,0.37,0.64,-134.29,30.5,70.22,0.14,0.24,0.09,0.47,0.26,0.5,-197.57,11.29,34.21,1.03,0.89,0.36,1.55,0.72,1.59,-158.36,23.39,96.23,0.54,0.29,0.6,1.32,0.05,1.35
0.86,-117.06,76.68,154.38,0.04,0.47,0.06,0.39,0.37,0.75,-134.36,30.25,70.32,0.29,0.31,0.17,0.46,0.54,0.53,-197.19,12.06,35.18,0.94,0.48,0.45,0.26,1.83,0.2,-157.63,24.04,97.07,0.49,-0.03,0.54,-0.15,0.43,0.3
0.87,-117.14,76.85,153.66,0.3,0.54,0.14,0.52,0.25,1.05,-134.66,29.86,70.49,0.4,0.36,-0.03,0.24,0.58,0.61,-197.18,13.01,36.22,0.91,0.75,0.05,0.22,1.94,0.68,-156.29,24.84,97.94,0.33,0.17,0.83,0.28,0.04,0.42
0.88,-117.27,77.18,153.35,0.03,0.28,-0.01,1.06,0.49,0.63,-134.61,29.52,70.57,0.09,0.34,0.1,0.24,0.66,0.08,-197.18,13.68,37.49,0.72,0.87,0.08,0.01,0.49,0.02,-155.24,25.91,98.9,0.59,0.17,0.73,0.48,1.0,1.9
0.89,-117.7,77.39,152.8,-0.0,0.16,-0.09,1.05,0.14,0.12,-134.76,29.15,70.58,0.12,0.14,0.19,0.94,1.24,1.01,-197.4,14.07,38.21,1.06,0.65,0.03,0.94,0.27,-0.06,-154.19,26.33,99.68,0.61,0.15,0.38,0.07,0.04,1.47
0.9,-117.61,77.48,152.86,0.04,0.05,-0.12,1.42,0.17,0.44,-135.07,29.23,70.51,0.17,0.18,0.04,0.97,0.47,1.76,-197.69,14.72,39.66,0.99,0.89,-0.06,1.23,0.18,-0.05,-153.88,26.77,100.57,0.51,0.2,0.51,0.42,0.32,1.0
0.91,-118.37,77.71,152.87,0.26,0.06,-0.13,1.32,0.65,0.32,-135.17,29.38,70.75,0.15,0.22,-0.15,0.88,1.11,0.98,-198.32,15.9,42.25,1.0,0.61,0.26,1.04,0.61,0.67,-152.2,27.36,101.97,0.51,0.15,0.68,0.63,0.44,1.39
0.92,-118.17,77.54,153.93,0.22,0.39,0.06,1.32,0.58,0.45,-135.3,29.37,70.5,0.14,0.06,0.26,1.92,0.2,1.43,-197.85,16.63,43.28,0.78,0.67,0.39,0.28,0.94,0.41,-151.18,27.8,102.79,0.45,0.04,0.72,0.4,0.77,1.21
0.93,-118.71,77.43,154.51,0.17,0.56,0.11,1.01,0.33,0.25,-135.44,29.28,70.31,-0.01,0.36,0.08,1.33,0.78,1.71,-197.38,17.54,43.91,0.81,0.65,0.45,1.35,0.11,1.03,-149.98,28.64,103.5,0.76,0.09,0.56,0.35,0.95,1.44
0.94,-118.87,76.85,156.45,0.07,0.52,0.2,0.35,0.15,0.44,-135.67,29.84,70.41,0.07,0.54,-0.02,0.65,0.87,1.37,-197.17,17.95,44.8,0.92,0.35,0.23,0.47,0.57,0.05,-148.87,28.98,104.15,0.45,0.25,0.55,0.37,0.17,1.6
0.95,-119.09,76.1,158.21,0.42,1.03,0.18,0.82,0.07,0.59,-135.93,30.64,70.55,0.1,0.68,-0.1,-0.12,0.46,0.79,-197.21,18.1,45.43,1.03,0.39,0.13,0.61,0.6,0.23,-148.52,29.47,104.99,0.45,-0.0,0.39,0.39,0.69,0.68
0.96,-119.47,75.37,160.24,0.36,1.38,0.12,0.92,0.04,0.51,-135.8,31.02,70.49,0.35,0.46,-0.06,0.38,0.31,0.77,-197.23,18.31,46.58,0.95,0.4,0.19,0.46,0.08,0.14,-147.46,29.66,105.63,0.38,0.11,0.46,0.93,-0.01,0.97
0.97,-119.61,73.76,163.01,0.15,2.07,0.26,0.57,0.4,0.09,-136.0,31.46,70.43,0.03,0.59,0.23,0.91,0.18,0.98,-197.55,18.46,47.76,0.59,0.47,0.07,0.06,1.62,0.39,-147.47,29.69,106.65,0.71,0.32,0.47,1.19,0.77,1.35
0.98,-119.95,71.76,165.54,0.17,1.67,0.43,0.33,0.56,0.27,-136.18,32.05,70.3,0.07,0.78,0.08,1.33,0.24,1.07,-197.45,18.86,48.67,0.67,0.26,0.11,0.07,0.75,0.5,-146.47,29.96,107.34,0.42,0.12,0.15,1.08,0.53,1.91
0.99,-120.45,70.06,168.21,0.15,1.53,0.26,0.28,0.07,0.45,-136.44,32.89,70.26,0.12,0.97,0.1,0.28,0.68,1.18,-197.58,19.14,49.77,0.99,0.37,0.14,0.22,0.03,0.21,-145.67,30.27,108.12,0.62,0.09,0.36,1.04,0.08,0.99
1.0,-120.9,68.19,170.56,0.34,1.56,0.45,0.49,0.24,0.63,-136.65,33.87,70.34,0.02,0.32,0.28,0.55,0.78,0.44,-197.41,19.44,50.88,0.97,0.43,-0.04,0.96,0.62,0.46,-145.17,30.33,108.55,0.44,0.24,0.23,0.6,0.51,0.72
1.01,-121.67,66.21,172.62,0.06,2.05,0.39,0.31,0.05,0.71,-136.69,34.24,69.91,0.43,0.33,0.17,0.18,1.4,-0.12,-197.31,19.89,51.8,0.83,0.49,0.28,0.42,0.15,0.49,-144.68,30.74,109.32,0.51,0.1,0.26,0.44,0.68,0.28
1.02,-121.63,63.82,174.15,-0.1,2.14,0.46,0.47,0.11,0.25,-136.68,34.6,69.45,0.28,0.51,0.02,1.6,0.11,0.83,-197.09,20.49,52.85,0.89,0.47,0.43,0.01,0.17,0.56,-144.01,30.67,109.93,0.46,-0.03,0.38,0.46,1.06,0.31
1.03,-122.12,61.7,175.1,-0.07,2.05,0.29,0.23,0.31,0.19,-136.56,35.63,69.16,0.12,0.94,0.01,0.36,0.89,0.76,-196.51,21.39,54.06,0.79,0.47,0.72,0.24,0.98,0.36,-143.11,30.92,110.79,0.52,0.09,0.45,0.7,0.55,0.37
1.04,-122.15,59.55,176.31,-0.07,1.79,0.23,0.2,0.34,-0.12,-136.73,36.64,68.91,0.17,0.69,-0.05,-0.12,0.47,0.59,-196.32,22.48,54.98,0.87,0.61,0.74,0.48,0.91,0.13,-141.75,31.55,111.42,0.46,0.09,0.38,0.75,0.46,0.4
1.05,-122.63,58.11,176.84,0.16,0.98,0.22,0.23,-0.07,0.22,-136.72,37.54,68.68,0.24,0.83,0.17,0.57,1.22,0.18,-195.36,23.28,55.94,0.87,0.45,0.6,0.2,0.92,0.65,-140.97,32.28,111.98,0.22,0.04,0.47,0.44,-0.11,0.26
1.06,-123.38,56.97,178.37,-0.08,0.47,0.08,0.03,0.33,0.11,-137.09,39.03,67.73,0.26,1.04,0.14,0.3,0.6,0.29,-193.65,25.11,57.9,0.79,0.49,0.83,0.26,0.3,0.61,-138.8,33.44,112.86,0.2,0.17,0.5,0.74,0.88,0.34
1.07,-123.84,56.57,178.48,0.17,0.76,0.23,0.24,-0.16,0.29,-137.18,40.19,67.28,0.2,0.9,0.04,0.28,0.2,0.38,-192.58,26.02,58.47,0.73,0.3,1.0,-0.0,1.69,0.92,-137.65,34.07,113.05,-0.02,0.28,0.56,1.64,0.6,0.8
1.08,-123.85,55.89,178.92,0.04,0.53,0.23,0.25,0.04,0.8,-137.12,41.13,66.74,0.44,0.72,0.19,0.15,-0.09,0.28,-191.55,27.2,59.02,0.82,0.39,0.96,0.62,1.03,1.19,-136.45,34.44,113.12,0.09,0.05,0.41,2.85,0.2,1.87
1.09,-124.05,55.64,179.11,-0.14,0.56,0.16,0.65,0.24,0.41,-137.12,41.78,66.29,0.25,0.8,-0.13,0.0,0.7,0.83,-190.04,28.43,59.51,1.02,-0.03,1.23,1.11,0.68,1.27,-135.61,35.32,113.73,0.2,0.24,0.79,2.13,-0.08,0.65
1.1,-124.47,55.34,179.44,0.16,0.08,0.15,0.55,0.13,0.06,-137.2,42.66,65.82,0.21,0.69,0.18,0.31,0.48,0.69,-189.15,29.57,60.7,0.86,0.72,0.92,1.05,0.62,0.06,-134.36,35.95,113.95,-0.14,0.07,0.43,1.95,0.07,0.52
1.11,-124.48,55.78,179.69,-0.12,0.13,0.33,0.94,-0.04,0.25,-137.28,43.67,65.48,0.19,0.75,0.21,0.36,0.09,0.27,-188.27,30.88,61.66,0.99,0.24,0.86,0.76,0.24,1.27,-133.28,36.58,114.2,-0.02,0.3,0.3,2.11,0.2,0.05
1.12,-124.69,56.19,179.87,-0.03,0.6,0.2,0.37,0.27,0.25,-137.41,44.78,65.1,0.12,1.04,0.0,0.41,0.94,0.55,-187.32,31.88,62.73,1.04,0.36,0.56,2.73,1.16,0.65,-132.92,37.15,114.31,-0.12,0.51,0.2,0.55,0.14,1.14
1.13,-124.82,57.19,179.97,0.11,0.82,0.16,0.94,0.24,0.23,-137.27,45.98,64.48,0.15,0.85,0.12,0.54,0.86,0.29,-186.42,32.68,63.94,1.15,0.18,0.82,0.88,0.51,0.65,-131.79,37.77,114.47,0.12,0.56,0.84,0.98,1.1,0.11
1.14,-124.61,58.0,179.85,0.1,0.93,0.1,1.05,0.18,0.18,-137.08,46.67,64.05,0.16,1.03,0.13,0.44,0.87,0.48,-185.14,33.3,64.63,0.87,0.09,0.71,0.34,0.26,0.52,-130.9,38.54,114.64,0.27,0.13,0.72,1.64,0.69,0.79
1.15,-124.37,58.52,179.78,0.06,0.64,0.01,0.19,0.08,0.32,-137.06,47.19,63.78,0.1,0.71,0.05,0.05,1.05,1.1,-184.17,34.19,65.99,1.04,0.31,0.44,0.76,0.01,0.27,-130.45,39.21,114.63,0.01,0.12,0.39,0.36,0.52,0.64
1.16,-124.4,59.12,179.95,0.11,0.66,0.06,0.98,0.35,0.47,-136.83,47.73,63.57,0.08,1.22,-0.07,0.63,0.53,0.43,-183.75,34.79,67.41,1.14,0.37,0.31,2.34,1.81,0.57,-130.26,39.31,114.83,-0.1,0.04,0.19,0.18,0.38,0.77
1.17,-124.5,59.98,179.77,-0.15,0.74,0.16,0.77,0.14,0.3,-136.82,48.91,62.97,0.15,0.92,0.02,0.52,0.82,0.45,-183.12,34.89,68.85,1.23,0.23,0.44,0.47,0.39,1.0,-130.43,39.44,114.9,0.17,0.07,0.18,0.52,-0.05,0.69
1.18,-124.43,61.08,180.07,-0.01,1.02,0.23,0.71,0.22,0.3,-137.08,49.8,62.68,0.05,0.82,0.27,0.58,-0.0,0.84,-181.61,35.56,69.84,1.27,0.09,0.44,0.53,0.47,0.35,-130.89,39.51,114.77,0.26,0.19,0.35,0.9,1.9,0.66
1.19,-124.53,61.74,179.65,-0.1,0.71,0.17,0.65,0.23,0.24,-136.9,50.51,62.16,0.11,0.76,0.25,0.78,0.1,0.84,-180.66,35.9,71.33,1.21,0.37,0.5,0.89,0.19,0.32,-131.52,39.32,114.67,0.13,0.34,0.19,0.5,0.8,0.46
1.2,-124.75,62.47,179.6,0.02,0.72,-0.24,0.39,0.5,0.1,-137.0,51.72,61.89,-0.15,1.12,0.08,0.83,0.39,0.08,-180.11,36.45,73.01,1.17,0.67,0.36,0.58,0.75,-0.03,-131.76,39.25,114.59,-0.1,0.06,0.17,-0.01,0.39,0.91
1.21,-124.59,64.35,179.67,-0.08,0.66,-0.04,0.54,0.04,0.42,-137.76,53.76,61.35,-0.05,1.04,-0.07,0.52,0.49,0.72,-178.51,37.44,76.01,1.29,0.18,0.4,0.5,0.71,1.15,-132.69,39.66,114.37,0.48,0.02,0.47,0.44,0.17,0.13
1.22,-124.77,64.88,179.39,0.1,0.71,0.08,0.64,0.13,0.13,-137.72,54.74,60.8,0.2,0.89,-0.04,0.46,0.32,1.16,-177.5,38.11,77.02,1.09,0.16,0.33,0.96,1.24,0.87,-132.93,39.71,114.43,0.66,0.25,0.1,1.45,0.24,0.19
1.23,-124.63,65.62,179.54,-0.07,0.76,0.09,0.75,-0.12,0.09,-137.97,55.65,60.29,0.22,1.09,0.1,0.38,0.35,0.46,-176.36,38.86,78.33,0.67,0.03,0.58,1.43,1.87,0.5,-133.96,39.87,113.9,0.37,0.01,0.21,2.32,-0.03,0.39
1.24,-124.6,66.3,179.39,0.03,0.78,0.18,0.96,0.48,0.19,-138.16,56.74,60.06,0.02,1.04,0.06,0.3,0.35,0.05,-175.59,38.98,79.35,1.15,-0.13,0.19,0.69,0.04,0.33,-134.69,39.97,113.46,0.24,0.08,-0.11,0.72,0.91,1.81
1.25,-124.69,67.29,179.51,0.18,0.72,0.06,0.52,0.1,0.26,-138.4,57.8,59.49,-0.09,1.0,-0.07,0.38,0.13,1.1,-175.16,39.25,80.5,1.03,0.13,0.45,1.18,1.22,0.39,-134.96,39.93,113.16,0.5,0.02,0.06,0.44,1.44,1.84
1.26,-124.37,68.08,179.38,0.03,0.46,0.02,0.43,0.45,0.33,-138.22,58.55,59.04,0.26,0.89,-0.03,0.85,0.11,0.82,-174.39,39.03,81.81,0.98,0.11,0.6,1.63,2.5,0.23,-135.74,40.18,112.91,0.4,0.05,0.38,0.64,1.7,0.31
1.27,-124.48,68.39,179.44,0.1,0.71,0.13,0.27,0.44,0.37,-138.67,59.61,58.5,0.22,0.85,0.08,0.69,0.1,0.48,-173.41,39.22,82.4,0.7,0.3,0.05,0.33,2.48,1.15,-136.96,39.67,112.39,0.31,0.18,0.1,0.1,0.26,0.56
1.28,-124.7,69.2,178.99,0.06,0.41,-0.04,0.39,0.41,0.74,-139.08,60.63,57.92,-0.2,1.06,0.08,0.21,-0.03,-0.1,-172.63,39.52,83.14,0.94,0.14,-0.03,0.21,1.64,1.05,-137.85,39.58,111.88,0.3,0.11,0.36,0.88,-0.01,0.51
1.29,-124.71,69.65,178.85,0.08,0.43,-0.11,0.59,0.16,0.03,-139.08,61.8,57.7,0.08,0.96,0.01,0.22,0.42,0.95,-172.4,38.9,84.22,0.89,0.24,0.36,0.77,0.01,1.19,-138.63,39.38,111.44,0.26,0.08,0.21,0.93,0.72,0.85
1.3,-124.68,70.03,178.71,0.17,0.6,0.02,0.75,0.36,0.21,-139.24,62.69,56.79,0.28,0.83,0.06,0.56,0.33,0.27,-171.92,38.9,85.11,0.83,0.09,0.3,-0.12,1.26,2.22,-139.29,39.07,111.07,0.36,0.11,0.24,1.09,1.13,1.01
1.31,-124.67,70.86,178.83,0.13,0.45,0.02,0.62,0.24,0.29,-139.52,63.65,56.33,-0.05,1.07,0.03,0.72,0.34,0.37,-171.63,39.21,85.62,0.75,0.12,0.19,0.03,1.83,0.52,-139.74,39.1,110.51,0.24,0.13,-0.07,0.37,0.9,0.3
1.32,-124.62,71.58,178.79,0.08,0.51,0.03,0.41,0.46,0.71,-139.58,64.54,55.69,0.02,0.76,-0.06,1.28,0.31,0.48,-170.71,39.28,86.55,0.54,0.39,0.26,0.55,2.76,0.96,-139.81,39.43,110.19,0.04,0.05,0.14,0.37,1.09,0.65
1.33,-125.04,72.17,178.62,0.17,0.46,0.16,0.35,0.18,0.28,-139.81,65.55,55.49,0.1,0.84,-0.08,0.36,0.43,0.54,-169.92,39.53,86.72,0.8,0.4,0.04,1.66,2.2,3.94,-139.53,39.53,110.15,-0.12,0.24,0.1,0.21,1.26,1.26
1.34,-125.06,72.49,178.43,0.17,0.47,0.08,0.86,-0.07,0.25,-140.41,66.44,54.46,0.07,0.96,-0.03,0.06,-0.02,0.42,-168.88,39.47,86.99,0.39,0.64,0.35,0.63,0.26,1.85,-139.82,39.5,109.83,-0.02,0.19,0.19,0.54,1.28,1.44
1.35,-125.36,72.88,178.53,-0.03,0.47,0.08,0.67,-0.05,0.37,-140.42,67.58,53.4,0.17,0.96,0.11,0.42,0.25,0.46,-168.18,39.94,87.39,0.39,0.18,0.6,2.17,1.81,0.23,-140.11,39.43,109.39,0.31,0.28,0.2,0.29,1.39,1.71
1.36,-125.62,73.84,178.17,0.19,0.5,0.15,0.45,0.09,0.86,-141.22,69.04,52.6,0.2,0.88,0.18,0.56,0.52,0.46,-165.44,41.24,88.23,0.74,0.37,0.53,2.05,3.18,0.73,-139.47,40.22,108.83,0.09,0.43,0.17,0.94,0.81,0.51
1.37,-125.8,74.33,177.38,0.16,0.21,-0.02,0.18,0.06,0.03,-141.56,69.89,51.66,0.14,0.81,0.05,1.06,0.12,0.13,-164.59,41.3,88.74,0.57,0.57,0.08,0.18,4.18,1.35,-139.74,40.33,108.18,0.3,0.13,0.31,1.86,0.72,0.17
1.38,-125.84,74.64,177.07,0.1,0.43,0.19,0.28,0.12,0.17,-141.64,70.83,50.45,0.06,0.7,-0.13,0.21,-0.19,0.62,-164.25,40.92,88.8,0.31,0.08,0.74,0.89,0.51,-0.03,-140.64,39.86,107.47,0.31,-0.18,0.72,1.17,0.2,1.59
1.39,-126.22,75.08,176.79,0.04,0.39,0.08,0.45,0.14,0.15,-142.16,71.48,49.91,0.15,0.64,0.04,-0.05,0.61,0.4,-164.88,40.27,89.15,0.22,-0.33,0.57,1.05,2.18,1.37,-140.85,39.98,107.09,0.16,0.11,0.57,1.13,0.67,1.99
1.4,-126.54,75.46,176.25,0.18,0.32,-0.01,0.43,-0.01,0.42,-142.21,72.08,49.15,0.12,0.87,-0.02,0.27,0.19,0.47,-165.03,39.55,89.76,0.4,0.37,0.18,1.46,0.33,0.04,-140.9,39.98,106.63,0.29,0.14,-0.01,0.66,1.04,2.47
1.41,-126.7,75.88,175.61,0.06,0.12,0.05,0.41,0.44,1.1,-142.51,73.29,48.24,-0.15,0.73,-0.17,-0.16,0.19,0.41,-164.56,39.43,89.48,0.25,0.28,0.16,1.77,0.24,1.39,-140.94,40.28,106.34,-0.08,0.3,0.16,0.32,0.97,0.29
1.42,-127.15,76.11,175.03,0.07,0.2,0.13,0.49,0.36,0.45,-142.72,73.81,46.87,0.04,0.62,-0.0,0.08,0.31,0.66,-164.08,39.73,89.48,0.21,0.22,0.22,0.09,0.22,2.96,-141.41,39.74,105.99,-0.27,0.12,0.55,0.66,0.51,0.22
1.43,-127.37,76.12,174.63,0.06,0.35,0.14,0.23,0.23,0.14,-143.07,74.51,45.97,0.09,0.91,-0.08,0.17,0.5,0.24,-163.22,40.28,89.47,0.03,0.15,0.54,1.08,1.08,0.65,-141.59,39.65,105.79,0.27,0.23,-0.18,1.44,2.79,1.82
1.44,-127.36,76.54,174.21,0.15,0.25,-0.12,0.38,0.27,0.4,-143.38,75.05,44.6,0.07,0.53,-0.08,0.98,0.14,0.03,-162.41,40.8,89.15,0.05,0.44,0.64,1.13,0.48,0.73,-141.03,40.16,105.84,0.18,0.12,0.49,0.5,1.23,2.63
1.45,-127.88,76.9,173.5,0.21,0.32,0.11,0.0,0.23,1.07,-143.71,75.89,43.56,-0.01,0.72,0.1,0.65,0.25,0.07,-161.28,41.5,89.13,0.3,0.36,0.29,0.53,2.38,1.64,-140.24,40.53,105.62,0.21,0.19,0.35,0.32,0.99,1.05
1.46,-128.32,77.14,172.77,0.21,0.27,0.02,0.88,0.78,1.18,-144.05,76.69,42.11,0.08,0.42,-0.13,-0.03,0.41,0.44,-161.04,41.69,89.26,0.21,0.22,0.18,0.35,1.91,1.73,-140.36,40.22,105.47,0.17,0.23,0.11,0.41,2.85,0.34
1.47,-128.67,77.35,172.16,0.25,0.2,0.05,0.49,0.53,0.13,-144.21,77.14,40.68,0.24,0.77,-0.17,0.37,0.33,0.72,-161.22,41.17,89.05,-0.01,-0.02,0.47,1.42,1.81,1.03,-140.36,40.34,105.33,0.12,-0.08,0.27,0.06,0.08,1.9
1.48,-128.8,77.56,171.42,0.09,0.1,0.15,0.2,0.3,0.16,-144.59,77.74,38.75,0.12,0.84,0.03,0.52,0.34,0.19,-161.16,41.65,89.14,0.09,0.09,0.53,1.81,0.85,0.84,-139.66,40.47,105.63,0.17,0.1,0.33,1.51,0.61,2.34
1.49,-129.11,77.67,170.98,0.13,-0.03,-0.07,0.04,0.06,0.27,-144.62,78.25,37.56,0.04,0.6,0.1,0.61,-0.01,0.51,-161.13,41.7,89.2,0.35,0.1,0.62,2.18,0.42,0.54,-139.04,40.76,105.61,0.27,0.22,0.2,1.37,0.66,1.12
1.5,-129.36,77.74,170.69,0.19,0.16,0.1,-0.11,0.11,0.64,-145.05,78.65,36.3,0.09,0.56,0.22,0.29,0.39,0.1,-159.99,42.69,88.94,0.07,0.14,0.89,2.42,0.99,0.46,-138.55,41.15,105.43,-0.04,0.38,0.38,1.13,0.8,0.09
1.51,-129.85,78.17,170.0,0.23,0.22,-0.03,0.38,0.71,0.6,-145.6,79.67,32.81,0.1,0.44,0.1,0.21,0.64,0.4,-159.52,43.15,88.62,0.01,0.06,0.15,0.01,-0.15,1.31,-137.42,41.79,105.66,0.12,0.14,0.15,1.46,1.89,1.44
1.52,-130.1,78.1,169.58,0.0,0.08,0.09,0.1,0.54,0.51,-145.64,80.07,30.56,0.06,0.27,0.14,0.29,0.82,0.31,-159.86,42.76,88.29,0.31,0.02,0.52,0.9,1.13,0.71,-137.62,41.94,105.67,0.05,0.02,0.41,0.23,0.68,1.21
1.53,-130.18,78.26,168.94,-0.04,0.16,-0.06,0.26,0.21,0.54,-145.79,80.23,28.15,0.02,0.43,0.36,-0.1,0.92,0.49,-160.05,42.41,88.42,0.14,0.09,-0.01,0.89,1.34,0.19,-137.33,41.61,105.47,0.22,0.4,0.2,0.14,-0.1,0.58
1.54,-130.71,78.69,168.41,0.18,0.07,-0.02,0.66,-0.21,0.68,-145.55,80.65,25.59,-0.07,0.72,-0.06,0.11,1.49,0.37,-159.7,42.5,88.24,0.24,0.13,-0.02,0.93,0.96,1.08,-137.18,41.78,105.14,0.03,0.06,0.14,0.82,0.88,1.27
1.55,-130.72,78.7,168.29,0.14,0.15,-0.06,0.86,0.17,1.19,-145.87,80.78,22.44,-0.13,0.51,0.19,0.39,1.1,0.8,-159.46,42.36,88.19,-0.07,0.5,0.18,1.98,1.73,1.54,-137.66,41.91,104.92,0.14,0.06,0.44,1.41,2.06,0.42
1.56,-130.75,78.94,167.67,0.03,0.15,0.02,0.09,0.63,0.86,-145.96,81.19,19.52,0.13,0.51,0.05,0.16,0.58,1.39,-160.07,42.06,87.84,0.12,0.03,0.16,0.81,0.04,1.1,-137.76,41.42,104.79,0.16,0.26,0.28,1.97,1.23,1.23
1.57,-130.92,79.14,167.45,0.06,0.15,0.08,0.03,0.02,0.24,-145.87,81.27,15.73,0.1,0.52,-0.01,0.3,-0.08,0.88,-159.58,42.43,87.73,-0.03,0.11,0.38,1.16,0.39,0.58,-138.17,41.19,104.79,0.3,0.15,0.29,2.41,0.56,2.16
1.58,-130.95,79.51,167.26,-0.04,0.05,0.02,0.6,0.07,0.27,-145.85,81.73,12.24,0.2,0.66,-0.08,0.2,0.64,0.24,-159.7,42.89,87.68,0.06,0.31,0.42,1.58,1.22,0.01,-137.46,41.6,104.44,0.12,0.34,0.26,0.72,0.16,0.58
1.59,-130.78,79.8,166.84,0.05,0.19,0.05,0.36,0.03,0.25,-145.7,81.83,9.31,0.1,0.47,-0.14,0.77,0.74,0.48,-158.92,42.95,87.57,0.11,0.17,0.06,0.61,0.59,1.67,-137.0,41.84,104.58,0.17,0.14,0.4,0.43,0.54,1.0
1.6,-130.68,79.85,166.54,0.1,-0.03,-0.11,0.02,0.41,1.63,-145.63,82.02,5.74,0.21,0.66,0.04,0.5,-0.03,0.45,-158.96,42.89,87.76,0.22,0.06,0.22,1.06,0.26,1.82,-137.25,41.46,104.44,-0.0,0.16,0.46,1.12,0.82,1.76
1.61,-130.54,79.91,166.53,0.02,0.14,0.06,0.22,0.69,0.96,-145.35,82.31,2.28,-0.13,0.32,0.16,0.18,0.1,-0.02,-159.08,42.67,88.22,0.1,0.08,0.09,0.77,0.63,1.17,-137.36,41.28,104.4,0.24,0.07,0.23,1.09,1.05,0.77
1.62,-130.14,80.16,166.42,0.13,0.0,-0.08,0.59,0.96,0.41,-145.37,82.29,-0.48,0.13,0.37,-0.12,0.2,0.6,0.8,-159.37,42.56,88.22,-0.1,0.05,0.16,0.51,0.38,0.58,-137.34,41.23,104.79,0.23,0.08,-0.1,1.12,0.14,0.79
1.63,-130.11,80.34,166.3,-0.01,0.17,0.15,0.5,0.43,0.33,-145.3,82.34,-3.79,0.24,0.58,-0.02,0.09,0.85,0.51,-159.28,43.05,88.08,0.13,0.04,0.49,1.02,0.31,0.74,-137.0,41.25,104.88,0.19,0.06,-0.01,0.35,0.3,1.52
1.64,-130.05,80.36,166.28,0.18,0.23,0.23,0.13,0.52,0.11,-144.76,82.38,-6.91,0.33,0.42,0.04,0.08,0.98,0.08,-158.51,43.71,88.29,-0.09,0.04,0.52,0.78,0.74,1.44,-136.66,41.43,105.1,0.2,0.04,0.15,0.58,1.26,0.64
1.65,-129.87,80.57,166.47,-0.15,-0.01,0.21,0.04,0.06,1.02,-144.64,82.49,-9.85,0.13,0.34,0.07,0.34,0.71,0.34,-158.17,43.78,88.51,0.08,-0.13,0.11,0.63,1.14,1.48,-136.3,41.85,105.27,0.1,-0.04,0.47,0.31,0.11,0.79
1.66,-129.72,80.83,166.23,0.23,0.24,0.12,0.26,0.18,0.14,-144.43,82.45,-14.01,0.16,0.15,0.03,0.26,0.15,0.18,-158.77,43.86,88.58,0.11,0.16,0.09,0.6,1.11,0.46,-135.85,42.0,105.61,0.15,-0.11,-0.01,0.47,-0.05,1.16
1.67,-129.43,80.86,166.34,0.19,0.15,0.07,-0.15,0.35,0.45,-144.26,82.56,-15.83,-0.02,0.32,-0.01,0.25,-0.13,0.61,-159.2,43.91,88.67,0.11,0.17,0.08,0.37,1.39,0.85,-136.24,41.94,105.63,0.07,0.14,0.03,1.25,0.32,0.39
1.68,-129.17,81.14,166.67,-0.0,-0.06,0.11,0.08,0.22,0.61,-143.9,82.24,-17.52,0.35,0.18,-0.04,0.12,0.27,0.37,-158.74,44.21,88.68,0.16,-0.05,0.12,0.65,0.9,-0.25,-135.72,42.19,105.75,0.23,0.08,0.14,0.91,0.43,0.16
1.69,-128.92,80.99,166.73,0.12,0.11,-0.12,0.52,0.19,0.58,-143.65,82.34,-19.01,0.15,0.2,-0.1,0.31,0.01,0.39,-158.56,44.26,88.86,0.19,0.2,0.18,0.0,1.71,0.4,-135.59,42.56,105.39,0.2,0.07,0.25,0.36,0.82,-0.02
1.7,-128.73,81.22,166.8,0.18,0.19,0.06,0.24,0.19,0.38,-143.45,82.38,-20.74,0.18,0.08,-0.06,0.3,0.09,0.56,-158.41,44.21,89.06,0.01,0.17,0.06,0.11,0.24,0.24,-135.7,42.6,105.59,0.09,0.2,0.12,0.41,0.63,1.69
1.71,-128.44,81.28,167.0,0.35,0.05,0.12,0.2,0.46,0.34,-143.27,82.46,-22.23,0.37,0.15,0.09,0.23,0.19,0.49,-158.79,44.09,89.46,0.14,0.21,0.14,0.82,-0.07,0.05,-135.94,42.51,105.53,0.14,0.13,0.26,0.17,0.81,0.74
1.72,-128.12,81.37,167.27,0.23,0.04,0.03,0.12,0.41,0.08,-142.97,82.31,-22.7,0.26,0.18,-0.04,0.32,0.35,0.51,-158.39,44.63,89.53,-0.14,0.12,0.21,0.87,1.58,0.93,-136.05,42.31,105.31,0.04,0.21,0.35,0.64,-0.04,0.09
1.73,-128.05,81.3,167.58,0.22,0.12,0.05,0.19,0.33,0.22,-142.74,82.03,-23.5,0.16,0.13,0.17,0.43,0.11,0.53,-158.59,44.73,89.26,0.09,0.02,0.13,0.41,0.26,0.72,-135.82,42.58,105.33,0.3,-0.09,0.46,0.58,1.65,0.97
1.74,-127.67,81.37,167.9,0.24,0.02,0.03,0.15,0.36,0.18,-142.58,82.23,-23.6,-0.11,0.11,0.11,0.1,0.55,0.11,-158.67,44.71,89.2,0.04,0.04,0.12,1.26,1.51,0.65,-135.54,43.19,105.42,0.03,0.03,0.14,0.89,0.54,2.45
1.75,-127.54,81.39,167.81,0.02,-0.11,0.02,-0.08,0.42,0.27,-142.15,82.16,-24.15,0.19,0.01,0.02,0.18,0.47,-0.02,-158.85,44.85,89.41,-0.01,0.36,0.01,-0.08,1.29,0.57,-135.87,42.8,105.26,0.22,0.05,0.22,1.7,1.51,1.3
1.76,-127.39,81.64,167.96,0.17,0.28,0.07,0.16,0.37,0.27,-142.32,82.39,-24.96,0.35,0.07,0.01,0.07,0.6,0.26,-158.87,44.86,89.74,-0.16,0.1,0.28,0.71,0.01,-0.01,-135.68,43.02,105.37,0.19,0.03,0.02,1.39,1.37,1.06
1.77,-127.32,81.55,168.21,0.11,-0.05,0.09,0.06,0.3,0.34,-142.05,82.14,-25.74,0.28,-0.07,0.2,0.17,0.72,0.54,-158.27,45.3,89.69,0.04,0.04,0.22,1.02,1.24,0.49,-135.04,43.4,105.62,0.17,0.04,0.59,0.35,0.49,0.26
1.78,-126.81,81.5,168.82,0.31,0.02,-0.04,0.14,0.42,-0.02,-141.72,82.33,-27.11,0.26,0.12,0.11,0.14,0.36,0.68,-157.95,45.43,89.53,0.03,0.02,0.17,0.93,1.18,-0.0,-134.66,43.99,106.01,0.04,0.19,0.07,0.74,0.12,1.22
