0.01,-30.19,84.06,6.23,0.08,0.07,0.02,0.01,-0.07,0.23,-136.7,84.71,90.14,0.02,0.16,0.18,0.17,0.15,0.04,-172.38,3.48,6.3,0.24,0.03,0.05,0.05,0.16,0.15,-155.14,14.07,6.89,0.08,-0.13,0.0,0.12,-0.2,0.05
0.02,-30.0,83.98,5.96,0.14,0.16,-0.02,-0.15,0.05,0.17,-136.6,84.63,90.16,0.04,-0.13,0.2,0.01,0.16,0.1,-172.12,3.36,6.36,0.08,0.03,0.1,0.05,0.17,0.1,-155.24,14.04,6.79,-0.17,0.15,0.13,-0.04,0.09,0.07
0.03,-29.83,84.1,6.15,0.05,-0.21,-0.01,0.11,-0.02,0.07,-136.68,84.63,90.11,0.01,0.03,0.11,0.02,0.13,0.13,-172.01,3.32,6.35,-0.0,-0.05,0.19,0.1,0.05,0.06,-155.16,14.21,6.76,-0.08,0.05,0.03,0.28,0.13,0.19
0.04,-29.96,83.96,5.87,0.01,0.07,-0.02,0.19,-0.15,0.16,-136.54,84.58,90.03,0.03,0.15,0.08,0.23,0.14,-0.01,-171.89,3.31,6.57,-0.14,-0.08,-0.01,0.07,0.05,0.01,-155.14,14.16,6.71,0.05,0.06,-0.12,0.08,0.14,0.15
0.05,-29.92,84.03,6.05,-0.01,0.14,0.08,-0.07,0.07,0.13,-136.54,84.44,90.1,-0.01,-0.13,0.06,-0.1,0.07,-0.02,-171.83,3.44,6.29,-0.05,0.06,-0.04,0.12,0.2,-0.0,-155.27,13.98,6.8,-0.01,0.01,0.06,0.07,0.21,0.15
0.06,-30.02,84.02,6.05,0.19,0.18,0.09,0.04,0.03,0.16,-136.48,84.75,90.2,-0.23,0.14,-0.0,-0.1,-0.07,0.19,-171.72,3.47,6.41,0.05,0.15,-0.14,0.15,0.15,-0.07,-155.29,13.79,6.72,0.01,0.06,0.01,0.09,-0.09,0.14
0.07,-30.17,84.11,5.98,0.14,0.09,0.09,-0.1,0.01,0.2,-136.27,84.81,90.37,0.09,-0.02,-0.03,0.13,0.09,0.26,-171.7,3.37,6.49,-0.08,-0.07,0.23,0.14,0.05,0.15,-155.44,13.82,6.68,0.11,0.11,0.07,0.21,0.1,-0.06
0.08,-30.0,84.02,5.99,0.05,0.12,-0.09,-0.16,-0.16,-0.13,-136.5,84.57,90.03,-0.11,0.04,-0.02,0.25,-0.16,-0.03,-171.38,3.31,6.51,0.17,0.07,0.31,0.2,0.07,0.08,-155.35,13.62,6.54,0.07,-0.06,0.03,0.17,0.18,0.2
0.09,-30.15,83.96,6.02,-0.03,0.06,0.03,-0.03,-0.12,0.03,-136.28,84.86,90.17,0.05,0.16,0.06,0.04,0.08,0.36,-171.44,3.31,6.27,-0.11,-0.08,-0.01,0.16,-0.07,-0.03,-155.72,13.78,6.51,0.04,-0.05,-0.03,0.23,-0.03,-0.06
0.1,-30.1,84.1,6.07,0.06,-0.01,-0.03,0.02,-0.12,0.13,-136.3,84.82,90.29,0.13,0.06,0.04,-0.17,0.08,0.25,-171.28,3.23,6.16,0.12,0.24,0.15,-0.03,-0.01,0.04,-155.79,13.79,6.65,0.09,0.17,0.19,-0.01,0.09,0.01
0.11,-30.19,84.07,6.09,-0.04,-0.12,-0.22,0.02,-0.08,-0.06,-136.44,84.81,90.13,-0.04,0.14,0.08,0.35,0.3,0.19,-170.95,3.29,6.43,0.17,0.13,0.19,-0.03,0.17,0.2,-155.73,13.88,6.53,0.07,0.22,0.24,0.06,0.12,-0.07
0.12,-30.16,84.02,5.79,0.13,0.14,0.09,0.04,0.2,0.12,-136.48,84.85,90.11,0.02,0.22,-0.0,0.06,0.42,0.07,-170.96,3.36,6.54,0.05,-0.08,0.29,-0.01,0.02,0.05,-156.21,13.79,6.44,0.03,-0.2,0.04,0.2,0.09,0.1
0.13,-30.14,84.15,5.81,-0.02,0.16,0.03,0.08,0.0,-0.1,-136.51,84.99,90.06,-0.02,0.19,0.17,0.02,0.13,0.06,-170.65,3.4,6.3,0.05,-0.08,0.22,0.22,-0.07,0.09,-156.09,13.85,6.41,0.05,0.09,0.05,0.08,0.18,-0.08
0.14,-30.0,84.07,5.79,-0.03,-0.04,0.07,0.11,0.03,0.14,-136.45,85.02,90.26,0.13,0.12,0.04,0.11,-0.11,0.26,-170.59,3.58,6.45,-0.08,0.03,0.24,0.29,0.03,0.26,-155.94,13.71,6.56,0.07,0.11,-0.06,0.35,0.08,0.04
0.15,-30.14,84.17,5.72,0.01,-0.01,0.05,0.12,0.15,0.04,-136.5,85.25,90.15,-0.01,0.06,0.03,0.04,-0.02,0.14,-170.65,3.52,6.49,0.05,-0.06,0.23,0.08,-0.15,-0.16,-156.19,13.86,6.47,0.04,-0.12,-0.13,0.11,0.31,0.1
0.16,-30.14,84.14,5.8,0.06,-0.04,0.11,0.19,0.14,0.08,-136.67,85.29,90.0,-0.07,0.27,-0.02,0.23,0.21,-0.13,-170.4,3.69,6.39,0.09,0.14,0.2,0.09,0.35,0.26,-156.18,13.91,6.44,0.15,0.14,0.08,0.13,0.18,0.12
0.17,-30.14,84.06,5.71,0.05,-0.06,0.03,-0.09,-0.06,0.01,-136.42,85.52,90.1,0.09,0.15,-0.07,0.34,0.15,0.11,-170.43,4.09,6.44,0.25,0.13,0.23,0.13,0.6,0.19,-155.98,14.06,6.34,0.1,0.01,0.14,0.11,0.1,0.15
0.18,-30.08,84.11,5.66,-0.03,0.2,0.13,0.07,0.13,0.13,-136.59,85.5,90.05,0.01,0.27,0.07,0.35,0.06,0.12,-170.36,3.77,6.41,-0.12,0.23,-0.15,0.16,0.42,0.14,-155.85,13.93,6.19,-0.09,0.04,0.26,-0.05,0.11,0.07
0.19,-30.14,84.31,5.59,-0.06,0.02,0.21,0.04,0.07,0.21,-136.44,85.62,90.25,-0.09,0.28,-0.15,0.38,0.2,0.09,-170.26,4.07,6.54,0.11,0.15,0.09,0.2,0.49,0.28,-156.06,13.9,6.24,0.02,0.13,0.13,0.08,0.28,0.1
0.2,-30.13,84.17,5.66,0.06,-0.03,-0.2,-0.04,-0.02,0.49,-136.29,85.73,90.21,0.09,0.21,0.22,0.28,0.11,0.2,-169.94,4.06,6.29,0.28,0.19,0.31,0.03,0.51,-0.06,-155.63,14.1,6.07,0.09,0.02,0.09,0.15,0.22,0.11
0.21,-30.26,84.03,5.79,0.03,0.07,-0.0,0.2,0.08,0.46,-136.45,85.74,90.23,0.11,0.42,-0.01,0.37,0.03,0.32,-169.21,4.37,6.14,-0.04,0.17,0.6,0.17,0.37,-0.01,-155.76,14.19,6.09,0.08,-0.06,-0.02,0.08,0.28,0.08
0.22,-30.25,84.32,5.61,-0.06,0.06,0.09,0.19,0.08,0.52,-136.48,86.11,90.03,0.07,0.44,-0.1,0.41,0.08,0.07,-168.9,4.35,5.93,-0.03,0.06,0.2,0.22,0.08,0.24,-155.42,14.26,6.14,-0.02,0.16,0.23,-0.07,0.16,-0.26
0.23,-30.28,84.46,5.56,0.11,0.19,-0.13,0.43,0.06,0.29,-136.36,86.32,90.18,0.12,0.51,0.15,0.58,-0.01,0.02,-168.49,4.49,5.8,0.22,0.08,0.48,0.03,0.26,0.51,-155.22,14.18,6.01,-0.24,0.1,0.25,0.14,0.17,0.05
0.24,-30.27,84.0,5.53,0.05,0.13,-0.04,0.43,-0.06,0.19,-136.03,86.47,89.87,-0.03,0.51,-0.03,0.59,0.1,0.08,-168.19,4.52,5.6,0.27,0.09,0.41,0.11,0.21,0.37,-155.07,14.42,5.98,0.12,0.06,0.24,-0.11,0.04,-0.01
0.25,-30.25,84.08,5.81,0.09,0.3,0.12,0.29,-0.06,0.56,-136.12,86.3,90.02,0.03,0.85,-0.02,0.33,0.08,0.32,-167.88,4.78,5.44,0.37,0.15,0.32,0.14,0.09,0.78,-154.85,14.45,5.79,-0.12,0.19,0.39,0.24,-0.05,-0.05
0.26,-30.41,84.09,5.58,0.17,0.28,0.16,0.51,0.04,0.4,-136.32,86.27,90.1,0.14,0.69,-0.17,0.59,-0.03,0.51,-167.29,4.9,5.07,0.29,-0.05,0.21,0.22,0.09,0.52,-154.46,14.54,5.87,0.08,0.17,0.28,0.08,0.02,0.21
0.27,-30.54,83.98,5.4,-0.05,-0.0,0.15,0.28,0.33,0.34,-136.22,85.72,90.07,0.13,0.97,0.06,1.0,-0.04,0.24,-167.06,5.01,5.04,0.17,0.15,0.2,-0.08,0.11,0.67,-154.21,14.6,5.87,0.26,0.04,0.3,0.09,0.11,0.17
0.28,-30.5,83.92,5.62,0.14,0.27,0.04,0.62,0.28,0.19,-136.54,85.14,90.22,0.27,0.98,0.16,0.81,-0.24,0.14,-166.83,5.13,4.65,0.32,0.06,0.26,0.09,0.43,0.86,-153.99,14.42,5.85,-0.24,0.14,0.3,0.01,0.3,0.23
0.29,-30.21,83.75,5.32,0.08,0.59,0.06,1.2,0.25,0.24,-136.29,84.12,90.38,-0.04,1.15,0.01,1.02,0.17,0.26,-166.61,5.01,4.83,0.16,0.14,0.19,0.16,0.22,0.99,-153.74,14.73,5.95,0.14,-0.0,0.12,0.28,0.14,0.25
0.3,-30.45,83.55,5.27,0.03,0.45,0.01,1.11,0.3,0.2,-136.16,83.2,90.56,0.02,1.11,0.1,1.12,-0.07,0.21,-166.32,5.29,4.16,0.27,0.01,0.14,0.19,0.1,1.31,-153.4,14.68,5.67,-0.09,0.19,0.19,0.31,0.17,0.17
0.31,-30.45,83.18,5.26,0.18,0.69,0.07,1.22,0.3,-0.06,-135.95,82.0,90.4,0.02,1.2,0.06,1.07,-0.0,0.06,-165.77,5.25,3.48,0.42,-0.14,0.3,0.16,0.07,1.77,-153.22,14.78,5.69,-0.05,-0.1,0.05,0.0,0.19,0.15
0.32,-30.23,82.69,5.23,0.19,0.81,0.25,1.4,0.57,0.22,-136.06,80.74,94.84,-0.02,1.42,0.13,1.48,0.44,0.29,-165.46,5.23,3.04,0.08,0.12,0.14,0.18,0.23,1.82,-152.92,14.87,5.61,0.07,0.0,0.21,0.38,0.14,0.04
0.33,-29.94,82.16,5.13,0.37,0.8,0.03,1.93,0.54,0.24,-135.86,79.25,98.56,-0.01,1.33,0.23,1.43,0.07,0.12,-165.27,4.94,2.87,0.38,0.02,0.2,0.15,0.22,2.57,-152.8,14.66,5.81,-0.08,0.05,0.06,0.06,0.08,0.07
0.34,-30.12,81.56,11.21,0.16,1.21,0.02,2.24,0.34,0.56,-135.19,77.48,101.72,0.16,1.65,0.28,2.16,0.55,-0.03,-164.97,4.79,2.61,0.41,0.1,0.05,0.1,0.22,2.92,-152.74,14.61,5.61,0.16,-0.21,0.2,0.12,0.27,-0.03
0.35,-30.0,80.82,16.95,0.1,1.16,0.31,2.15,0.17,0.45,-134.71,75.83,103.97,0.32,1.66,0.05,2.5,0.08,0.37,-164.72,4.77,2.11,0.44,0.24,0.17,0.12,0.12,3.05,-152.45,14.71,5.77,-0.07,0.0,0.12,0.14,0.04,0.26
0.36,-29.79,80.09,19.47,0.31,1.13,0.04,1.58,0.43,0.5,-134.64,74.74,104.89,0.32,1.56,0.15,2.56,0.17,0.35,-164.66,4.58,2.1,0.48,0.03,0.32,0.18,0.17,2.75,-152.51,14.62,5.69,-0.12,0.2,0.01,0.19,-0.04,0.03
0.37,-29.7,79.67,21.87,0.34,1.18,0.01,1.15,0.36,0.39,-134.1,73.96,105.89,-0.04,1.56,-0.0,2.29,0.06,0.22,-164.58,4.47,1.69,0.44,0.42,0.11,0.11,-0.02,2.84,-152.53,14.68,6.06,-0.0,0.1,0.16,0.09,0.12,0.01
0.38,-29.73,78.57,25.38,0.21,1.12,-0.05,0.81,0.26,0.4,-134.12,72.72,107.0,0.23,1.5,0.28,2.06,0.22,0.25,-164.25,4.43,1.27,0.34,0.06,0.14,0.8,0.61,2.25,-152.41,14.73,5.78,-0.0,-0.03,0.33,0.03,0.33,-0.01
0.39,-29.74,77.65,28.83,0.04,0.83,0.02,0.55,0.2,0.54,-133.72,71.19,107.95,0.19,1.49,0.14,1.52,0.49,0.23,-163.87,4.46,0.83,0.15,0.1,0.33,1.34,0.5,1.99,-152.37,14.7,5.72,0.15,0.01,0.05,-0.06,0.21,0.21
0.4,-29.58,76.87,31.61,0.07,0.76,0.22,0.53,0.17,0.44,-133.53,69.77,109.02,0.16,1.49,0.45,0.81,0.31,0.1,-163.33,4.3,0.72,0.06,0.0,0.53,1.8,0.39,1.75,-152.13,14.58,5.72,-0.05,0.12,0.13,0.08,0.21,0.14
0.41,-29.74,76.01,33.53,0.01,0.67,-0.11,1.02,0.22,0.43,-133.33,68.02,109.75,0.09,1.47,0.22,0.94,0.26,0.44,-162.95,4.22,0.66,0.26,0.27,0.38,1.45,0.68,1.75,-152.04,14.63,5.6,0.1,0.14,-0.24,-0.03,0.16,0.04
0.42,-29.6,75.89,34.41,-0.03,0.84,0.18,1.32,0.17,0.79,-133.14,66.03,110.45,-0.03,1.64,0.21,1.08,0.04,0.62,-162.74,3.8,0.76,0.17,0.23,0.04,0.12,0.97,2.0,-152.02,14.48,5.49,0.21,0.01,0.1,0.1,-0.17,-0.06
0.43,-29.85,74.99,36.18,0.01,0.92,0.06,1.02,0.12,1.08,-133.15,64.13,110.87,0.16,1.82,0.25,1.57,0.32,0.37,-162.85,3.61,0.91,0.27,0.28,0.22,0.19,0.83,1.87,-151.68,14.62,5.5,0.08,0.0,0.11,-0.0,0.14,0.11
0.44,-29.68,74.15,37.77,0.23,0.98,0.07,0.31,0.27,0.96,-132.93,62.41,111.05,0.09,1.78,-0.02,1.07,0.22,-0.0,-163.27,3.19,1.2,0.39,0.08,0.37,0.45,0.82,1.77,-151.9,14.59,5.74,0.09,-0.16,-0.1,0.05,0.14,-0.11
0.45,-30.21,73.27,39.11,0.19,0.69,-0.04,0.55,0.0,0.5,-132.95,60.38,111.37,-0.07,1.6,0.12,0.86,0.33,0.12,-163.85,3.18,1.7,0.13,0.18,0.66,1.23,0.66,1.35,-152.1,14.35,5.53,0.09,0.13,-0.11,0.09,0.18,-0.09
0.46,-30.71,72.53,39.55,0.26,0.6,0.18,0.81,0.07,1.08,-132.65,58.66,111.72,0.14,1.44,0.06,0.77,0.1,1.09,-164.37,2.94,2.19,0.4,0.21,0.59,0.68,0.72,1.03,-151.76,14.36,5.31,0.12,0.04,0.03,0.03,-0.06,0.07
0.47,-30.86,71.82,40.44,0.19,0.63,-0.08,2.28,0.67,0.83,-132.99,57.08,111.79,0.46,1.83,0.19,0.5,0.38,2.0,-165.05,2.6,2.33,0.03,0.3,0.5,0.39,0.95,0.9,-151.82,14.31,5.26,0.12,-0.09,0.03,0.1,-0.01,0.2
0.48,-31.05,70.89,41.34,0.15,1.07,0.11,1.51,0.45,0.49,-133.5,54.82,111.72,0.34,1.85,0.11,0.26,0.31,0.74,-165.29,2.37,2.21,0.07,0.18,0.3,0.25,0.55,0.46,-151.87,14.31,5.39,0.03,-0.02,-0.18,-0.11,-0.06,0.02
0.49,-31.32,69.99,42.66,0.09,1.07,0.07,0.41,0.43,0.2,-133.71,53.43,111.63,0.14,1.49,-0.04,0.55,0.11,0.06,-165.79,1.97,1.97,0.08,0.16,0.25,0.07,0.48,0.46,-151.95,14.45,5.3,-0.02,0.03,0.24,0.02,0.24,0.12
0.5,-31.79,68.6,43.88,0.32,1.25,-0.1,1.44,0.34,0.85,-133.86,52.1,111.75,-0.03,1.23,-0.23,0.49,0.25,0.5,-166.03,1.7,1.9,0.02,0.31,-0.07,-0.03,0.81,0.57,-151.98,14.36,5.13,0.15,-0.02,0.03,0.04,0.24,0.1
0.51,-31.79,67.49,44.8,-0.16,1.0,0.02,0.84,0.52,0.74,-134.02,50.57,111.94,0.17,1.36,-0.03,0.31,0.19,0.5,-166.03,1.49,1.83,0.27,0.13,0.19,0.04,0.75,0.28,-151.74,14.43,5.22,0.2,0.06,0.14,0.17,-0.03,-0.13
0.52,-32.03,66.61,45.86,-0.18,0.61,0.09,0.44,0.43,0.63,-133.86,48.8,111.81,0.03,1.69,0.05,0.49,0.24,0.28,-166.14,1.42,1.62,0.31,0.22,0.45,0.05,0.73,0.16,-151.62,14.35,5.19,0.01,0.11,-0.0,-0.03,0.04,0.07
0.53,-32.13,65.78,46.7,0.08,1.11,0.15,-0.06,-0.04,0.38,-133.77,46.8,111.68,0.06,1.71,0.33,0.94,0.23,0.26,-166.31,1.17,1.68,0.11,0.14,0.06,-0.04,0.85,0.28,-151.78,14.37,5.04,-0.02,0.06,0.18,0.24,0.42,0.14
0.54,-32.42,65.13,46.86,0.05,0.86,-0.11,0.23,0.14,0.25,-133.67,46.19,111.75,-0.03,1.47,-0.04,0.55,0.03,0.03,-166.55,1.0,1.38,0.32,-0.03,-0.05,0.2,0.48,0.21,-151.47,14.4,5.14,0.06,0.05,0.25,0.3,0.35,0.17
0.55,-32.55,64.55,47.23,0.34,1.15,-0.04,0.31,0.21,0.24,-133.49,45.72,111.83,-0.03,1.32,-0.03,0.26,0.11,0.05,-166.6,1.07,1.07,0.31,0.1,0.05,0.02,0.55,0.27,-151.49,14.45,5.04,-0.11,-0.21,-0.03,0.56,0.24,0.02
0.56,-33.15,63.33,47.19,0.18,0.8,0.11,0.53,0.29,0.49,-134.31,44.1,111.58,0.07,1.25,-0.21,0.33,0.21,0.11,-166.41,1.0,1.06,-0.0,-0.06,0.0,0.27,0.39,0.34,-151.48,14.47,4.82,-0.04,0.24,0.09,0.32,0.21,0.29
0.57,-33.76,62.65,47.16,0.07,0.61,0.16,0.32,0.13,0.33,-134.42,42.48,111.78,0.27,1.39,0.11,0.78,0.35,0.51,-166.43,0.95,0.69,0.26,-0.05,-0.06,0.03,0.19,0.46,-151.41,14.6,5.03,0.02,0.02,0.08,0.26,0.38,0.09
0.58,-33.99,61.73,47.42,0.07,0.59,0.11,0.12,0.37,0.32,-134.73,40.88,111.89,-0.06,1.45,0.12,0.41,0.31,0.36,-166.16,1.03,0.45,0.41,0.16,0.11,0.08,0.1,0.71,-151.12,14.63,4.86,0.05,0.05,0.04,0.24,0.47,0.04
0.59,-34.35,61.21,47.77,0.1,0.69,0.16,0.41,0.2,0.95,-134.59,40.08,112.03,0.22,1.34,0.14,0.7,0.37,-0.11,-166.1,1.04,0.02,0.41,0.05,0.35,0.16,0.39,0.36,-151.02,14.75,5.06,-0.04,0.03,0.13,0.21,0.23,0.16
0.6,-34.3,60.41,47.87,0.34,0.7,0.09,0.11,0.43,0.92,-134.66,38.39,111.86,0.14,1.58,0.15,0.9,0.23,0.03,-165.78,1.07,0.3,0.34,-0.05,0.39,0.23,0.05,0.39,-150.98,14.61,5.35,-0.02,0.22,0.08,0.34,0.56,0.13
0.61,-34.83,59.74,48.35,0.21,0.6,0.15,0.12,0.67,0.88,-134.89,36.76,111.94,0.05,1.64,0.16,0.75,0.13,0.08,-165.47,0.89,0.48,0.07,0.04,0.35,0.19,0.53,1.05,-150.95,14.95,5.61,0.09,0.03,0.11,0.12,0.19,0.31
0.62,-35.08,59.42,48.3,0.11,0.32,-0.0,0.63,0.49,0.45,-134.83,35.25,111.76,-0.02,1.4,0.07,0.22,0.11,1.28,-165.16,1.08,0.9,0.22,-0.0,0.34,0.42,0.28,0.14,-150.64,15.2,5.74,0.22,0.01,0.18,0.11,0.5,0.46
0.63,-35.42,59.15,48.41,0.18,0.27,0.12,0.85,0.57,0.15,-135.03,33.77,111.86,-0.17,1.23,-0.04,0.45,0.01,0.58,-164.45,0.97,1.19,0.35,-0.03,0.35,0.1,0.63,1.37,-150.4,15.31,5.53,0.22,0.16,0.15,0.16,0.37,0.36
0.64,-35.48,58.68,48.41,0.11,0.11,0.11,1.05,1.0,-0.06,-135.05,32.37,111.81,0.05,1.12,0.15,0.7,0.17,0.35,-163.88,0.81,1.64,0.46,0.06,0.46,0.44,1.08,0.9,-150.17,15.53,5.8,0.13,-0.0,0.1,-0.02,0.32,0.36
0.65,-35.27,58.79,49.06,0.16,0.17,0.43,1.04,0.38,-0.08,-134.99,30.81,111.77,0.26,1.7,-0.05,0.28,0.38,0.15,-163.55,0.79,2.17,0.31,-0.06,0.25,-0.02,0.57,-0.09,-149.91,15.91,5.72,0.24,0.26,0.19,0.12,0.16,0.26
0.66,-35.7,58.28,49.39,0.4,0.57,0.25,1.04,0.54,0.87,-134.96,28.92,111.74,0.39,1.23,-0.06,0.13,0.23,0.33,-163.35,1.17,2.54,0.29,0.04,0.03,0.26,0.12,0.29,-149.51,16.06,6.21,0.12,0.11,0.08,0.14,0.1,0.26
0.67,-36.06,58.38,49.26,0.3,0.17,0.24,0.77,0.63,1.06,-134.98,27.93,111.6,0.14,1.11,-0.04,0.96,-0.03,0.38,-163.13,1.14,2.83,0.19,0.15,0.23,0.76,0.15,0.74,-149.52,16.13,6.27,0.33,-0.02,0.2,0.28,0.13,0.67
0.68,-36.82,58.05,49.0,0.31,0.19,0.02,0.17,0.88,1.26,-135.15,26.56,111.47,0.13,1.19,0.03,1.18,-0.06,0.54,-162.51,1.21,3.14,0.34,0.05,0.79,0.79,0.91,1.53,-149.34,16.35,6.53,0.18,0.24,0.13,0.37,-0.01,0.64
0.69,-36.84,58.05,49.61,0.07,0.07,0.34,2.36,0.3,2.08,-135.27,25.24,111.37,0.14,1.2,0.16,2.36,0.39,2.52,-161.67,1.34,3.25,0.3,0.17,0.73,0.7,0.98,2.55,-149.42,16.57,6.69,0.34,0.23,-0.07,0.28,0.03,0.95
0.7,-36.06,58.19,50.21,0.26,0.23,0.18,1.66,0.28,1.72,-135.43,24.07,110.99,0.43,0.89,0.2,2.53,0.58,1.56,-161.03,1.36,3.58,-0.01,0.1,0.67,0.45,1.27,1.36,-149.07,16.71,7.16,0.42,-0.01,0.04,0.4,0.21,1.06
0.71,-35.97,57.5,50.8,-0.06,0.77,0.05,0.59,0.26,1.63,-135.42,23.88,110.9,-0.02,0.02,0.27,0.74,0.26,1.42,-160.3,1.15,3.71,0.29,0.2,0.67,0.37,1.75,0.4,-149.16,16.94,7.2,0.29,0.14,0.07,0.34,0.09,1.68
0.72,-35.86,57.11,51.24,0.11,0.94,0.31,0.92,0.48,1.01,-135.55,23.53,111.03,-0.1,0.07,0.12,0.63,0.54,1.06,-160.04,0.98,3.76,0.26,0.33,0.31,0.58,1.74,0.63,-149.06,16.94,7.46,0.14,0.05,0.08,0.46,0.17,1.76
0.73,-35.64,56.4,51.49,0.15,1.13,0.19,1.35,0.77,0.32,-135.3,23.68,110.82,0.08,0.25,0.09,0.43,1.11,0.86,-159.71,0.66,3.93,0.07,0.18,0.25,0.79,1.99,1.1,-149.2,16.88,7.31,0.22,0.03,0.09,0.8,0.31,1.87
0.74,-35.46,55.49,52.21,0.28,0.77,0.33,1.11,0.71,0.54,-135.19,22.83,110.64,0.13,0.68,-0.04,0.53,0.53,-0.16,-158.92,0.75,3.98,0.09,0.26,0.22,0.79,0.54,0.57,-148.86,16.74,8.0,0.31,-0.03,0.2,0.76,0.22,1.92
0.75,-34.77,54.93,53.1,0.5,0.68,0.24,1.2,0.19,0.91,-135.48,22.55,110.76,0.13,0.41,0.09,0.38,0.22,0.3,-159.0,0.98,4.32,-0.01,0.23,0.32,0.37,0.59,0.81,-148.77,16.99,8.06,0.32,0.15,0.13,0.79,-0.08,2.21
0.76,-34.6,53.85,53.53,0.1,0.89,0.19,1.38,0.94,0.79,-135.21,22.39,110.81,-0.01,0.44,0.06,0.41,0.13,0.39,-158.59,1.19,4.43,0.06,0.13,0.43,0.13,0.87,1.24,-148.53,17.2,8.19,0.34,0.09,0.18,0.81,0.3,2.74
0.77,-34.09,52.8,54.22,0.28,1.01,0.45,0.29,0.54,0.76,-135.19,22.69,110.68,0.01,0.17,0.21,0.75,0.22,0.54,-157.77,1.02,4.64,0.4,0.06,1.22,0.34,0.32,0.86,-148.29,17.35,8.47,0.48,0.05,0.1,0.66,0.3,2.79
0.78,-33.75,51.96,54.7,0.02,0.96,0.07,1.31,0.93,0.14,-135.2,22.74,110.76,-0.1,-0.02,0.09,0.9,0.57,0.59,-156.61,1.01,5.31,0.09,0.03,1.0,0.98,0.06,0.32,-148.36,17.15,8.8,0.31,-0.04,0.07,0.61,0.06,2.58
0.79,-33.7,50.91,55.15,0.09,0.65,0.24,1.86,0.29,0.89,-134.85,23.38,110.87,0.18,0.49,0.15,0.88,0.28,1.56,-155.46,1.05,5.31,-0.08,0.12,1.03,0.5,0.73,2.05,-148.15,17.29,9.1,0.41,-0.07,0.15,0.82,0.02,2.51
0.8,-33.86,50.74,55.13,-0.09,0.35,0.41,2.15,0.86,0.82,-134.73,23.77,111.17,0.21,0.91,0.0,1.11,0.42,2.68,-154.45,1.15,5.36,0.21,0.04,0.42,0.43,0.54,2.42,-147.81,17.55,9.59,0.42,0.14,0.16,0.5,-0.02,1.45
0.81,-33.39,50.36,55.89,0.19,0.3,0.23,2.09,0.11,0.37,-134.44,24.91,111.38,0.42,0.89,0.12,0.8,0.09,2.33,-154.01,1.11,5.64,0.26,0.11,0.36,0.93,0.37,1.51,-147.8,17.81,9.92,0.43,0.06,0.18,0.64,0.56,1.19
0.82,-32.38,50.21,56.41,0.13,0.21,0.4,1.95,0.38,0.57,-134.12,25.27,111.55,0.52,0.41,0.09,0.88,0.25,1.17,-153.9,1.15,5.74,0.15,0.13,0.13,0.35,0.59,1.07,-147.42,17.78,10.4,0.25,0.04,0.03,1.1,0.66,1.81
0.83,-31.33,50.19,57.35,0.35,0.04,0.25,1.51,0.74,0.21,-134.1,26.02,111.56,0.42,0.33,0.13,1.48,0.03,0.47,-153.7,1.21,5.8,0.36,0.15,0.12,0.63,1.0,1.88,-147.76,17.88,10.5,0.35,0.06,0.32,0.69,0.08,1.81
0.84,-30.67,50.18,57.74,-0.01,0.06,0.16,1.8,0.45,1.13,-133.67,27.23,111.09,0.66,1.34,-0.02,1.43,-0.09,1.25,-153.53,1.25,5.64,0.19,-0.05,-0.07,1.12,1.04,2.54,-147.8,18.04,11.17,0.34,-0.07,0.24,0.57,0.23,1.15
0.85,-30.67,50.32,58.03,0.15,0.08,0.24,2.25,-0.19,0.78,-133.97,28.09,110.49,0.49,0.83,0.18,1.37,0.11,1.94,-153.51,1.22,5.29,0.21,0.17,0.51,0.28,0.23,2.27,-148.06,18.09,11.42,0.34,0.11,-0.04,0.39,0.08,0.25
0.86,-30.01,50.15,58.58,0.25,0.15,0.21,1.77,0.09,0.48,-133.78,29.04,110.05,0.38,1.12,0.12,1.11,0.29,1.58,-152.84,0.57,5.23,0.13,0.29,0.63,0.17,0.58,2.23,-147.82,18.2,12.04,0.23,0.04,0.34,0.54,-0.11,0.52
0.87,-29.08,50.57,59.01,0.19,0.47,0.08,1.65,0.26,0.22,-134.05,29.57,109.67,0.43,0.37,0.0,1.11,0.41,0.32,-152.08,0.38,5.07,0.25,0.34,0.09,0.25,1.22,1.91,-147.16,18.34,12.19,0.19,-0.02,0.35,0.61,0.09,0.66
0.88,-28.5,50.88,59.25,0.29,0.45,0.13,1.75,0.13,0.53,-133.95,30.28,109.13,0.23,0.46,0.18,0.94,0.45,0.67,-152.56,0.09,4.59,0.19,0.2,0.4,0.21,0.11,1.06,-146.85,18.53,12.5,0.52,0.11,0.36,0.88,0.06,0.46
0.89,-27.88,51.35,59.53,0.04,0.25,-0.12,1.27,0.21,0.28,-133.8,30.96,108.76,0.38,0.52,0.11,0.81,0.44,0.68,-152.94,-0.08,4.47,0.23,0.15,0.54,0.18,0.59,0.83,-146.35,18.6,12.8,0.56,0.07,0.36,0.69,0.18,0.16
0.9,-27.72,51.54,59.73,0.05,0.49,0.02,0.98,0.07,0.58,-133.71,31.3,108.35,0.23,0.57,0.07,0.67,0.24,0.53,-153.1,0.05,4.49,0.28,0.19,0.24,0.66,0.87,0.74,-146.35,18.59,12.96,0.24,-0.14,0.33,0.61,0.14,0.16
0.91,-27.3,51.8,59.79,0.23,0.35,0.05,0.91,-0.02,0.61,-134.05,31.56,108.24,0.47,0.69,0.15,0.79,0.09,0.32,-153.17,-0.03,4.3,0.2,0.07,0.06,0.92,0.77,1.05,-145.99,18.76,13.23,0.32,0.25,0.31,0.56,0.23,0.07
0.92,-26.88,52.15,60.1,0.07,0.24,0.07,-0.05,0.42,1.19,-133.86,31.67,107.8,0.25,-0.02,0.04,1.07,-0.01,0.51,-152.87,0.53,4.0,0.27,0.42,0.09,0.25,1.16,0.69,-145.75,18.94,13.64,0.35,-0.05,0.12,0.4,0.18,0.22
0.93,-26.14,52.46,60.35,0.28,0.12,0.02,0.41,0.55,0.72,-133.6,31.93,107.76,0.24,0.09,0.05,0.68,0.12,0.53,-152.62,1.07,3.6,0.45,0.56,0.36,0.03,1.22,0.65,-145.6,18.76,13.99,0.38,0.1,0.06,0.34,0.14,0.31
0.94,-25.76,52.49,60.16,0.14,-0.15,-0.09,0.86,0.28,0.46,-133.83,32.12,107.38,0.14,0.13,0.13,0.29,0.32,0.23,-152.84,1.43,3.26,0.3,0.51,0.29,0.59,1.23,1.3,-145.27,19.0,14.27,0.32,-0.1,0.15,0.52,0.49,0.04
0.95,-25.16,52.48,60.03,0.05,-0.03,0.03,0.69,0.31,0.27,-133.85,32.1,107.2,0.17,0.11,0.29,0.13,0.36,0.68,-153.84,1.63,2.52,0.52,0.26,0.49,0.23,1.09,0.79,-144.89,18.97,14.67,0.08,-0.15,0.25,0.25,0.02,0.27
0.96,-25.17,52.69,59.99,0.09,0.27,0.02,0.15,0.31,0.29,-133.73,31.86,106.91,0.32,0.18,0.02,0.17,0.33,0.72,-154.94,1.57,2.03,0.48,0.3,0.64,0.4,0.83,0.47,-144.98,18.94,14.99,0.35,0.14,-0.06,0.23,0.38,0.21
0.97,-24.98,52.78,59.77,0.05,0.17,-0.01,0.42,-0.03,0.21,-133.94,31.79,106.63,0.22,0.04,0.13,0.28,0.31,0.76,-155.47,1.5,1.64,0.38,0.05,0.63,0.33,1.0,0.96,-145.0,19.05,15.39,0.41,0.01,-0.0,0.08,-0.0,0.36
0.98,-25.17,52.91,59.84,-0.03,0.06,0.2,0.4,0.27,0.2,-133.93,31.98,106.09,0.37,0.11,0.11,-0.02,0.24,0.43,-155.6,1.79,1.45,0.16,0.04,0.06,0.04,0.38,0.34,-144.85,19.04,15.81,0.35,-0.06,0.26,0.26,-0.03,0.38
0.99,-25.4,53.25,59.95,0.2,0.12,-0.01,0.62,0.33,0.75,-133.86,32.03,105.83,0.06,-0.02,0.08,0.35,0.39,0.2,-155.03,2.04,1.06,0.34,0.1,0.6,0.47,0.03,0.4,-144.66,18.85,16.25,0.26,0.13,0.17,-0.01,-0.08,0.13
1.0,-25.62,53.19,60.02,0.26,0.13,-0.15,0.52,0.16,0.44,-134.11,32.27,105.79,0.03,0.4,0.15,0.13,0.05,0.01,-154.14,1.87,0.69,0.25,0.05,0.88,0.1,0.54,0.3,-144.52,18.95,16.35,0.44,0.05,0.19,0.14,0.13,0.19
1.01,-26.12,53.48,60.29,0.02,0.18,0.08,0.27,0.15,0.42,-134.18,32.65,105.49,0.12,0.22,0.11,0.17,0.23,0.17,-153.58,2.1,0.58,0.27,-0.04,0.64,0.5,0.76,0.26,-143.99,18.8,16.49,0.3,0.31,0.29,0.15,0.41,0.2
1.02,-26.23,53.61,60.03,0.19,0.2,0.08,0.11,0.15,0.5,-134.44,32.86,105.44,0.18,0.33,-0.11,0.24,0.09,0.76,-153.17,2.09,0.41,0.14,0.3,0.02,0.76,0.97,0.63,-143.63,18.97,16.64,0.09,-0.11,0.25,0.03,0.43,0.3
1.03,-26.41,53.95,59.99,0.1,0.09,0.0,0.27,0.01,0.66,-134.44,33.48,105.32,0.09,0.39,-0.05,0.15,0.15,0.63,-153.9,1.98,0.32,0.19,0.11,0.25,0.67,0.63,0.43,-143.55,18.61,16.95,0.19,0.28,-0.11,0.22,0.4,0.91
1.04,-26.65,54.06,59.9,0.12,0.23,0.32,0.22,0.17,0.41,-134.43,33.91,105.15,0.05,0.12,0.02,0.2,0.19,0.4,-153.93,1.56,0.02,0.3,0.12,0.38,0.59,-0.06,0.01,-143.55,18.41,16.91,0.34,0.07,0.03,0.32,0.3,0.77
1.05,-27.07,54.2,59.75,0.22,0.05,0.02,0.17,-0.02,0.34,-134.26,33.91,105.09,0.14,0.05,0.28,0.1,0.13,0.11,-153.77,1.69,0.02,-0.04,0.21,0.12,0.41,0.09,0.09,-143.68,18.38,17.11,-0.06,0.15,0.03,0.23,0.02,1.06
1.06,-27.21,54.84,59.53,0.19,0.16,0.01,0.1,0.02,0.76,-134.47,34.28,104.76,0.28,0.3,0.01,0.21,0.01,0.18,-153.67,1.52,0.1,0.21,0.1,0.19,0.32,1.0,0.28,-143.71,18.41,16.96,0.12,-0.11,0.24,0.29,0.21,0.29
1.07,-27.52,54.83,59.52,0.2,0.13,0.03,0.81,0.0,-0.22,-134.45,34.9,104.48,0.02,0.18,0.09,0.23,-0.02,0.74,-153.31,1.61,0.16,0.05,-0.1,0.55,0.12,0.93,0.13,-144.01,18.07,17.3,0.25,0.16,0.19,0.17,-0.01,0.3
1.08,-27.45,54.93,59.53,0.21,0.09,-0.03,0.74,0.16,0.07,-134.61,34.91,104.51,0.03,0.2,-0.0,0.18,0.29,0.61,-152.85,1.68,0.1,0.26,0.06,0.46,0.46,1.28,0.21,-144.13,18.3,17.42,0.34,0.07,0.33,0.32,-0.08,0.07
1.09,-27.58,54.99,59.55,0.06,0.17,-0.13,0.79,-0.08,0.38,-134.46,34.78,104.35,0.08,0.09,0.14,-0.06,-0.04,1.09,-152.6,1.74,0.04,0.05,0.13,0.58,1.06,2.01,0.39,-144.21,18.09,17.59,0.26,-0.13,0.13,0.25,-0.07,0.12
1.1,-27.67,55.14,59.47,-0.04,0.22,0.05,0.74,-0.05,0.08,-134.55,35.17,104.25,0.37,0.11,0.12,0.35,0.59,1.42,-152.18,1.96,-0.07,0.28,0.2,0.41,0.7,1.52,0.38,-144.36,17.94,18.08,0.37,0.12,0.33,0.01,0.81,1.37
1.11,-27.53,55.04,59.47,0.1,0.03,-0.04,0.98,0.1,0.12,-134.36,34.88,104.11,0.02,0.09,-0.07,0.49,0.59,0.86,-151.69,2.0,0.39,0.22,0.01,0.27,0.75,1.04,0.56,-144.3,17.8,18.6,0.27,-0.12,0.25,0.15,0.33,2.11
1.12,-27.35,55.35,59.57,0.07,0.22,0.06,0.97,0.12,0.26,-134.42,35.01,103.91,0.1,0.12,0.06,0.5,0.69,0.6,-151.61,2.06,0.6,0.2,0.07,0.08,0.46,0.15,0.88,-143.93,17.85,18.77,0.17,-0.01,0.35,0.3,0.61,1.03
1.13,-27.2,55.54,59.85,-0.1,0.22,-0.05,0.98,-0.01,0.27,-134.7,35.12,103.69,0.24,0.24,0.17,0.34,0.61,0.27,-151.48,2.25,0.75,0.24,0.29,0.25,0.67,0.38,0.25,-143.56,18.14,19.07,0.4,0.12,-0.1,0.42,1.09,0.86
1.14,-27.28,55.73,59.7,-0.15,0.18,-0.0,0.64,0.11,0.15,-134.47,34.97,103.51,0.32,0.27,0.14,0.24,0.13,0.67,-150.79,2.74,0.88,0.04,0.28,0.11,1.42,1.33,0.98,-143.65,17.93,19.62,0.65,0.03,0.38,0.27,0.89,0.29
1.15,-26.94,55.72,59.88,0.17,-0.09,0.13,0.84,0.13,0.11,-134.27,34.52,103.17,0.18,0.15,0.12,0.14,0.21,0.43,-150.91,2.88,0.86,0.3,0.39,-0.02,2.11,2.35,0.97,-144.17,17.69,20.57,0.64,0.14,0.61,0.14,0.21,0.15
1.16,-26.72,55.76,60.07,0.08,-0.04,-0.09,0.67,-0.05,-0.01,-134.29,34.47,103.01,0.1,0.06,0.13,0.12,-0.06,-0.08,-150.9,3.13,0.96,0.1,0.21,0.18,0.71,1.81,1.98,-144.44,17.39,21.44,0.7,0.12,0.45,0.18,0.29,0.18
1.17,-26.27,55.89,60.24,0.12,-0.03,0.18,0.33,-0.09,0.07,-134.21,34.51,102.47,0.15,0.07,0.23,0.26,0.25,0.21,-151.22,3.4,0.71,-0.2,0.04,0.68,0.21,0.55,1.43,-144.89,17.3,22.27,0.55,0.02,0.31,0.25,0.44,0.15
1.18,-26.39,56.0,60.21,0.14,0.09,-0.07,0.29,-0.04,0.26,-134.01,34.17,102.53,0.3,0.27,0.16,0.29,-0.01,0.7,-152.04,3.74,0.69,0.13,0.05,1.0,0.71,0.25,0.06,-144.89,16.97,23.13,0.74,0.28,0.23,0.3,0.42,0.26
1.19,-26.17,55.8,60.01,0.07,-0.12,-0.04,0.37,-0.1,-0.03,-133.92,33.85,102.11,0.49,0.15,0.2,0.28,0.01,0.34,-152.89,3.8,0.8,0.02,0.02,0.75,0.88,0.5,0.52,-144.75,16.62,23.99,0.63,0.05,0.1,0.16,0.62,0.14
1.2,-25.84,55.81,60.09,0.03,0.21,0.06,0.52,0.27,0.21,-133.9,33.74,101.69,0.33,0.25,-0.01,0.1,0.48,-0.12,-153.63,3.5,0.68,-0.04,0.22,0.68,0.97,1.55,-0.11,-144.61,16.83,24.96,0.99,0.02,0.07,0.61,0.77,0.01
1.21,-25.93,55.59,59.89,0.02,-0.04,0.03,0.17,0.6,0.39,-133.78,33.61,101.17,0.61,0.26,0.28,0.24,0.37,0.74,-154.48,3.2,0.62,0.09,0.28,0.36,0.02,1.73,0.66,-143.95,16.77,25.51,0.76,0.3,0.48,0.83,0.57,1.59
1.22,-25.74,55.7,59.94,0.01,0.13,-0.2,0.19,0.09,0.07,-133.74,33.5,100.36,0.75,0.03,0.03,0.27,0.09,0.45,-154.21,3.16,0.59,0.13,0.19,-0.06,0.32,0.42,1.67,-143.01,17.05,26.01,0.68,0.19,0.75,0.51,0.42,1.72
1.23,-25.5,55.32,59.84,0.24,0.23,0.0,0.96,0.33,0.72,-133.35,32.92,99.36,0.73,0.32,-0.11,-0.07,1.38,1.47,-154.14,3.35,0.22,0.18,0.09,0.21,0.19,0.48,1.19,-141.87,17.61,26.48,0.64,-0.07,0.79,0.65,1.31,1.46
1.24,-25.37,55.0,59.59,0.04,0.25,0.12,1.21,0.36,1.16,-133.27,32.48,98.5,0.91,0.45,0.1,0.44,1.6,2.33,-153.62,3.35,-0.04,-0.12,-0.23,0.07,0.23,0.3,0.12,-141.65,17.72,27.39,0.65,0.21,0.17,0.2,1.2,0.87
1.25,-24.54,54.71,59.48,0.39,0.7,0.0,1.94,0.79,1.25,-132.91,31.64,98.01,0.78,0.8,0.14,0.28,0.81,0.65,-154.09,3.22,0.08,0.11,0.23,0.41,0.62,0.39,0.89,-141.73,17.84,28.17,0.69,-0.04,0.15,0.2,0.76,1.44
1.26,-23.93,54.33,59.3,0.32,0.56,0.23,1.61,0.96,1.0,-132.79,31.31,97.41,0.82,0.73,0.29,0.2,0.59,0.28,-154.1,3.12,0.21,0.11,0.23,0.27,0.75,0.39,1.61,-141.83,17.89,28.57,0.72,0.27,0.33,0.13,1.33,1.52
1.27,-23.63,54.27,59.07,0.35,0.46,0.06,1.41,0.98,0.96,-132.77,31.01,97.03,0.97,0.7,0.14,0.32,0.33,0.11,-154.35,3.08,0.34,0.06,0.15,0.26,0.5,0.16,1.8,-141.97,17.8,29.02,0.54,0.03,0.36,0.24,1.81,1.79
1.28,-22.69,53.86,58.84,0.66,0.56,0.1,1.15,0.65,0.61,-132.35,29.82,96.09,0.69,0.95,0.07,0.06,0.5,0.76,-154.92,2.78,0.35,0.15,0.32,0.43,0.77,0.01,1.77,-142.06,17.74,29.66,0.39,0.07,0.13,0.16,0.81,1.61
1.29,-21.67,53.1,58.39,0.38,0.51,-0.05,1.37,0.54,0.69,-132.05,28.55,95.16,0.48,1.15,0.08,0.06,0.68,1.56,-155.44,2.88,0.56,0.35,0.4,0.83,1.2,0.1,1.95,-141.65,17.72,30.12,0.6,0.01,0.14,-0.02,0.21,1.46
1.3,-21.04,52.58,58.33,0.38,0.56,0.13,1.24,0.68,0.5,-131.95,27.47,94.82,0.43,0.93,-0.01,0.14,0.55,0.63,-155.55,2.02,0.86,-0.01,0.4,0.14,1.1,0.56,1.82,-141.88,17.8,30.67,0.31,0.09,0.07,0.1,0.62,0.61
1.31,-20.58,51.81,58.46,-0.07,0.59,0.32,0.91,0.53,0.01,-131.69,26.56,94.61,0.08,0.83,0.09,0.68,0.33,0.55,-154.99,1.9,0.63,-0.14,0.09,0.63,0.93,2.11,1.49,-141.81,17.52,30.85,0.39,0.01,0.13,0.56,1.73,1.2
1.32,-20.9,50.97,58.45,0.05,0.77,0.23,1.18,-0.05,0.75,-131.76,25.61,94.91,0.05,1.05,0.09,1.08,0.17,0.54,-154.89,1.85,0.84,0.2,0.18,0.07,0.61,2.99,1.56,-141.96,17.26,31.63,0.36,0.29,0.09,1.01,2.44,1.89
1.33,-21.12,50.44,58.92,0.16,0.6,0.15,1.42,0.11,-0.11,-131.69,24.88,95.15,0.22,0.8,0.1,0.61,0.69,1.09,-154.97,1.42,0.84,0.12,0.31,0.31,1.6,1.27,2.58,-141.35,17.31,31.79,0.48,0.29,0.32,0.26,0.87,1.42
1.34,-21.61,49.59,59.2,0.41,0.41,0.07,1.57,0.99,0.03,-131.91,23.77,95.47,0.43,0.71,0.0,0.44,0.83,0.66,-155.43,1.17,0.58,0.21,0.35,0.66,0.28,1.17,2.98,-141.25,17.21,31.94,0.45,0.23,0.36,0.3,0.77,0.53
1.35,-22.31,48.96,59.73,0.29,0.45,0.26,1.13,0.74,0.11,-131.85,23.61,95.91,0.73,0.6,-0.09,1.38,0.99,1.41,-156.06,0.75,0.61,-0.05,0.29,0.56,0.46,1.11,2.59,-140.66,17.07,32.43,0.38,0.23,0.11,0.11,0.45,0.01
1.36,-23.18,48.63,60.1,0.39,0.4,0.24,1.49,0.52,0.8,-132.06,22.39,96.68,0.64,0.87,-0.07,0.8,0.41,1.72,-156.15,0.7,0.38,0.11,0.3,0.17,0.76,0.78,2.32,-140.99,16.86,32.87,0.2,0.14,0.16,0.59,1.14,0.01
1.37,-23.86,48.04,59.98,0.32,0.44,0.18,1.64,0.27,0.87,-132.39,21.49,97.33,0.8,1.02,0.02,0.75,0.14,1.97,-156.42,0.36,0.31,0.54,0.13,0.18,1.15,0.38,2.1,-140.92,16.32,33.15,-0.04,0.3,0.17,0.75,0.57,-0.19
1.38,-24.51,47.56,59.79,0.27,0.36,0.05,1.91,0.73,1.44,-132.19,20.38,98.61,1.02,0.98,-0.09,0.09,1.0,1.61,-156.61,0.51,0.72,0.33,0.03,0.09,1.67,1.35,0.56,-141.14,16.3,33.45,0.56,0.28,0.08,0.16,0.27,0.4
1.39,-25.11,47.04,59.44,0.14,0.43,0.02,1.87,0.85,1.58,-132.44,19.15,99.87,1.16,0.86,-0.02,0.39,0.85,2.21,-156.93,0.38,1.18,0.1,0.12,0.55,0.53,0.74,2.5,-141.22,15.72,33.7,0.45,0.33,0.23,0.69,0.49,0.95
1.4,-25.48,46.57,59.44,0.18,0.44,0.27,1.87,0.03,1.85,-132.43,18.15,100.86,0.89,0.85,0.17,0.33,-0.08,2.82,-157.48,0.06,1.29,0.05,0.14,0.6,1.36,0.29,1.86,-141.36,15.53,34.26,0.35,-0.07,0.1,0.58,0.13,0.46
1.41,-25.95,46.04,59.31,-0.02,0.5,-0.02,1.94,-0.02,1.47,-132.54,17.33,102.01,0.98,0.54,0.12,0.37,0.39,2.62,-157.73,-0.06,1.21,0.08,-0.01,0.43,0.33,0.41,1.37,-141.58,15.07,34.53,0.4,0.19,0.08,0.16,0.49,0.28
1.42,-26.39,45.27,59.22,-0.07,0.49,0.09,2.14,-0.02,1.41,-133.19,16.93,103.32,1.52,-0.02,0.04,0.45,0.76,1.1,-158.1,0.06,1.23,0.11,0.05,0.11,-0.13,0.9,1.49,-141.86,14.86,35.33,0.64,0.3,0.4,0.53,0.41,0.77
1.43,-23.86,44.78,58.97,0.23,0.58,0.19,0.89,0.22,0.33,-133.54,16.99,104.68,1.16,0.03,0.25,0.71,0.81,1.3,-158.41,0.09,1.35,0.11,0.11,0.14,0.8,0.96,1.74,-142.03,14.3,35.85,0.47,0.16,0.29,0.76,0.19,1.05
1.44,-23.71,44.3,58.78,0.1,0.56,0.23,1.4,0.19,0.69,-133.63,16.95,105.28,1.1,0.18,0.27,0.5,0.5,1.9,-158.61,0.12,1.59,0.2,0.08,0.13,0.79,0.74,1.7,-141.92,14.19,36.12,0.57,0.16,0.46,0.57,0.32,0.55
1.45,-23.89,44.12,58.7,0.33,0.62,-0.06,1.47,0.21,1.3,-133.74,16.75,106.1,0.93,0.1,0.29,0.32,0.0,2.38,-158.71,0.18,1.32,-0.1,-0.13,0.29,0.9,0.47,1.55,-141.89,14.05,36.64,0.46,0.16,0.17,0.82,0.67,0.01
1.46,-23.96,43.57,58.33,0.32,0.37,0.04,1.14,0.81,0.65,-133.83,16.49,106.89,0.68,0.06,-0.04,-0.15,0.05,1.51,-158.88,0.16,1.36,0.31,-0.07,0.43,0.57,0.21,1.88,-142.09,13.75,37.29,0.58,0.06,0.26,0.21,0.51,0.42
1.47,-24.08,43.11,57.32,1.07,0.58,0.16,0.8,0.29,0.18,-134.3,16.41,107.53,0.38,0.27,-0.0,-0.03,0.21,0.89,-159.57,0.24,1.24,0.08,0.17,0.36,0.52,0.75,0.2,-142.19,13.15,38.16,0.62,0.23,0.47,0.43,0.41,0.4
1.48,-24.24,42.62,56.19,1.05,0.22,0.35,0.78,0.38,0.26,-134.48,16.22,108.01,0.7,0.18,0.21,0.5,0.57,0.29,-159.87,0.28,0.9,-0.07,-0.02,0.15,1.13,0.34,0.42,-142.47,12.87,38.53,0.51,0.41,0.28,0.1,0.23,0.2
1.49,-24.4,42.45,55.11,1.07,0.54,0.4,1.12,0.19,0.01,-134.76,15.67,108.69,0.75,0.57,0.17,0.35,0.27,1.45,-159.86,0.4,1.12,0.16,0.01,0.14,1.19,1.39,0.65,-142.62,12.6,39.17,0.5,0.13,0.24,-0.1,0.71,0.38
1.5,-24.55,41.94,53.77,1.17,0.23,0.25,1.91,0.27,0.3,-134.75,15.39,109.03,0.18,0.03,0.13,-0.02,0.19,0.35,-159.29,0.32,1.15,0.14,0.01,0.04,0.64,1.98,0.32,-143.38,12.33,40.0,0.53,-0.12,0.37,0.2,0.51,0.46
1.51,-24.69,41.88,52.42,0.63,0.23,0.29,1.57,0.29,0.49,-135.11,15.45,109.19,0.25,0.18,0.17,0.52,0.1,1.5,-159.63,0.48,0.97,-0.11,0.21,0.46,0.61,0.43,0.26,-143.58,11.96,40.18,0.76,-0.06,0.66,0.65,0.49,0.36
1.52,-24.76,42.35,51.55,0.63,0.81,0.11,0.64,0.16,1.12,-135.28,15.54,109.41,0.22,0.07,0.05,1.09,0.16,1.28,-160.05,0.64,1.19,0.07,-0.01,0.69,0.89,0.77,1.15,-143.68,12.05,40.57,0.4,0.14,0.48,1.08,0.55,0.31
1.53,-24.49,43.25,50.83,0.25,0.58,0.15,0.75,0.12,0.78,-135.39,15.66,109.52,-0.09,0.32,0.14,0.4,0.23,1.93,-160.19,0.75,1.25,0.12,0.16,0.08,0.86,0.0,0.7,-144.4,11.72,41.5,0.57,0.09,0.65,0.74,0.21,0.43
1.54,-24.89,43.93,50.06,0.43,0.6,0.2,1.8,0.15,0.15,-135.53,16.36,109.48,0.22,0.56,0.08,0.34,0.26,0.46,-159.89,0.54,1.5,0.01,0.1,-0.03,0.45,0.91,0.09,-144.83,11.19,42.22,0.42,0.06,0.67,0.29,0.11,0.12
1.55,-24.62,44.79,49.74,0.13,1.02,-0.05,0.84,0.37,1.15,-135.49,16.7,109.52,-0.24,0.4,-0.0,1.58,0.06,1.75,-159.98,0.22,1.48,0.12,0.43,0.23,0.08,0.91,1.07,-145.48,10.79,43.12,0.88,0.17,0.49,0.43,0.52,0.29
1.56,-24.18,45.85,49.7,-0.01,1.05,0.08,0.64,0.53,1.99,-135.69,17.15,109.55,0.03,0.66,0.22,1.14,0.19,0.0,-160.09,0.26,1.56,0.3,0.08,0.19,0.22,0.06,1.21,-145.76,10.53,43.97,0.79,-0.09,0.29,0.08,0.71,0.35
1.57,-23.92,47.02,49.24,0.22,1.11,-0.1,1.37,0.47,1.03,-135.68,18.27,109.83,0.18,0.77,-0.04,0.63,0.02,2.15,-160.39,0.12,1.89,0.37,0.11,0.16,0.26,0.55,1.82,-145.79,10.47,44.71,0.54,0.05,0.25,0.34,1.28,0.23
1.58,-23.66,48.48,48.95,0.04,1.26,0.13,1.67,0.11,0.01,-135.57,19.45,109.63,0.14,1.16,0.05,0.4,0.21,0.95,-160.46,0.16,2.25,0.19,0.22,0.24,0.93,0.43,2.06,-146.56,9.56,45.41,0.75,0.31,0.33,0.97,0.42,0.64
1.59,-22.54,49.93,48.72,0.25,1.45,0.19,0.94,0.16,1.09,-135.66,20.59,109.27,-0.14,1.06,0.15,1.1,0.02,0.85,-160.86,0.15,2.4,0.04,0.08,0.2,1.24,0.62,1.47,-146.92,9.52,45.8,0.39,-0.02,0.3,0.67,0.46,0.29
1.6,-21.47,51.53,48.85,0.2,1.64,0.31,0.97,0.39,1.66,-135.86,21.85,109.19,0.04,1.37,0.27,1.62,0.14,0.45,-160.95,0.08,2.54,0.12,0.14,0.17,0.62,1.13,1.3,-147.02,9.27,46.37,0.21,-0.01,0.25,0.21,0.89,0.49
1.61,-20.79,53.37,48.65,-0.01,1.8,0.03,1.38,0.24,0.75,-135.47,23.64,108.99,0.27,1.67,0.15,-0.08,0.52,1.23,-160.76,0.42,2.98,0.33,0.19,0.3,0.57,0.27,0.95,-147.07,9.21,46.76,0.5,0.08,-0.01,0.12,1.16,0.32
1.62,-20.7,53.79,48.45,0.16,1.76,0.04,1.18,0.13,0.57,-135.61,24.18,109.13,0.2,1.47,0.01,0.12,0.12,0.53,-160.39,0.37,3.06,0.26,0.14,0.41,0.35,0.13,1.33,-147.16,8.95,46.89,0.45,0.18,0.15,0.21,1.25,0.65
1.63,-20.58,54.44,48.35,0.04,1.8,0.18,1.21,0.09,0.48,-135.43,25.1,108.75,0.15,1.34,0.15,0.38,0.04,0.1,-160.03,0.16,3.13,0.32,0.23,0.38,0.13,0.22,1.3,-147.13,8.88,47.17,0.32,0.09,0.31,0.35,1.34,0.79
1.64,-19.58,56.2,47.93,0.35,1.94,0.09,-0.01,0.37,1.82,-135.49,26.63,108.69,0.15,1.39,0.1,1.07,-0.07,0.91,-159.49,0.35,3.38,0.03,0.15,0.23,0.47,0.1,0.52,-148.14,7.88,47.56,0.54,0.17,0.73,1.01,1.34,0.99
1.65,-18.49,58.71,47.73,0.14,1.96,0.05,-0.02,0.52,2.1,-135.3,28.31,108.63,0.02,1.56,-0.07,0.75,0.04,1.11,-159.22,0.78,3.76,0.19,0.2,0.15,0.44,0.27,0.22,-148.66,7.04,48.38,0.79,0.07,0.6,0.48,0.79,2.01
1.66,-17.73,60.94,47.36,0.05,2.08,-0.03,0.68,0.35,1.0,-135.39,29.12,108.74,0.03,1.57,0.26,0.43,-0.11,0.84,-158.9,0.92,3.87,0.46,0.17,0.51,1.93,1.04,0.32,-149.38,6.53,49.38,0.81,0.2,0.85,0.43,1.79,2.95
1.67,-17.15,63.08,46.43,0.12,1.87,-0.03,0.99,0.25,0.43,-135.36,31.06,108.62,-0.12,1.69,0.35,0.48,0.42,1.05,-158.11,1.02,4.36,0.25,0.18,0.47,1.06,1.6,0.44,-150.22,5.67,50.26,0.64,0.11,0.77,1.16,1.05,2.39
1.68,-16.57,65.28,45.39,0.07,2.34,0.13,-0.04,0.18,1.1,-135.05,33.18,108.8,0.16,1.75,0.2,0.23,0.15,1.47,-157.68,1.24,4.53,-0.18,0.29,0.06,0.6,1.27,0.4,-150.82,5.28,51.19,0.72,0.16,0.24,0.56,1.37,1.69
1.69,-15.48,67.87,44.17,0.41,2.48,0.03,1.41,0.5,2.27,-134.67,35.17,108.73,0.17,1.49,0.12,0.48,0.37,2.71,-158.14,1.74,4.36,-0.02,0.44,0.23,0.18,0.17,0.18,-150.93,5.25,51.74,0.58,0.1,0.1,0.48,0.18,0.67
1.7,-14.92,70.77,42.42,0.31,2.61,0.08,0.82,0.55,1.55,-134.64,36.86,108.52,0.18,1.8,0.22,0.24,-0.09,0.45,-158.15,2.05,4.45,0.17,0.49,0.12,0.97,0.5,0.53,-150.86,5.41,52.32,0.64,0.07,0.19,0.24,0.39,0.43
1.71,-13.94,73.15,40.34,0.14,2.19,0.11,0.46,-0.02,0.72,-134.49,39.31,108.92,-0.09,2.12,0.22,1.02,0.22,-0.08,-157.99,2.65,4.79,0.27,0.42,0.29,0.41,0.24,1.94,-150.5,5.82,52.78,0.43,0.07,-0.04,0.33,0.31,0.44
1.72,-13.4,75.46,36.89,0.14,2.17,-0.15,1.44,0.31,1.31,-134.2,41.6,109.14,0.07,1.95,0.37,0.87,0.4,1.27,-157.66,3.11,4.61,0.02,0.5,0.2,0.32,0.45,1.45,-150.18,6.13,53.48,0.68,-0.02,0.16,0.22,0.2,0.71
1.73,-12.51,77.76,33.58,0.34,2.28,-0.04,2.47,0.55,1.63,-133.93,43.46,109.13,0.06,1.76,0.21,0.33,0.06,1.87,-157.29,3.48,4.57,0.06,0.67,0.2,0.3,0.72,0.86,-150.05,6.18,53.76,0.41,0.18,0.18,0.6,1.14,0.26
1.74,-11.83,79.95,33.49,0.35,1.93,0.08,2.57,0.42,0.82,-128.87,45.62,109.62,0.02,1.67,0.31,0.68,0.48,0.87,-157.34,4.36,4.57,-0.01,0.89,0.11,0.42,0.54,1.76,-149.47,6.41,53.87,0.4,0.45,0.08,0.38,0.41,0.42
1.75,-11.16,81.43,27.17,0.38,1.56,-0.04,1.24,0.6,0.26,-129.3,47.93,109.44,0.09,2.11,0.07,1.21,0.07,0.59,-157.44,5.4,4.48,0.06,0.67,0.17,1.69,0.2,2.19,-149.01,6.68,54.3,0.21,0.25,0.35,0.26,0.26,0.82
1.76,-10.59,82.4,19.88,0.21,1.38,0.08,0.39,0.65,0.07,-129.19,50.34,109.43,0.31,2.06,0.23,1.02,-0.05,1.05,-157.19,6.02,4.35,0.24,0.52,-0.12,1.38,0.38,2.53,-148.69,6.98,54.56,0.23,0.07,0.38,0.24,0.37,0.46
1.77,-9.96,83.46,19.82,0.15,1.51,-0.03,0.95,0.37,0.39,-129.11,52.48,109.56,-0.05,2.1,0.29,0.69,0.76,0.74,-156.9,6.5,3.99,0.34,0.67,0.18,0.4,1.34,1.61,-148.5,6.89,54.48,0.27,-0.05,0.14,0.33,0.49,1.66
1.78,-9.25,84.24,19.92,0.36,1.52,0.05,2.11,0.13,0.82,-129.03,54.8,109.51,0.09,2.23,0.24,1.28,0.22,0.45,-157.15,7.47,3.98,0.33,0.83,0.55,0.45,0.5,3.57,-148.6,7.08,54.71,0.4,-0.08,-0.07,1.59,0.69,0.51
1.79,-8.58,84.64,19.97,0.28,1.21,0.25,1.78,0.55,0.72,-129.32,57.09,110.13,0.17,2.16,0.28,1.6,0.34,0.12,-157.81,8.73,3.58,0.4,0.9,0.52,0.39,-0.08,3.41,-148.61,7.06,55.03,0.14,0.14,0.18,1.28,0.64,1.06
1.8,-8.38,84.79,20.04,0.5,1.05,-0.06,1.18,0.45,0.51,-129.6,58.34,110.11,0.01,2.09,0.35,1.3,0.22,0.17,-158.23,9.0,3.29,0.53,1.11,0.38,0.75,0.5,2.81,-148.76,7.14,54.78,0.03,0.09,0.08,0.86,0.43,1.52
1.81,-8.08,84.98,20.21,0.51,0.82,0.01,1.06,0.68,0.21,-129.47,59.73,110.28,0.11,1.96,0.21,1.2,0.43,0.33,-158.44,9.71,2.92,0.6,0.85,0.64,1.07,0.78,2.08,-148.58,6.88,54.92,0.05,0.01,0.2,0.36,-0.14,1.41
1.82,-7.68,84.92,20.13,0.4,0.61,-0.02,1.09,0.45,0.05,-130.0,62.05,110.54,0.02,2.14,0.19,0.85,0.16,0.34,-158.98,10.75,2.22,0.58,0.79,0.72,0.81,1.54,0.6,-148.88,7.09,55.21,0.2,0.06,0.0,0.75,0.02,1.43
1.83,-7.03,84.7,19.85,0.48,0.57,0.09,1.37,0.29,0.11,-129.79,64.28,110.67,0.37,2.06,0.21,1.3,-0.01,0.6,-159.39,11.43,1.23,0.69,0.97,0.93,0.9,0.19,2.88,-148.96,6.86,55.56,0.39,0.12,0.39,0.76,0.66,0.68
1.84,-6.51,84.51,19.74,0.28,0.38,0.26,1.48,0.28,0.18,-129.45,66.73,110.66,0.27,2.1,0.09,1.61,0.28,0.84,-160.09,12.58,0.03,0.86,1.02,0.72,0.09,0.88,5.07,-149.45,6.66,55.8,0.04,-0.03,0.36,0.21,0.33,1.48
1.85,-6.13,84.46,19.74,0.16,-0.0,0.24,1.8,-0.15,0.44,-129.56,69.0,111.03,0.09,2.01,0.24,0.83,0.41,-0.13,-160.59,13.52,0.86,1.06,0.89,0.38,0.39,0.19,0.32,-149.82,6.4,55.78,0.22,0.15,0.18,0.02,1.24,0.71
1.86,-5.62,84.82,19.43,0.28,-0.13,0.04,1.67,0.24,0.83,-129.56,71.25,111.86,-0.13,2.12,0.28,1.36,0.27,1.45,-160.85,14.37,2.13,1.28,0.89,0.4,0.7,-0.13,0.39,-149.77,6.19,56.12,0.32,0.15,0.12,0.37,0.61,1.25
1.87,-5.41,84.84,19.4,-0.12,0.37,0.11,0.66,0.14,0.14,-129.89,73.71,111.56,0.16,2.23,0.17,1.44,0.64,0.66,-161.41,15.62,3.59,1.25,1.15,0.67,0.9,0.34,1.87,-149.61,6.13,56.41,0.33,-0.12,0.17,0.69,0.18,1.71
1.88,-5.4,85.09,19.25,0.14,0.07,-0.05,-0.16,0.02,0.65,-129.71,75.84,110.77,0.05,2.12,0.22,1.47,0.53,0.45,-162.4,17.05,5.66,1.55,1.32,0.9,0.33,0.03,2.4,-149.84,6.17,56.56,0.17,-0.09,0.16,0.63,0.32,-0.06
1.89,-4.95,85.25,19.14,0.27,0.18,0.18,0.5,0.23,0.2,-129.74,77.73,109.66,-0.02,1.76,0.31,0.64,0.56,0.05,-162.97,18.48,7.88,1.45,1.51,0.77,0.24,0.64,2.51,-149.96,6.24,57.31,0.48,0.09,0.31,0.91,1.88,1.52
1.9,-4.91,85.14,19.08,0.11,0.08,0.1,0.7,-0.04,0.3,-129.76,79.65,109.03,0.05,1.57,0.21,0.23,0.64,1.07,-163.21,19.87,9.98,1.58,1.34,0.58,0.48,0.83,0.72,-150.6,5.97,58.04,0.83,0.32,0.33,0.23,0.96,0.65
1.91,-5.07,85.18,19.06,0.11,0.11,0.17,0.83,0.41,0.69,-129.95,81.61,110.19,0.11,1.84,0.18,0.97,0.33,0.53,-163.95,21.51,12.03,1.63,1.24,0.6,0.53,0.5,0.63,-150.88,5.97,58.82,0.78,0.49,0.41,0.28,-0.0,0.89
1.92,-5.09,85.28,19.08,0.12,0.02,-0.04,0.72,0.66,0.86,-130.1,83.81,111.29,0.33,1.64,0.26,1.43,0.3,0.33,-164.11,22.86,14.45,1.72,1.53,0.39,0.28,0.08,0.69,-151.69,5.72,59.7,0.81,0.72,0.34,0.56,2.63,0.8
1.93,-5.16,85.34,18.94,0.21,0.39,0.09,0.36,-0.04,-0.05,-130.59,85.48,111.18,0.28,1.49,0.13,1.1,0.38,1.23,-164.38,24.28,16.82,1.45,1.51,0.35,0.26,1.33,0.46,-152.77,5.66,60.7,0.75,0.56,0.42,1.56,1.94,1.18
1.94,-5.3,84.91,19.21,-0.01,0.32,-0.02,1.15,0.53,0.22,-130.49,86.41,110.85,-0.07,0.87,0.06,0.26,0.09,0.8,-164.95,25.47,19.19,1.76,1.59,0.38,0.04,1.61,0.98,-153.08,5.74,61.77,0.89,0.55,0.19,1.39,0.92,1.94
1.95,-5.42,84.74,19.28,0.02,0.06,-0.12,1.53,1.08,0.17,-130.81,87.77,110.82,0.23,1.41,0.12,0.98,0.09,0.7,-165.61,27.05,21.72,1.71,1.44,0.39,0.02,1.49,0.98,-153.26,5.98,62.72,0.95,0.49,0.04,0.82,1.69,0.98
1.96,-5.21,84.68,19.18,0.13,0.43,-0.07,0.55,0.58,0.37,-130.77,88.39,110.68,0.08,1.55,0.13,1.65,0.18,0.82,-165.4,28.44,23.87,1.5,1.42,0.09,0.26,0.7,1.93,-153.4,5.94,63.55,0.94,0.27,-0.0,0.38,2.44,0.17
1.97,-5.42,84.87,19.27,0.17,-0.11,0.03,0.51,0.36,-0.09,-130.75,88.59,110.67,-0.06,1.1,0.09,0.79,0.23,0.62,-165.4,29.77,25.99,1.57,1.49,0.18,0.42,0.26,1.83,-153.5,6.3,64.63,0.83,0.19,-0.03,0.77,1.9,0.84
1.98,-5.26,84.74,19.2,0.2,0.07,0.14,0.7,0.7,0.15,-130.94,88.04,110.69,0.01,0.89,0.16,0.56,0.11,0.59,-165.58,30.64,27.27,1.45,1.54,0.09,0.91,0.38,1.86,-153.32,6.42,64.97,0.93,0.26,0.24,0.96,1.76,1.07
1.99,-5.23,84.52,19.58,-0.18,0.24,0.09,1.1,0.51,0.16,-130.85,87.75,110.63,0.19,0.62,-0.31,0.11,-0.01,0.84,-165.7,31.65,28.42,1.65,1.71,0.32,1.02,0.83,1.81,-153.15,6.77,65.5,0.87,0.12,0.47,1.37,1.76,1.21
2.0,-5.02,84.64,19.38,-0.1,0.1,0.09,0.77,0.02,0.21,-130.83,86.94,110.47,0.03,0.64,0.24,0.73,0.79,0.34,-165.54,33.12,30.3,1.2,1.3,0.44,1.69,0.33,1.99,-152.68,7.27,66.59,0.96,0.05,0.48,0.46,2.09,0.82
2.01,-4.95,84.66,19.41,0.05,0.15,0.19,0.56,0.26,0.49,-130.74,86.3,110.31,-0.01,0.77,0.14,1.79,0.7,0.66,-164.93,34.28,32.0,1.36,0.95,0.53,0.91,2.88,0.08,-152.19,7.75,67.64,0.97,0.01,0.44,0.53,0.58,0.84
2.02,-4.84,84.77,19.32,0.14,-0.05,0.12,0.35,0.18,0.46,-130.89,85.59,110.23,0.17,0.55,0.1,1.26,0.42,0.48,-164.93,35.27,34.06,1.46,1.19,0.53,1.25,1.91,0.54,-151.93,8.12,68.73,0.71,0.05,0.39,0.58,2.2,1.57
2.03,-4.75,84.65,19.59,0.11,0.04,-0.07,0.64,0.37,0.43,-131.04,84.99,110.13,0.05,0.5,0.09,0.18,-0.09,0.16,-165.12,36.18,36.44,1.54,1.62,0.72,1.23,0.8,0.23,-151.34,8.53,69.45,0.85,0.13,0.52,0.04,1.46,1.28
2.04,-4.6,84.84,19.39,-0.05,0.22,0.07,0.59,0.31,0.76,-131.09,84.41,110.21,-0.13,0.32,-0.02,0.49,0.17,1.03,-165.66,37.0,39.01,1.34,1.29,0.24,2.96,2.96,2.04,-151.22,8.78,69.76,0.9,0.16,0.42,0.41,0.97,1.18
2.05,-4.53,84.91,19.14,-0.17,0.35,0.11,0.8,0.15,0.36,-130.99,83.59,110.04,0.19,0.72,-0.08,0.52,0.27,1.03,-165.26,37.15,40.93,1.33,0.83,0.51,1.7,2.85,1.42,-150.48,9.2,70.45,0.77,0.06,0.41,0.6,0.58,0.85
2.06,-4.75,84.95,19.28,0.26,0.1,0.14,0.88,0.05,0.27,-130.75,83.06,102.92,-0.1,0.43,0.0,0.36,0.12,0.76,-165.46,37.33,42.9,1.41,0.55,0.77,0.43,2.88,0.51,-150.24,9.62,71.41,0.69,0.06,0.31,0.29,0.34,1.06
2.07,-4.71,85.22,19.22,0.05,0.04,-0.04,0.55,0.42,0.37,-130.71,82.65,103.17,0.13,0.11,-0.08,0.79,0.1,0.89,-166.23,37.3,45.74,1.36,0.96,1.13,0.78,0.5,1.34,-150.08,9.6,72.2,0.52,0.08,0.43,0.08,0.0,1.53
2.08,-4.8,84.9,19.33,0.26,0.18,0.14,1.14,0.65,0.65,-130.68,82.57,103.67,0.15,0.48,0.15,-0.01,0.4,1.49,-167.13,36.97,48.46,1.42,0.9,0.7,0.13,0.87,0.3,-149.08,10.4,72.47,0.51,0.11,0.51,0.25,0.11,1.94
2.09,-4.82,85.07,19.42,-0.19,0.2,0.09,0.38,0.18,0.56,-130.83,81.97,105.57,-0.08,0.73,0.1,1.93,0.82,0.77,-167.2,36.88,49.46,1.29,0.48,0.27,1.62,0.48,0.32,-148.63,10.64,73.16,0.54,0.12,0.34,0.28,0.47,1.45
2.1,-4.93,85.15,19.54,0.27,0.19,0.06,0.73,0.48,0.41,-130.68,81.23,106.65,0.19,0.3,-0.03,0.45,-0.12,0.82,-167.07,37.17,51.4,1.3,0.56,0.16,1.47,0.96,0.45,-148.36,11.08,73.77,0.6,0.2,0.36,0.44,1.09,0.87
2.11,-5.15,85.13,19.63,0.23,0.17,0.17,0.13,0.26,0.42,-130.9,81.17,107.51,0.33,0.16,0.02,0.61,0.48,0.56,-166.74,37.91,53.11,0.92,0.38,1.09,0.55,2.2,0.39,-147.4,11.21,74.43,0.5,0.26,0.16,0.62,0.49,1.43
2.12,-5.36,84.97,19.71,-0.06,0.12,-0.01,0.48,0.21,0.42,-131.03,81.3,107.47,0.17,-0.03,-0.01,0.53,0.45,0.23,-164.99,39.3,53.77,1.24,0.35,1.1,1.07,2.25,0.95,-146.96,11.5,75.05,0.55,0.11,0.53,0.14,1.28,0.55
2.13,-5.44,85.01,19.66,0.03,0.11,0.01,0.25,0.55,1.03,-131.1,80.83,107.96,0.15,0.59,-0.09,0.02,0.14,0.01,-163.56,40.59,55.21,1.41,0.81,0.6,1.18,2.42,0.4,-146.16,11.93,75.37,0.36,0.21,0.41,0.71,-0.02,0.73
2.14,-5.35,84.98,19.52,-0.06,0.2,-0.13,0.32,0.03,0.62,-131.27,80.47,108.85,0.31,0.53,0.02,0.7,0.02,0.71,-162.23,41.72,56.92,1.61,1.07,0.18,1.26,2.75,0.1,-145.77,12.29,76.17,0.59,0.39,0.42,0.3,1.82,2.51
2.15,-5.78,85.12,19.64,-0.01,0.33,0.19,0.34,0.31,0.25,-131.31,79.99,110.25,0.42,0.32,0.04,0.62,0.13,-0.02,-162.82,41.93,59.66,1.65,1.04,0.58,1.2,0.42,0.64,-145.32,12.29,76.71,0.54,0.32,0.26,0.92,1.47,1.23
2.16,-5.73,85.35,19.52,-0.0,0.24,0.13,0.29,0.33,0.28,-131.53,79.82,110.56,0.32,0.12,-0.11,0.3,0.43,0.6,-163.01,41.71,61.28,1.77,1.09,0.68,0.94,1.3,0.54,-145.16,12.45,77.13,0.6,0.13,0.14,0.41,1.4,1.15
2.17,-5.92,85.31,19.54,0.24,0.11,0.1,0.32,0.26,0.62,-131.64,79.86,111.24,0.31,-0.05,0.03,-0.09,0.3,0.95,-163.11,41.48,62.9,1.98,0.98,0.81,0.76,2.2,0.68,-144.85,12.36,77.62,0.86,0.09,0.15,0.26,1.63,1.04
2.18,-6.07,85.18,19.5,0.23,0.09,0.05,0.74,0.26,1.36,-131.97,79.7,111.65,0.44,0.21,0.05,0.51,0.42,0.53,-163.29,41.14,66.36,2.17,0.78,0.74,0.41,1.65,0.67,-144.72,12.58,78.12,0.82,0.35,0.27,0.32,1.23,0.93
2.19,-6.31,85.13,19.6,0.11,-0.0,0.2,0.54,0.5,1.21,-132.29,79.22,112.89,0.24,0.55,0.01,0.53,0.08,0.37,-162.95,40.95,69.55,1.95,0.75,0.48,0.26,1.02,0.64,-144.29,12.84,78.91,0.57,0.13,0.17,0.64,0.98,1.2
2.2,-6.5,85.06,19.46,0.25,0.18,-0.03,0.42,0.38,1.1,-132.15,78.77,113.58,0.04,0.31,0.15,0.36,0.11,0.35,-162.3,41.12,72.41,1.77,0.57,0.09,0.46,0.85,0.29,-144.54,12.59,79.95,0.53,0.04,0.18,0.85,1.28,0.47
2.21,-6.67,85.16,19.53,0.14,0.1,-0.05,0.61,0.24,1.06,-132.3,78.48,114.18,0.22,0.18,0.09,0.33,0.02,0.73,-161.22,41.47,74.78,2.13,0.6,0.38,1.04,0.13,0.9,-144.43,12.8,80.47,0.61,0.07,-0.01,0.36,0.79,1.04
2.22,-6.67,85.2,19.82,0.23,-0.02,0.04,-0.08,0.37,0.43,-132.46,78.24,115.05,0.08,0.01,0.1,0.09,-0.04,1.14,-160.05,41.69,77.8,2.04,0.88,-0.02,0.52,0.37,0.06,-144.11,12.51,81.22,0.84,0.06,-0.1,0.11,0.01,1.32
2.23,-7.14,85.06,19.53,0.18,0.01,0.16,0.24,0.8,0.57,-131.97,78.54,116.18,0.11,0.15,0.2,0.24,1.0,1.02,-159.61,41.96,80.77,2.02,0.44,0.03,0.41,0.18,1.53,-144.12,12.35,81.9,0.66,0.19,0.21,0.19,1.89,1.49
2.24,-7.23,85.12,19.49,-0.06,-0.03,0.07,0.49,0.86,1.32,-131.99,78.22,116.85,-0.04,0.14,0.21,0.38,0.7,1.07,-159.09,41.88,83.65,2.18,0.5,0.36,1.48,0.41,1.46,-144.36,12.19,82.64,0.53,0.07,-0.02,0.16,0.1,0.3
2.25,-7.14,85.29,19.62,0.06,0.01,-0.08,0.14,0.32,0.99,-131.88,78.02,117.66,-0.03,0.39,0.18,0.63,0.25,1.15,-158.94,41.2,87.04,2.29,1.09,0.44,1.63,0.89,-0.03,-144.07,12.18,83.29,0.78,-0.01,0.16,0.54,0.54,0.93
2.26,-6.96,85.35,19.46,-0.0,0.07,0.07,0.52,0.47,1.09,-131.7,77.86,118.23,0.02,0.38,0.17,0.6,0.29,1.19,-158.72,40.91,90.53,2.24,0.96,0.33,0.11,0.62,0.02,-144.25,12.09,84.15,0.47,-0.13,0.09,0.53,0.37,1.18
2.27,-7.23,85.32,19.67,-0.02,0.16,0.16,0.11,0.76,0.86,-131.38,78.25,119.17,0.07,0.31,0.26,0.43,0.16,0.4,-157.68,41.04,93.32,1.72,0.66,0.53,0.18,0.08,1.99,-144.39,11.87,84.57,0.48,-0.02,0.35,0.47,1.71,0.49
2.28,-6.77,85.42,19.41,-0.07,0.08,0.09,0.35,0.35,0.93,-131.31,78.1,118.77,-0.11,0.22,0.04,0.6,0.38,0.86,-155.91,41.99,96.13,1.77,0.51,0.88,0.42,0.19,0.65,-144.45,11.4,85.61,0.87,0.07,0.51,0.64,0.59,0.14
2.29,-6.19,85.51,19.21,0.02,0.03,0.23,0.3,0.19,1.45,-131.22,78.16,118.0,0.23,0.09,0.39,0.33,0.99,0.29,-154.65,42.87,99.15,1.75,0.53,0.93,1.47,0.4,0.47,-144.45,11.17,86.3,0.75,0.18,0.31,0.61,0.46,0.72
2.3,-5.93,85.86,18.84,0.49,0.24,0.28,0.19,0.16,1.49,-130.95,77.91,117.19,0.08,0.08,0.26,0.44,0.16,0.45,-152.66,43.48,101.64,1.59,0.53,0.49,0.16,2.59,2.13,-144.75,11.23,87.02,0.52,-0.24,0.2,1.13,0.1,0.79
2.31,-5.75,86.16,18.87,-0.09,0.1,-0.04,0.63,0.34,1.41,-130.71,77.77,116.78,0.19,0.21,-0.03,0.51,0.28,0.58,-151.69,43.12,104.52,1.77,0.82,0.18,0.41,2.13,1.97,-144.74,10.84,87.61,0.49,-0.16,0.13,1.47,0.81,0.61
2.32,-5.67,86.19,18.81,-0.01,0.04,0.05,0.51,0.22,0.37,-130.55,77.47,116.79,0.19,0.04,0.18,0.42,0.07,0.72,-151.22,42.76,107.51,1.81,0.84,0.2,0.37,1.6,1.66,-144.82,10.64,88.43,0.82,0.2,0.21,1.62,0.58,1.17
2.33,-5.62,86.23,18.73,0.02,-0.13,0.16,0.16,0.25,0.55,-130.57,77.6,116.48,0.04,0.01,0.09,0.23,0.57,1.1,-150.94,42.1,110.14,1.57,0.82,0.31,0.23,1.4,0.7,-144.24,10.59,89.06,0.66,0.04,-0.02,0.43,0.46,1.1
2.34,-5.66,86.24,18.68,0.13,0.15,0.15,0.18,0.17,0.37,-130.41,77.57,116.53,-0.04,0.18,-0.14,0.27,0.44,0.47,-150.16,42.48,111.56,1.36,0.75,0.71,0.5,0.85,0.78,-144.03,10.68,89.39,0.53,-0.01,0.4,0.97,0.86,0.77
2.35,-5.61,86.33,18.49,0.05,-0.07,0.14,-0.13,-0.11,0.3,-130.3,77.47,116.22,0.03,0.34,-0.02,0.22,0.4,-0.0,-149.19,42.93,112.92,1.7,0.53,0.93,0.43,0.58,0.93,-144.19,10.6,89.77,0.71,0.08,0.15,1.36,0.93,0.52
2.36,-5.4,86.76,18.3,0.04,0.17,0.3,0.54,0.31,0.12,-130.41,77.37,115.67,0.22,-0.14,0.03,0.11,0.27,0.49,-147.47,43.5,115.0,1.28,0.63,0.93,0.9,0.78,0.5,-144.01,10.74,90.22,0.51,0.15,0.24,0.12,0.53,1.39
2.37,-5.26,86.9,17.86,0.1,0.03,0.15,0.67,0.21,0.04,-130.7,77.5,115.12,0.11,0.16,-0.18,0.43,0.34,0.73,-145.36,44.25,117.56,1.33,0.45,0.66,1.47,0.8,0.08,-143.24,10.63,90.79,0.65,0.36,0.53,-0.08,0.91,0.4
2.38,-4.98,87.03,17.61,0.0,0.11,0.32,0.45,0.39,0.21,-130.6,77.44,114.32,0.09,-0.18,-0.22,0.47,0.36,0.59,-143.78,44.58,119.58,1.35,0.09,0.72,0.3,0.25,0.19,-142.61,11.11,91.56,0.81,0.39,0.31,0.54,0.55,1.73
2.39,-4.84,87.36,17.49,0.26,0.1,0.22,0.39,0.0,-0.0,-130.94,77.46,114.56,0.25,0.14,-0.02,0.73,0.29,0.19,-142.15,44.87,121.88,1.39,0.52,0.13,1.48,1.56,1.23,-141.67,11.62,92.74,0.81,0.41,0.34,0.45,0.51,1.54
2.4,-5.09,87.42,17.39,0.03,-0.09,0.21,1.09,0.31,0.52,-130.91,77.51,114.59,0.1,0.04,0.04,1.2,0.28,0.39,-142.07,44.02,123.59,1.28,0.67,0.3,1.59,0.51,0.46,-140.83,12.55,93.33,0.68,0.29,0.19,0.55,0.54,1.33
2.41,-5.15,87.42,17.33,0.31,0.06,0.16,1.28,0.31,0.16,-130.78,77.84,114.47,0.05,0.0,-0.01,1.15,0.4,0.79,-141.54,43.56,125.08,0.89,0.48,0.18,0.46,0.35,-0.05,-139.73,12.97,94.5,0.89,0.24,0.56,0.6,0.66,1.34
2.42,-5.22,87.81,16.98,0.35,0.1,-0.02,0.75,0.3,0.21,-130.74,77.79,114.47,0.05,0.07,0.07,0.25,0.73,0.87,-140.23,43.51,125.96,0.87,0.03,0.27,2.41,0.51,1.45,-138.59,13.93,95.41,0.82,0.22,0.46,0.49,0.46,1.4
2.43,-5.1,87.65,17.32,0.27,0.01,0.02,0.1,0.07,0.55,-130.98,77.77,114.86,0.03,0.04,0.09,0.18,0.57,0.41,-139.2,44.29,127.47,0.7,0.3,0.93,2.05,2.37,0.13,-137.69,14.44,96.44,0.95,0.36,0.58,0.64,0.66,1.42
2.44,-5.41,87.79,17.05,0.05,0.04,0.01,0.55,0.5,0.46,-130.86,78.07,114.86,-0.1,0.35,-0.01,1.21,0.03,-0.04,-137.43,45.11,128.9,0.54,0.23,0.87,1.0,0.63,0.11,-136.51,15.05,97.35,0.98,0.35,0.73,0.69,0.51,1.23
2.45,-5.27,87.84,17.1,-0.02,0.15,-0.13,0.78,0.45,-0.04,-130.85,78.52,114.47,0.08,0.3,0.04,0.31,0.36,0.62,-136.01,45.88,130.19,0.37,0.03,1.05,1.22,1.18,0.5,-135.75,15.83,97.96,1.09,0.26,0.88,0.87,0.53,1.21
2.46,-5.71,87.82,16.95,-0.05,0.17,0.01,0.37,-0.2,0.72,-130.69,78.96,114.73,0.1,-0.1,0.04,0.14,0.6,0.58,-134.62,46.63,131.15,0.1,-0.15,0.31,0.2,2.0,1.67,-134.68,16.48,99.17,0.94,0.33,1.06,0.82,0.53,0.99
2.47,-5.73,87.74,16.99,0.14,0.1,0.07,0.25,0.0,0.3,-130.75,79.27,114.89,-0.0,0.4,-0.03,0.2,0.22,0.18,-134.47,46.29,131.84,0.28,0.37,-0.08,0.41,0.83,0.5,-133.59,17.11,99.94,0.88,0.11,1.03,0.5,0.51,0.97
2.48,-5.69,87.47,16.69,0.06,0.19,0.25,0.2,0.49,0.58,-130.82,79.65,114.44,-0.06,0.21,0.06,0.45,0.19,0.9,-134.8,46.06,132.22,0.24,0.4,0.24,2.07,2.14,0.1,-132.49,17.77,100.98,0.98,0.23,1.02,0.84,0.31,1.13
2.49,-5.8,87.58,16.9,0.11,0.01,-0.09,0.35,0.26,0.13,-130.68,80.48,114.09,0.19,0.14,-0.07,0.88,0.06,1.6,-134.0,46.21,132.87,0.59,0.16,0.26,1.3,0.28,1.45,-131.47,18.54,101.94,1.1,0.22,1.03,0.59,0.4,0.86
2.5,-5.78,87.44,16.88,0.21,0.25,0.03,0.72,0.29,0.09,-130.46,80.62,114.2,0.27,0.42,0.02,0.68,0.05,0.66,-132.81,46.79,132.85,0.41,0.09,0.06,0.78,0.69,1.53,-130.45,19.28,102.8,1.18,0.33,1.12,0.83,0.56,0.85
2.51,-5.96,87.17,16.91,-0.05,0.19,0.13,0.85,0.15,0.27,-130.76,81.07,113.73,0.29,0.84,0.13,0.54,0.92,-0.12,-133.27,46.69,133.26,0.39,0.38,-0.07,1.04,2.15,0.68,-129.52,19.89,103.83,1.16,0.32,1.21,1.04,0.36,0.82
2.52,-5.86,87.17,16.76,0.15,0.18,0.04,0.75,0.35,0.19,-130.41,81.53,112.96,0.08,0.6,0.03,0.77,0.48,1.01,-132.75,46.6,133.64,0.36,0.17,0.08,1.5,1.31,0.66,-128.87,20.23,104.15,1.14,0.53,1.4,0.99,0.48,0.78
2.53,-5.88,87.01,16.8,0.25,0.27,-0.1,0.93,0.14,0.19,-130.61,82.0,112.2,0.02,0.41,-0.09,1.3,-0.05,1.68,-132.35,46.51,133.99,0.73,0.37,-0.14,2.23,0.21,0.8,-128.5,20.66,104.61,1.24,0.43,1.27,0.95,0.57,0.78
2.54,-5.75,86.74,16.92,0.05,0.31,0.14,0.65,0.18,0.22,-130.55,82.35,111.93,0.2,0.35,0.15,0.92,0.13,0.51,-131.58,47.19,134.3,0.45,0.51,0.02,0.4,2.25,2.8,-127.52,21.21,105.57,1.0,0.38,1.38,1.01,0.64,0.84
2.55,-5.57,86.53,16.53,0.26,0.29,-0.06,0.61,0.38,0.48,-130.4,82.7,111.84,0.02,0.68,-0.09,0.03,0.31,0.12,-131.08,46.9,134.29,0.53,0.39,0.89,1.32,0.58,1.72,-126.4,21.87,106.35,1.13,0.2,1.35,0.86,0.48,0.66
2.56,-5.7,86.22,16.59,0.13,0.35,-0.11,0.05,0.24,0.99,-130.3,83.6,111.78,0.09,0.71,0.07,-0.06,0.67,0.61,-131.47,45.91,134.18,0.54,0.31,0.53,0.95,2.5,0.71,-125.45,22.53,107.79,1.31,0.43,1.63,1.06,0.6,0.45
2.57,-5.55,86.01,16.5,0.01,-0.0,-0.02,0.29,0.04,0.79,-130.33,83.99,111.58,0.25,0.53,0.01,0.49,0.47,0.4,-131.1,45.77,134.45,0.3,0.28,0.24,0.84,1.23,1.14,-124.28,23.11,108.38,1.12,0.47,1.98,1.37,1.41,1.64
2.58,-5.47,85.71,16.55,0.31,0.19,0.15,0.09,-0.09,0.74,-130.14,84.33,111.84,0.42,0.1,0.13,0.38,0.06,0.41,-130.99,45.6,134.73,0.23,0.18,0.14,0.71,0.54,1.84,-123.09,24.17,108.96,1.21,0.4,1.85,2.6,2.38,0.89
2.59,-5.5,85.54,16.51,0.01,0.26,0.14,0.06,0.11,0.64,-130.3,85.09,112.01,-0.11,0.73,0.14,0.32,0.34,0.17,-130.6,46.15,135.05,0.19,0.21,0.11,0.24,0.07,1.13,-119.85,26.24,110.43,0.98,0.29,1.65,0.16,0.97,2.43
2.6,-5.21,85.29,16.48,-0.07,0.44,0.01,0.18,0.15,0.85,-130.0,85.59,111.89,-0.0,0.51,0.04,0.47,0.21,0.09,-129.73,46.42,135.68,0.11,0.21,0.3,0.7,0.84,1.51,-116.72,27.84,112.55,1.22,0.26,1.93,0.62,1.23,2.53
2.61,-5.18,85.12,16.3,0.1,0.32,0.18,0.28,0.12,1.07,-130.06,85.96,111.93,-0.08,0.06,0.01,0.1,-0.02,0.08,-128.94,46.95,136.2,0.36,0.2,0.09,0.85,1.63,2.25,-113.58,30.13,114.28,1.35,0.09,1.71,2.67,2.83,2.14
2.62,-5.23,84.88,16.38,0.12,0.05,-0.03,0.37,0.11,0.43,-130.15,86.15,112.02,0.01,0.39,0.05,0.64,0.42,0.89,-129.29,46.82,136.21,0.16,0.08,0.41,0.47,2.03,0.41,-110.8,31.6,116.54,1.52,0.16,1.13,0.66,0.25,0.07
2.63,-5.25,84.95,16.47,-0.03,0.14,0.02,0.22,0.06,0.76,-130.12,86.75,111.95,0.08,0.7,-0.05,0.58,0.26,0.54,-129.68,46.25,135.8,-0.01,0.09,0.17,2.22,2.11,0.04,-108.44,32.74,118.7,1.62,0.23,0.86,2.38,0.13,1.29
2.64,-5.54,84.63,16.02,0.25,0.14,0.03,0.55,0.24,0.7,-130.58,87.28,112.11,0.29,0.36,0.1,0.68,0.33,0.31,-129.52,46.49,136.37,0.25,0.34,0.46,1.07,1.87,1.38,-105.07,34.1,121.03,1.12,0.06,2.15,2.48,1.32,0.65
2.65,-5.82,84.86,15.92,0.1,0.19,0.14,0.63,0.11,0.67,-130.35,87.51,112.22,0.12,0.17,-0.15,0.53,0.18,0.95,-128.72,46.8,136.44,-0.08,0.42,0.06,0.64,2.42,0.24,-101.03,36.8,123.34,1.01,0.14,2.79,1.47,0.71,0.49
2.66,-6.33,84.61,15.42,0.15,-0.1,0.16,0.61,0.16,0.66,-130.8,87.99,112.13,0.13,0.52,0.13,0.31,0.28,0.56,-128.88,46.96,136.24,-0.07,-0.02,0.19,0.68,1.98,0.64,-101.08,38.7,123.3,1.01,0.48,0.21,0.73,-0.04,0.18
2.67,-6.86,84.44,15.59,0.34,0.37,0.15,-0.0,0.12,0.49,-131.0,88.82,112.03,0.23,0.67,0.11,0.05,0.09,0.38,-129.13,46.72,136.18,0.01,0.02,0.1,0.33,0.67,1.09,-101.49,38.1,122.13,1.01,0.5,0.26,1.03,0.65,0.54
2.68,-7.15,84.12,15.46,0.19,0.42,0.19,0.58,0.35,0.86,-131.23,89.26,112.25,0.21,0.36,-0.15,0.35,0.25,0.13,-129.78,46.77,136.0,0.5,0.02,0.29,1.22,0.67,0.83,-102.5,37.54,121.39,0.92,0.73,0.54,2.54,1.99,0.75
2.69,-7.46,83.88,15.48,0.31,0.15,0.16,1.0,0.28,1.24,-131.49,89.69,112.43,0.24,0.47,-0.15,0.95,0.36,0.09,-130.48,47.07,135.9,0.58,0.0,0.58,0.65,0.52,1.19,-103.28,37.44,120.77,0.97,0.6,0.61,3.16,2.21,0.88
2.7,-7.59,83.68,15.34,0.2,0.29,-0.02,1.03,-0.08,1.1,-131.54,89.59,112.34,0.14,0.38,0.16,0.72,0.33,0.09,-130.33,47.39,136.03,0.32,-0.03,0.91,0.63,0.23,0.71,-103.15,36.89,120.06,0.92,0.49,0.68,1.72,1.4,0.59
2.71,-7.83,83.64,15.17,0.14,0.09,0.01,0.85,0.1,0.9,-131.72,89.27,112.35,0.21,0.48,0.21,0.67,0.28,0.04,-130.11,47.98,135.99,0.42,0.2,0.95,0.44,0.11,0.17,-103.03,36.71,119.41,0.92,0.39,1.16,0.8,0.6,0.57
2.72,-7.99,83.61,15.07,0.25,0.21,-0.16,0.65,-0.02,0.68,-132.24,89.13,112.4,0.19,0.22,0.19,0.34,-0.08,0.26,-129.76,48.67,136.12,0.53,0.32,0.65,0.2,0.87,1.13,-102.71,35.56,117.55,1.19,0.57,0.55,0.53,1.31,0.71
2.73,-8.34,83.36,14.88,0.16,0.1,0.06,0.11,-0.02,0.18,-132.41,88.78,112.48,0.31,0.02,0.0,-0.21,0.41,0.48,-130.14,48.82,136.01,0.3,0.29,0.56,0.18,0.27,0.87,-103.87,35.22,116.82,1.48,0.37,0.83,1.89,3.3,1.61
2.74,-8.94,83.15,15.0,0.41,0.28,0.11,0.21,0.19,0.97,-132.47,88.66,112.49,0.36,0.35,-0.12,0.06,0.49,0.35,-129.99,49.62,135.88,0.1,0.13,0.05,0.57,0.29,0.95,-104.89,35.16,115.44,1.36,0.03,0.01,2.55,2.98,2.36
2.75,-9.37,82.88,14.99,0.27,0.07,0.12,0.2,0.07,0.8,-133.15,88.1,112.45,0.34,0.24,-0.0,0.15,0.11,0.14,-130.47,49.61,135.33,0.28,0.07,0.36,0.83,1.76,0.26,-104.54,34.34,113.53,1.21,0.28,1.07,8.4,7.75,3.07
2.76,-9.68,82.69,14.85,0.25,-0.01,0.23,0.24,0.13,0.39,-133.7,88.0,112.38,0.22,0.26,0.22,0.2,0.1,0.12,-130.97,49.31,134.88,0.23,0.1,0.32,0.77,2.64,0.07,-103.4,32.74,111.72,0.87,1.03,1.54,5.58,19.24,1.08
2.77,-10.19,82.54,14.55,0.15,0.03,0.15,0.31,0.55,0.33,-133.72,87.69,112.23,-0.21,0.19,0.3,0.69,0.03,0.48,-130.73,49.59,134.85,0.01,0.19,0.55,0.54,0.63,0.9,-105.58,32.84,112.9,0.07,0.8,2.11,0.43,4.77,0.81
2.78,-10.51,82.33,14.32,0.33,0.17,0.18,0.28,0.62,0.59,-133.98,87.52,112.01,0.26,0.29,0.17,0.76,0.79,0.3,-130.31,50.27,135.02,0.28,0.42,0.72,0.14,0.22,1.24,-105.11,32.05,112.57,0.27,0.6,2.29,2.0,1.4,2.8
2.79,-11.15,82.04,13.89,0.3,0.34,0.17,0.78,0.11,0.77,-134.3,86.97,111.77,0.15,0.21,0.03,0.41,0.64,0.35,-129.51,50.83,135.46,0.16,0.12,0.58,0.3,0.59,0.88,-103.17,30.15,111.09,0.26,0.55,2.15,0.04,0.78,1.89
2.8,-11.41,81.74,14.14,0.24,0.19,0.03,0.35,0.58,0.38,-134.67,86.59,111.99,0.32,0.48,0.08,0.22,0.14,0.15,-128.46,51.42,136.21,0.1,0.07,0.6,0.81,0.81,0.32,-101.51,28.52,110.0,0.12,0.56,1.66,2.56,2.11,2.55
2.81,-11.51,81.78,13.96,0.0,0.15,-0.11,0.16,0.33,0.12,-135.04,86.4,111.76,0.22,0.39,0.0,0.32,0.12,0.7,-128.01,51.9,136.42,-0.09,0.13,0.43,0.11,1.23,0.69,-101.46,28.18,109.98,0.11,0.17,0.15,2.9,0.35,3.99
2.82,-11.8,81.69,13.59,0.18,0.15,0.06,0.31,0.11,0.23,-135.14,86.31,111.88,-0.13,0.19,0.08,0.15,0.01,0.04,-127.41,52.44,137.01,0.29,0.08,0.58,0.61,1.85,0.52,-101.66,28.41,110.06,0.1,0.23,0.12,2.74,3.94,0.87
2.83,-11.94,81.39,12.96,0.03,-0.01,0.38,0.32,0.3,0.7,-135.14,85.87,111.71,-0.05,0.37,0.02,0.31,0.25,0.46,-127.15,53.09,137.4,0.36,0.09,0.78,0.73,2.54,0.06,-101.79,28.58,109.86,0.38,0.13,0.41,3.15,3.67,2.36
2.84,-12.21,81.23,12.85,0.07,0.38,0.1,0.39,0.4,0.69,-135.23,85.23,111.48,0.15,0.47,0.03,0.28,0.4,0.34,-125.54,53.59,138.47,0.41,0.13,0.64,0.38,1.84,0.44,-103.74,29.69,110.31,0.29,0.08,1.88,1.05,2.54,2.43
2.85,-12.32,81.14,14.15,0.16,0.3,-0.12,0.22,0.26,0.85,-135.33,85.06,111.46,-0.08,0.16,0.08,0.18,0.37,0.59,-124.05,54.02,139.63,0.34,0.05,0.48,0.95,1.01,1.44,-105.11,30.53,110.8,-0.03,0.06,0.61,3.66,3.65,2.79
2.86,-12.4,80.67,14.35,0.05,-0.01,0.06,0.05,0.02,0.73,-135.33,84.9,111.17,0.19,0.21,0.14,-0.14,0.19,0.32,-123.89,54.14,139.83,0.21,0.31,0.11,1.15,0.95,2.02,-103.56,29.68,110.06,0.1,0.01,1.86,2.21,1.57,3.07
2.87,-12.81,80.44,14.41,0.3,-0.11,0.17,0.6,0.09,0.41,-135.72,84.37,111.43,0.03,0.36,0.07,-0.18,0.37,0.88,-123.26,54.02,140.07,0.47,0.26,0.16,1.48,1.36,0.1,-102.56,28.96,109.2,0.12,0.21,1.26,3.29,1.46,0.94
2.88,-13.07,80.45,14.56,0.15,0.49,0.14,0.97,0.07,0.26,-135.46,84.41,111.44,0.09,0.32,0.01,0.5,0.47,0.78,-122.95,54.01,140.27,0.44,0.42,0.24,0.81,1.14,0.5,-102.24,28.86,109.32,0.14,0.21,0.57,2.26,1.6,1.77
2.89,-13.06,80.34,14.86,-0.0,0.39,0.18,1.43,0.13,0.38,-135.63,83.98,111.35,0.32,0.67,-0.05,0.91,0.53,0.61,-122.43,53.97,140.31,0.72,0.34,0.14,0.39,0.29,0.93,-102.16,28.88,109.09,-0.02,0.32,0.17,1.19,1.95,2.76
2.9,-13.42,79.58,16.29,0.3,0.63,0.16,0.66,0.32,0.93,-135.81,83.9,111.43,-0.17,0.12,0.05,0.66,0.61,0.46,-121.58,54.67,140.4,0.28,0.26,0.38,0.34,2.06,0.81,-103.61,29.95,109.85,0.05,0.39,1.81,0.42,2.37,3.87
2.91,-14.17,78.75,19.12,0.51,1.07,-0.02,-0.01,0.68,1.13,-135.92,83.64,111.44,0.11,0.05,-0.02,0.82,0.45,0.66,-121.06,54.49,140.3,0.45,-0.01,0.58,0.26,1.23,2.82,-106.17,31.89,110.71,0.56,0.27,2.21,0.33,2.82,1.2
2.92,-14.56,77.86,20.93,-0.11,0.19,-0.11,0.73,0.55,-0.15,-136.32,83.31,111.42,0.07,0.57,-0.0,1.0,0.14,1.53,-121.34,53.83,139.78,0.4,0.19,0.77,0.65,1.24,1.32,-107.95,33.13,110.84,0.58,0.58,1.2,0.13,0.28,1.38
2.93,-14.84,77.52,21.09,-0.14,0.03,-0.02,0.51,0.23,0.29,-135.95,82.86,107.35,0.08,0.41,0.22,0.77,0.03,0.73,-121.61,53.16,139.27,0.25,0.39,0.09,1.25,0.9,0.19,-107.79,34.38,110.66,0.31,0.89,0.83,0.65,0.77,2.02
2.94,-14.85,77.62,21.17,0.16,0.16,-0.05,0.35,0.16,0.11,-135.64,82.43,103.08,0.08,0.19,0.15,0.11,0.19,0.25,-121.22,53.67,139.08,0.19,0.59,0.07,0.91,0.55,0.64,-145.71,35.35,110.36,0.45,1.28,0.56,0.62,1.42,2.61
2.95,-14.46,77.3,22.05,-0.08,0.17,0.02,0.04,0.23,0.03,-135.96,82.22,103.01,0.26,0.05,-0.02,0.05,0.08,0.17,-120.14,54.06,138.81,0.53,0.17,0.67,1.16,2.67,1.82,-143.85,36.94,109.35,0.35,1.47,0.61,0.32,1.74,1.9
2.96,-14.74,77.2,22.85,-0.06,0.26,-0.11,0.49,0.3,0.07,-136.11,81.5,104.75,0.1,0.63,0.23,0.1,0.12,1.03,-120.27,53.67,138.54,0.38,-0.02,0.67,1.14,2.26,1.09,-141.04,38.76,109.37,0.2,1.19,1.28,0.28,2.82,1.02
2.97,-14.98,76.83,23.68,0.07,0.46,0.09,0.69,0.34,0.02,-135.9,81.09,105.64,0.13,0.29,-0.02,0.43,0.32,0.44,-121.41,52.79,137.51,0.19,0.26,1.14,0.22,2.17,0.13,-138.22,40.0,110.36,0.41,1.23,0.87,14.93,15.32,3.36
2.98,-15.04,76.39,24.34,-0.0,0.3,-0.07,0.46,0.01,0.15,-135.62,80.77,105.74,0.34,-0.01,0.01,0.07,0.04,0.36,-122.5,52.09,136.32,0.26,0.0,0.38,0.48,2.73,0.57,-135.38,41.16,111.12,0.62,0.92,0.5,29.45,28.07,6.0
2.99,-14.98,76.49,24.68,0.1,-0.0,0.18,0.06,0.18,0.51,-135.63,80.63,105.79,-0.12,0.0,0.21,0.14,0.76,0.49,-122.48,52.58,136.14,0.1,0.22,0.16,0.19,1.69,1.06,-132.72,42.12,111.84,1.9,1.19,5.45,7.49,5.42,4.98
3.0,-14.78,76.18,25.62,0.24,0.2,-0.08,-0.23,0.1,0.69,-135.53,80.35,106.12,0.09,0.1,0.1,0.3,0.42,0.38,-122.05,52.94,135.42,-0.04,0.39,0.15,-0.14,0.09,0.74,-132.77,43.61,111.96,0.28,0.22,0.59,0.84,4.9,6.12
3.01,-14.83,75.95,26.09,-0.07,0.34,0.14,0.39,0.02,0.77,-135.66,80.07,105.8,0.05,0.46,-0.07,0.2,0.38,0.19,-122.34,53.06,135.04,0.03,0.25,-0.1,0.15,0.37,0.81,-132.93,43.65,111.38,0.45,0.51,2.2,3.98,2.84,1.46
3.02,-14.96,75.45,26.74,0.06,0.3,0.08,0.3,0.3,0.56,-135.62,80.07,105.98,0.22,-0.0,-0.05,0.21,0.27,0.24,-123.0,53.17,134.22,0.32,0.31,0.15,0.1,0.05,2.04,-134.78,43.51,109.9,0.59,0.43,1.16,2.62,2.69,1.85
3.03,-14.84,75.09,27.2,0.04,0.39,0.05,0.06,0.19,0.58,-135.55,79.96,105.62,0.09,-0.03,0.24,0.24,0.28,0.35,-123.24,53.31,133.18,0.33,0.4,0.19,0.36,0.3,1.61,-136.31,43.47,108.37,0.41,0.04,0.38,0.88,3.01,2.19
3.04,-14.83,74.71,27.81,0.03,0.39,-0.06,0.17,0.2,0.53,-135.42,79.97,104.97,0.03,0.14,0.01,0.7,0.36,0.27,-124.12,53.15,131.95,0.56,0.34,0.11,0.18,0.71,1.07,-136.51,43.72,108.02,0.4,0.39,0.67,0.3,1.91,2.65
3.05,-15.12,74.45,28.19,-0.02,0.33,0.19,0.1,0.13,0.54,-135.59,79.68,104.67,0.02,0.14,-0.05,0.44,0.33,0.34,-124.62,53.29,131.12,0.59,0.17,0.16,0.3,0.88,1.33,-134.72,44.98,109.5,0.34,0.05,1.05,0.14,1.16,1.18
3.06,-15.01,74.37,28.4,0.07,0.34,-0.03,0.4,-0.0,0.66,-135.5,79.59,104.62,-0.06,0.09,0.12,0.4,0.09,0.37,-124.74,53.37,130.64,0.31,0.24,0.21,0.41,0.73,0.89,-133.66,45.1,109.95,0.06,0.18,1.15,0.35,0.47,0.66
3.07,-15.2,74.23,28.5,-0.07,0.3,0.11,0.43,0.17,0.66,-135.55,79.43,104.53,0.19,0.16,-0.07,0.39,0.32,0.49,-124.6,53.7,130.36,0.52,0.18,0.48,0.75,0.45,0.51,-133.08,45.84,110.61,0.3,0.4,1.35,0.09,0.03,-0.04
3.08,-15.28,74.14,28.13,0.17,0.14,0.1,0.51,0.39,0.5,-135.77,79.31,104.17,0.28,0.18,0.06,0.24,0.27,0.4,-124.94,54.33,130.17,0.59,0.41,0.39,0.72,0.35,0.58,-132.14,46.64,111.4,0.49,0.13,0.93,0.28,0.44,-0.09
3.09,-15.32,73.67,28.3,0.12,0.27,0.09,0.66,0.51,0.5,-135.48,79.18,104.06,0.16,0.06,-0.01,0.41,0.26,0.52,-125.02,54.82,129.52,0.56,0.25,0.29,0.19,0.22,1.25,-132.43,47.2,111.66,0.55,0.31,0.48,0.48,1.31,-0.07
3.1,-15.41,73.61,28.3,-0.19,0.35,0.19,0.66,0.36,0.1,-135.58,79.31,103.53,0.01,0.03,-0.0,0.07,0.42,0.34,-125.27,55.34,128.54,0.62,0.51,0.09,0.12,0.59,0.27,-132.71,47.58,111.18,0.46,0.28,0.3,0.93,1.39,0.88
3.11,-15.67,73.24,28.43,0.01,0.25,-0.07,0.17,0.13,0.18,-135.64,79.2,103.15,0.03,-0.09,0.19,0.02,0.55,-0.15,-125.89,55.72,127.24,0.44,0.29,0.22,0.58,0.59,1.16,-132.6,47.84,111.36,0.08,-0.06,0.74,0.91,1.53,1.1
3.12,-15.68,73.19,28.62,0.08,0.24,0.15,0.13,0.03,0.03,-135.75,78.98,102.78,-0.06,0.04,0.27,-0.09,0.35,-0.05,-126.4,55.59,126.18,0.39,0.18,0.17,0.47,0.27,1.01,-132.34,48.12,112.1,0.11,0.14,0.65,0.77,1.12,1.47
3.13,-16.0,72.71,28.73,-0.01,0.06,0.04,0.07,0.11,0.34,-135.81,79.05,102.51,0.17,0.48,0.15,0.02,0.27,0.56,-127.14,55.85,124.52,0.51,0.57,0.17,0.18,1.06,0.75,-131.64,48.27,113.15,0.16,0.23,0.99,0.27,0.82,0.13
3.14,-15.9,72.47,28.86,0.16,0.2,0.13,0.21,0.26,0.17,-135.96,78.8,101.74,0.26,0.12,0.2,0.24,0.34,-0.02,-127.59,56.03,123.55,0.62,0.58,0.3,0.26,1.61,0.32,-131.08,48.46,114.37,0.24,0.38,1.15,0.6,0.87,0.69
3.15,-15.92,72.11,29.01,0.04,0.21,-0.06,0.37,0.27,0.73,-136.27,78.82,101.55,0.0,-0.21,0.1,-0.02,0.25,-0.02,-127.71,56.62,122.13,0.65,0.7,0.27,0.03,1.41,0.45,-130.5,48.68,115.95,0.36,0.34,1.23,0.68,0.84,1.0
3.16,-16.32,72.16,29.29,0.02,0.19,-0.11,0.09,0.1,0.69,-136.17,78.79,101.54,0.09,0.14,-0.04,0.03,0.35,0.03,-127.28,57.59,121.19,0.66,0.7,0.66,0.98,0.56,2.08,-130.35,48.74,117.09,0.6,0.41,1.51,0.33,1.31,0.01
3.17,-16.46,72.19,28.85,0.26,-0.1,-0.03,0.24,0.57,0.41,-136.18,78.74,101.73,-0.0,0.04,-0.05,-0.0,0.28,0.21,-127.09,58.28,120.56,0.48,0.4,0.36,3.14,0.53,2.76,-130.89,48.59,121.06,0.22,0.3,0.84,0.39,1.15,0.75
3.18,-16.67,72.07,29.11,0.11,-0.02,-0.05,0.33,0.78,0.53,-136.12,78.82,101.67,0.16,0.25,0.05,0.29,0.42,0.3,-127.58,57.88,119.71,0.13,-0.04,0.65,6.16,3.28,2.79,-131.36,48.49,124.86,0.29,-0.02,0.01,0.69,0.78,1.56
3.19,-16.62,72.06,29.06,0.06,-0.03,-0.06,0.24,0.78,0.61,-136.09,78.85,101.99,0.34,0.17,0.01,0.2,0.57,0.4,-128.24,57.48,120.11,0.01,0.81,-0.05,0.17,3.91,0.28,-131.46,48.47,124.94,0.27,0.01,0.33,0.37,2.56,1.09
3.2,-16.75,72.21,29.07,0.08,-0.0,-0.11,0.21,0.48,0.23,-135.77,78.82,101.7,0.18,0.35,0.04,-0.04,0.55,0.7,-127.72,57.65,121.22,0.27,0.24,0.68,0.59,1.07,2.26,-131.0,48.6,126.05,0.31,0.13,1.31,0.75,2.1,1.26
3.21,-16.52,72.08,29.03,0.1,-0.1,-0.05,0.45,0.15,0.3,-135.76,78.65,101.19,0.06,0.1,0.02,0.11,0.69,0.92,-126.65,58.96,121.87,0.21,0.09,1.41,0.9,0.35,2.14,-130.07,48.7,127.62,0.31,0.43,1.56,0.29,1.33,0.45
3.22,-16.38,71.92,29.42,0.04,0.02,0.28,0.41,0.09,0.25,-135.83,79.03,100.55,0.14,0.05,0.04,0.46,0.16,0.6,-125.19,60.48,123.38,0.31,-0.01,1.79,1.78,0.37,0.57,-130.04,48.37,128.21,0.54,0.19,0.54,0.13,0.19,1.01
3.23,-16.08,72.04,29.93,0.11,-0.0,0.02,0.33,0.06,0.51,-135.92,79.38,100.1,0.1,0.3,0.0,0.59,0.51,0.81,-123.59,61.96,124.84,0.11,0.07,1.51,1.56,1.1,-0.04,-130.54,48.46,128.32,0.33,0.16,0.26,0.47,0.12,0.22
3.24,-16.02,72.08,30.18,-0.14,-0.07,0.04,0.24,0.03,0.52,-136.04,79.41,99.91,0.15,0.25,-0.08,0.64,0.53,0.55,-123.29,62.21,124.92,0.05,0.14,1.44,1.14,1.12,0.16,-130.66,48.42,128.32,0.24,0.1,0.01,0.39,0.26,-0.12
3.25,-16.07,72.1,30.51,0.08,0.05,0.26,0.65,-0.02,0.41,-135.99,79.53,99.89,-0.15,0.09,-0.07,0.52,0.64,0.39,-122.82,62.83,125.68,-0.0,0.22,1.09,0.99,1.23,0.44,-130.83,48.49,128.37,0.06,0.19,0.11,0.49,0.19,0.25
