0.01,-107.58106096440493,77.22714615054687,167.90597095879147,0.0402308292856345,0.0351627723094934,0.0488166811974449,1.1905907529524875,0.0983878838741361,1.4823156413419938,-101.06018213389436,84.05774514155061,175.65467166538198,0.1309697943441546,0.5244175415505702,0.1083788404821722,0.4807120789438323,0.9401056683760228,0.1376104257931627,-167.9008217248458,4.004068459099753,10.624599117576052,0.1434556903800105,0.0812634905020932,0.1656237090330236,0.9419583140039824,1.237086642132392,0.4622091848170223,-134.10275044396582,3.6314826389967214,14.39409673466936,0.1629422131097479,0.0415947841088754,0.1162793021001402,0.9094474608997494,0.5946740020957946,0.2427998649189719
0.02,-107.08705035442976,76.75824185135853,167.81569932279044,0.1136773077122908,0.2221903777368307,0.0532926590666927,1.2501647611897526,0.2296338465338231,1.3476642211897183,-101.06541866892998,82.83866377890722,177.5436727584049,0.1270788861289524,0.7773786177844964,0.1009415670907808,0.789991604202519,0.8368277438066571,0.2218673140290405,-167.29545317855852,4.064791389963732,10.416234779456325,0.1364490175331833,0.1135410978196488,0.2692193347344077,0.8626124657358741,1.1782258008577666,0.8412408655115577,-133.380318229748,3.566991545657266,14.503820122611714,0.1436863923323879,0.0774171110907194,0.2204450301784974,0.9887521707786892,0.5727335259877342,0.6355130177493831
0.03,-106.5806452711849,76.26901351251202,167.72926588661045,0.1830304345882507,0.4058793924811579,0.0577650154786719,1.3025425563331403,0.3551785128138325,1.2230304728576635,-101.0636263172944,81.598239431207,179.43733178487358,0.1229746028250863,1.0255716032548798,0.0939972721824891,1.077481146349038,0.7354221019748389,0.3029024789166608,-166.6902416970141,4.129590076961474,10.211216754903107,0.1299424891121591,0.1442815644982301,0.3671857370256751,0.7828997510173923,1.116368803509931,1.2020255078835191,-132.66571277339042,3.5023530522463107,14.609862848023756,0.1249860303710125,0.1109576942548555,0.3187439336398391,1.05652362942566,0.5498633231521161,1.0139715744541402
0.04,-106.05273850365302,75.72722965067354,167.6567224983512,0.2446653761143672,0.581518502360451,0.0621116648586267,1.3423345873234565,0.4696181397403915,1.116202576940271,-101.04690838360732,80.29441898298005,181.34249402511796,0.1187334204344224,1.2627734603007796,0.0880896114885103,1.324569367637212,0.6384969534373063,0.3788113600001451,-166.07962561308753,4.202867114109793,10.018216132232745,0.1243152427795198,0.1720159964937176,0.4543585980303131,0.7038865544545062,1.050026643608008,1.528323191912495,-131.96474031778314,3.438983006976604,14.710441045108135,0.1075786139529386,0.1401325364569785,0.4057002689772396,1.1050869531137997,0.5251839419984944,1.3631836694453512
0.05,-105.49730700715304,75.10541311708677,167.60749668565606,0.2955819797710368,0.7446022961260906,0.0662390940286828,1.365390871275782,0.5682105233247235,1.0329012512908082,-101.00844331293018,78.89066462343774,183.25969989801104,0.11442659127541,1.4831751697952935,0.0836574839760977,1.516573859254614,0.5484192988712876,0.4479548895955779,-165.46003553713166,4.2882686505454295,9.845211303371924,0.1199954435880838,0.1954445190411335,0.5264283637913749,0.6272552320093868,0.979055467108608,1.805923000298938,-131.2839587466966,3.3785000651944848,14.804378723334388,0.0921531227750409,0.1632480731471275,0.4767580648839592,1.129252045901535,0.4982015369933906,1.6696583144332686
0.06,-104.91243282025296,74.38307014149062,167.5898526887902,0.3336362329898134,0.8909929595365593,0.0700892522003806,1.3692580140917123,0.6471948032415205,0.9761069048494816,-100.94302795250998,77.35892226434012,185.1814620678441,0.1101130820148638,1.681587765129745,0.0809879269979907,1.6440197767359783,0.4671900373336961,0.5090081666682169,-164.83060995377954,4.38838651233133,9.69919268424629,0.1174337175193938,0.2135256352520687,0.5802682006862134,0.5553198284468057,0.904837731703061,2.023627796515161,-130.6307780555309,3.3227214980381965,14.89127610542427,0.0793187008999824,0.1791542246049826,0.5286169509651633,1.1269364400825392,0.468895401168753,1.9222884716321744
0.07,-104.300803068627,73.54812555206992,167.61044611244714,0.3576874913294827,1.0170971974072314,0.0736350745526081,1.3534280841939887,0.7040461587048098,0.9457750604595382,-100.8474977427487,75.68172124819758,187.09208646371903,0.105842865086758,1.8536116664395004,0.0801909602195523,1.7032567495074502,0.3963643651604545,0.5610276848803514,-164.19337723955613,4.504569430626047,9.585993574231846,0.1170561374731055,0.2255535378996795,0.6141663845813127,0.4908937563932429,0.830116039063751,2.1740804602941264,-130.0132331662285,3.2736054923467948,14.971577638827048,0.069569753928759,0.1873379908365318,0.5594475481805014,1.0993600296272428,0.437691859314923,2.1131162177908336
0.08,-103.66965864805788,72.59747942176422,167.67402011148147,0.3676433908800147,1.12003686121209,0.0768659091441428,1.3193524023675298,0.7376509351585258,0.9389710516570734,-100.72098319751608,73.8532681181747,188.96894806081687,0.1016684265308684,1.9957701556598464,0.0811973526421598,1.6963945407630263,0.3370106148913367,0.6035356003624378,-163.5529286712019,4.636848179485127,9.510251774561898,0.1192031084418953,0.2312119723811084,0.6279299710398005,0.4370261222732878,0.7585510163435029,2.254322401667921,-129.43945952672695,3.2331486150619586,15.046532452472375,0.0632534048295346,0.1879454629033214,0.5689666237671103,1.0507958947668712,0.405356447493702,2.237889319778843
0.09,-103.03023901876956,71.53671486220685,167.78326880519435,0.3643987025339814,1.197785539804943,0.0797678793314556,1.2702286221417842,0.7483878841166338,0.9503871768062566,-100.56497311994484,71.87949920994906,190.7848628097628,0.0976600997163648,2.105606225683056,0.0837772889293966,1.6306503459773678,0.2896989537175079,0.6366101544130105,-162.9156984912174,4.783965987507006,9.475490019306111,0.124064563069256,0.2305952024506716,0.6228391947264408,0.3966475623011307,0.6941297299128032,2.2659930908849644,-128.91696345281773,3.2032582220404118,15.11805778823004,0.0605458339089731,0.1817304617850207,0.558369445871754,0.9879289586126444,0.3728534054293027,2.2963269308944696
0.1,-102.39682489389097,70.37908553400713,167.93885700018132,0.3496812733513857,1.2492482816845412,0.082305609210169,1.2106048652404198,0.7380970484371518,0.973142467315405,-100.38317506024435,69.77716007557873,192.5110577641276,0.0939198957527752,2.181736619955956,0.0875757865135053,1.5172719541321094,0.2545124350286361,0.6609597205381299,-162.28902118845022,4.943498041767518,9.484287023587544,0.1316237107472125,0.2241920794118203,0.6014525128428072,0.372181675915964,0.6405595115182574,2.2151321017134764,-128.45181525486123,3.1856234341780145,15.188530610904742,0.061442134928616,0.1699395559771547,0.5301336869243303,0.9189283363211124,0.341216085638475,2.292046903853157
0.11,-101.78550713030722,69.14398034581599,168.13955156890228,0.3258322849838548,1.2742745477166648,0.0844105121219487,1.1458766573810606,0.709918302038012,0.9997214886825958,-100.1811896145628,67.57207161428543,194.1202298837674,0.0905887936490626,2.223854674598809,0.0921588159612783,1.370216540540636,0.2310747861223248,0.677948203043715,-161.68015145130136,5.112041638083619,9.538497791378605,0.1416211920209836,0.2128357218303959,0.5672846683268242,0.365183648574486,0.600755529343303,2.1116149710233154,-128.04790441001705,3.181604949132198,15.260541630243493,0.0657614632240759,0.1541526393470194,0.4877226482613393,0.8523734123855012,0.3114537863143299,2.23216128938179
0.12,-101.21281461223376,67.85509469992525,168.38240348849445,0.2955543253851279,1.2736102863163663,0.0859784973192166,1.0817674539792446,0.6679991781568339,1.022896320099861,-99.96603982673618,65.29680890175787,195.5892617799418,0.087843988757401,2.2326780322020663,0.0970624386087582,1.2047447802648958,0.218592391697473,0.6895403816881586,-161.09541400741767,5.285459620290015,9.63947365742644,0.1535489867718906,0.1976265237962332,0.5243992700030498,0.3760626963940682,0.5764882095189076,1.9683121094700529,-127.70638543492733,3.1921560960784494,15.336648614576246,0.0731667293038213,0.1361033219714131,0.4352250956030193,0.7961849668164331,0.2845011362864413,2.126602803447912
0.13,-100.69432747085403,66.53853231355133,168.66292690672762,0.2616578010273638,1.2488083511787067,0.0868775761136272,1.023869007349454,0.6171048898174119,1.036498386728515,-99.74561286193664,62.98805143155428,196.901286450306,0.0858851153565335,2.2098453753374567,0.1018368274358272,1.0360648244938062,0.215910323391567,0.6981527101477851,-160.53960658160642,5.459161628148224,9.788230535261397,0.1666793187473429,0.1798387189670612,0.4769696806197019,0.4039312303657832,0.5682146603012109,1.8000828792583556,-127.42541245616796,3.2177789751604364,15.419162714067868,0.0831961606189176,0.1175034669725177,0.376974907052419,0.756700312053686,0.2612015080338806,1.987281963610904
0.14,-100.24339411647382,65.22102609786678,168.97525009061314,0.2268280134564248,1.2021216711965992,0.0869636406418957,0.9772799529255506,0.5621908422567524,1.0359567277606736,-99.52807520007823,60.68386469700756,198.0469294459212,0.0849110762148561,2.157773489584616,0.1060787054038478,0.878139208427974,0.2215811714405944,0.7064232567370927,-160.0157196910145,5.628407700217691,9.985518997547532,0.1801290720725034,0.1608204620920491,0.4288658203785453,0.4466051673052184,0.5750850657952988,1.6227049010980543,-127.20021267666108,3.2585132874816534,15.509993347937796,0.0953022798295804,0.0998919903593188,0.3171947391264335,0.737998248638487,0.242307794977749,1.827180504534434
0.15,-99.87006249364362,63.92841442533893,169.31225004474092,0.193428128441481,1.1363977194804946,0.0861010849242855,0.9463414067096924,0.5079988834195164,1.0185798264303938,-99.32131640451772,58.42114996739792,199.024685130782,0.0850909918744243,2.0794901709893514,0.1094495783459426,0.7427424710064682,0.2339424743250116,0.7169419326465771,-159.52497397841913,5.788615527871528,10.231762481815368,0.1929556580999278,0.1418955497960012,0.3833194111916829,0.5007600416301929,0.595093977375132,1.4518132772257186,-127.0234908332056,3.31395253980698,15.610565054854147,0.1088922666159122,0.0845210584536502,0.2597018183509274,0.7415346285578625,0.2284829614587435,1.6594683715047187
0.16,-99.58032057451742,62.68445515896351,169.66570889461454,0.1633500329477845,1.0549804286209772,0.0841846891332887,0.9344449675951354,0.4587154084942358,0.9836084127297082,-99.13246407021892,56.23345936751268,199.8404921509964,0.0865337886063696,1.978459789408434,0.1116818760511658,0.6388263872651909,0.2511987043913098,0.7319973951141429,-159.06712125718994,5.9356475418196455,10.526848942778988,0.2042759933222512,0.1242730493467051,0.3427062059563713,0.5622283225259893,0.6253376862866304,1.3019076208164115,-126.88609931222592,3.383281810613866,15.721805823835556,0.1233633397082395,0.0722849506525332,0.2077006977212544,0.7661044923625555,0.2202882708306617,1.4967064879380068
0.17,-99.37571189655289,61.51001233519763,170.02653316750616,0.1379229148299451,0.9616163181357136,0.0811601251880667,0.9438858910732062,0.4177029931445766,0.9320919306777836,-98.96749805738936,54.14932253251508,200.50665503407848,0.0892612822447337,1.8584178623204728,0.1125783822470332,0.5722171425299113,0.2715081786033834,0.7533928092644884,-158.64091936736784,6.0660512961225255,10.869783806134604,0.2133961320781117,0.1089700224403144,0.3084621521395339,0.6264057864396051,0.6623382548117158,1.1854822213321,-126.77786504397528,3.465331653225004,15.844194475827273,0.1381287697291054,0.0636899818046364,0.1636709173012168,0.8081096686519713,0.2181551689878303,1.350178863317918
0.18,-99.25335149438725,60.422609860593134,170.38506048813045,0.1178844026842255,0.8603600804413747,0.0770414109156982,0.9757467899048312,0.3873048575023365,0.866641457913728,-98.83097834551688,52.191172991314346,201.04030989209832,0.0931892638794913,1.7232297494598523,0.1120103698757093,0.5456351785180644,0.2930786950185354,0.7823585031921225,-158.2446790819133,6.177230578472995,11.258233937494635,0.2199351775783103,0.0967519199534759,0.2811258533007315,0.6887195087391665,0.7023957297945693,1.1123366134282917,-126.68844586163516,3.558642852369408,15.977847991350917,0.1526340910478751,0.0588594898680164,0.1293416244637982,0.8620814795824364,0.2223427413415744,1.2293881262813358
0.19,-99.2063251103162,59.436312412036415,170.7314554612027,0.1034110584857639,0.7554767095627136,0.0719239342786445,1.029812030505301,0.3687239632158474,0.7910987996560087,-98.72588808240808,50.37490162991286,201.46165156531623,0.0981198545466319,1.5767855639875992,0.1099172902284053,0.5589940380611126,0.3142728253104642,0.8195546179369956,-157.87679286563295,6.267535950863686,11.688009325319197,0.2239240538167753,0.0880943165517313,0.2604794664711438,0.7450977163566989,0.7419291160824578,1.0891152922622214,-126.6080995437865,3.6615362460749994,16.12262936145645,0.1663673246838339,0.0575665072250455,0.1057329207252604,0.9213845538951508,0.2328851361844298,1.1417418469035374
0.2,-99.22441776427895,58.56186911435129,171.05617692505228,0.0941970233113408,0.6513362168308435,0.0659916081516128,1.1045163422634643,0.3619855623030531,0.7101493071685954,-98.65358043716036,48.71000768427625,201.79213015877195,0.1037463718634515,1.4229370551728815,0.1063080666537013,0.6099031453137487,0.3337153653414768,0.8651270622753464,-157.53618226413963,6.336277922537789,12.152539424102244,0.2258592215478646,0.0831680051320984,0.2457501390625272,0.7923758795820178,0.7777664044050522,1.119098300940447,-126.528282360469,3.7721809342322232,16.27826103712493,0.178869594610564,0.0592875336597729,0.0932361736573785,0.9790109070861824,0.2495349160106413,1.092441989859699
0.21,-99.29508979594728,57.80704408980391,171.35048357409073,0.0895646091091416,0.5522936896153153,0.0595168489480068,1.196925632669893,0.3659945426336622,0.6289024006247342,-98.6138054623347,47.200270440924605,202.05279372518345,0.1096698972842911,1.2654736161082043,0.1012625895385032,0.6942769223536914,0.3503867678210581,0.9187693969957176,-157.22263120755545,6.38367741854774,12.642406134030956,0.2266952875181967,0.0818472658832147,0.2358350461043852,0.8285801255868075,0.8073504340678109,1.2022257483148695,-126.44203809951556,3.888653626240811,16.44443526427276,0.1897522194600471,0.0632721813380886,0.0917045678406848,1.0283673542398684,0.2717118330341335,1.0845607272646056
0.22,-99.40460063544978,57.17705872419664,171.60693406634311,0.0885893791769036,0.462547103232071,0.0528525811422919,1.302753122874453,0.3786937772177933,0.5524675790582502,-98.60478598660356,45.84482916490303,202.2629102474325,0.1154256464668896,1.1081266173413318,0.0949315891353805,0.8069448386371868,0.3636825252965339,0.9797550934682716,-156.93699690141614,6.410772159980097,13.14499799527171,0.2277688655800296,0.0837390215313484,0.2295215005584065,0.8530508927944485,0.8288450258741346,1.3353057779086983,-126.34418004061196,4.008982450040242,16.62091737354779,0.1987232799689496,0.0686241371526823,0.1005318629850227,1.0639661078546023,0.2984722119135892,1.1192515224208446
0.23,-99.53917373258562,56.67507896640724,171.8198334629767,0.0902238344635584,0.3859702618951174,0.0464162014340088,1.4164371579507309,0.3973167196632367,0.4855572848100344,-98.62331455825412,44.63953424039914,202.43895471269693,0.1205172578553623,0.9545855901632184,0.0875329766868782,0.9421667264797434,0.3734224638276491,1.046927604743794,-156.68130472350026,6.419293573976805,13.644351222005533,0.2306569417230914,0.0882293590741024,0.2256846319411812,0.866400440635567,0.8411528618145104,1.51234096504918,-126.23129800207484,4.131170869967039,16.807639548321696,0.2056221671480244,0.0743889879791208,0.1187093538234163,1.081947095097727,0.3285194012478017,1.196022215383583
0.24,-99.68610006347596,56.302693077196125,171.9855817477842,0.0934070765305053,0.3259263065667445,0.0406660886810924,1.5313273810517565,0.418708725957905,0.4321443495988447,-98.66485638999092,43.57841902493966,202.5940010951244,0.1244571427382185,0.8085072880348607,0.0793432615074602,1.0939837542071913,0.3798056370425189,1.1186525146662158,-156.4587406016764,6.411519921224765,14.121240887604278,0.2369836063086828,0.0945439146794655,0.2234544331728255,0.8703257289949328,0.8438845162004166,1.7249165560107718,-126.101637363423,4.253201952431079,17.004780705111607,0.2104566222918632,0.0796450629701607,0.1448633694115537,1.080389040002231,0.3602767962410154,1.312996463024071
0.25,-99.83469082795683,56.06033903800829,172.1028903920041,0.0971522640520046,0.2850749989426622,0.0360716441623135,1.6400189167671009,0.4396734289830879,0.3951913725808812,-98.7236602478728,42.65514054982402,202.73751639308895,0.126810121464784,0.6735011427613613,0.0706841285820966,1.256376509964516,0.3833208279228443,1.192743355383516,-156.2735584105564,6.39010195135453,14.55357748363828,0.2481975280927473,0.1018194364459746,0.2223482509475147,0.8673149316399441,0.8373348846034061,1.9626199094508203,-125.9548993281411,4.373030631677215,17.212824588289163,0.2134346811813172,0.0835951529308313,0.1772840806747176,1.05940099344751,0.3920386429395253,1.4671080954140312
0.26,-99.97700999922392,55.94765534635065,172.17284600392628,0.1006089563657128,0.2651926954925096,0.0330781190090102,1.734841255915105,0.4572930927351103,0.3764591004395156,-98.7928936852506,41.864249293900976,202.87551567938016,0.1272361093103559,0.5530817912974179,0.0619058394262484,1.4232539662463914,0.3846321546697757,1.266384542058376,-156.1309256642537,6.357851620982459,14.917148990724598,0.2653482956391817,0.1091844229541241,0.2223630780659414,0.8602909657123805,0.8225182235097803,2.2134920385080976,-125.79200697794164,4.48858180781818,17.432585599128455,0.2149841887633774,0.0856588254087135,0.2139595512446989,1.0210190689250194,0.422199746713755,1.6542007590097585
0.27,-100.10834127369712,55.96374227577254,172.19881352880765,0.1031023795210119,0.2670272465726983,0.032067913645124,1.8084705347196175,0.469181988158391,0.3763954811082917,-98.86482738874636,41.20217455172651,203.01100554274848,0.1255266482033616,0.4505865368247814,0.05336951091481,1.5883464949659554,0.384460661340112,1.3360974633155842,-156.03673955945547,6.317484475348231,15.186725974004563,0.2888927092445835,0.1158463413850777,0.2240173202044399,0.8522341953746346,0.801282430082258,2.46453645616739,-125.61487498678936,4.597783345212445,17.66519265472739,0.2157550177757343,0.0855653569614628,0.2526277352942824,0.9689555328654028,0.4495457766603878,1.8690344826041376
0.28,-100.22736781735436,56.10732988581627,172.1861837194419,0.1041545297015618,0.290210187813144,0.0333207928208865,1.8546048863128712,0.4736543272336885,0.3941057406240085,-98.9310946034823,40.66785149670648,203.1446208950723,0.1216300156578347,0.3690592895226506,0.0454295211447065,1.7451034514062944,0.3834783138218812,1.397811284970316,-155.99745265223473,6.271312289653163,15.337516425067047,0.3185623436592393,0.1211816346176808,0.2283297187546976,0.8458249553013419,0.7764760713576278,2.7023189955160523,-125.42621494478348,4.698671995469177,17.912026973410455,0.2166031947246139,0.0834454168556985,0.2908550786822887,0.9082551171600064,0.473565347495909,2.1052270499274943
0.29,-100.3360637614392,56.37685196239691,172.14197951613446,0.1034919284329049,0.3332434946234459,0.0369764268184926,1.8686225606755729,0.4698082387935292,0.4274048072686012,-98.98304531538938,40.26296449422869,203.27534879411783,0.1156604807799244,0.3111054023146422,0.038416441698418,1.8866928977814863,0.3822246948952407,1.4470867167715369,-156.0199438429178,6.220893419509944,15.34691846175183,0.3533208734391226,0.1248228946782042,0.2367274012113752,0.8431469907232533,0.752098534568147,2.9136807869440524,-125.22940264863472,4.789613309783801,18.17462030717151,0.2185605027329132,0.0799166952684125,0.3261451958835411,0.8449097255030642,0.4947281432180299,2.355180592357478
0.3,-100.4393138628938,56.77042239287231,172.07434391874094,0.1010425717240416,0.3935671368460776,0.0430034353151249,1.848132030147984,0.4575341616730949,0.4729559039179276,-99.01220164489963,39.99182929104391,203.40123385720412,0.1078892332560077,0.278728026669097,0.0326207415514783,2.0061726789741674,0.3810520700089961,1.4794980910022142,-156.11144785290986,6.166663004577338,15.19647532420539,0.3914329691008274,0.1267351059184922,0.2508837658321691,0.845492177226749,0.7333457363620447,3.086554625556181,-125.02842500498905,4.869671293419426,18.45453428537091,0.2227960706449285,0.0761562792281393,0.3560765103206262,0.7854729335203571,0.5146637716579754,2.610061739457904
0.31,-100.5442959266396,57.28570654053646,171.99194057418714,0.0969221582018799,0.4677003739393919,0.0511793537767181,1.7933291627398589,0.4374538622861933,0.5265000977991382,-99.01080291204173,39.8609729458048,203.5199736342898,0.0987176354871849,0.2731647254541496,0.0282777918082742,2.096856788421398,0.3801019759855242,1.4911251460515218,-156.27951589726894,6.107582685800463,14.873893998118929,0.4306554830778185,0.1272696530837965,0.2724954146542714,0.8532994433553326,0.72647960430542,3.210829087190303,-124.8279072985716,4.939149671871818,18.75325575218046,0.2305767429643996,0.0739512004493633,0.3784646631070119,0.7367021699919899,0.5361773875444911,2.8599113060311847
0.32,-100.6596818811104,57.9196814056227,171.9033096459901,0.0914088719623122,0.5514405379398793,0.0610857050563452,1.7071005401635233,0.4107968654692412,0.583176317052935,-98.97240913841452,39.87848746379673,203.6293380011543,0.0886371223997629,0.2947478453053574,0.0255549763001909,2.1528492336007465,0.3793144876091953,1.4790648786493024,-156.5319357111891,6.040867696530336,14.374954491125434,0.4685461648373494,0.1271822112929066,0.3030141281860795,0.8662435285110249,0.7384893465625945,3.279161034332698,-124.63319334042964,5.000306262521573,19.072152961029342,0.2432307253990566,0.0757175081282375,0.3915427213796195,0.7052401548367058,0.563055355755509,3.093947675857637
0.33,-100.79473325591331,58.66828938638864,171.8162327678999,0.0849074039102911,0.6401011549122825,0.0721216797495086,1.5948459281150216,0.3792294935984216,0.6379183406665533,-98.89251295159372,40.05323237498444,203.727380149812,0.078183130564292,0.342810761996848,0.0245418710849015,2.169673337054811,0.3784684378843574,1.4418645913189003,-156.87651242057805,5.961863830950908,13.705120037059364,0.5028657475175479,0.1276016770223351,0.3433577247125253,0.8834627230634947,0.7765562341698968,3.2876146339222454,-124.45041545714447,5.058217509473136,19.412540241266047,0.2621155261808882,0.084476803097294,0.394147641816606,0.6973313381868207,0.5996496586272435,3.301092289946497
0.34,-100.95837560991694,59.52601019900419,171.73716532307225,0.0779054319534991,0.7287737623956088,0.0835384753322627,1.4640288985065268,0.3446613604270196,0.6858977782690253,-98.76909363384372,40.39395192010152,203.81244128872217,0.0678915867849275,0.4156556207618544,0.025244441496281,2.1448974465877795,0.3772462513471017,1.3798008052022182,-157.32061999112008,5.864151268527681,12.88066416543396,0.5320279024294414,0.1299443363680605,0.3936338597256354,0.9038826560154816,0.8473664941545004,3.2360149528928064,-124.28646258607692,5.121741407207423,19.775893827602548,0.2885882673361966,0.1037776713043836,0.3858952218426963,0.7185572953893443,0.6502764763178425,3.470693852797138
0.35,-101.15832839564742,60.48539747535785,171.67078743899685,0.070927606975862,0.8125995961902739,0.0944938026583778,1.3235002420848818,0.3090555694794029,0.7229656589821417,-98.60303492366428,40.90836454810788,203.88298009068757,0.058265067319547,0.5105888974111531,0.0275839216716507,2.0786495971497168,0.375310336493097,1.2949648117912202,-157.87047832949685,5.739939125109754,11.92915715685512,0.5555330259113868,0.135779593796141,0.4529197041685877,0.9265637884015572,0.956337802162632,3.1279455348110856,-124.14875192053776,5.204491127377554,20.164249822879835,0.3239744845845294,0.137549274227399,0.3673204600681738,0.7735668280086505,0.7185085648862211,3.593377647398499
0.36,-101.40034593919536,61.536643509442285,171.61970878503266,0.0644923981736021,0.8870367189897954,0.1041227367124559,1.1826695716563518,0.2742604872450478,0.7460357718228773,-98.39832272229177,41.60228047910351,203.93727773174191,0.049752449799986,0.6240212945505595,0.0314005893221175,1.9739232316748692,0.3723725698275359,1.1911445978179662,-158.53018196673125,5.580780227613732,10.889197194633566,0.5743120353642462,0.1466663259424577,0.5191432597699147,0.950986884567559,1.1068375928227503,2.970379457905138,-124.04474261013944,5.325690125867401,20.580796723345752,0.3695296130953293,0.1898779244522475,0.3399579910635807,0.8657697265100505,0.8064707315627657,3.661913042033459
0.37,-101.68760244577577,62.66724386362693,171.58434265004212,0.0590765407922625,0.948107207539308,0.1116178721976107,1.0506177346744243,0.2418703801659953,0.7533546939871655,-98.16194431156138,42.4788038673242,203.973080074082,0.0427422986635164,0.7516210228426622,0.0364621876117916,1.8366042919007024,0.3682408198292837,1.0735160742064218,-159.3005846378013,5.378584441016061,9.8093272446077,0.5909088991021794,0.1639868520005451,0.5891065989417968,0.977202658040764,1.2994750656295466,2.7729922445236728,-123.9811889382598,5.51074380541342,21.03064856311875,0.4263851304152719,0.2647071015040607,0.306339667436291,0.9969612870252113,0.9142559153368706,3.671980466492304
0.38,-102.02023832533422,63.86183288078456,171.5629475051771,0.0550908394901333,0.9926095157881092,0.1163096276200369,0.9352439497048084,0.213117679224045,0.7446174315309878,-97.903432119186,43.537674504815335,203.9872419876893,0.0375673991951299,0.8885069720059005,0.04247624549052,1.6751911043364855,0.3628372555034028,0.9481843358692597,-160.17821063422903,5.126852556403955,8.746145766212212,0.6094458923268021,0.1888056354704788,0.6586761621435254,1.0058037260534938,1.5315443568412646,2.5472462304214094,-123.9631905586227,5.791350441216252,21.52175152837696,0.4954709186201861,0.3654768129512509,0.2698952083985117,1.1668599646406854,1.0395634534328937,3.6227256333736646
0.39,-102.3950791388542,65.10225197224663,171.5518218698477,0.0528695074055483,1.0182825351112037,0.1177370123200963,0.8425346956611238,0.1888020508160981,0.7209110042830987,-97.63403727202832,44.77479766768835,203.97543673267785,0.0345158770783659,1.0294701866119504,0.0491051111337541,1.5002191971578118,0.3561933449801115,0.8216436877780715,-161.1543995132047,4.822004271626889,7.76169467307,0.6353425244010634,0.2217728915906864,0.7231393080866698,1.0377142992460022,1.7966935079785304,2.3053566544105686,-123.99313896251527,6.2049965189941405,22.065842470396717,0.577409871336495,0.4947353058491081,0.2347556749354297,1.372585108720442,1.177625712413458,3.517010101521733
0.4,-102.8055392575333,66.367894266263,171.54563075761885,0.0526730410431748,1.0239093643039328,0.1157000570595753,0.7760320887588688,0.1692647544066379,0.6844965105895696,-97.36558421860558,46.18199805399405,203.93198660665965,0.0338432806412062,1.1692144401419515,0.055982663024502,1.3234348654508152,0.3484285396031784,0.7002362228437262,-162.21488008888736,4.464642719044777,6.920284861749133,0.6747957871213045,0.2630822960156367,0.7776927821154622,1.0738272634223385,2.084896652140753,2.059256800537571,-124.0696805778551,6.793736324025356,22.679350425139468,0.6723901396771468,0.6537685918433682,0.205472571159642,1.6081701245088291,1.321447739207284,3.361301137119558
0.41,-103.24172557103311,67.63634153209524,171.53783812080857,0.0547023253282034,1.0093513351714252,0.1102869794036938,0.7365632589106351,0.1544149501141325,0.6384678448439318,-97.1091416306757,47.74701290067632,203.8498599229868,0.0357803247050213,1.3026057855617037,0.062732715063516,1.1567875081643135,0.3397170909412031,0.5896744194353197,-163.33990783584852,4.060589462727592,6.284988613817961,0.7340714570403604,0.3124803789460202,0.8179972631782704,1.1145510146838529,2.382800235988327,1.8196784523959004,-124.18682679081472,7.602229769088733,23.38411740511571,0.7800302099815605,0.8422964963033162,0.1866737408142286,1.8642684899633597,1.462349076297009,3.1651862077675834
0.42,-103.69075808138948,68.88427396678811,171.52121795492363,0.0591195215715085,0.9755080799130263,0.1018718066866078,0.7222638659159079,0.1438069405311699,0.5863457693465977,-96.87371989805015,49.453713389418034,203.72086379926407,0.0405327382974322,1.4249169636733514,0.0689904355011039,1.0113372800536555,0.3302475958389925,0.4946638182441571,-164.50499959230515,3.621538997246897,5.914078417090086,0.8186958867722398,0.369316006666132,0.8407138955057308,1.1593596427067976,2.674478891606116,1.595452820348596,-124.33334283839116,8.675093222037619,24.207811521274422,0.8992569843739626,1.058277548331506,0.1826830465426727,2.128228457281896,1.5907661575579668,2.9405437916539268
0.43,-104.1373193543526,70.08859409096121,171.4884149754731,0.0660693160784692,0.9242076274224688,0.0910816043917037,0.7288935239582589,0.1367573375477732,0.531673261645301,-96.66523013353388,51.28252286719136,203.5360419110536,0.0482719820219735,1.532048935848615,0.0744284544407885,0.8961976492428523,0.3201834232432999,0.4186355371604086,-165.6821895401521,3.165217331656118,5.857711935246447,0.9326650947235636,0.4326138391161457,0.843939304707266,1.2064593881929446,2.9425725296694383,1.39310938939457,-124.49253402014972,10.053697994646084,25.183910125461622,1.0282161952197586,1.297851930268464,0.1971369720858412,2.384668713124825,1.697238619593322,2.700450599291307
0.44,-104.56442928017124,71.22766787429711,171.43252201526798,0.0756925982075373,0.8580397021209403,0.0787364487577197,0.7504081647883882,0.1324829997924869,0.4776700747130186,-96.48589074950908,53.21099405778653,203.28626131478396,0.0591174940145549,1.6207115815397664,0.0787881070172272,0.817642014701831,0.3096345102870989,0.3635856227570326,-166.84164324387507,2.714978738313081,6.15514418691997,1.0777938585877829,0.5011563443515107,0.8274731702821068,1.2526761339987809,3.169703005691753,1.2168011846998383,-124.64251324252568,11.77262538917571,26.3511424972168,1.1642312108272392,1.555435600405842,0.232635867070959,2.616591500385381,1.7734642327566823,2.4579534733291384
0.45,-104.95441498434889,72.28255679031778,171.34763575632422,0.0881244294547735,0.7801522160989499,0.0657692191856109,0.7797257350638744,0.130237397029186,0.4269850862973514,-96.33416539511474,55.21451311993732,202.96294479671548,0.0731122254681118,1.6885492322395526,0.0819137299852917,0.7784934953408058,0.2986494543544006,0.3300166857774957,-167.9534220693586,2.2988317622482475,6.83269089968959,1.2533076595469266,0.5735634263820996,0.7928814061631922,1.2936267277952205,3.3400109895337,1.0685208299069542,-124.75698282059206,13.856049473754377,27.752304622985235,1.303823442584803,1.8239619659867308,0.2904664634907157,2.806949373745085,1.81327892632996,2.224872550319864
0.46,-105.29001417331943,73.2381024774562,171.22934896458892,0.1034702709622102,0.6940328051535571,0.0531352404585158,0.8095924428155876,0.129426326496109,0.381560987344221,-96.20520480896562,57.267106491306485,202.5588803455976,0.090193960935312,1.7342028794915405,0.08378487295617,0.7778873639778536,0.2872324653282636,0.3169784769137279,-168.9891902045831,1.9479460789245089,7.902584084040575,1.4557386870825135,0.6483644190364466,0.7433521074879454,1.3241724944538915,3.4406281343808724,0.9485133530820108,-124.80650667504,16.3143617238735,29.43239741259181,1.442803994405945,2.0952510035424208,0.370424713307423,2.940469702510652,1.813414280394059,2.0108133835881787
0.47,-105.55552415088827,74.08373673059099,171.07514063955773,0.1217592177091,0.6032943033623431,0.0417228979613659,0.8334310003015715,0.1296917654615731,0.3426038824670244,-96.09167955036726,59.34232906611214,202.06902412350104,0.1101660490444978,1.7573077275778346,0.0845387916880135,0.8114490939391191,0.2753843892867216,0.3222023684706989,-169.92369039856263,1.6947525030621402,9.362770144255917,1.6791352355894646,0.7240615838283467,0.6833735679688323,1.3390882463063916,3.4629095507057097,0.8557633504468328,-124.76019612628502,19.141370998636805,31.436096084556777,1.5764391291384046,2.3604706912165385,0.4707571064682216,3.005467556387279,1.7739105767796155,1.8225341824180448
0.48,-105.7378966788968,74.8139228669577,170.88463606601184,0.1428794888149701,0.5114778431279291,0.0322752998928789,0.8460463921193804,0.1309598400190179,0.3106360848703632,-95.98484405516048,61.41420568149273,201.4912125574325,0.1326728838942305,1.7584305845129065,0.0844749941912858,0.8718723270398845,0.2631615853331254,0.3423204627127874,-170.7358678980163,1.5708038922175982,11.197616811377085,1.915545309394324,0.7991858351964927,0.6182866777708104,1.3338327737868232,3.4032894365818764,0.7884441846114705,-124.58768784673671,22.31240790125108,33.80463143564391,1.6996817940689566,2.610644950387821,0.5882281620332819,2.9953629469896907,1.698117243978253,1.6637400324700269
0.49,-105.82768242113504,75.42818297041875,170.65972257834215,0.1665078116360636,0.4218825338323443,0.0253304523848853,0.844091533461026,0.1334512344449362,0.2856065724025864,-95.87566437998834,63.45818119851531,200.82671352193643,0.1571866914726245,1.7389557374815274,0.08403579887917,0.9498188947987058,0.2507414738683586,0.3731560104515479,-171.40957993839828,1.604606029651552,13.37942687155918,2.1556998446436184,0.8723443265433241,0.5537739450012121,1.3052859025615402,3.2636756807527787,0.7442536362627065,-124.26125729710068,25.783633160987744,36.572249308128406,1.807451559045502,2.8371590388819445,0.7183125077810611,2.9096638954969736,1.592283747313722,1.535280537006444
0.5,-105.81974343565636,75.93071834770303,170.40451884244067,0.1920489277388249,0.3374275622391955,0.0211842645322774,0.8262484137768099,0.1376508822472849,0.2670376896815138,-95.75586383883592,65.45201227656281,200.0805716204204,0.1830113262141744,1.7009310547992011,0.0837615296727377,1.0350101107027576,0.2384798060019347,0.4100680585425061,-171.9338789275628,1.819643978031095,15.870609940234017,2.389802491858419,0.9422573353158284,0.4953458181286951,1.252325158184468,3.051352954203477,0.7206064488642117,-123.75788729362108,29.49278743447945,39.76250521785016,1.8949393885566783,3.032217845925472,0.855499539144828,2.754264499930666,1.4648150237678668,1.4356451431459505
0.51,-105.71367252625024,76.32967744445718,170.12520324994958,0.2186029872960779,0.2605505679909368,0.0198777997191811,0.7931380632770317,0.1442334650529786,0.2541916663793643,-95.61877923778988,67.37651991927703,199.26172885189337,0.2093056246136808,1.6468887488158428,0.0842247483377102,1.117348710230025,0.2269433993754527,0.4483274157984804,-172.30289654008445,2.2328115420672874,18.62634005950933,2.6083306911286592,1.0077807804209826,0.4478768651344296,1.1761493983943774,2.7784089917974817,0.7146974900825528,-123.06110493940731,33.36151315954442,43.38473724672636,1.9579123563002203,3.189222414233559,0.9936856359138942,2.541012086211277,1.3253197009857585,1.3616090913226082
0.52,-105.51388134750268,76.6361600319097,169.82971166474871,0.2449761141001427,0.1931440760299299,0.0212078768319105,0.7470139954886035,0.153946384213639,0.2462406411882219,-95.4599623272094,69.2161309095563,198.38291916514623,0.2351248702249094,1.5796568979894223,0.0859530689923462,1.187913624790701,0.2169046574894503,0.4834932399385905,-172.51538475852865,2.853397002070948,21.59751953032957,2.802763619373496,1.0679123015741778,0.4152334304680374,1.0803064533708022,2.460738745240586,0.7234820929482451,-122.16241761987447,37.29922149234412,47.43113046453329,1.9929950884318564,3.30304262519114,1.1266160599489707,2.286600004316775,1.183605562859967,1.3088896665322305
0.53,-105.22934444749323,76.86306654523527,169.52731918876304,0.2697426805718603,0.1365290304967463,0.0247584431342566,0.6913110398350204,0.1674622340900305,0.2424203231700379,-95.27749838145208,70.95916824500637,197.46034053120823,0.2594757200103224,1.502177188686331,0.0893530783527071,1.2397054344957337,0.2092908583259334,0.5117543110102694,-172.57399165648684,3.6826965761410793,24.733863873373632,2.966172102211404,1.121782892366653,0.4000210003077112,0.970429991617724,2.116725551280984,0.7436367855665027,-121.06222209422788,41.20827867965669,51.8748190266901,1.997907501495283,3.3701780201218843,1.2483311488574895,2.0109301076744246,1.0487698650091553,1.2727156354521127
0.54,-104.87301403381868,77.02390796136632,169.2281274171111,0.291357961166206,0.0914617700759673,0.0299489616655743,0.6301216027168589,0.1852235198134155,0.2421463657387484,-95.07204476224328,72.59788862622747,196.51310800833824,0.2813780683502485,1.4173411587993283,0.0946478466904484,1.2680776776756817,0.2050905890998418,0.5302019042103339,-172.48436625918222,4.71423846274839,27.986910163478687,3.0936289051295205,1.1686402418242217,0.4034630093985544,0.8537266346502579,1.765744614293001,0.7715617874926758,-119.7701237100011,44.990080774649215,56.669428990839215,1.9716418065504373,3.3888131827770374,1.3535726841437192,1.7351522718141044,0.928495190130486,1.2482715896130103
0.55,-104.46094943789566,77.13168715066506,168.9424880386964,0.3083092534761713,0.058169105282656,0.036095143822966,0.5676665745823832,0.2073079310033242,0.2450777511491398,-94.84661797780868,74.1282925110252,195.5624951189756,0.2999266810893887,1.327852731338069,0.101837649782712,1.2708496781386838,0.2052294832623128,0.5370133485120699,-172.25419735858097,5.934527137333026,31.312736435978348,3.182420504070214,1.2078313671354417,0.4254052508938772,0.7382789728756742,1.4266606589118211,0.8034684315149759,-118.30467105498651,48.55142760877266,61.750309664421565,1.9145664833328568,3.358786518753049,1.4381156122091396,1.479620944981716,0.8286072929250543,1.2310314803844034
0.56,-104.011232709056,77.19794969336819,168.68040241067976,0.319285136576396,0.0364053290520545,0.042476525360523,0.5078229221551334,0.2333409614468467,0.2511209274797015,-94.6061783818694,75.54974588576319,194.63098283359813,0.3143460033042851,1.236120943593769,0.1106890454267267,1.2481441980966956,0.2104348038257373,0.53154061877462,-171.892292283837,7.324173139685129,34.67417632407341,3.2320606678050474,1.2387900317233025,0.4644261027859216,0.6322483615835454,1.116479324153755,0.835565600099909,-116.69256610157488,51.81054633278752,67.03744777693447,1.828450759792128,3.2814980954625463,1.4990030484211956,1.2620080557150872,0.7528964615479689,1.217024216963931
0.57,-103.54276180067778,77.23208168767633,168.45094025308725,0.3233382906799948,0.025523999140502,0.0484046561277493,0.4537587805084059,0.2624754681978365,0.2603774571619207,-94.3570762543214,76.86445803795807,193.74115421519377,0.3240333518208046,1.1441850680815575,0.1207530055124085,1.2020227620606705,0.2211113213362616,0.5143069301857703,-171.40778947022818,8.859258910482703,38.04233017286884,3.244121408546835,1.2610308112202109,0.5180261117000073,0.543071903781768,0.8492664125434526,0.8643275562362608,-114.96743687358924,54.70216935974795,72.43978406555665,1.7164083027585229,3.1597813203005027,1.5346732566068415,1.0957793095712145,0.7031611585538055,1.2030715157234009
0.58,-103.07402105308432,77.24090421327338,168.26171696391447,0.3200175426053444,0.0245560147709803,0.0532852825690753,0.4077049781233275,0.2934467381594983,0.2730438552287514,-94.10643037715192,78.07686179966464,192.91449481026103,0.3285884650498835,1.0536744162944056,0.1314094176189414,1.136004809833176,0.2372490398777398,0.4869134033249219,-170.8095723678675,10.512799998072714,41.39721627274358,3.221909077308545,1.2741491957570672,0.5828709491649378,0.4767462632297367,0.6353959671309171,0.8868000258606803,-113.16825988797606,57.181216826458005,77.86044015227111,1.5827623514236435,2.997755976645088,1.544974822081023,0.9891837913375884,0.6794084086756188,1.187012728336516
0.59,-102.6219249546807,77.22858032258077,168.11846058922808,0.3094486816296069,0.0322851082829365,0.056668181765577,0.3708650729181225,0.3246979611294345,0.2892762972812509,-93.86150954068212,79.19294422692845,192.1701801468733,0.3278302970999815,0.965804351595758,0.1419327612032804,1.054553613431794,0.2583775486478261,0.4518554320454734,-170.10591588814728,12.256184431222843,44.72747735430874,3.170023838202178,1.277826893165644,0.6550661141929855,0.437276377251288,0.4811470134449978,0.9008876901564716,-111.33750880008589,59.22482008628393,83.2022508500323,1.4328373320070076,2.800670788604514,1.5310749349767905,0.9448365717503612,0.6801397719350002,1.1679003184561365
0.6,-102.2008184170144,77.19681488731275,168.02469002758863,0.2923501316690615,0.0473137834040129,0.0582795505194239,0.3434449080402299,0.3545567084492935,0.3090379942892401,-93.62917843072483,80.21957536700245,191.5239475258417,0.3218037526982046,0.8814063801064245,0.151571490095804,0.9625918510533584,0.2835738079052313,0.4122541776909441,-169.30435865220457,14.06050155157458,48.02916133185494,3.093849954327116,1.2718427109238224,0.7304459593090613,0.4263434995894941,0.3886405208822476,0.9055659388991172,-109.51910090871826,60.83260666153452,88.37298436987334,1.2726850051405325,2.5747361957203587,1.4952782805726548,0.9599027777121024,0.7026611731581526,1.146122986058027
0.61,-101.82169888035264,77.14529615220536,167.98151811518434,0.2699778536101787,0.0681170846095549,0.0580340797224079,0.3247733242994302,0.3814318939437695,0.3319538008754328,-93.41545316581606,81.16387852798188,190.9871545751405,0.3107787824194676,0.8009850613569292,0.1596316078391882,0.8650819929063619,0.3115225038316678,0.3715239954931021,-168.41176407534223,15.89769713910272,51.30372572874467,2.999031202720646,1.2560903819434543,0.8048611299791639,0.4432191729666242,0.3560854706646388,0.9009727372429251,-107.7562239721424,62.02532750479112,93.2897259610518,1.108756375399082,2.326943059578019,1.440784283038832,1.0268268128029252,0.7433749258404075,1.1233946273913888
0.62,-101.49170600878868,77.0723054395384,167.98758758035186,0.2440030964417174,0.0930868587147289,0.0560266502473716,0.3134863801516247,0.4039962929340401,0.3572017425933109,-93.22519159121772,82.03267721920032,190.5661179439775,0.2952421707738336,0.7247910351517798,0.1655538039659878,0.7666852808063154,0.3406221664759907,0.3330141155465123,-167.43451549307426,17.741513347007675,54.55554463961538,2.8909871822512008,1.2306039568673774,0.8744477111852986,0.4849245639358363,0.3782836755531488,0.8883609768858749,-106.08915432703584,62.84203779868035,97.88210352459754,0.947534259929387,2.0648591821183624,1.371409999085556,1.134494807101179,0.7980365034046027,1.1025492511110382
0.63,-101.2139057894214,76.97541052285662,168.03914364052793,0.2163364613806176,0.1205730145343989,0.0525063462319777,0.307751889256251,0.4213222914014497,0.3834707650382042,-93.0619236282107,82.83204402280771,190.26180165792564,0.2758800380905413,0.6528990082053886,0.1689739969917267,0.6715029654793432,0.3691249824185031,0.2996724049986503,-166.37878299485806,19.568195861028887,57.78928011059652,2.774518756716752,1.1955885495976932,0.935860993353862,0.5466108953868176,0.4473289152653257,0.8699218233057656,-104.55321433980278,63.33614177035749,102.094302233005,0.7951464281823296,1.7963930836454554,1.291297481541141,1.2696732024255182,0.8619773115221904,1.087121439185646
0.64,-100.98737754978237,76.85215855497995,168.13024203335436,0.1889213856651473,0.1489289031839247,0.0478376710414293,0.3055127466027117,0.4329461140062928,0.4090064244083345,-92.92781059694356,83.56696768817227,190.06988968191055,0.2535483117277124,0.5852811424781253,0.1697592838307055,0.5828987627303781,0.3952927203886598,0.2737749940330071,-165.25079799397346,21.35698011574093,61.00748499431897,2.653534262075557,1.1514507083796752,0.986459274950095,0.622115874150514,0.5534270511243354,0.8485155500875621,-103.17703887384856,63.57068437487542,105.88604134024352,0.6569853456457356,1.5295163610153286,1.2046201070294529,1.41853635265977,0.9303024111690118,1.080761135758268
0.65,-100.80759281136494,76.70069455707288,168.25308340646237,0.1635268314664845,0.1765650346724923,0.0424551262270646,0.3047252024118804,0.4388482180749464,0.4317514041547237,-92.82371021939971,84.24114773402228,189.98123667612168,0.2292298979134807,0.5218687750780505,0.1680146270322911,0.5033965429457508,0.4175477109068747,0.2567508045601043,-164.0570748964328,23.09039679701329,64.208739125554,2.5309072417222724,1.0988208656701508,1.0244285057498266,0.7046324132727498,0.6857602801440158,0.8273586374503287,-101.981303955137,63.61332148515172,109.2327715057857,0.5373659280474135,1.2719444562122284,1.1153080673068814,1.5680915534565891,0.9980740890378912,1.0865934522471266
0.66,-100.6670527881847,76.52024950659276,168.3984543582147,0.1415691297863687,0.2020101726861381,0.0368174419048982,0.3035674144714143,0.4393561508102019,0.4495666971065201,-92.74931572474672,84.85692047389986,189.9826501629428,0.2039802322911522,0.4625984219837938,0.164059534455979,0.4346429144440206,0.4346001664270686,0.2491121877841687,-162.8045302173125,24.75445328792973,67.38651713348305,2.4084579120120497,1.0385615221281868,1.0488444543586015,0.7874122105387914,0.833324235615762,0.8097117096318361,-100.97801588539028,63.53141782672853,112.12529806937552,0.4392551002593299,1.0307894957754424,1.0268211734928632,1.7073403743482105,1.0604958702652494,1.1066553197650313
0.67,-100.55612920135236,76.31146536164482,168.55624482570522,0.123985979233267,0.2239738380430871,0.0313667196020125,0.3005994149478436,0.4349971828683001,0.4604959309784896,-92.70333364911708,85.4153160426041,190.05792230892277,0.1788656129080517,0.4074412800641246,0.1583781816052324,0.3774243021172745,0.4455416016620294,0.2504880455629004,-161.50047122271172,26.338744899656533,70.52887062870442,2.2870381996221,0.9717581399325388,1.059672639576519,0.864421640881319,0.9856829356386704,0.7985988456082519,-100.1703867270456,63.38769416758343,114.568937720105,0.3641047098831818,0.8122130470202857,0.9419958318644388,1.8280764933536495,1.1131138832837262,1.14151767537674
0.68,-100.4640355879041,76.07654851476254,168.71600433927702,0.1111750388822295,0.2414020958855745,0.026495920623987,0.2948657522036396,0.4263413918554339,0.4630184318873664,-92.68366705174812,85.91624162759432,190.18900709947687,0.1548996473751011,0.356417877766413,0.1515504855350691,0.3317323921889945,0.4499031385670295,0.2597458028176851,-160.15245988270007,27.83652544756439,73.61889061856324,2.166694020683007,0.8996930314519659,1.0577067265663294,0.930873169691822,1.1336048470178053,0.7965739559552334,-99.5532558872776,63.236766219603886,116.58225454314902,0.3118112839734697,0.6211152697717143,0.8629793385110709,1.9252908424952,1.1520442380096485,1.190153776099617
0.69,-100.37984566206462,75.81926289356743,168.86749754361668,0.1029994928294096,0.2535203482406348,0.0225260414070699,0.2859397187088439,0.4138746047530122,0.456237125919179,-92.68757997755267,86.35877941757423,190.35723313739044,0.1329820785079418,0.3096000270375666,0.1441746760566254,0.2968750336870169,0.4476797628644932,0.2751812414718959,-158.76809969972194,29.244725315147253,76.63580471560799,2.046876485245317,0.8238045425323968,1.0444458161378416,0.9835728786817676,1.269550017949927,0.805537713639919,-99.11397054458074,63.12279698787693,118.19541059688908,0.2808117113267841,0.4608967602275545,0.7912452986395929,1.9972078878112327,1.174216276011302,1.250062954410319
0.7,-100.29347057589894,75.54478577948446,169.00122198286556,0.0988549090032175,0.2598610449526166,0.0196924210263135,0.2739113529052666,0.3979277485013796,0.4399691166447398,-92.7118334935273,86.74157687961944,190.54445225555983,0.113842847542556,0.2671012696370675,0.1367930281303254,0.271626639587606,0.4393163460429196,0.2947476987825233,-157.35482970423195,30.56386226869049,79.55647599549117,1.9266745611797744,0.7456348730816651,1.021913552571085,1.0210515026636873,1.3879750166863694,0.8266001373435156,-98.83361100860564,63.078343149477256,119.448184255969,0.2683048889009388,0.3333214388192924,0.7276696533487048,2.044999760099236,1.1776021739602178,1.3176161136840805
0.71,-100.19650787851374,75.25945368759072,169.10885726038865,0.0977853819847469,0.260277527552293,0.0181383502720046,0.2593250202619793,0.3786723031928904,0.414739548554735,-92.75279875837272,87.06329382852226,190.73404430881547,0.0979943875489979,0.2290565049302988,0.129831368676728,0.2544043267506456,0.4256470181833274,0.3162904310785451,-155.9198232614414,31.79776883285976,82.3570342414545,1.8050455529097968,0.6667707853222756,0.9924284509833904,1.043475375558243,1.48542829462499,0.8599840542807526,-98.68843521476968,63.12433803154841,120.3877400428108,0.2705704323849729,0.2384963325809864,0.6726428309887701,2.072227633067809,1.1613916555969344,1.388554117933005
0.72,-100.08288428509236,74.97042562931645,169.18362283353278,0.0986321684839114,0.2549455418543326,0.0179139000519613,0.2430789654270972,0.3561755125780199,0.3817046916719978,-92.80656278321156,87.32306113713958,190.91172344530835,0.0856966870419069,0.1955924709425157,0.1235600875459649,0.2434500832703338,0.4077855786375499,0.3377541442700574,-154.47006989703755,32.95307322855785,85.01440063617028,1.681026492867625,0.588782300507181,0.9583433193509336,1.052358261898641,1.5604320535173022,0.9049753612915984,-98.65141726644896,63.27103651443307,121.0662639505138,0.2833423768188643,0.1749692225348986,0.6261945341060412,2.0840633860610214,1.126070174436203,1.4585419557410004
0.73,-99.9492352603611,74.68529048561413,169.22053027221682,0.1001948099188506,0.2443518313974055,0.0189786476824893,0.2263043994438611,0.3304966169389682,0.3425361365444874,-92.86904450938248,87.52090414049967,191.0661163606785,0.0769407749785533,0.1667922492514963,0.1180802534920284,0.2369989644856052,0.3869799804121472,0.3573436703825066,-153.01267322503014,34.03841216424519,87.50754712655345,1.5539170086308007,0.513164657461755,0.9217795416813568,1.0501170869963137,1.6131736140617283,0.959937577992738,-98.69377379923613,63.519660424417175,121.53858752492276,0.3021919144692064,0.1399294452065497,0.5881055302153616,2.0863632422997385,1.0733727834682156,1.5236701955884715
0.74,-99.79499661329652,74.41164584613584,169.21652380546905,0.1013832852700228,0.2292670067820907,0.0212080924276289,0.2102408345454341,0.3017995983927939,0.299287729181482,-92.9361325563973,87.65808883875553,191.18910443921015,0.0714555408695907,0.142657892028932,0.1133339682724886,0.2334171624885885,0.3644580444602133,0.3736331382453112,-151.55534127873415,35.06340704089527,89.81842587653412,1.4234285805648577,0.4412876209943857,0.8843885216571148,1.0395393165211806,1.64504984794593,1.022405277116228,-98.7864103359482,63.86443399222448,121.8598983350326,0.3228787827918037,0.129484367704775,0.5579787961747338,2.0846957053856734,1.0061115684509618,1.5808129202186605
0.75,-99.62222108809712,74.15667684815571,169.17051051873375,0.1013412067600915,0.2106996843783705,0.0244042069653261,0.1961194113184884,0.2704589187678032,0.2542531918170517,-93.00384426065445,87.7373576374637,191.2759365753639,0.0687402296555889,0.1230760865326953,0.1091345367860026,0.2312999593665438,0.3412957952727169,0.3856296372900961,-150.1069870031623,36.0374891989331,91.93258198407456,1.2897941011331642,0.3743533689028943,0.8471773649332535,1.0232523130536573,1.658131560030094,1.0892496839605943,-98.90126167938716,64.29469702892618,122.083589861842,0.3416430926297152,0.1389791619220392,0.5352526786329005,2.0834515621291296,0.9279002886798374,1.6277946762446
0.76,-99.435166942802,73.92676355040709,169.08328864155132,0.0995257285325332,0.1898310199583919,0.0283104653348468,0.185061629375526,0.2371387273635483,0.2098158560756347,-93.06849340115474,87.76303235739516,191.325128209401,0.0681213076456467,0.1077930087258703,0.1052102851574146,0.2295281645512691,0.318333374948774,0.3928002642480245,-148.67830488914018,36.96870863602859,93.8395089960507,1.1538276234184317,0.3133606764002639,0.8104352140686935,1.0032903386467735,1.654642666726929,1.156885126072931,-99.012521092518,64.79683409702265,122.25927599559508,0.3554236355620828,0.1633316330615587,0.5191640029353468,2.085164415648265,0.8428140629131261,1.663370715203602
0.77,-99.23972724327544,73.72714327548961,168.95738760491105,0.0957387542144122,0.1679319875216137,0.0326310346277051,0.1779982412742532,0.2028302435377776,0.1682940863246655,-93.12684670332808,87.74097572110477,191.3381678346589,0.0688284506306749,0.0964050315738087,0.101255635259642,0.2272907773771565,0.2961502490813952,0.395068157227088,-147.2821590327029,37.8626945396459,95.5328206613692,1.0169229124531796,0.2590717300710136,0.7737842062094011,0.9808334557309046,1.6365588273026483,1.2214788396242091,-99.09774288799495,65.35585131820632,122.431003912948,0.3620005750242328,0.1973620172676473,0.5086947529618937,2.0901377547287785,0.7550238979514984,1.6870667654457758
0.78,-99.04277490748764,73.56165041588552,168.79683562402948,0.0901128568111102,0.1462688435529842,0.0370529380835456,0.17560994944712,0.1688375627043368,0.131791250155621,-93.17624952576804,87.67841689304477,191.3190584175152,0.0700808113711606,0.0883702655472632,0.0969831845654464,0.2240865198287338,0.2750962169140846,0.392777346026799,-145.9336250299601,38.72194014090229,97.01030272705714,0.880984748267553,0.2119805743211213,0.7363531516583666,0.9561509284170688,1.6053996893317268,1.2791455353246437,-99.1387764403168,65.95654093636097,122.63573050328624,0.3600670309117403,0.2361030600817584,0.5025444396438875,2.0964188646095887,0.6684449128070885,1.698944669879248
0.79,-98.8514926944079,73.43255079115734,168.60687069840228,0.0830609271571003,0.1260048945740883,0.0412691515662029,0.1782872520692649,0.136710327140282,0.1020616528903813,-93.21470756059188,87.5836587640883,191.2737294766499,0.0711721595125253,0.0830422838737031,0.0921703320630074,0.219714801292649,0.2553624784253057,0.3866224304441376,-144.64958050206448,39.545547541286986,98.27388699429888,0.7482971128640342,0.1722872095444759,0.6970410776291308,0.9287358914976755,1.5622272679508034,1.326134272334327,-99.12246976104086,66.5842643232118,122.902153119283,0.3492349526799755,0.2750755913963975,0.4991574335607742,2.1001027638828456,0.5864400648328579,1.6993575046971063
0.8,-98.6727459546762,73.34048064123012,168.3936121870016,0.0752003352874393,0.108108902499358,0.0450001233928966,0.1861034832381236,0.1081309086371593,0.0804021862830797,-93.2409202536225,87.4656926324648,191.2093652476578,0.0715425850816497,0.0797231600144882,0.0866939166357822,0.2142600561017686,0.2370704763574866,0.3775408836663605,-143.4478278526865,40.32949246204407,99.32956347827898,0.6213425834185251,0.139884972455373,0.6548151186163528,0.8975810362536878,1.507803545538127,1.3590236240140223,-99.04107998610714,67.22543550185584,123.24998862398884,0.3299782916399591,0.3105119770721334,0.4968110189836522,2.095907314174237,0.5116214160377626,1.688742226122425
0.81,-98.51254404311578,73.28449185571903,168.16371349595462,0.0672619832458511,0.0932814558054061,0.0480114807195916,0.198795470338637,0.0847709619702814,0.06757596267583,-93.25426994131404,87.33375054940281,191.1337027209264,0.0708258203165667,0.0777286963591651,0.080547452577935,0.2080673446314591,0.2203543824330187,0.3665747222074627,-142.3458356881287,41.06737205125656,100.18721913724184,0.5025943403764884,0.1143688777523933,0.608981553122821,0.8615228339200902,1.4428276722890754,1.3749262619528626,-98.89234375652764,67.86779820265949,123.68977751662084,0.3035154532756142,0.3395096267563876,0.4937501312754862,2.077933932054556,0.4457763356585964,1.6674788039252972
0.82,-98.3756245267213,73.26219602444803,167.92401889323872,0.0599940167253008,0.0819093456743363,0.0501267012498176,0.2157510102054379,0.0681355495565129,0.0637717628727009,-93.25477640621978,87.19682909180378,191.05435695751055,0.068865506230549,0.0764546557771609,0.0738383709739592,0.2017049843421929,0.2054144529865405,0.3547219006064497,-141.3592724630515,41.75150860620726,100.8603705061486,0.394305670939129,0.0950693840279384,0.559380012819373,0.8195778345829147,1.3681679607428714,1.3716827046400166,-98.67918482340777,68.50057409594284,124.2232607149052,0.2716369304877601,0.3601027611308669,0.4883460142001204,2.0405091584575263,0.3899169553561365,1.635824808624856
0.83,-98.26518087305402,73.26999166849062,167.68124521678166,0.0540698134875201,0.0740541734813678,0.0512347032118365,0.2360095155886485,0.0594124773814795,0.0686020951705643,-93.2430281149059,87.06322187720183,190.9782276127113,0.0657005718374193,0.0754304496885172,0.0667666528955991,0.1959110485337865,0.1925248261488913,0.3428080788837127,-140.50054951725085,42.37422506221172,101.36575353380564,0.2983216738783161,0.0811110873497857,0.5064729564114511,0.7712102515998699,1.285018684319888,1.3480149316039944,-98.40906536954482,69.11453595893188,124.84433861436251,0.2364920385321384,0.3712518464267731,0.4792561770570325,1.9789906305121876,0.3444216985546366,1.5939157207324235
0.84,-98.18273877639012,73.30335263423162,167.4417021366301,0.0500094811549179,0.069475982085079,0.0512929238078809,0.2582878473259055,0.0593415550970428,0.0811413245890603,-93.2200987555291,86.94010033131443,190.9110301129577,0.0615267978102293,0.0743484962704512,0.0595900884429182,0.1915217733092461,0.1819923061807151,0.3314077300694401,-139.77757966002744,42.92909729306833,101.7227511599816,0.2159338110870446,0.0714908687974009,0.4513274572142496,0.716498299842191,1.194943852849358,1.3036192083485725,-98.09302142671396,69.70203863841942,125.54057242886503,0.2003562583066329,0.372762134117635,0.4655653906111962,1.8904261463135028,0.3092202775437506,1.5418090170691805
0.85,-98.12817129190194,73.35715177593178,167.21105664789366,0.0481226104769949,0.0676871379490582,0.0503263344735527,0.2810439020023622,0.0681151498404222,0.1000026050882748,-93.1874533839276,86.83317992217526,190.85697970589732,0.0566453899010883,0.0730639191026907,0.0525838648271266,0.1893805397974385,0.1740785121226143,0.3208287364800649,-139.1929058377365,43.41201670980937,101.95266887273507,0.1477907030854819,0.0651661531026889,0.3955067109345593,0.6561930451274925,1.0998126870283709,1.239195563488018,-97.7444604917481,70.25702566583364,126.29512366220128,0.1654040180389581,0.3651514357200683,0.4468881508863598,1.7739821114237444,0.2839707740150504,1.479548911646363
0.86,-98.09983203038588,73.42599297617656,166.99414295584515,0.048477452938412,0.0680274140143624,0.0484224408853312,0.3025844393008419,0.0853187280189225,0.1234489676773478,-93.14684604295344,86.74650038241425,190.8186396041029,0.0514090405355846,0.0715677423241127,0.0460026162596865,0.1902289217569491,0.1689093298586048,0.3111539598758412,-138.74328987340925,43.821944976803984,102.07789658353994,0.0938702298118854,0.0611414949662167,0.3408993576532642,0.591678512970034,1.0016651141542718,1.1564249841358436,-97.37783561210787,70.7750185340361,127.0889556192926,0.1335103078855648,0.3494903598153844,0.4234143334636037,1.63110038440518,0.2681864560179911,1.4072380540182092
0.87,-98.09478057821129,73.50452621085715,166.79481908292414,0.0508987258057795,0.0697491310175107,0.0457221953642451,0.3212123307424467,0.1099181536816907,0.1495309465385309,-93.10021170967426,86.6823347865515,190.79692806746309,0.0461731963840391,0.0699432405238727,0.0400514815705712,0.1945877581190229,0.166398539009102,0.3023164619766538,-138.41979474749073,44.16129307527542,102.12101321995428,0.0535108540195425,0.0585411666299643,0.2895155631471404,0.5248485730117192,0.902553590911426,1.0579054348089298,-97.0073346808439,71.2530871865621,127.90306300059254,0.1060998969961902,0.3272355056164008,0.3958864052133492,1.4653865637233483,0.2612886874877814,1.3251154608534637
0.88,-98.10907447640324,73.58772466817544,166.61587442442777,0.0549933980143799,0.0721013600778858,0.0424070563954149,0.3353959333786579,0.1402988100257253,0.1762406552391145,-93.04955844435447,86.6412276210414,190.7912650831326,0.0412571590041147,0.0683172700623253,0.0348696991765107,0.2026437518748255,0.1662073349954874,0.2941789416316644,-138.2083499096517,44.43590143628527,102.1038973201036,0.0254949950464906,0.0566578321078638,0.243274667363358,0.4579222768843751,0.804394773116612,0.9470470326493649,-96.64572595401762,71.68979395015539,128.7204785771067,0.0840565484319064,0.3000695198361288,0.3655088474732314,1.2822688755100533,0.2625874553463393,1.2336468312859084
0.89,-98.13810539025393,73.67110946308101,166.45899522677766,0.0602010381329177,0.0744038151537679,0.0386829967996307,0.3439343280231,0.1743593110252003,0.2016698236100227,-92.99686771506808,86.62214978858742,190.79982828390845,0.0369171703146908,0.0668166189854992,0.0305268175602838,0.2141622860886767,0.1677513538825354,0.2865941289142081,-138.0907511152742,44.65463732893259,102.04690446957244,0.0081735563581425,0.0549729920024638,0.203805635157209,0.3932268094370978,0.7088511946226345,0.8279166870649145,-96.303476621816,72.08509947591799,129.52784008816272,0.0676972560399639,0.2697551024261261,0.3338028248067115,1.0884925320904664,0.271213995697538,1.1336290188484313
0.9,-98.17696048543226,73.75091488371115,166.3247951674096,0.065862478679008,0.0761032585470428,0.0347629368375825,0.346089646270967,0.2096590615436059,0.2241570438501398,-92.94401004540308,86.62275004797193,190.8198805162168,0.0333318615255335,0.0655356376845756,0.027028846457654,0.2284480841225642,0.1702548768462689,0.2794367275768196,-138.04600811993598,44.82866357030292,101.96816308156713,-0.0003824299318879,0.0531517604156075,0.1722799695132848,0.3329820414842599,0.6172617169356884,0.7050235295339771,-95.98821572737032,72.44021896657695,130.3163716178214,0.0568088664998159,0.2380061645441328,0.3024263567174621,0.8915290362058973,0.2860412751860313,1.0262973079736828
0.91,-98.22079044920945,73.82419348815053,166.21291408663024,0.0712979561657724,0.0768077360024756,0.0308496646939812,0.3416622630826765,0.2436137868549928,0.2424084012390612,-92.8926798763576,86.63967663625068,190.84812851712155,0.0305992575785539,0.0645175810039151,0.0243304449085816,0.244370842050135,0.1728409301022949,0.2726105215685823,-138.05191657799386,44.970468726240775,101.88302682811144,-0.0022193663625281,0.0510197160662972,0.1492946149039542,0.2791192319723298,0.5306440477290845,0.5830502255603637,-95.70455771884691,72.75742105210747,131.0822180279188,0.0507374594347087,0.2063790201593627,0.272982452562056,0.6989817478224971,0.3056264556694041,0.913410235843953
0.92,-98.26516179511692,73.8888646020367,166.12217908267647,0.0758843244573709,0.0762970875507287,0.0271214167997994,0.3309951180122943,0.2737257603909869,0.2555772555656903,-92.84434994769668,86.66893847679454,190.8810738909218,0.028743700701341,0.0637491587393749,0.0223495886753462,0.2604626571947949,0.1746388619139021,0.2660400259464586,-138.08670200744953,45.09277792628336,101.8037081350729,0.0006553198203082,0.0485313230144906,0.1348173377808012,0.2331587650017831,0.4497880190665661,0.466554578642747,-95.45425177833413,73.03977062246054,131.8261534387428,0.0485153367790165,0.1761877569732501,0.2468379815100282,0.5180574307044594,0.3282011329350315,0.7972807180430589
0.93,-98.3063651469842,73.9437118404811,166.05081104709856,0.0791213446596716,0.0745119153139196,0.0237216957549268,0.3149069898612973,0.297826057389885,0.2632938225246796,-92.800243096806,86.70627274223409,190.91532391445915,0.0277302977653378,0.0631658048748479,0.0209823529794192,0.2750795737207539,0.1748893465479671,0.2596545220321353,-138.1305713683497,45.20747807346218,101.7391043840852,0.006408703118551,0.0457380844529645,0.1281994625311135,0.1961598126916993,0.3754364136328743,0.3596797914843782,-95.23658496747692,73.29082932976165,132.55275968069586,0.0490069008950136,0.1484482747478999,0.2249753830122348,0.3551517030627105,0.3517252287512556,0.6807290176238937
0.94,-98.34164796506114,73.98833572694727,165.99665087325553,0.0806796572302045,0.0715264708357472,0.0207539299337748,0.2945673821667586,0.3142977363817012,0.2656427870405999,-92.76131826560876,86.74748607506591,190.9478395935568,0.027483829152576,0.0626640357391245,0.0201165867817332,0.2866046129285761,0.1730295976887201,0.2533681378473374,-138.1670160528664,45.32468703511549,101.69481684400856,0.0134863652047245,0.0427615756144085,0.1282523268735713,0.1687403849158413,0.3085176187555197,0.2659129734575696,-95.04894859679273,73.51433996035898,133.2692322943417,0.0510535935474783,0.1238538404835084,0.2078958567195615,0.2155709146021526,0.3740094880589438,0.566950896844593
0.95,-98.36934436299096,74.02306701750481,165.95737696836102,0.0804267420933762,0.0675124424287525,0.018280790164864,0.2713347957618777,0.3222464971299227,0.2630961221085086,-92.7282672762938,86.78874163615278,190.9761098127596,0.0279088341542076,0.062117142286957,0.0196438685722546,0.2936591831852529,0.1687465967821222,0.2470572690713872,-138.18373948084655,45.45207301249666,101.67335125892222,0.0206795425802015,0.039773120274399,0.133375481081141,0.1511519769712756,0.250368257192736,0.187920342108574,-94.88747534016365,73.71392962286406,133.98401114254693,0.0535998585472096,0.1027819042247857,0.1955854547708631,0.1033896994637504,0.3928986904113157,0.4593155363391398
0.96,-98.3888877124954,74.04884594595379,165.93069042813852,0.0784302625663193,0.0627001959560171,0.01632754191911,0.2465842236665575,0.3215925246147862,0.2564160860829465,-92.70151926943028,86.82677338197666,190.99825098923407,0.0289079799183639,0.061391268179205,0.0194692533213953,0.2952873513307245,0.1619925175491907,0.240537387338544,-138.17312980110054,45.59449067567665,101.6744784650244,0.0271549066907153,0.036979011106191,0.1417174187430476,0.1433824761648644,0.2028793941576901,0.1274701426325268,-94.74766412675392,73.89286878982192,134.70544313824158,0.0557865648831505,0.0853282795018962,0.1875460619955982,0.0214248530213956,0.4064931873712686,0.3611236345007065
0.97,-98.400710682921,74.06707348737028,165.9144542454314,0.0749400485965928,0.0573426296802022,0.0148884750411892,0.2215489805481648,0.3130719011354019,0.2465467152813382,-92.6812504214229,86.85902093799201,191.0130394752819,0.0303965799781437,0.06035997114151,0.01951822909303,0.2910826999849049,0.1529642124397577,0.2335440138156981,-138.13225629149397,45.75395077486079,101.695724115756,0.0324499031560878,0.0346083775123872,0.1513456993014667,0.1452572997058843,0.1685192401148913,0.0854373023410823,-94.62492624410152,74.0539169025817,135.44066300423964,0.0570046223459057,0.0713612766809555,0.1828835832103189,-0.0287064099246226,0.4133721261155266,0.2753615280158058
0.98,-98.40605597758028,74.07944360885222,165.90678400631398,0.070351507668997,0.0516852819151308,0.013935078403151,0.1971977970046919,0.2981511573159408,0.2345096818745226,-92.66739770031867,86.88368972916503,191.019888318177,0.0323119293028995,0.05891603443484,0.0197402932194116,0.2812373849925923,0.142055727113169,0.2257254831956824,-138.0624267903963,45.92988958711752,101.73294923074552,0.0364386527953192,0.032900469022311,0.1604052683109585,0.1565138016063011,0.1502164079984252,0.0618717126744883,-94.51500748759544,74.19927022278756,136.19482329556928,0.0569085206932696,0.060585763227076,0.1804369618514654,-0.046480565921193,0.4127725948199318,0.2044829747273761
0.99,-98.4067325765131,74.08776952844576,165.90609516394105,0.0651552158868816,0.0459447734806462,0.0134244209257958,0.174161432263084,0.2788682627306589,0.2213142679841559,-92.65967695715094,86.89974805821392,191.01878153143008,0.0346168939264488,0.0569796331274394,0.0201088165084404,0.2665057866597404,0.1297960960306578,0.2166556872835199,-137.96839195806214,46.11966562609881,101.7809781014292,0.039274551551503,0.032089304870527,0.1672511549008277,0.1768365742695768,0.151115493296749,0.0561069926577081,-94.41426602150727,74.33060672783591,136.97072205906,0.0553958504174085,0.0526066113549168,0.178925838509205,-0.0323476028766074,0.4046819897295551,0.1502408299254911
1.0,-98.4048532632361,74.09381988240736,165.91111387898042,0.0598792120685268,0.040296058758132,0.0133063868143341,0.1527143950718419,0.2576178820952785,0.2078849683624146,-92.65760694703675,86.90687457805095,191.01017924130343,0.0372980019411583,0.0545023797158882,0.0206173931685296,0.2480900871213285,0.1167831450226269,0.205871075500501,-137.85731257373698,46.31919162268981,101.83422731109624,0.0413162879811229,0.0323856259511707,0.1705500396427453,0.2058552906730894,0.1742350645182543,0.0668882989756347,-94.31981034618968,74.44920277743726,137.76878516288704,0.0525630021528978,0.0469832266440358,0.1770944872682726,0.0123793890325382,0.3898188448544052,0.1135806542706438
1.01,-98.40258164235068,74.09918014539352,165.92085609830218,0.0550311582361217,0.0348675650765439,0.0135289061263412,0.132808353430818,0.2369017714364945,0.1950065630177029,-92.66054099641066,86.9053684637853,190.99490698531696,0.0403590179718092,0.0514675858159764,0.0212734827106725,0.2274692808055858,0.1036202644915858,0.1929286697981355,-137.73761752609363,46.52360937559232,101.88728985813428,0.043044377405295,0.0339576618926397,0.1693499109205009,0.2431151553035724,0.2220700590961937,0.0925030578217652,-94.22952110715822,74.5560843047335,138.58729201084816,0.0486483823701267,0.04327079311623,0.1738352894614461,0.0856125073358888,0.3695037949486834,0.0945997075882982
1.02,-98.40190673916253,74.1051502848475,165.93457725340207,0.0510470277429405,0.0297424027063482,0.0140408563960772,0.1141470952483207,0.2190682997918698,0.1832861724375276,-92.66770684682372,86.89603363215156,190.97404180579005,0.0438113619045922,0.0478881144164982,0.0220906003811829,0.2062021784239697,0.090860405460156,0.1774748849096762,-137.61787759470795,46.72792671893582,101.93543233885572,0.0449757107071098,0.0369127487890861,0.1631177896313391,0.2880316584787467,0.2961886946715778,0.1309038002375897,-94.14199007637296,74.65217435605085,139.42271127654016,0.0439731584334489,0.0410475526187213,0.1682823767007212,0.1845546188578125,0.3454468509416545,0.0925683001396439
1.03,-98.40445611090746,74.11268315639875,165.9516963821483,0.0482517160694536,0.024963565983162,0.0147927636965655,0.0962895273195043,0.2060676177247353,0.1731331689535694,-92.67825343633535,86.88004830549428,190.9488057205607,0.0476626970767699,0.0438037273072052,0.0230804770130409,0.1857368188068992,0.0789607960475187,0.1593117700958094,-137.50580836808993,46.92755268190808,101.97497112880332,0.0475839275559255,0.041281692816531,0.1517452231195763,0.339840497885281,0.3968772079205969,0.1798164070037773,-94.05640974134816,74.73840650182537,140.2700349561704,0.0388870603976495,0.0399298322861731,0.1598712758643956,0.3057519808149968,0.3194929789337662,0.1060056289702601
1.04,-98.4113559257892,74.12236204289363,165.97170403063038,0.0468350400088964,0.0205413914457831,0.0157358498311122,0.0787655106527953,0.1992503472929866,0.1647579988427199,-92.69130155138122,86.8588308142444,190.92047358001716,0.0519049314564274,0.0392792807738681,0.0242464601290055,0.1672541748649892,0.0682518468780836,0.1384479818890534,-137.40749547049614,47.11868589950594,102.00350497877363,0.0512332336538865,0.0470076951659987,0.1355223941811816,0.3975535485246508,0.5228829915055829,0.236830843705122,-93.97244240127688,74.81578567320777,141.12304246903253,0.0337241029076051,0.0395779123745103,0.1483635712767884,0.4451509562325729,0.2933728508038271,0.1327988474315636
1.05,-98.42314670533688,74.1344117425873,165.99407010584807,0.046844262962768,0.0164621843863177,0.0168203455301038,0.0611874515661987,0.1992364178155008,0.1581888275919308,-92.70599356558728,86.83391109589203,190.89029835615085,0.0565031637443547,0.034403816290378,0.0255790174401604,0.1515650440839254,0.05892301656298,0.1151252459360608,-137.32690599708616,47.29853218136879,102.0199951811094,0.0561321341955794,0.053941839868457,0.1150844013744534,0.4599320788972333,0.6712987728893482,0.2994757347433743,-93.89009277440906,74.88539126672701,141.9744713649581,0.0287706146788026,0.0396965229089719,0.1338387661571567,0.598178458323731,0.268499901088585,0.1703530011416469
1.06,-98.43976284492967,74.14873591174594,166.01817186208987,0.0481922051732234,0.0126974084945986,0.0179941693373517,0.0433392712413893,0.2058745367831059,0.1533021947798606,-92.7215365372493,86.80681554853194,190.85945388738912,0.0613877176210079,0.0292893762056753,0.0270537014931189,0.139068009706884,0.0510264962545367,0.0898161074002519,-137.26571400139807,47.46534946394031,102.02469894812351,0.0623113195439046,0.0618471843775812,0.0913361180936815,0.5254874294289107,0.837618388454349,0.3652829289596301,-93.8096028326814,74.94832992899026,142.8161088051179,0.0242458798028851,0.0400336129204408,0.1166587808199054,0.7598628375037183,0.2458416661465544,0.2157611318999908
1.07,-98.46057981809656,74.16497306108464,166.04326039328626,0.0506785515375187,0.0092129165665537,0.0192029309719074,0.0252264423501935,0.218301167457193,0.1498627958396448,-92.73723372713292,86.7789713392318,190.8289934992072,0.066451756163555,0.0240678305444637,0.0286315530695743,0.1297661570367931,0.0444968218152887,0.0631938167175053,-137.2234301279421,47.618340284789205,102.01897548732516,0.0696269400087742,0.0704128564707687,0.0653636464801752,0.592516527010744,1.0159785669404564,0.4318521691674885,-93.73137992204228,75.00565521389385,143.6388461848954,0.0202942413764611,0.040380037193839,0.09741252714832,0.9250043440376752,0.2258778113710053,0.2659867179086393
1.08,-98.48452461367636,74.18256392580294,166.06847568289675,0.054020978805229,0.0059775161153518,0.0203917726928578,0.0070778951985416,0.2350926435617351,0.1475681035681877,-92.75250217225351,86.75163449619009,190.7998222979745,0.0715563445338529,0.0188843385109876,0.0302617235955198,0.1233326879521777,0.0391819786624798,0.0360789853165074,-137.19779029346077,47.75743079437739,102.00499617132532,0.0777872716795791,0.079278081966912,0.0383404375530361,0.6591747883138221,1.1995792908386742,0.4969259618982249,-93.65595924653688,75.05827628133336,144.43275740735965,0.0169867256490654,0.0405713930771433,0.0768482778531574,1.0883941774197003,0.208642508457484,0.3180515803294085
