0.01,-107.63,75.62,162.44,0.01,0.02,0.01,0.03,0.01,0.27,0.39,0.69,0.26,0.56,-97.62,81.75,123.69,0.02,0.04,0.01,0.05,0.01,0.08,0.21,0.71,0.11,0.67,-148.25,2.19,5.12,0.03,0.09,0.07,0.06,0.06,0.04,-0.01,0.05,-0.96,0.27,-120.44,9.88,8.31,0.01,0.01,0.14,0.01,0.06,0.02,-0.04,0.11,-0.86,0.5
0.02,-107.63,75.62,162.44,0.01,0.03,0.01,0.02,0.02,0.17,0.39,0.69,0.26,0.56,-97.62,81.69,124.0,0.04,0.05,0.01,0.06,0.01,0.08,0.21,0.7,0.11,0.67,-148.19,2.25,5.19,0.04,0.13,0.07,0.03,0.03,0.03,-0.01,0.05,-0.96,0.27,-120.44,9.88,8.31,0.01,0.01,0.02,0.02,0.1,0.03,-0.04,0.11,-0.86,0.5
0.03,-107.63,75.62,162.5,0.01,0.03,0.01,0.05,0.02,0.17,0.39,0.69,0.26,0.56,-97.69,81.63,124.31,0.02,0.01,0.01,0.06,0.11,0.28,0.21,0.7,0.11,0.67,-148.38,2.12,5.12,0.06,0.05,0.07,0.02,0.01,0.01,-0.01,0.05,-0.96,0.27,-120.44,9.88,8.31,0.01,0.01,0.02,0.04,0.09,0.09,-0.04,0.11,-0.86,0.5
0.04,-107.63,75.56,162.5,0.01,0.03,0.01,0.08,0.04,0.2,0.39,0.69,0.26,0.56,-97.69,81.69,124.12,0.02,0.05,0.01,0.07,0.02,0.24,0.21,0.7,0.11,0.67,-148.44,2.06,5.12,0.09,0.08,0.03,0.01,0.07,0.02,-0.01,0.05,-0.96,0.27,-120.44,9.88,8.31,0.01,0.01,0.03,0.06,0.06,0.05,-0.04,0.11,-0.86,0.5
0.05,-107.69,75.56,162.56,0.01,0.02,0.01,0.06,0.04,0.17,0.39,0.69,0.26,0.56,-97.69,81.69,124.06,0.02,0.01,0.01,0.1,0.04,0.04,0.21,0.7,0.11,0.67,-148.44,1.94,5.06,0.05,0.07,0.02,0.05,0.07,0.01,-0.0,0.05,-0.96,0.27,-120.37,9.88,8.25,0.01,0.01,0.02,0.05,0.07,0.03,-0.04,0.1,-0.86,0.5
0.06,-107.69,75.56,162.56,0.01,0.02,0.01,0.04,0.03,0.18,0.39,0.69,0.26,0.56,-97.69,81.63,124.31,0.04,0.02,0.01,0.02,0.05,0.13,0.21,0.7,0.11,0.67,-148.44,1.87,5.12,0.04,0.23,0.06,0.07,0.07,0.02,-0.0,0.05,-0.96,0.27,-120.37,9.94,8.25,0.01,0.01,0.01,0.08,0.08,0.02,-0.04,0.11,-0.86,0.5
0.07,-107.69,75.56,162.56,0.01,0.03,0.01,0.02,0.03,0.22,0.39,0.69,0.26,0.56,-97.75,81.63,124.25,0.01,0.03,0.01,0.02,0.06,0.04,0.21,0.7,0.11,0.67,-148.31,1.87,5.19,0.09,0.06,0.13,0.07,0.13,0.03,-0.0,0.05,-0.96,0.27,-120.37,9.88,8.25,0.01,0.01,0.01,0.06,0.04,0.03,-0.04,0.1,-0.86,0.5
0.08,-107.69,75.5,162.56,0.02,0.03,0.01,0.1,0.09,0.2,0.39,0.69,0.26,0.56,-97.69,81.63,124.38,0.05,0.02,0.02,0.03,0.07,0.05,0.21,0.7,0.11,0.67,-148.31,1.81,5.19,0.07,0.03,0.15,0.07,0.12,0.04,-0.0,0.05,-0.96,0.27,-120.37,9.88,8.31,0.01,0.01,0.01,0.05,0.1,0.08,-0.04,0.11,-0.86,0.5
0.09,-107.63,75.5,162.56,0.02,0.02,0.01,0.05,0.01,0.2,0.39,0.69,0.26,0.56,-97.62,81.63,124.62,0.04,0.05,0.01,0.05,0.04,0.07,0.21,0.7,0.12,0.67,-148.5,1.81,5.12,0.11,0.04,0.18,0.04,0.11,0.03,-0.0,0.05,-0.96,0.27,-120.37,9.88,8.31,0.01,0.01,0.01,0.08,0.12,0.1,-0.04,0.11,-0.86,0.5
0.1,-107.63,75.5,162.56,0.02,0.03,0.01,0.03,0.06,0.21,0.39,0.69,0.26,0.56,-97.62,81.56,125.06,0.01,0.07,0.01,0.05,0.04,0.05,0.22,0.7,0.12,0.67,-148.38,1.87,5.12,0.04,0.07,0.03,0.11,0.02,0.05,-0.0,0.05,-0.96,0.27,-120.37,9.88,8.31,0.01,0.01,0.01,0.12,0.15,0.12,-0.04,0.11,-0.86,0.5
0.11,-107.63,75.5,162.56,0.01,0.05,0.01,0.01,0.02,0.15,0.39,0.69,0.26,0.56,-97.62,81.5,125.31,0.01,0.04,0.01,0.01,0.07,0.04,0.22,0.7,0.12,0.67,-148.38,1.81,5.0,0.16,0.02,0.04,0.03,0.01,0.02,-0.0,0.05,-0.96,0.27,-120.31,9.88,8.25,0.02,0.01,0.02,0.08,0.05,0.12,-0.04,0.1,-0.86,0.5
0.12,-107.63,75.44,162.62,0.02,0.04,0.01,0.02,0.04,0.17,0.39,0.69,0.26,0.56,-97.62,81.5,125.5,0.01,0.02,0.01,0.01,0.02,0.02,0.22,0.7,0.12,0.67,-148.38,1.75,5.0,0.17,0.02,0.09,0.07,0.12,0.02,-0.0,0.05,-0.96,0.27,-120.34,9.85,8.25,0.02,0.02,0.02,0.05,0.08,0.08,-0.04,0.1,-0.86,0.5
0.13,-107.63,75.44,162.69,0.02,0.02,0.01,0.01,0.03,0.22,0.39,0.69,0.26,0.56,-97.62,81.5,125.5,0.01,0.01,0.01,0.03,0.05,0.01,0.22,0.7,0.12,0.67,-148.44,1.75,4.94,0.06,0.03,0.02,0.08,0.12,0.02,-0.0,0.05,-0.96,0.27,-120.37,9.81,8.25,0.02,0.02,0.03,0.02,0.11,0.03,-0.04,0.1,-0.86,0.5
0.14,-107.63,75.44,162.69,0.01,0.02,0.01,0.02,0.02,0.26,0.39,0.69,0.26,0.56,-97.62,81.5,125.44,0.01,0.01,0.01,0.12,0.03,0.1,0.22,0.7,0.12,0.67,-148.44,1.75,4.94,0.02,0.03,0.07,0.08,0.1,0.01,-0.0,0.05,-0.96,0.27,-120.37,9.81,8.25,0.01,0.01,0.04,0.01,0.12,0.02,-0.04,0.1,-0.86,0.5
0.15,-107.63,75.44,162.69,0.01,0.03,0.01,0.12,0.02,0.29,0.39,0.69,0.26,0.56,-97.62,81.5,125.19,0.01,0.07,0.01,0.08,0.14,0.11,0.22,0.7,0.12,0.67,-148.44,1.81,4.87,0.03,0.02,0.04,0.1,0.02,0.02,-0.0,0.05,-0.96,0.27,-120.31,9.81,8.25,0.01,0.01,0.06,0.03,0.03,0.05,-0.04,0.1,-0.86,0.5
0.16,-107.63,75.44,162.69,0.01,0.01,0.01,0.09,0.02,0.21,0.39,0.69,0.26,0.56,-97.62,81.56,124.81,0.04,0.07,0.02,0.03,0.02,0.01,0.21,0.7,0.12,0.67,-148.25,1.81,5.0,0.05,0.06,0.02,0.13,0.08,0.04,-0.0,0.05,-0.96,0.27,-120.25,9.81,8.25,0.01,0.01,0.06,0.03,0.1,0.05,-0.04,0.1,-0.86,0.5
0.17,-107.63,75.44,162.69,0.01,0.01,0.01,0.05,0.02,0.15,0.39,0.69,0.26,0.56,-97.62,81.69,124.25,0.04,0.09,0.03,0.02,0.02,0.03,0.21,0.7,0.11,0.67,-148.19,1.75,5.06,0.02,0.05,0.07,0.09,0.08,0.03,-0.0,0.05,-0.96,0.27,-120.25,9.81,8.25,0.02,0.01,0.02,0.03,0.08,0.03,-0.04,0.1,-0.86,0.5
0.18,-107.63,75.44,162.69,0.01,0.01,0.01,0.01,0.02,0.2,0.39,0.69,0.26,0.56,-97.62,81.75,123.87,0.04,0.08,0.03,0.02,0.01,0.05,0.21,0.7,0.11,0.67,-148.19,1.75,5.06,0.01,0.04,0.01,0.07,0.04,0.02,-0.0,0.05,-0.96,0.27,-120.25,9.81,8.25,0.02,0.02,0.02,0.03,0.06,0.09,-0.04,0.1,-0.86,0.5
0.19,-107.69,75.44,162.69,0.01,0.01,0.01,0.02,0.01,0.15,0.39,0.69,0.26,0.56,-97.62,81.81,123.44,0.03,0.07,0.02,0.01,0.02,0.01,0.2,0.71,0.11,0.67,-148.06,1.75,5.06,0.02,0.03,0.08,0.11,0.03,0.01,-0.0,0.05,-0.96,0.28,-120.25,9.75,8.25,0.01,0.01,0.01,0.04,0.02,0.08,-0.04,0.1,-0.86,0.5
0.2,-107.69,75.5,162.62,0.01,0.02,0.01,0.05,0.04,0.15,0.39,0.69,0.26,0.56,-97.62,81.87,123.19,0.01,0.04,0.01,0.03,0.03,0.02,0.2,0.71,0.11,0.67,-148.06,1.75,4.94,0.1,0.02,0.02,0.1,0.04,0.01,-0.0,0.05,-0.96,0.28,-120.25,9.75,8.25,0.01,0.01,0.02,0.02,0.03,0.07,-0.04,0.1,-0.86,0.5
0.21,-107.69,75.5,162.69,0.02,0.04,0.03,0.16,0.13,0.02,0.39,0.69,0.26,0.56,-97.62,81.87,123.13,0.02,0.04,0.01,0.05,0.01,0.02,0.2,0.71,0.11,0.67,-148.06,1.75,4.94,0.03,0.03,0.02,0.12,0.04,0.03,-0.0,0.05,-0.96,0.28,-120.25,9.75,8.25,0.01,0.01,0.02,0.02,0.09,0.02,-0.04,0.1,-0.86,0.5
0.22,-107.75,75.56,162.81,0.04,0.07,0.03,0.25,0.26,0.12,0.39,0.69,0.26,0.56,-97.69,81.87,123.06,0.03,0.04,0.01,0.08,0.07,0.03,0.2,0.71,0.11,0.67,-148.06,1.75,4.94,0.01,0.03,0.11,0.08,0.02,0.06,-0.0,0.05,-0.96,0.28,-120.25,9.75,8.25,0.01,0.01,0.01,0.02,0.14,0.02,-0.04,0.1,-0.86,0.5
0.23,-107.87,75.69,162.94,0.05,0.12,0.04,0.11,0.18,0.46,0.39,0.68,0.26,0.56,-97.75,81.87,122.75,0.11,0.04,0.04,0.1,0.06,0.09,0.2,0.71,0.11,0.67,-148.19,1.75,5.0,0.01,0.05,0.07,0.09,0.04,0.1,-0.0,0.05,-0.96,0.27,-120.25,9.75,8.25,0.01,0.03,0.05,0.01,0.13,0.05,-0.04,0.1,-0.86,0.5
0.24,-108.12,75.81,163.12,0.22,0.03,0.06,0.92,0.09,0.74,0.39,0.68,0.26,0.56,-97.81,81.87,122.56,0.21,0.05,0.1,0.13,0.14,0.28,0.2,0.71,0.1,0.67,-148.13,1.81,5.0,0.02,0.08,0.02,0.18,0.23,0.05,-0.0,0.05,-0.96,0.27,-120.16,9.69,8.22,0.02,0.06,0.07,0.29,0.2,0.2,-0.04,0.1,-0.86,0.5
0.25,-108.56,75.75,163.81,0.38,0.41,0.07,0.52,0.33,1.12,0.39,0.68,0.26,0.56,-97.94,81.69,122.81,0.27,0.1,0.11,0.22,0.33,0.54,0.2,0.71,0.1,0.67,-148.19,1.75,4.94,0.06,0.08,0.03,0.16,0.13,0.06,-0.0,0.05,-0.96,0.27,-120.06,9.63,8.19,0.02,0.08,0.09,0.57,0.26,0.35,-0.04,0.1,-0.86,0.5
0.26,-109.19,75.31,165.06,0.4,0.49,0.08,0.2,0.15,1.56,0.39,0.69,0.27,0.55,-98.19,81.56,123.31,0.28,0.1,0.06,0.34,0.12,0.36,0.2,0.71,0.1,0.67,-148.19,1.81,5.0,0.02,0.01,0.02,0.02,0.01,0.15,-0.0,0.05,-0.96,0.27,-119.94,9.56,8.25,0.04,0.09,0.14,0.92,0.24,0.25,-0.04,0.1,-0.86,0.5
0.27,-109.63,74.75,166.12,0.08,0.45,0.02,0.36,0.05,1.53,0.39,0.69,0.27,0.55,-98.44,81.44,124.25,0.26,0.16,0.03,1.41,0.13,0.07,0.21,0.71,0.11,0.67,-148.25,1.81,4.94,0.07,0.08,0.13,0.1,0.04,0.03,-0.0,0.05,-0.96,0.27,-119.75,9.5,8.31,0.1,0.07,0.15,1.19,0.31,0.22,-0.04,0.1,-0.86,0.5
0.28,-109.56,74.25,166.66,0.1,0.48,0.04,0.86,0.26,1.46,0.4,0.69,0.27,0.54,-98.53,80.94,128.5,0.15,0.64,0.05,1.32,0.38,0.08,0.23,0.7,0.13,0.66,-148.31,1.81,4.87,0.05,0.04,0.03,0.12,0.04,0.07,-0.0,0.05,-0.96,0.27,-119.56,9.44,8.38,0.08,0.04,0.15,1.35,0.5,0.04,-0.03,0.1,-0.86,0.51
0.29,-109.5,73.75,167.19,0.11,0.52,0.06,1.36,0.47,1.4,0.4,0.69,0.27,0.54,-98.62,80.44,132.75,0.03,1.12,0.07,1.22,0.62,0.09,0.26,0.7,0.15,0.65,-148.25,1.81,4.81,0.11,0.05,0.12,0.01,0.03,0.02,-0.0,0.04,-0.96,0.27,-119.37,9.44,8.38,0.06,0.03,0.15,1.51,0.92,0.42,-0.03,0.1,-0.86,0.51
0.3,-109.31,73.12,167.81,0.14,0.75,0.07,1.38,0.46,0.98,0.41,0.69,0.27,0.53,-98.62,79.62,132.75,0.02,1.07,0.09,2.01,0.65,0.05,0.26,0.7,0.15,0.65,-148.38,1.81,4.81,0.01,0.1,0.07,0.06,0.07,0.04,-0.0,0.04,-0.96,0.27,-119.25,9.44,8.38,0.01,0.03,0.11,1.56,0.81,0.64,-0.03,0.1,-0.85,0.51
0.31,-109.12,72.22,168.53,0.17,0.88,0.07,1.44,0.36,0.96,0.42,0.69,0.27,0.52,-98.68,78.74,137.13,0.06,1.26,0.11,2.14,0.36,0.07,0.29,0.7,0.17,0.63,-148.25,1.81,4.81,0.11,0.05,0.04,0.12,0.1,0.05,-0.0,0.04,-0.96,0.27,-119.13,9.38,8.38,0.01,0.05,0.11,1.58,0.45,1.65,-0.03,0.1,-0.85,0.51
0.32,-108.94,71.31,169.25,0.2,1.01,0.07,1.49,0.25,0.93,0.43,0.69,0.28,0.52,-98.75,77.87,141.5,0.1,1.45,0.13,2.27,0.06,0.09,0.32,0.69,0.19,0.62,-148.31,1.81,4.75,0.07,0.05,0.11,0.15,0.17,0.03,-0.0,0.04,-0.96,0.27,-119.04,9.32,8.28,0.04,0.07,0.12,1.44,0.5,1.91,-0.03,0.1,-0.85,0.51
0.33,-108.63,70.19,169.81,0.21,1.06,0.06,1.86,0.3,0.87,0.43,0.69,0.28,0.51,-98.5,76.5,146.0,0.1,1.74,0.09,2.39,0.1,0.12,0.35,0.69,0.21,0.6,-148.25,1.81,4.81,0.01,0.03,0.18,0.1,0.02,0.01,-0.0,0.04,-0.96,0.27,-118.94,9.25,8.19,0.07,0.09,0.12,1.29,0.55,2.17,-0.03,0.1,-0.85,0.51
0.34,-108.19,68.87,170.44,0.17,1.22,0.08,2.08,0.15,0.69,0.44,0.69,0.27,0.5,-98.44,74.75,149.94,0.05,1.85,0.12,3.15,0.46,0.37,0.38,0.68,0.23,0.58,-148.31,1.87,4.81,0.02,0.02,0.04,0.07,0.05,0.01,-0.0,0.04,-0.96,0.27,-118.69,9.19,8.06,0.07,0.07,0.24,0.85,0.5,2.37,-0.03,0.1,-0.85,0.51
0.35,-107.94,67.44,171.13,0.12,1.52,0.11,2.36,0.2,0.72,0.45,0.7,0.27,0.49,-98.31,72.87,153.25,0.07,1.91,0.14,3.39,0.44,0.18,0.41,0.68,0.24,0.56,-148.31,1.87,4.75,0.05,0.05,0.04,0.1,0.02,0.04,-0.0,0.04,-0.96,0.27,-118.31,9.19,7.94,0.07,0.08,0.36,0.74,0.15,2.77,-0.03,0.1,-0.85,0.51
0.36,-107.69,65.75,171.94,0.11,1.61,0.14,1.85,0.24,0.12,0.46,0.7,0.27,0.47,-98.25,70.81,156.12,0.14,2.21,0.08,3.87,0.47,0.24,0.43,0.68,0.24,0.54,-148.31,1.94,4.75,0.02,0.05,0.06,0.05,0.09,0.01,-0.0,0.04,-0.96,0.27,-117.87,9.13,7.75,0.11,0.11,0.47,0.53,0.22,3.31,-0.03,0.1,-0.85,0.52
0.37,-107.63,63.87,172.81,0.01,1.71,0.17,1.74,0.31,0.22,0.47,0.7,0.27,0.46,-98.19,68.44,158.56,0.19,2.39,0.06,3.38,0.53,0.7,0.45,0.68,0.25,0.52,-148.25,1.94,4.81,0.03,0.05,0.07,0.09,0.1,0.01,-0.0,0.04,-0.96,0.27,-117.31,9.06,7.56,0.15,0.13,0.41,0.21,0.23,3.88,-0.03,0.1,-0.85,0.52
0.38,-107.94,61.94,173.72,0.14,1.77,0.16,1.58,0.37,0.53,0.48,0.71,0.26,0.44,-98.19,65.69,160.69,0.29,2.62,0.01,3.34,0.3,0.54,0.47,0.69,0.24,0.5,-148.25,1.87,4.81,0.02,0.05,0.03,0.06,0.06,0.01,-0.0,0.04,-0.96,0.27,-116.88,8.94,7.31,0.15,0.15,0.39,0.03,0.39,4.49,-0.03,0.09,-0.85,0.52
0.39,-108.25,60.0,174.62,0.26,1.83,0.15,1.42,0.43,0.84,0.49,0.71,0.26,0.43,-98.4,62.75,162.37,0.4,2.69,0.02,2.83,0.45,0.4,0.49,0.69,0.24,0.47,-148.19,1.94,4.87,0.01,0.05,0.1,0.11,0.12,0.02,-0.0,0.05,-0.96,0.27,-116.5,8.81,7.06,0.16,0.18,0.38,0.05,0.35,4.8,-0.03,0.09,-0.84,0.53
0.4,-108.69,58.06,175.5,0.15,1.73,0.2,0.95,0.49,0.86,0.49,0.72,0.25,0.41,-98.62,59.81,164.06,0.5,2.76,0.03,2.32,0.61,0.26,0.51,0.7,0.23,0.45,-148.13,2.0,4.87,0.1,0.08,0.1,0.04,0.08,0.02,-0.01,0.05,-0.96,0.27,-116.06,8.69,6.81,0.19,0.19,0.43,0.07,0.59,4.84,-0.03,0.09,-0.84,0.53
0.41,-109.1,56.03,176.12,0.26,1.86,0.19,0.62,0.36,0.83,0.5,0.73,0.25,0.4,-98.87,56.81,165.31,0.43,2.78,0.06,1.79,0.15,0.05,0.52,0.7,0.22,0.43,-148.06,1.94,4.94,0.02,0.06,0.12,0.08,0.08,0.06,-0.0,0.05,-0.96,0.28,-115.44,8.56,6.44,0.24,0.19,0.56,0.05,0.72,4.85,-0.03,0.09,-0.84,0.54
0.42,-109.5,54.0,176.75,0.36,2.0,0.18,0.29,0.23,0.8,0.5,0.73,0.24,0.39,-98.74,53.72,166.25,0.35,2.76,0.08,1.7,0.33,0.2,0.54,0.71,0.21,0.41,-148.0,2.0,4.94,0.12,0.01,0.08,0.06,0.04,0.04,-0.0,0.05,-0.96,0.28,-114.84,8.44,6.0,0.29,0.17,0.55,0.26,0.57,4.43,-0.03,0.08,-0.84,0.54
0.43,-110.12,51.88,177.5,0.17,1.83,0.25,0.86,0.48,0.9,0.51,0.74,0.23,0.37,-98.62,50.63,167.19,0.27,2.74,0.09,1.62,0.51,0.36,0.55,0.71,0.2,0.39,-148.0,2.06,4.81,0.02,0.05,0.01,0.07,0.06,0.05,-0.01,0.05,-0.96,0.28,-114.25,8.31,5.56,0.33,0.15,0.53,0.46,0.43,4.01,-0.03,0.08,-0.83,0.54
0.44,-109.63,50.06,177.62,0.45,1.57,0.21,1.37,0.81,1.16,0.51,0.75,0.23,0.36,-98.75,47.62,168.06,0.27,2.84,0.01,0.61,0.28,0.66,0.56,0.72,0.19,0.37,-148.0,2.0,4.81,0.03,0.07,0.06,0.07,0.03,0.09,-0.01,0.05,-0.96,0.28,-113.69,8.19,5.12,0.36,0.15,0.52,0.36,0.75,2.95,-0.04,0.08,-0.83,0.55
0.45,-108.31,48.19,177.25,0.42,1.75,0.01,0.3,0.58,0.73,0.53,0.75,0.22,0.34,-98.75,44.44,168.62,0.12,2.9,0.01,0.11,0.27,0.6,0.57,0.72,0.18,0.35,-148.06,2.0,4.75,0.1,0.02,0.12,0.09,0.13,0.07,-0.01,0.04,-0.96,0.28,-113.19,8.06,4.56,0.41,0.14,0.44,0.33,0.72,2.61,-0.04,0.07,-0.83,0.55
0.46,-107.81,46.31,177.12,0.02,1.65,0.02,0.33,0.06,0.85,0.53,0.75,0.21,0.33,-98.63,41.19,168.94,0.07,2.88,0.01,0.31,0.16,0.54,0.58,0.73,0.16,0.32,-148.06,2.06,4.75,0.04,0.01,0.01,0.06,0.13,0.05,-0.01,0.04,-0.96,0.28,-112.94,8.0,4.06,0.41,0.1,0.21,0.53,0.35,1.66,-0.04,0.07,-0.83,0.55
0.47,-107.81,44.56,177.31,0.09,1.54,0.08,1.72,0.47,1.85,0.54,0.75,0.21,0.32,-98.56,38.06,169.31,0.17,2.8,0.03,0.17,0.23,0.56,0.59,0.73,0.15,0.3,-148.06,2.12,4.75,0.06,0.07,0.02,0.08,0.13,0.03,-0.01,0.04,-0.96,0.28,-113.0,7.94,3.62,0.39,0.05,0.09,0.55,0.48,0.22,-0.04,0.06,-0.83,0.55
0.48,-107.63,42.69,177.38,0.16,1.74,0.06,1.84,0.29,1.74,0.54,0.76,0.2,0.31,-98.37,35.19,169.75,0.17,2.55,0.07,0.06,0.33,0.44,0.6,0.74,0.13,0.28,-148.0,2.12,4.69,0.01,0.05,0.03,0.03,0.08,0.01,-0.01,0.04,-0.96,0.28,-113.19,7.87,3.25,0.41,0.04,0.14,0.42,0.52,0.45,-0.04,0.06,-0.83,0.55
0.49,-107.63,40.78,177.22,0.14,1.63,0.1,1.06,0.23,1.84,0.55,0.76,0.19,0.29,-98.18,32.47,169.94,0.1,2.51,0.06,0.76,0.32,0.4,0.61,0.74,0.12,0.27,-148.13,2.06,4.62,0.11,0.06,0.12,0.07,0.06,0.02,-0.01,0.04,-0.96,0.27,-113.25,7.81,2.75,0.4,0.02,0.02,0.63,0.04,0.67,-0.04,0.06,-0.83,0.55
0.5,-107.63,38.88,177.06,0.11,1.52,0.15,0.28,0.17,1.93,0.55,0.77,0.18,0.28,-98.0,29.75,170.13,0.02,2.48,0.04,1.47,0.32,0.37,0.62,0.74,0.11,0.25,-148.0,2.06,4.62,0.08,0.07,0.08,0.1,0.09,0.02,-0.01,0.04,-0.96,0.28,-113.25,7.87,2.37,0.36,0.06,0.06,0.71,0.01,0.75,-0.05,0.05,-0.83,0.55
0.51,-107.69,38.13,177.0,0.02,1.26,0.04,1.8,0.29,1.25,0.55,0.77,0.17,0.28,-97.94,27.0,170.44,0.27,2.26,0.02,1.63,0.5,0.31,0.62,0.74,0.09,0.23,-148.0,2.12,4.69,0.07,0.12,0.11,0.04,0.08,0.02,-0.01,0.04,-0.96,0.28,-113.12,8.0,2.0,0.29,0.12,0.15,0.63,0.11,0.01,-0.05,0.05,-0.83,0.55
0.52,-107.72,36.06,177.28,0.02,1.43,0.06,1.76,0.18,0.8,0.55,0.77,0.16,0.26,-97.94,24.72,170.69,0.14,2.05,0.02,1.0,0.84,1.18,0.63,0.75,0.08,0.21,-147.87,2.12,4.75,0.01,0.05,0.09,0.05,0.08,0.02,-0.01,0.04,-0.96,0.28,-112.81,8.16,1.68,0.26,0.15,0.26,0.86,0.11,0.58,-0.05,0.05,-0.83,0.55
0.53,-107.75,34.0,177.56,0.02,1.6,0.07,1.73,0.06,0.34,0.56,0.78,0.16,0.25,-97.94,22.44,170.94,0.01,1.85,0.03,0.37,1.18,2.04,0.63,0.75,0.07,0.2,-147.87,2.19,4.81,0.13,0.04,0.04,0.11,0.03,0.05,-0.01,0.05,-0.96,0.28,-112.5,8.31,1.37,0.23,0.17,0.37,1.09,0.1,1.15,-0.05,0.05,-0.83,0.55
0.54,-108.13,33.13,177.56,0.14,1.41,0.14,2.69,0.09,0.16,0.56,0.78,0.15,0.24,-97.94,20.37,171.0,0.08,1.95,0.02,1.16,0.13,0.85,0.63,0.75,0.06,0.18,-147.81,2.19,4.87,0.03,0.06,0.02,0.09,0.02,0.03,-0.01,0.05,-0.96,0.28,-112.19,8.56,1.06,0.2,0.22,0.24,1.27,0.08,1.23,-0.06,0.05,-0.83,0.56
0.55,-108.31,31.62,177.69,0.2,1.14,0.01,2.47,0.23,1.07,0.56,0.78,0.14,0.23,-97.75,18.25,171.19,0.12,1.94,0.02,1.6,0.72,1.99,0.64,0.75,0.05,0.17,-147.87,2.12,4.87,0.04,0.11,0.03,0.05,0.02,0.01,-0.01,0.05,-0.96,0.28,-112.0,8.81,0.88,0.15,0.2,0.16,1.29,0.73,2.2,-0.06,0.05,-0.83,0.56
0.56,-108.31,30.44,177.87,0.09,0.96,0.03,0.94,0.22,0.97,0.56,0.78,0.14,0.22,-97.75,16.12,171.38,0.01,1.77,0.05,1.72,0.03,2.05,0.64,0.75,0.04,0.15,-147.81,2.12,4.87,0.07,0.06,0.03,0.09,0.05,0.08,-0.01,0.05,-0.96,0.28,-111.69,9.0,0.69,0.13,0.15,0.39,1.45,0.61,2.57,-0.06,0.05,-0.82,0.56
0.57,-108.81,29.31,177.75,0.05,1.21,0.15,1.41,0.42,0.86,0.56,0.79,0.13,0.22,-97.75,14.19,171.38,0.01,1.7,0.08,1.56,1.26,2.13,0.64,0.75,0.02,0.14,-147.75,2.06,4.81,0.13,0.08,0.03,0.15,0.12,0.07,-0.01,0.05,-0.96,0.28,-111.12,9.13,0.5,0.09,0.08,0.49,1.86,0.26,2.43,-0.06,0.05,-0.82,0.56
0.58,-108.94,28.0,177.62,0.07,1.11,0.1,2.89,0.98,1.32,0.56,0.79,0.12,0.21,-97.81,12.44,171.56,0.21,1.55,0.04,0.88,0.69,3.75,0.65,0.75,0.02,0.13,-147.75,2.0,4.94,0.05,0.04,0.15,0.12,0.02,0.06,-0.0,0.05,-0.96,0.28,-110.63,9.13,0.37,0.02,0.02,0.46,1.67,0.2,3.32,-0.06,0.05,-0.82,0.57
0.59,-109.09,26.84,177.5,0.16,0.96,0.14,2.56,0.83,1.05,0.56,0.8,0.12,0.2,-97.75,11.0,171.81,0.05,1.17,0.02,0.94,0.17,3.95,0.65,0.75,0.01,0.12,-147.81,2.06,4.94,0.19,0.05,0.11,0.05,0.03,0.09,-0.01,0.05,-0.96,0.28,-110.37,9.13,0.31,0.02,0.01,0.34,1.19,0.53,4.5,-0.06,0.05,-0.82,0.57
0.6,-109.25,25.69,177.38,0.26,0.8,0.18,2.22,0.68,0.78,0.56,0.8,0.11,0.19,-97.75,9.84,171.78,0.04,1.06,0.05,1.36,0.2,3.3,0.65,0.75,0.0,0.11,-147.94,2.12,5.06,0.08,0.04,0.13,0.11,0.02,0.01,-0.01,0.05,-0.96,0.28,-110.06,9.13,0.25,0.03,0.01,0.13,1.18,0.32,3.84,-0.06,0.05,-0.82,0.57
0.61,-109.38,24.87,177.0,0.25,0.69,0.16,2.18,0.62,1.11,0.56,0.8,0.1,0.19,-97.75,8.69,171.75,0.03,0.94,0.09,1.78,0.24,2.66,0.65,0.75,-0.0,0.1,-147.94,2.12,5.06,0.09,0.08,0.06,0.02,0.02,0.06,-0.01,0.05,-0.96,0.28,-109.94,9.13,0.25,0.08,0.03,0.22,1.37,0.41,4.25,-0.06,0.05,-0.82,0.57
0.62,-109.51,24.37,177.1,0.24,0.58,0.12,2.05,0.38,0.84,0.56,0.8,0.1,0.19,-97.87,7.81,171.94,0.13,0.67,0.06,1.41,0.09,3.12,0.65,0.75,-0.01,0.1,-147.94,2.25,5.12,0.05,0.03,0.06,0.02,0.11,0.09,-0.01,0.05,-0.96,0.28,-109.69,9.04,0.28,0.11,0.08,0.14,1.09,0.73,4.5,-0.06,0.05,-0.81,0.57
0.63,-109.63,23.87,177.19,0.22,0.47,0.07,1.92,0.14,0.58,0.56,0.8,0.1,0.18,-97.87,7.5,172.03,0.08,0.34,0.06,0.86,0.38,2.82,0.65,0.75,-0.01,0.09,-147.94,2.19,5.06,0.07,0.02,0.06,0.02,0.1,0.07,-0.01,0.05,-0.96,0.28,-109.44,8.94,0.31,0.13,0.13,0.05,0.81,1.05,4.76,-0.06,0.05,-0.81,0.58
0.64,-109.69,23.44,177.38,0.13,0.2,0.01,1.99,0.46,1.02,0.56,0.8,0.1,0.18,-97.87,7.19,172.13,0.03,0.01,0.05,0.32,0.67,2.51,0.65,0.75,-0.01,0.09,-147.81,2.12,5.12,0.11,0.01,0.14,0.11,0.01,0.04,-0.01,0.05,-0.96,0.28,-109.81,8.81,0.62,0.27,0.12,0.5,0.35,0.16,4.14,-0.06,0.05,-0.82,0.57
0.65,-109.69,23.25,177.19,0.16,0.09,0.07,1.74,0.82,1.75,0.56,0.8,0.1,0.18,-97.81,7.19,172.13,0.03,0.04,0.04,0.61,0.66,2.55,0.65,0.75,-0.01,0.09,-147.87,2.19,5.06,0.08,0.06,0.07,0.07,0.06,0.01,-0.01,0.05,-0.96,0.28,-110.56,8.72,1.21,0.38,0.06,0.54,0.22,0.42,3.78,-0.06,0.05,-0.82,0.57
0.66,-109.75,23.19,177.0,0.06,0.02,0.12,1.06,0.08,1.15,0.56,0.8,0.09,0.18,-97.81,7.19,172.19,0.02,0.07,0.06,1.32,0.03,1.41,0.65,0.75,-0.01,0.09,-147.87,2.12,5.06,0.02,0.06,0.02,0.13,0.08,0.01,-0.01,0.05,-0.96,0.28,-111.31,8.63,1.81,0.48,0.01,0.59,0.09,0.68,3.42,-0.05,0.06,-0.82,0.56
0.67,-110.19,23.38,177.0,0.07,0.21,0.05,1.05,0.4,0.99,0.56,0.81,0.09,0.18,-97.94,7.31,172.19,0.04,0.16,0.09,1.15,0.24,1.74,0.65,0.75,-0.01,0.09,-148.0,2.19,5.06,0.01,0.09,0.08,0.05,0.1,0.04,-0.01,0.05,-0.96,0.28,-111.5,8.69,2.37,0.34,0.15,0.03,1.03,1.05,3.85,-0.05,0.06,-0.82,0.56
0.68,-110.19,23.62,177.12,0.13,0.1,0.04,1.83,0.09,1.11,0.56,0.81,0.1,0.18,-98.06,7.62,172.37,0.19,0.31,0.12,0.21,0.44,3.55,0.65,0.75,-0.01,0.09,-148.06,2.25,5.0,0.01,0.13,0.06,0.03,0.11,0.05,-0.01,0.05,-0.96,0.28,-111.37,8.94,2.69,0.25,0.23,0.22,1.18,2.5,4.14,-0.05,0.06,-0.82,0.56
0.69,-110.5,23.75,177.25,0.07,0.06,0.04,1.75,0.72,1.88,0.55,0.81,0.1,0.18,-98.19,8.06,172.56,0.22,0.45,0.08,0.07,0.67,2.65,0.65,0.76,-0.0,0.1,-148.06,2.19,5.0,0.13,0.01,0.06,0.05,0.02,0.04,-0.01,0.05,-0.96,0.28,-111.25,9.19,2.94,0.24,0.23,0.02,0.45,2.03,4.14,-0.05,0.07,-0.82,0.56
0.7,-110.53,24.0,177.16,0.1,0.2,0.04,1.88,0.44,1.22,0.55,0.81,0.1,0.18,-98.25,8.62,172.69,0.16,0.48,0.05,0.68,0.42,2.25,0.65,0.76,0.0,0.1,-148.06,2.19,5.0,0.11,0.04,0.06,0.06,0.1,0.02,-0.01,0.05,-0.96,0.28,-112.19,9.38,3.62,0.6,0.18,1.7,0.88,0.82,3.64,-0.05,0.07,-0.83,0.56
0.71,-110.57,24.25,177.06,0.12,0.33,0.05,2.02,0.16,0.56,0.55,0.81,0.1,0.19,-98.31,9.19,172.81,0.11,0.51,0.02,1.28,0.16,1.85,0.65,0.76,0.01,0.1,-148.0,2.25,4.94,0.04,0.07,0.02,0.08,0.14,0.05,-0.01,0.05,-0.96,0.28,-114.0,9.5,4.62,0.61,0.25,1.69,1.87,1.92,4.36,-0.05,0.08,-0.83,0.55
0.72,-111.0,24.75,176.94,0.1,0.46,0.06,2.07,0.51,0.61,0.55,0.81,0.1,0.19,-98.31,9.81,172.94,0.16,0.6,0.02,1.61,0.39,2.51,0.65,0.76,0.01,0.1,-148.06,2.25,4.94,0.08,0.02,0.07,0.14,0.15,0.04,-0.01,0.05,-0.96,0.28,-115.12,9.81,5.37,0.44,0.42,0.75,2.3,0.03,5.71,-0.05,0.09,-0.84,0.54
0.73,-111.22,25.4,176.88,0.1,0.57,0.04,2.11,0.6,0.78,0.55,0.81,0.1,0.2,-98.44,10.72,173.03,0.08,0.86,0.02,1.28,0.61,2.35,0.64,0.76,0.02,0.11,-148.0,2.25,4.87,0.13,0.03,0.03,0.71,0.12,0.41,-0.01,0.05,-0.96,0.28,-115.66,10.62,6.03,0.52,0.68,0.84,1.83,0.68,4.96,-0.05,0.09,-0.84,0.53
0.74,-111.44,26.06,176.81,0.09,0.69,0.02,2.15,0.69,0.96,0.54,0.81,0.1,0.2,-98.56,11.63,173.13,0.01,1.11,0.01,0.95,0.83,2.19,0.64,0.76,0.02,0.12,-147.94,2.25,4.87,0.09,0.07,0.04,0.66,0.22,0.34,-0.01,0.05,-0.96,0.28,-116.19,11.44,6.69,0.59,0.94,0.94,1.36,1.32,4.22,-0.05,0.1,-0.84,0.53
0.75,-111.5,26.87,176.94,0.25,0.85,0.05,2.19,0.41,0.23,0.54,0.81,0.11,0.21,-98.5,12.94,173.13,0.05,1.16,0.04,0.95,0.2,1.78,0.64,0.76,0.03,0.12,-148.06,2.12,4.81,0.08,0.15,0.26,0.75,0.64,0.22,-0.01,0.05,-0.96,0.28,-117.44,12.37,7.69,0.7,0.98,1.08,1.56,1.21,4.06,-0.06,0.11,-0.84,0.52
0.76,-111.63,27.81,177.06,0.12,0.91,0.07,1.75,0.06,0.44,0.54,0.81,0.11,0.21,-98.44,14.25,173.06,0.07,1.17,0.06,1.14,0.29,2.43,0.64,0.75,0.04,0.13,-148.06,2.12,4.69,0.13,0.1,0.11,0.78,1.26,0.12,-0.01,0.04,-0.96,0.28,-118.06,13.25,8.63,0.63,0.9,0.37,1.71,0.73,4.35,-0.06,0.12,-0.84,0.52
0.77,-112.19,28.94,176.81,0.23,1.1,0.13,1.84,0.05,0.8,0.53,0.81,0.12,0.22,-98.37,15.56,173.0,0.08,1.21,0.06,0.99,0.08,2.13,0.64,0.75,0.04,0.14,-147.94,2.19,4.5,0.08,0.08,0.11,0.86,1.53,0.15,-0.01,0.04,-0.96,0.28,-118.19,14.25,9.31,0.58,0.96,0.11,0.77,0.44,3.74,-0.06,0.13,-0.84,0.52
0.78,-112.25,30.12,176.5,0.06,1.13,0.08,1.92,0.01,0.03,0.53,0.81,0.12,0.23,-98.31,17.0,172.87,0.1,1.37,0.04,0.84,0.22,1.13,0.64,0.75,0.05,0.15,-147.81,2.31,4.37,0.13,0.11,0.1,1.13,1.69,0.17,-0.01,0.04,-0.96,0.28,-118.69,15.25,10.13,0.55,0.95,0.56,0.39,0.4,3.59,-0.07,0.14,-0.84,0.51
0.79,-112.75,31.5,176.5,0.1,1.3,0.06,1.57,0.08,0.6,0.53,0.81,0.13,0.24,-98.31,18.62,172.81,0.06,1.56,0.03,1.06,0.13,1.07,0.64,0.75,0.06,0.16,-147.62,2.44,4.25,0.12,0.11,0.1,1.25,1.65,0.82,-0.01,0.04,-0.96,0.28,-119.5,16.12,11.0,0.59,0.89,0.52,1.54,1.13,3.5,-0.07,0.15,-0.84,0.51
0.8,-112.81,33.12,176.28,0.15,1.37,0.04,1.61,0.11,0.45,0.52,0.8,0.13,0.25,-98.37,20.44,172.69,0.08,1.62,0.01,1.24,0.1,1.63,0.63,0.75,0.07,0.18,-147.34,2.5,4.1,0.16,0.07,0.26,1.29,1.41,1.45,-0.01,0.04,-0.96,0.28,-119.56,17.12,11.75,0.57,0.98,0.11,1.65,0.59,3.33,-0.08,0.16,-0.84,0.51
0.81,-112.88,34.75,176.06,0.2,1.44,0.02,1.65,0.14,0.3,0.52,0.8,0.14,0.27,-98.4,22.38,172.47,0.13,1.75,0.02,0.88,0.4,1.38,0.63,0.75,0.08,0.19,-147.06,2.56,3.94,0.2,0.03,0.43,1.33,1.17,2.08,-0.01,0.04,-0.96,0.28,-119.44,18.25,12.31,0.5,1.03,0.07,1.38,0.59,3.43,-0.08,0.17,-0.84,0.51
0.82,-113.25,36.38,175.81,0.12,1.5,0.01,1.71,0.15,0.08,0.51,0.8,0.14,0.28,-98.44,24.31,172.25,0.18,1.88,0.03,0.52,0.71,1.12,0.63,0.75,0.09,0.2,-146.56,2.69,3.75,0.32,0.09,0.44,1.25,1.12,2.18,-0.01,0.04,-0.96,0.29,-119.56,19.44,13.06,0.57,1.14,0.14,0.95,0.67,2.83,-0.09,0.18,-0.84,0.51
0.83,-113.37,38.28,175.56,0.16,1.75,0.03,1.58,0.18,0.58,0.51,0.8,0.15,0.29,-98.56,26.5,171.94,0.25,1.95,0.03,0.36,0.6,0.48,0.62,0.75,0.1,0.22,-146.06,2.75,3.44,0.29,0.18,0.5,1.06,1.25,2.41,-0.01,0.04,-0.96,0.29,-119.78,20.82,14.0,0.68,1.26,0.18,0.91,1.11,2.7,-0.1,0.19,-0.83,0.51
0.84,-113.5,40.19,175.31,0.2,2.0,0.05,1.45,0.21,1.09,0.5,0.79,0.16,0.31,-98.56,28.62,171.5,0.34,1.94,0.05,0.7,0.08,0.1,0.62,0.74,0.11,0.23,-145.5,3.0,3.19,0.2,0.22,0.49,1.01,1.4,2.89,-0.02,0.03,-0.95,0.3,-120.0,22.19,14.94,0.8,1.39,0.23,0.87,1.55,2.56,-0.1,0.21,-0.83,0.51
0.85,-113.5,42.44,174.94,0.26,2.02,0.03,0.89,0.19,1.15,0.5,0.79,0.16,0.32,-98.56,30.81,171.0,0.34,1.97,0.04,0.67,0.16,0.42,0.61,0.74,0.12,0.25,-144.75,3.19,3.0,0.24,0.11,0.68,1.0,1.29,3.13,-0.02,0.03,-0.95,0.3,-120.31,23.75,16.25,0.94,1.56,0.23,0.91,1.62,2.1,-0.11,0.22,-0.83,0.51
0.86,-113.5,44.63,174.44,0.26,2.02,0.07,1.2,0.02,1.03,0.49,0.78,0.17,0.34,-98.5,33.06,170.62,0.27,2.12,0.02,0.96,0.25,0.08,0.61,0.74,0.13,0.27,-143.87,3.37,2.56,0.44,0.22,0.72,0.94,0.47,4.06,-0.02,0.03,-0.95,0.31,-120.18,25.68,17.62,1.02,1.74,0.24,0.88,1.0,1.65,-0.12,0.24,-0.82,0.51
0.87,-113.5,46.88,173.94,0.11,2.08,0.05,1.42,0.32,1.43,0.48,0.78,0.18,0.36,-98.56,35.56,170.25,0.2,2.28,0.03,0.89,0.23,0.59,0.6,0.74,0.14,0.28,-143.0,3.44,2.19,0.4,0.08,0.74,0.94,0.46,4.41,-0.02,0.03,-0.95,0.32,-120.06,27.62,19.0,1.11,1.92,0.25,0.84,0.38,1.2,-0.12,0.26,-0.81,0.51
0.88,-113.81,49.19,173.56,0.06,2.19,0.03,1.04,0.33,1.23,0.48,0.77,0.18,0.38,-98.63,38.19,169.81,0.21,2.4,0.08,0.49,0.23,0.24,0.59,0.73,0.15,0.3,-142.25,3.62,1.75,0.48,0.22,0.76,0.73,0.54,4.67,-0.02,0.02,-0.95,0.32,-120.06,29.69,20.75,1.23,2.02,0.12,1.0,0.57,1.08,-0.13,0.28,-0.8,0.51
0.89,-114.25,51.63,173.19,0.06,2.23,0.02,1.06,0.26,1.28,0.47,0.77,0.19,0.39,-98.69,39.5,169.5,0.24,2.45,0.11,0.32,0.12,0.11,0.59,0.73,0.15,0.31,-141.44,3.75,1.44,0.43,0.09,0.83,0.47,0.54,4.9,-0.03,0.02,-0.94,0.33,-120.5,31.75,22.94,1.32,2.19,0.36,0.91,1.82,0.73,-0.14,0.3,-0.79,0.51
0.9,-114.69,54.13,172.75,0.04,2.36,0.04,0.23,0.15,2.01,0.46,0.76,0.2,0.41,-98.88,42.25,168.94,0.21,2.54,0.15,0.58,0.02,0.12,0.58,0.73,0.16,0.33,-140.4,3.84,1.16,0.35,0.15,0.89,0.33,0.38,4.78,-0.03,0.02,-0.94,0.34,-120.62,32.88,24.06,1.34,2.29,0.01,0.58,1.18,0.01,-0.14,0.31,-0.79,0.52
0.91,-115.16,56.72,172.31,0.07,2.32,0.04,0.18,0.21,1.61,0.44,0.76,0.2,0.43,-97.44,45.16,168.13,0.31,2.69,0.08,0.58,0.02,0.28,0.58,0.72,0.18,0.35,-139.37,3.94,0.88,0.27,0.21,0.95,0.19,0.21,4.67,-0.03,0.02,-0.94,0.35,-120.62,35.19,26.25,1.29,2.32,0.03,0.34,0.59,0.65,-0.15,0.33,-0.77,0.52
0.92,-115.63,59.31,171.87,0.1,2.28,0.05,0.13,0.27,1.21,0.43,0.75,0.21,0.45,-96.0,48.06,167.31,0.41,2.84,0.01,0.58,0.03,0.43,0.57,0.7,0.2,0.37,-138.5,3.94,0.69,0.12,0.03,0.8,0.03,0.25,3.48,-0.03,0.02,-0.93,0.35,-120.75,37.44,28.62,1.36,2.44,0.24,0.04,1.02,0.6,-0.15,0.36,-0.76,0.52
0.93,-115.5,61.63,170.94,0.27,2.03,0.13,0.08,0.36,1.42,0.42,0.75,0.22,0.47,-95.88,51.25,166.44,0.46,2.99,0.13,0.87,0.18,0.06,0.56,0.7,0.21,0.39,-138.0,3.9,0.66,0.1,0.04,0.57,0.29,0.43,2.9,-0.03,0.02,-0.93,0.36,-121.06,39.69,31.44,1.42,2.49,0.11,0.88,0.44,0.63,-0.16,0.38,-0.74,0.53
0.94,-115.25,63.82,169.56,0.28,1.94,0.07,1.27,0.32,1.53,0.41,0.74,0.22,0.49,-95.82,54.53,165.37,0.43,2.96,0.11,1.53,0.18,0.43,0.55,0.69,0.22,0.41,-137.5,3.87,0.62,0.08,0.06,0.34,0.54,0.61,2.32,-0.03,0.02,-0.93,0.36,-121.22,41.88,34.44,1.49,2.45,0.06,0.71,0.34,0.66,-0.16,0.41,-0.73,0.53
0.95,-115.0,66.0,168.19,0.28,1.85,0.01,2.46,0.29,1.64,0.4,0.73,0.22,0.5,-95.75,57.81,164.31,0.39,2.92,0.08,2.19,0.18,0.8,0.53,0.69,0.23,0.44,-137.12,3.69,0.75,0.07,0.16,0.19,0.56,0.54,1.92,-0.03,0.02,-0.93,0.37,-121.37,44.06,37.44,1.56,2.4,0.01,0.54,0.24,0.7,-0.16,0.43,-0.71,0.53
0.96,-114.75,67.87,166.88,0.32,1.68,0.02,1.17,0.02,1.19,0.39,0.73,0.22,0.52,-95.69,61.0,162.94,0.55,2.96,0.11,3.14,0.3,0.25,0.52,0.68,0.24,0.46,-136.88,3.5,0.88,0.04,0.2,0.13,0.76,0.24,0.24,-0.03,0.02,-0.93,0.37,-121.37,46.19,40.94,1.57,2.52,0.05,0.21,0.22,0.92,-0.16,0.46,-0.68,0.54
0.97,-114.5,69.44,165.62,0.26,1.39,0.03,0.88,0.04,0.09,0.38,0.72,0.22,0.53,-95.37,64.31,161.12,0.67,2.95,0.12,3.32,0.57,0.63,0.5,0.68,0.25,0.48,-136.69,3.25,1.0,0.06,0.26,0.43,0.88,0.05,0.56,-0.02,0.02,-0.93,0.37,-121.69,48.31,44.94,1.65,2.72,0.08,1.52,0.22,0.26,-0.16,0.49,-0.66,0.55
0.98,-114.25,70.94,164.13,0.25,1.42,0.04,1.94,0.06,0.28,0.37,0.72,0.22,0.54,-94.94,67.44,158.88,0.57,2.69,0.09,3.22,0.77,0.86,0.48,0.67,0.26,0.51,-136.12,2.94,1.0,0.02,0.28,0.59,0.76,0.84,1.17,-0.02,0.02,-0.93,0.37,-121.81,50.19,49.63,1.89,2.6,0.11,1.19,0.19,0.02,-0.15,0.52,-0.63,0.56
0.99,-114.06,72.44,162.37,0.24,1.39,0.04,2.1,0.2,0.25,0.36,0.72,0.21,0.56,-94.63,70.19,156.25,0.56,2.44,0.1,3.62,0.57,0.48,0.46,0.67,0.26,0.53,-135.31,2.69,1.06,0.06,0.19,0.8,0.62,0.85,0.5,-0.02,0.02,-0.92,0.38,-121.75,51.94,54.56,1.97,2.61,0.05,1.01,0.52,0.56,-0.14,0.55,-0.6,0.56
1.0,-113.81,73.75,160.37,0.27,1.2,0.06,1.32,0.39,0.03,0.34,0.72,0.21,0.57,-94.37,72.75,153.31,0.55,2.39,0.13,3.18,0.32,0.62,0.43,0.67,0.26,0.55,-134.44,2.44,1.25,0.14,0.21,0.84,0.89,0.43,0.08,-0.02,0.02,-0.92,0.39,-121.19,53.81,54.56,2.09,2.72,0.3,1.16,1.76,0.4,-0.15,0.55,-0.59,0.57
1.01,-113.5,74.81,158.37,0.24,1.06,0.07,1.31,0.34,0.26,0.33,0.72,0.2,0.58,-94.19,75.19,149.75,0.47,2.26,0.13,2.81,0.4,0.57,0.4,0.67,0.25,0.57,-133.54,2.09,1.47,0.18,0.24,0.83,1.12,0.75,0.51,-0.01,0.02,-0.92,0.39,-120.62,55.56,60.5,2.06,2.8,0.33,1.12,1.93,0.35,-0.13,0.59,-0.55,0.58
1.02,-113.1,75.78,156.06,0.38,0.95,0.07,1.39,0.29,0.45,0.32,0.71,0.19,0.59,-93.94,77.12,144.87,0.48,2.04,0.12,2.3,0.24,0.43,0.37,0.67,0.23,0.6,-132.63,1.75,1.69,0.22,0.28,0.82,1.34,1.06,0.94,-0.01,0.02,-0.92,0.4,-120.0,57.06,66.87,2.04,2.79,0.41,1.52,1.52,0.06,-0.1,0.62,-0.5,0.59
1.03,-112.69,76.75,153.75,0.51,0.84,0.07,1.47,0.23,0.64,0.31,0.71,0.19,0.6,-93.69,79.06,140.0,0.5,1.81,0.1,1.79,0.09,0.29,0.34,0.68,0.22,0.62,-131.81,1.44,1.87,0.18,0.35,0.79,1.35,0.77,1.7,-0.0,0.02,-0.91,0.41,-119.25,58.25,73.68,2.06,2.76,0.38,0.66,0.43,0.37,-0.07,0.65,-0.46,0.61
1.04,-112.0,77.5,151.12,0.58,0.74,0.06,0.8,0.13,0.01,0.29,0.71,0.18,0.61,-93.44,80.62,140.0,0.51,1.65,0.12,1.05,0.01,1.02,0.33,0.67,0.23,0.62,-131.25,1.06,2.06,0.2,0.25,0.5,1.4,0.39,2.42,-0.0,0.02,-0.91,0.41,-118.53,58.84,81.09,2.06,2.78,0.48,1.12,0.27,0.22,-0.03,0.68,-0.41,0.61
1.05,-111.38,78.0,149.0,0.48,0.5,0.06,0.43,0.44,0.17,0.28,0.71,0.17,0.62,-93.19,81.94,132.37,0.47,1.45,0.12,0.77,0.12,0.94,0.28,0.68,0.19,0.65,-130.69,0.81,2.37,0.25,0.32,0.46,1.27,0.35,2.3,0.0,0.02,-0.91,0.42,-117.81,59.44,88.5,2.07,2.79,0.58,1.59,0.11,0.07,0.01,0.7,-0.35,0.62
1.06,-111.13,78.37,148.0,0.19,0.28,0.06,0.54,0.64,0.04,0.28,0.71,0.17,0.62,-92.94,82.88,123.38,0.38,1.34,0.09,0.55,0.77,0.18,0.23,0.69,0.14,0.67,-130.06,0.56,2.62,0.24,0.22,0.58,1.37,0.38,2.61,0.01,0.02,-0.91,0.42,-116.62,59.69,96.0,2.08,2.68,0.59,1.59,0.38,0.36,0.06,0.72,-0.3,0.62
1.07,-110.94,78.56,148.0,0.02,0.08,0.08,0.41,1.27,0.02,0.28,0.71,0.17,0.62,-92.81,83.62,123.38,0.31,1.34,0.06,0.68,0.81,0.48,0.22,0.69,0.15,0.67,-129.5,0.37,2.75,0.21,0.13,0.54,1.82,0.29,3.7,0.01,0.02,-0.9,0.43,-114.87,59.38,105.06,1.98,2.6,0.65,1.34,0.22,0.22,0.12,0.74,-0.23,0.62
1.08,-111.06,78.62,148.25,0.02,0.1,0.07,1.04,1.07,0.26,0.28,0.71,0.17,0.62,-92.75,84.0,123.44,0.14,1.04,0.07,0.14,0.76,1.3,0.22,0.69,0.15,0.67,-128.94,0.19,3.0,0.18,0.13,0.36,1.74,0.61,3.82,0.01,0.02,-0.9,0.43,-113.12,59.06,114.12,1.89,2.53,0.71,1.08,0.06,0.08,0.18,0.76,-0.17,0.61
1.09,-111.0,78.56,148.81,0.08,0.11,0.05,1.27,1.0,0.34,0.28,0.71,0.17,0.62,-92.81,84.19,123.63,0.1,0.95,0.09,0.22,0.86,0.56,0.22,0.69,0.15,0.67,-128.69,0.25,3.37,0.29,0.07,0.2,1.26,1.25,3.77,0.01,0.03,-0.9,0.43,-112.37,58.13,120.43,1.82,2.4,0.52,1.29,0.77,0.08,0.22,0.76,-0.13,0.59
1.1,-111.19,78.31,149.94,0.15,0.36,0.03,0.7,0.37,0.17,0.29,0.71,0.18,0.62,-93.0,84.19,123.76,0.09,0.91,0.13,1.1,0.22,0.21,0.22,0.69,0.15,0.67,-128.56,0.19,3.69,0.22,0.09,0.02,1.19,1.46,4.54,0.01,0.03,-0.9,0.43,-111.12,56.94,125.87,1.59,2.2,0.46,1.64,0.04,0.57,0.26,0.77,-0.09,0.58
1.11,-111.31,77.87,151.56,0.09,0.52,0.04,0.64,0.11,0.19,0.3,0.71,0.19,0.61,-93.06,84.13,123.82,0.1,0.75,0.09,1.46,0.15,0.25,0.22,0.69,0.15,0.67,-128.75,0.16,3.88,0.22,0.09,0.32,1.11,1.63,4.42,0.01,0.03,-0.9,0.43,-110.44,55.75,130.44,1.49,1.96,0.39,1.67,0.12,0.29,0.3,0.77,-0.06,0.56
1.12,-111.0,77.34,152.75,0.2,0.54,0.04,0.74,0.84,0.45,0.31,0.71,0.19,0.6,-93.03,84.06,123.98,0.16,0.5,0.12,1.67,0.39,0.64,0.22,0.69,0.15,0.67,-128.94,0.13,4.06,0.23,0.09,0.61,1.03,1.8,4.3,0.01,0.03,-0.9,0.43,-108.94,54.75,134.62,1.23,1.73,0.78,2.05,1.03,0.15,0.33,0.77,-0.03,0.54
1.13,-110.69,76.81,153.94,0.3,0.55,0.03,0.83,1.58,0.71,0.32,0.71,0.2,0.6,-93.0,84.0,124.13,0.21,0.24,0.15,1.88,0.63,1.04,0.22,0.69,0.15,0.67,-129.75,0.06,4.31,0.27,0.09,0.82,0.94,0.99,3.84,0.02,0.03,-0.9,0.42,-107.5,53.94,138.18,1.0,1.46,0.7,2.52,0.43,1.2,0.36,0.77,-0.01,0.53
1.14,-109.94,76.31,154.75,0.48,0.51,0.07,0.39,1.78,0.24,0.33,0.71,0.21,0.59,-92.94,84.06,124.32,0.22,0.01,0.14,1.1,0.66,1.06,0.23,0.69,0.16,0.67,-130.19,0.06,4.5,0.01,0.04,0.37,0.53,0.2,3.31,0.02,0.04,-0.91,0.42,-107.63,53.5,139.62,1.16,1.26,0.39,2.35,0.2,1.36,0.37,0.77,0.0,0.52
1.15,-109.28,75.84,155.47,0.4,0.5,0.06,1.02,0.91,0.67,0.34,0.7,0.21,0.59,-92.9,84.22,124.44,0.13,0.06,0.1,0.95,0.64,0.98,0.23,0.69,0.16,0.67,-130.56,0.06,4.56,0.09,0.14,0.3,0.34,0.19,3.21,0.02,0.04,-0.91,0.42,-106.19,52.62,142.4,0.92,1.25,0.45,2.96,0.9,1.38,0.4,0.76,0.02,0.51
1.16,-108.63,75.37,156.19,0.31,0.48,0.04,1.65,0.04,1.1,0.35,0.7,0.22,0.58,-92.87,84.37,124.57,0.04,0.11,0.06,0.8,0.62,0.89,0.23,0.69,0.16,0.67,-130.69,0.19,4.69,0.16,0.06,0.28,0.16,0.52,3.74,0.02,0.04,-0.91,0.42,-104.75,51.75,145.18,0.69,1.23,0.51,3.57,1.61,1.39,0.42,0.76,0.04,0.49
1.17,-108.32,74.87,156.81,0.22,0.43,0.03,1.31,0.39,1.52,0.36,0.7,0.22,0.58,-93.0,84.44,124.63,0.11,0.09,0.04,0.47,0.57,0.01,0.22,0.69,0.16,0.67,-131.25,0.19,4.87,0.15,0.17,0.49,0.05,1.88,4.27,0.02,0.04,-0.91,0.41,-104.69,50.81,147.25,0.59,1.01,0.26,3.44,0.83,1.33,0.43,0.76,0.05,0.48
1.18,-108.13,74.5,156.94,0.14,0.31,0.14,0.46,0.28,1.02,0.36,0.7,0.22,0.57,-93.12,84.37,124.63,0.1,0.12,0.01,0.31,0.04,0.73,0.22,0.69,0.16,0.67,-132.31,0.13,5.0,0.02,0.39,1.21,0.04,2.61,4.26,0.02,0.04,-0.91,0.4,-104.06,49.94,148.68,0.46,0.85,0.28,3.53,0.57,2.14,0.45,0.76,0.06,0.47
1.19,-107.88,74.19,156.81,0.05,0.25,0.12,0.07,0.04,0.87,0.36,0.7,0.22,0.57,-93.31,84.37,124.63,0.17,0.1,0.04,0.05,0.07,0.35,0.22,0.69,0.16,0.67,-133.69,0.31,5.06,0.18,0.19,1.41,1.01,0.36,3.14,0.01,0.04,-0.92,0.39,-103.31,49.31,150.06,0.39,0.79,0.51,3.46,1.0,1.67,0.46,0.76,0.07,0.46
1.2,-107.63,73.81,156.81,0.1,0.31,0.09,0.4,0.53,0.9,0.37,0.7,0.22,0.57,-93.62,84.37,124.69,0.21,0.09,0.06,0.65,0.15,0.58,0.22,0.69,0.16,0.67,-135.06,0.5,5.12,0.11,0.3,1.03,0.7,1.36,4.15,0.01,0.04,-0.92,0.38,-102.5,48.87,151.5,0.32,0.62,0.38,3.38,0.7,0.1,0.47,0.75,0.08,0.45
1.21,-107.32,73.5,156.94,0.11,0.3,0.04,0.28,0.67,1.05,0.37,0.7,0.22,0.57,-93.81,84.37,124.76,0.23,0.01,0.06,0.79,0.39,1.03,0.22,0.69,0.16,0.67,-136.0,0.69,5.03,0.11,0.34,1.04,0.61,0.96,4.39,0.01,0.04,-0.93,0.37,-101.94,48.38,152.5,0.3,0.58,0.26,3.23,0.28,0.55,0.48,0.75,0.08,0.45
1.22,-107.19,73.19,157.19,0.01,0.28,0.04,0.23,0.51,1.39,0.37,0.7,0.22,0.56,-94.06,84.5,124.76,0.24,0.27,0.02,0.82,0.83,1.46,0.22,0.69,0.15,0.67,-136.94,0.88,4.94,0.11,0.39,1.06,0.52,0.56,4.64,0.01,0.04,-0.93,0.37,-101.56,47.94,153.19,0.19,0.42,0.13,2.97,0.44,1.17,0.49,0.75,0.09,0.44
1.23,-107.32,72.94,157.47,0.17,0.3,0.07,0.25,0.34,1.56,0.37,0.7,0.22,0.56,-94.22,84.62,124.72,0.18,0.23,0.02,0.45,0.76,0.83,0.22,0.69,0.15,0.67,-138.12,1.19,4.81,0.14,0.38,1.04,0.69,0.05,4.3,0.01,0.04,-0.93,0.36,-101.31,47.56,153.68,0.18,0.26,0.07,2.84,0.6,1.42,0.49,0.75,0.09,0.44
1.24,-107.44,72.69,157.75,0.33,0.32,0.1,0.27,0.18,1.73,0.38,0.7,0.22,0.56,-94.37,84.75,124.69,0.11,0.19,0.01,0.08,0.68,0.2,0.22,0.69,0.15,0.67,-139.06,1.5,4.87,0.07,0.38,0.85,0.05,0.84,3.89,0.0,0.04,-0.94,0.35,-101.06,47.47,154.06,0.18,0.14,0.22,2.58,0.6,1.08,0.5,0.75,0.09,0.43
1.25,-107.75,72.31,158.25,0.4,0.28,0.1,0.36,0.37,1.97,0.38,0.71,0.22,0.56,-94.5,84.75,124.69,0.11,0.02,0.01,0.44,0.56,0.63,0.21,0.69,0.15,0.67,-139.88,1.75,4.87,0.1,0.37,0.57,0.02,0.52,3.73,0.0,0.05,-0.94,0.34,-100.81,47.38,154.43,0.18,0.01,0.37,2.31,0.61,0.73,0.5,0.74,0.09,0.43
1.26,-108.25,72.0,158.75,0.39,0.24,0.09,0.04,0.5,1.71,0.38,0.71,0.22,0.56,-94.63,84.75,124.69,0.12,0.01,0.03,0.86,0.52,0.51,0.21,0.69,0.15,0.67,-140.5,2.06,4.69,0.23,0.35,0.65,0.04,0.16,3.71,-0.0,0.04,-0.94,0.34,-100.81,47.56,154.68,0.29,0.05,0.46,2.41,0.52,0.04,0.5,0.74,0.1,0.43
1.27,-108.63,71.75,159.12,0.3,0.21,0.07,0.19,0.72,1.31,0.38,0.71,0.22,0.55,-94.87,84.87,124.76,0.2,0.21,0.03,0.35,0.37,1.24,0.21,0.69,0.15,0.67,-141.06,2.37,4.5,0.27,0.39,0.23,0.39,0.06,3.34,-0.01,0.04,-0.94,0.33,-101.18,47.88,154.59,0.34,0.12,0.36,2.4,0.38,0.28,0.5,0.75,0.1,0.43
1.28,-109.0,71.5,159.56,0.36,0.23,0.03,0.45,1.02,1.26,0.38,0.71,0.22,0.55,-95.06,85.0,124.82,0.16,0.18,0.04,0.28,0.36,0.46,0.21,0.69,0.15,0.67,-141.37,2.75,4.25,0.17,0.3,0.35,0.37,0.77,3.25,-0.01,0.04,-0.94,0.33,-101.56,48.19,154.5,0.38,0.18,0.25,2.38,0.25,0.52,0.49,0.75,0.1,0.44
1.29,-109.5,71.25,160.19,0.39,0.21,0.02,0.34,0.71,1.67,0.38,0.71,0.22,0.55,-95.31,85.06,124.82,0.19,0.13,0.04,0.32,0.48,1.24,0.21,0.69,0.15,0.67,-141.62,3.06,4.19,0.09,0.41,0.26,0.42,0.42,3.15,-0.01,0.04,-0.94,0.33,-101.94,48.5,154.31,0.38,0.22,0.28,2.48,0.65,0.18,0.49,0.75,0.09,0.44
1.3,-109.94,71.06,160.69,0.35,0.16,0.03,0.04,0.14,1.83,0.38,0.71,0.22,0.55,-95.5,85.12,124.82,0.15,0.22,0.03,0.44,0.53,1.91,0.21,0.69,0.15,0.67,-142.09,3.56,4.22,0.06,0.46,0.46,0.42,0.73,2.64,-0.02,0.04,-0.94,0.33,-102.25,48.87,154.19,0.39,0.3,0.36,1.88,0.8,0.01,0.49,0.75,0.09,0.44
1.31,-110.5,70.94,161.12,0.41,0.09,0.01,0.11,0.08,2.13,0.38,0.71,0.22,0.55,-95.62,85.31,124.88,0.09,0.3,0.07,0.12,0.43,1.6,0.21,0.69,0.15,0.67,-142.56,4.06,4.25,0.02,0.52,0.66,0.43,1.03,2.12,-0.02,0.05,-0.95,0.32,-102.56,49.31,154.0,0.45,0.29,0.35,1.52,0.16,0.28,0.48,0.75,0.09,0.45
1.32,-111.13,70.81,161.75,0.46,0.1,0.02,0.14,0.1,3.02,0.38,0.72,0.22,0.54,-95.88,85.44,125.01,0.14,0.19,0.11,0.33,0.42,1.96,0.2,0.69,0.15,0.67,-143.25,4.56,4.37,0.04,0.52,0.68,0.74,1.0,1.72,-0.03,0.05,-0.95,0.32,-103.12,49.75,153.81,0.64,0.22,0.51,1.57,0.32,0.1,0.47,0.75,0.09,0.45
1.33,-111.97,70.72,162.53,0.5,0.11,0.02,0.55,0.56,2.6,0.38,0.72,0.22,0.54,-96.06,85.56,125.1,0.15,0.18,0.12,0.21,0.54,1.66,0.2,0.69,0.15,0.67,-143.94,5.22,4.72,0.2,0.6,0.66,0.66,0.56,1.34,-0.03,0.05,-0.95,0.31,-103.81,50.19,153.62,0.54,0.28,0.46,1.43,0.6,0.08,0.47,0.75,0.09,0.45
1.34,-112.81,70.62,163.31,0.55,0.12,0.01,0.96,1.02,2.17,0.38,0.72,0.22,0.54,-96.25,85.69,125.19,0.16,0.17,0.12,0.09,0.66,1.36,0.2,0.69,0.15,0.67,-144.62,5.87,5.06,0.35,0.68,0.63,0.59,0.13,0.96,-0.04,0.06,-0.95,0.31,-104.19,50.69,153.5,0.51,0.32,0.49,1.49,0.46,0.05,0.46,0.75,0.09,0.46
1.35,-113.69,70.5,164.06,0.62,0.12,0.01,1.74,1.42,0.83,0.38,0.72,0.22,0.54,-96.62,85.87,125.32,0.37,0.14,0.03,0.81,0.4,1.42,0.2,0.69,0.15,0.68,-145.19,6.62,5.62,0.5,0.73,0.44,0.58,0.06,0.37,-0.04,0.06,-0.95,0.3,-104.75,51.34,153.25,0.67,0.4,0.55,1.23,0.46,0.08,0.46,0.76,0.09,0.46
1.36,-114.34,70.25,164.25,0.56,0.22,0.18,0.9,0.88,0.89,0.37,0.72,0.21,0.54,-96.94,85.81,125.22,0.38,0.12,0.08,1.02,0.32,0.94,0.2,0.69,0.15,0.68,-145.69,7.31,6.37,0.63,0.81,0.49,0.76,0.17,0.23,-0.04,0.07,-0.95,0.3,-105.31,52.0,153.0,0.83,0.47,0.61,0.97,0.47,0.11,0.45,0.76,0.09,0.47
1.37,-115.0,70.0,164.44,0.5,0.33,0.35,0.07,0.33,0.95,0.37,0.73,0.21,0.54,-97.25,85.75,125.13,0.38,0.11,0.12,1.23,0.24,0.46,0.19,0.7,0.15,0.68,-146.31,8.25,7.31,0.69,1.0,0.54,0.53,0.09,0.13,-0.05,0.08,-0.95,0.29,-106.19,52.75,152.56,0.93,0.52,0.65,1.1,0.49,0.31,0.44,0.76,0.09,0.47
1.38,-115.25,69.31,164.25,0.59,0.6,0.3,0.02,1.54,0.29,0.37,0.73,0.21,0.54,-97.56,85.62,125.0,0.38,0.01,0.07,0.67,0.37,0.35,0.19,0.7,0.14,0.68,-146.94,9.31,8.56,1.08,1.02,0.48,0.42,0.65,0.03,-0.06,0.09,-0.95,0.29,-106.81,53.63,152.31,0.83,0.5,0.74,0.5,0.81,0.42,0.43,0.76,0.09,0.48
1.39,-115.88,68.62,164.69,0.64,0.56,0.21,0.2,1.63,0.09,0.37,0.73,0.2,0.53,-97.87,85.56,124.94,0.33,0.03,0.03,1.12,0.44,0.35,0.19,0.7,0.14,0.68,-147.75,10.44,10.06,1.28,1.06,0.75,0.44,1.11,0.14,-0.06,0.11,-0.95,0.28,-108.19,54.44,152.12,0.75,0.53,0.66,0.27,0.57,0.83,0.42,0.76,0.09,0.49
1.4,-116.88,68.19,165.56,0.73,0.23,0.07,0.32,0.35,0.45,0.37,0.74,0.2,0.53,-98.19,85.56,124.94,0.37,0.32,0.04,0.12,0.93,0.49,0.19,0.7,0.14,0.68,-148.38,11.5,11.63,1.32,1.11,0.6,0.81,0.57,0.66,-0.07,0.12,-0.95,0.28,-108.81,55.25,151.87,0.89,0.54,0.66,0.88,0.6,0.67,0.41,0.76,0.09,0.49
1.41,-117.94,67.94,166.31,0.64,0.12,0.02,0.62,0.65,0.51,0.37,0.74,0.2,0.53,-98.69,85.56,125.0,0.36,0.35,0.08,0.14,0.65,1.14,0.19,0.7,0.14,0.68,-149.25,12.66,13.54,1.45,1.25,0.71,0.54,0.6,0.77,-0.07,0.14,-0.95,0.27,-109.75,56.0,151.37,0.96,0.48,0.53,1.24,0.79,0.83,0.4,0.77,0.08,0.5
1.42,-118.75,67.81,167.06,0.59,0.13,0.01,1.2,0.9,0.36,0.37,0.74,0.2,0.52,-99.12,85.62,125.19,0.29,0.29,0.16,0.49,0.04,0.53,0.18,0.7,0.13,0.68,-150.12,13.81,15.44,1.58,1.4,0.82,0.26,0.63,0.88,-0.08,0.16,-0.95,0.27,-111.5,56.69,150.68,0.91,0.49,0.46,0.98,0.41,1.14,0.38,0.77,0.07,0.51
1.43,-119.75,67.69,167.87,0.59,0.12,0.1,0.66,0.15,0.28,0.36,0.74,0.2,0.52,-99.5,85.62,125.32,0.22,0.35,0.09,0.88,0.36,0.95,0.18,0.7,0.13,0.68,-150.81,15.0,17.75,1.76,1.33,0.7,0.84,0.69,1.82,-0.09,0.18,-0.94,0.27,-112.12,57.44,150.31,0.79,0.44,0.58,2.44,0.4,2.41,0.37,0.77,0.07,0.51
1.44,-120.82,67.56,168.94,0.57,0.15,0.15,0.15,0.47,0.08,0.36,0.75,0.2,0.52,-99.72,85.44,125.35,0.22,0.41,0.06,0.5,0.19,0.7,0.18,0.7,0.13,0.68,-151.28,16.16,20.16,1.88,1.3,0.56,0.81,0.77,1.69,-0.09,0.2,-0.94,0.27,-113.19,57.94,150.31,0.56,0.15,0.53,4.7,1.19,3.09,0.36,0.77,0.07,0.51
1.45,-122.0,67.37,170.12,0.45,0.23,0.22,0.22,0.42,0.1,0.36,0.75,0.21,0.52,-99.94,85.25,125.38,0.21,0.47,0.02,0.13,0.02,0.45,0.18,0.7,0.13,0.68,-151.75,17.31,22.56,2.01,1.26,0.42,0.78,0.86,1.56,-0.1,0.22,-0.93,0.27,-113.06,57.54,151.03,0.4,0.29,0.34,2.78,1.28,1.76,0.37,0.77,0.07,0.51
1.46,-122.82,67.06,171.28,0.34,0.28,0.26,0.45,0.26,0.22,0.36,0.75,0.21,0.51,-100.12,85.0,125.44,0.09,0.38,0.08,0.17,0.18,1.42,0.18,0.7,0.13,0.68,-152.12,18.56,25.12,2.04,1.43,0.3,0.26,1.46,1.83,-0.1,0.25,-0.93,0.27,-112.94,57.13,151.75,0.25,0.43,0.15,0.86,1.38,0.42,0.37,0.77,0.08,0.5
1.47,-123.63,66.75,172.44,0.22,0.32,0.3,0.68,0.1,0.34,0.36,0.75,0.21,0.51,-100.37,84.88,125.76,0.06,0.31,0.14,0.19,0.49,1.14,0.18,0.7,0.13,0.68,-152.5,19.81,27.81,2.15,1.52,0.35,0.21,1.46,2.53,-0.11,0.27,-0.92,0.27,-113.5,57.0,151.87,0.2,0.13,0.48,0.06,0.4,1.32,0.37,0.78,0.08,0.5
1.48,-124.07,66.5,173.38,0.02,0.26,0.29,0.75,0.17,0.08,0.36,0.75,0.21,0.51,-100.62,84.75,126.07,0.03,0.24,0.2,0.21,0.8,0.85,0.19,0.7,0.13,0.68,-152.87,21.12,30.62,2.12,1.47,0.28,0.4,0.99,2.84,-0.11,0.29,-0.91,0.27,-113.84,57.44,152.65,0.43,0.18,0.57,0.78,1.16,1.33,0.37,0.78,0.08,0.5
1.49,-124.19,66.31,174.06,0.11,0.19,0.29,0.64,0.34,0.25,0.37,0.75,0.22,0.5,-100.75,84.75,126.13,0.01,0.11,0.16,0.04,0.01,1.87,0.18,0.7,0.13,0.68,-152.94,21.75,32.0,2.22,1.59,0.36,0.47,0.92,2.73,-0.11,0.31,-0.91,0.27,-114.19,57.88,153.43,0.65,0.24,0.67,1.5,1.93,1.34,0.37,0.78,0.09,0.5
1.5,-124.19,66.19,174.56,0.2,0.09,0.27,0.22,0.71,0.4,0.37,0.75,0.22,0.5,-100.87,84.75,126.32,0.03,0.17,0.11,0.19,0.36,0.33,0.19,0.7,0.13,0.68,-153.38,23.0,35.0,2.33,1.77,0.25,0.04,0.31,2.21,-0.12,0.33,-0.9,0.27,-113.56,59.19,155.37,0.46,0.3,1.07,2.6,1.8,2.58,0.38,0.77,0.11,0.51
1.51,-124.25,66.19,175.12,0.14,0.05,0.28,0.44,0.66,0.35,0.37,0.75,0.22,0.5,-101.19,84.62,126.44,0.11,0.26,0.07,0.02,0.4,0.79,0.18,0.7,0.12,0.68,-153.56,24.44,38.13,2.3,1.78,0.25,0.12,0.17,2.35,-0.12,0.36,-0.88,0.28,-113.94,59.69,156.5,0.56,0.26,0.99,0.48,3.53,0.26,0.38,0.77,0.12,0.5
1.52,-124.31,66.12,175.62,0.15,0.09,0.25,0.27,0.6,0.31,0.37,0.75,0.23,0.5,-101.38,84.37,126.5,0.1,0.32,0.06,0.03,0.12,0.88,0.19,0.7,0.12,0.68,-153.81,25.84,41.38,2.34,1.74,0.2,0.06,0.18,1.68,-0.13,0.38,-0.87,0.28,-113.94,60.0,156.93,0.33,0.21,0.22,0.18,0.61,0.64,0.38,0.77,0.12,0.51
1.53,-124.44,66.0,176.12,0.03,0.1,0.22,0.27,0.63,0.12,0.37,0.75,0.23,0.49,-101.5,84.13,126.57,0.09,0.27,0.07,0.49,0.22,1.15,0.19,0.7,0.12,0.67,-154.06,27.25,44.63,2.38,1.7,0.15,0.01,0.2,1.01,-0.13,0.41,-0.86,0.29,-115.19,60.12,156.12,0.29,0.17,0.15,0.26,0.96,1.36,0.37,0.77,0.11,0.51
1.54,-124.75,65.94,176.75,0.08,0.11,0.22,0.34,0.71,0.11,0.38,0.75,0.23,0.49,-101.69,84.06,126.69,0.01,0.1,0.13,0.65,0.25,1.8,0.19,0.7,0.12,0.67,-154.44,28.44,48.0,2.28,1.77,0.14,0.11,0.5,0.83,-0.13,0.43,-0.84,0.29,-115.69,60.31,156.0,0.46,0.1,0.3,0.18,0.99,0.86,0.36,0.77,0.11,0.51
1.55,-125.25,65.81,177.5,0.17,0.12,0.22,0.12,0.54,0.27,0.38,0.75,0.23,0.49,-101.81,84.0,126.82,0.05,0.1,0.18,0.59,0.35,0.13,0.19,0.7,0.12,0.67,-154.19,29.75,51.32,2.3,1.72,0.21,0.23,0.52,0.59,-0.13,0.46,-0.82,0.3,-115.94,60.69,156.31,0.48,0.19,0.54,0.41,1.24,1.05,0.36,0.77,0.11,0.51
1.56,-125.56,65.75,177.87,0.19,0.04,0.21,0.12,0.33,0.64,0.38,0.75,0.23,0.49,-101.87,84.0,127.0,0.1,0.13,0.15,0.38,0.3,1.9,0.19,0.7,0.12,0.67,-153.94,31.06,54.63,2.31,1.67,0.28,0.34,0.53,0.35,-0.13,0.48,-0.81,0.31,-116.62,61.0,156.87,0.52,0.02,0.71,1.26,1.5,2.76,0.36,0.77,0.11,0.51
1.57,-126.07,65.75,178.56,0.07,0.01,0.16,0.2,0.4,0.39,0.37,0.75,0.24,0.49,-102.0,83.94,127.13,0.15,0.02,0.11,0.27,0.33,0.68,0.19,0.7,0.12,0.67,-153.87,32.31,57.94,2.3,1.63,0.22,0.25,0.71,0.49,-0.13,0.51,-0.79,0.32,-116.62,61.25,157.31,0.24,0.15,0.31,0.05,0.19,1.63,0.36,0.77,0.12,0.51
1.58,-126.31,65.75,179.0,0.01,0.01,0.13,0.36,0.25,0.23,0.38,0.75,0.24,0.49,-101.94,84.0,127.25,0.1,0.02,0.1,0.13,0.18,0.49,0.19,0.7,0.12,0.67,-153.5,33.44,61.31,2.33,1.55,0.42,0.16,1.12,0.05,-0.13,0.53,-0.77,0.33,-117.13,61.44,157.37,0.15,0.13,0.29,0.98,1.54,1.55,0.35,0.77,0.12,0.52
1.59,-126.5,65.75,179.31,0.14,0.01,0.08,0.22,0.46,0.07,0.38,0.75,0.24,0.49,-101.81,84.06,127.32,0.04,0.04,0.09,0.12,0.72,0.97,0.19,0.7,0.12,0.67,-153.38,34.63,64.75,2.17,1.66,0.37,0.18,0.47,0.24,-0.13,0.56,-0.75,0.34,-117.13,61.69,157.87,0.29,0.1,0.42,1.88,1.02,0.99,0.36,0.77,0.12,0.52
1.6,-126.94,65.75,179.69,0.2,0.02,0.05,0.37,0.46,0.2,0.37,0.75,0.24,0.49,-101.87,84.25,127.44,0.07,0.15,0.14,0.04,0.95,0.91,0.19,0.7,0.12,0.67,-152.69,36.0,68.25,2.2,1.54,0.58,0.14,0.55,0.42,-0.12,0.58,-0.72,0.35,-117.25,62.0,157.93,0.23,0.29,0.18,1.76,0.46,0.85,0.35,0.77,0.12,0.52
1.61,-127.38,65.75,179.87,0.19,0.07,0.08,0.4,0.24,0.34,0.37,0.75,0.24,0.49,-102.06,84.44,127.63,0.09,0.18,0.15,0.12,0.5,1.04,0.19,0.7,0.13,0.67,-152.0,37.13,71.75,2.17,1.61,0.41,0.42,0.12,0.03,-0.12,0.6,-0.7,0.37,-117.5,62.44,157.93,0.19,0.36,0.27,1.05,0.27,1.0,0.35,0.77,0.12,0.52
1.62,-127.75,65.87,179.5,0.12,0.09,0.09,0.09,0.09,0.04,0.37,0.75,0.24,0.49,-102.12,84.69,127.76,0.12,0.11,0.12,0.04,0.26,0.84,0.19,0.7,0.13,0.67,-151.38,38.32,75.12,1.98,1.38,0.67,1.26,0.36,0.11,-0.11,0.62,-0.68,0.38,-117.19,62.94,158.62,0.2,0.27,0.56,1.16,1.07,1.34,0.35,0.77,0.13,0.52
1.63,-127.88,65.94,179.31,0.08,0.09,0.06,0.17,0.19,0.12,0.37,0.76,0.23,0.49,-102.12,84.81,127.88,0.13,0.13,0.12,0.18,0.03,0.31,0.19,0.7,0.13,0.68,-150.75,39.5,78.5,1.8,1.14,0.93,2.1,0.61,0.19,-0.1,0.64,-0.65,0.39,-117.25,63.38,159.44,0.15,0.23,0.46,1.08,1.21,1.51,0.36,0.76,0.14,0.52
1.64,-127.88,66.06,179.19,0.05,0.05,0.02,0.08,0.21,0.21,0.36,0.75,0.23,0.49,-102.12,85.06,128.0,0.09,0.2,0.11,0.4,0.19,1.31,0.19,0.7,0.13,0.68,-149.87,40.69,81.37,1.67,1.18,0.89,2.79,0.25,0.07,-0.1,0.66,-0.63,0.4,-116.88,63.69,159.81,0.06,0.27,0.19,0.88,1.62,2.24,0.36,0.76,0.15,0.52
1.65,-128.0,66.12,179.12,0.01,0.06,0.01,0.1,0.46,0.4,0.36,0.76,0.23,0.49,-102.12,85.38,128.07,0.09,0.29,0.07,0.3,0.21,0.1,0.18,0.7,0.13,0.68,-148.66,41.94,84.4,1.56,1.23,0.86,2.7,0.98,0.5,-0.09,0.68,-0.6,0.42,-116.62,63.94,159.68,0.21,0.22,0.2,0.54,1.87,2.28,0.36,0.76,0.15,0.52
1.66,-128.0,66.19,179.19,0.03,0.09,0.02,0.32,0.47,0.21,0.36,0.75,0.23,0.49,-102.0,85.69,128.13,0.1,0.28,0.03,0.42,0.12,0.04,0.18,0.7,0.14,0.68,-147.44,43.19,87.44,1.44,1.27,0.84,2.62,1.7,0.93,-0.08,0.69,-0.57,0.43,-117.06,63.94,159.06,0.22,0.09,0.41,1.36,1.98,2.56,0.35,0.76,0.14,0.52
1.67,-128.13,66.31,179.12,0.08,0.14,0.01,0.45,0.37,0.22,0.36,0.75,0.23,0.49,-101.94,85.81,128.13,0.1,0.03,0.02,0.31,1.09,0.08,0.18,0.7,0.14,0.68,-146.94,44.0,90.44,1.26,1.28,0.56,2.47,1.89,0.58,-0.07,0.71,-0.55,0.44,-117.13,63.69,158.18,0.37,0.12,0.67,1.8,2.12,3.53,0.35,0.76,0.13,0.53
1.68,-128.44,66.5,178.94,0.13,0.14,0.02,0.19,0.04,0.26,0.36,0.76,0.23,0.5,-101.87,85.87,128.13,0.19,0.12,0.02,0.4,1.47,0.26,0.18,0.7,0.14,0.68,-146.37,44.56,93.25,1.14,1.05,0.32,2.12,1.05,0.76,-0.05,0.72,-0.53,0.45,-117.62,63.0,156.93,0.75,0.39,1.17,2.9,1.32,3.45,0.34,0.77,0.12,0.53
1.69,-128.63,66.56,178.81,0.04,0.01,0.04,0.42,0.13,0.27,0.36,0.76,0.23,0.5,-102.06,86.06,128.07,0.28,0.21,0.05,0.41,0.78,0.95,0.18,0.7,0.14,0.68,-146.44,44.88,95.62,1.07,1.02,0.36,1.8,0.03,1.19,-0.05,0.73,-0.51,0.45,-117.31,62.19,155.81,1.05,0.32,1.15,3.21,0.57,2.42,0.34,0.77,0.11,0.52
1.7,-128.69,66.56,178.69,0.04,0.01,0.05,0.25,0.39,0.3,0.36,0.76,0.23,0.5,-101.94,86.19,128.0,0.23,0.13,0.07,0.2,0.51,1.8,0.18,0.7,0.14,0.68,-146.06,45.06,97.75,1.06,0.77,0.53,1.47,0.6,1.57,-0.04,0.74,-0.5,0.45,-116.37,61.56,155.62,1.14,0.38,0.72,3.76,0.88,3.73,0.35,0.77,0.11,0.52
1.71,-128.56,66.62,178.75,0.14,0.08,0.03,0.18,0.02,0.12,0.36,0.76,0.23,0.5,-101.38,86.31,127.94,0.45,0.14,0.04,0.21,0.46,1.22,0.18,0.7,0.14,0.68,-145.31,45.5,99.94,0.97,0.93,0.47,1.26,0.63,1.5,-0.03,0.75,-0.48,0.46,-115.81,61.19,155.93,1.27,0.7,0.44,4.46,1.46,5.54,0.36,0.77,0.11,0.52
1.72,-128.31,66.69,178.81,0.14,0.13,0.01,0.45,0.07,0.04,0.36,0.75,0.23,0.5,-101.12,86.5,127.82,0.05,0.24,0.1,0.28,1.86,1.16,0.18,0.7,0.14,0.68,-144.44,46.13,101.87,0.99,0.47,0.85,1.14,0.47,0.92,-0.02,0.76,-0.46,0.47,-114.12,60.19,157.06,1.53,0.93,0.4,4.74,0.73,5.0,0.38,0.77,0.12,0.51
1.73,-128.0,66.87,179.12,0.18,0.15,0.05,0.46,0.49,0.13,0.36,0.75,0.24,0.5,-101.25,86.63,127.63,0.38,0.21,0.18,0.6,1.21,1.1,0.18,0.7,0.14,0.68,-143.38,46.94,104.03,0.88,0.56,0.96,1.51,0.24,0.74,-0.01,0.76,-0.44,0.48,-111.88,59.13,158.69,1.66,0.89,0.33,4.36,0.77,4.73,0.4,0.76,0.14,0.49
1.74,-127.5,67.0,179.63,0.3,0.13,0.13,0.25,0.8,0.19,0.37,0.75,0.24,0.5,-101.31,86.69,127.57,0.2,0.29,0.16,0.92,0.31,2.18,0.18,0.7,0.14,0.68,-142.31,47.75,106.19,0.78,0.66,1.07,1.88,0.01,0.55,0.01,0.77,-0.42,0.48,-109.5,58.13,160.25,1.84,0.65,0.53,3.56,0.33,4.43,0.43,0.75,0.15,0.48
1.75,-127.07,67.19,179.63,0.27,0.18,0.14,0.89,0.93,0.69,0.37,0.75,0.24,0.5,-101.31,86.87,127.38,0.01,0.41,0.22,1.47,0.7,0.26,0.18,0.7,0.14,0.68,-141.06,48.38,108.37,0.79,0.82,0.79,1.92,0.53,0.51,0.02,0.78,-0.39,0.49,-106.63,57.38,161.69,1.74,0.3,0.21,3.8,0.77,3.55,0.46,0.74,0.17,0.46
1.76,-126.63,67.5,179.0,0.09,0.28,0.2,1.74,0.88,0.28,0.37,0.75,0.24,0.5,-101.06,87.0,127.13,0.01,0.37,0.27,1.62,0.73,0.17,0.18,0.7,0.14,0.68,-140.19,48.75,110.5,0.77,0.78,0.61,1.54,0.73,0.25,0.03,0.78,-0.37,0.5,-103.81,57.19,163.5,1.62,0.11,0.05,3.44,0.37,3.71,0.48,0.73,0.19,0.45
1.77,-126.47,67.81,178.34,0.12,0.27,0.24,1.32,0.46,0.5,0.37,0.74,0.24,0.5,-100.81,86.81,126.76,0.15,0.13,0.35,0.59,0.36,0.71,0.18,0.7,0.14,0.68,-139.06,49.06,114.25,0.57,0.81,0.21,1.49,0.34,0.94,0.06,0.79,-0.34,0.5,-100.46,57.28,165.9,1.46,0.09,0.32,3.1,0.4,3.64,0.51,0.71,0.22,0.43
1.78,-126.31,68.12,177.69,0.15,0.26,0.28,0.9,0.05,0.71,0.36,0.74,0.24,0.51,-100.56,86.37,126.25,0.19,0.09,0.45,0.19,0.42,0.94,0.18,0.7,0.14,0.68,-139.25,49.06,115.94,0.52,0.72,0.43,1.7,0.15,0.89,0.06,0.8,-0.33,0.5,-97.12,57.38,168.31,1.31,0.07,0.59,2.77,0.43,3.57,0.54,0.69,0.25,0.42
1.79,-126.07,68.5,176.81,0.02,0.39,0.33,1.75,0.6,0.06,0.36,0.74,0.23,0.51,-100.06,85.87,125.75,0.09,0.17,0.41,0.39,0.47,1.31,0.18,0.7,0.13,0.68,-138.62,49.31,117.44,0.5,0.51,0.61,1.35,0.4,0.34,0.07,0.8,-0.32,0.5,-94.69,57.81,170.25,1.22,0.47,0.22,3.02,0.58,2.34,0.56,0.67,0.27,0.4
1.8,-125.25,69.0,175.31,0.3,0.49,0.43,0.94,0.78,0.16,0.36,0.74,0.23,0.52,-99.38,85.5,125.38,0.25,0.14,0.34,0.33,0.49,0.76,0.18,0.7,0.13,0.68,-137.94,49.63,118.81,0.33,0.48,0.51,0.55,0.69,0.11,0.08,0.81,-0.3,0.5,-93.12,58.63,170.37,0.98,0.88,0.76,2.63,0.09,2.33,0.57,0.66,0.28,0.4
1.81,-123.88,69.56,173.06,0.64,0.57,0.53,0.71,0.16,0.14,0.36,0.74,0.22,0.53,-98.69,85.0,125.0,0.3,0.44,0.31,0.25,0.94,0.76,0.19,0.7,0.13,0.68,-137.78,49.76,120.25,0.36,0.55,0.52,0.72,0.88,0.16,0.09,0.81,-0.29,0.5,-92.94,59.75,168.87,0.88,1.21,1.41,2.48,0.59,1.67,0.56,0.66,0.28,0.42
1.82,-122.0,70.06,170.31,0.89,0.51,0.51,0.25,0.1,0.38,0.35,0.74,0.22,0.53,-98.0,84.44,124.76,0.34,0.48,0.21,0.17,0.26,0.43,0.2,0.7,0.13,0.67,-137.62,49.88,121.69,0.38,0.62,0.53,0.89,1.06,0.22,0.09,0.81,-0.28,0.5,-92.56,61.37,166.69,0.88,1.77,1.42,2.57,0.35,0.5,0.55,0.66,0.28,0.44
1.83,-120.44,70.44,168.25,0.64,0.35,0.27,0.86,0.35,0.77,0.35,0.73,0.21,0.54,-97.5,84.0,124.57,0.23,0.49,0.17,0.55,0.71,0.27,0.2,0.7,0.13,0.67,-137.62,50.12,123.06,0.27,0.47,0.64,0.59,1.5,0.13,0.1,0.82,-0.27,0.5,-92.94,63.38,163.37,0.48,2.24,1.61,2.47,0.27,0.64,0.52,0.66,0.27,0.46
1.84,-119.82,70.69,167.25,0.24,0.26,0.13,2.04,0.13,0.31,0.35,0.73,0.21,0.54,-96.87,83.44,124.25,0.22,0.58,0.24,1.61,1.56,1.24,0.2,0.7,0.13,0.67,-136.81,50.69,124.5,0.28,0.47,0.84,0.9,0.1,0.47,0.11,0.82,-0.25,0.51,-93.75,65.69,158.75,0.25,2.59,1.49,2.14,0.95,1.48,0.49,0.67,0.25,0.49
1.85,-119.31,70.87,166.37,0.2,0.23,0.16,2.25,0.88,0.71,0.35,0.73,0.21,0.55,-96.5,83.06,124.25,0.45,0.45,0.27,2.03,0.79,0.09,0.21,0.7,0.13,0.67,-136.19,51.0,125.81,0.1,0.45,0.6,0.1,0.87,0.46,0.12,0.82,-0.24,0.51,-94.44,68.25,158.75,0.04,2.97,1.24,1.57,0.58,0.85,0.48,0.67,0.26,0.51
1.86,-118.82,71.19,165.44,0.27,0.28,0.13,0.13,1.26,0.86,0.35,0.73,0.21,0.55,-95.62,82.62,125.0,0.49,0.23,0.08,0.66,1.53,0.11,0.22,0.7,0.14,0.67,-136.31,51.31,126.75,0.05,0.36,0.64,0.42,0.42,0.89,0.12,0.82,-0.23,0.51,-95.87,70.94,150.06,0.59,3.49,1.54,1.72,0.64,0.47,0.42,0.68,0.22,0.56
