0.01,-111.49,78.22,177.62,-0.01,0.32,0.28,0.99,0.27,2.02,-98.62,85.12,175.57,0.08,0.17,-0.01,0.14,0.02,0.29,-151.47,2.57,3.82,0.13,0.13,0.08,-0.05,0.14,0.36,-118.98,8.47,7.01,0.12,0.08,0.1,0.18,0.11,0.23
0.02,-111.72,77.81,177.42,0.18,0.46,-0.01,0.81,0.07,1.16,-98.55,85.16,175.64,0.02,0.07,0.06,-0.05,0.14,0.28,-151.46,2.56,3.7,0.29,0.18,0.06,-0.06,-0.17,-0.02,-119.0,8.49,6.94,-0.04,0.32,0.26,-0.07,-0.06,0.21
0.03,-112.14,77.17,176.92,0.37,0.66,0.07,1.58,0.57,2.14,-98.7,85.15,175.42,0.16,0.06,-0.01,-0.07,0.16,0.05,-151.66,2.68,3.79,0.17,-0.09,0.07,-0.07,0.13,0.23,-119.04,8.48,6.98,0.11,-0.05,0.08,-0.05,-0.02,0.1
0.04,-112.47,76.69,176.89,0.23,0.83,-0.08,1.63,0.63,1.93,-98.49,85.34,175.5,-0.21,0.08,0.05,-0.04,-0.01,0.06,-151.73,2.78,3.67,0.05,0.17,0.01,0.02,0.08,0.16,-119.22,8.49,7.07,-0.03,-0.08,-0.05,-0.02,0.05,0.27
0.05,-112.77,75.4,177.13,0.11,1.16,-0.04,2.67,0.44,1.63,-98.51,85.12,175.48,-0.12,0.15,0.16,0.03,-0.02,0.03,-151.77,2.79,3.63,0.01,-0.01,0.04,0.11,0.12,-0.03,-119.12,8.28,6.95,0.12,-0.03,-0.18,-0.19,0.19,0.22
0.06,-112.85,73.96,177.07,0.04,1.32,0.05,3.56,0.44,0.94,-98.42,84.88,175.61,0.14,0.04,0.04,0.06,-0.09,-0.05,-151.73,2.77,3.75,-0.22,-0.03,0.13,0.16,0.18,0.44,-119.4,8.49,6.94,-0.02,0.03,0.08,-0.15,0.27,0.07
0.07,-112.72,73.41,177.02,0.06,1.41,-0.12,3.94,0.1,0.21,-98.52,84.92,175.5,0.09,0.02,0.04,0.12,0.0,0.26,-151.7,2.71,3.73,0.19,0.03,0.12,0.45,0.43,0.48,-119.38,8.51,7.14,-0.06,0.08,0.08,0.01,0.28,-0.04
0.08,-112.58,71.87,177.46,0.46,1.59,0.12,3.56,0.29,0.58,-98.55,84.94,175.32,-0.13,0.11,0.04,0.27,0.09,0.12,-151.77,2.59,3.7,0.12,0.2,0.14,0.82,0.98,0.89,-119.26,8.4,7.0,-0.06,0.09,0.0,0.1,0.33,-0.09
0.09,-112.11,70.04,177.83,0.57,1.94,0.31,2.73,0.55,1.01,-98.69,85.18,175.47,-0.02,-0.12,0.17,-0.03,0.06,-0.03,-152.02,2.48,3.48,0.13,-0.01,-0.03,0.72,1.36,0.89,-119.13,8.52,7.01,0.01,0.09,0.03,0.4,-0.1,0.16
0.1,-111.31,68.02,178.37,0.66,1.9,0.27,2.8,0.63,0.72,-98.76,84.96,175.27,0.15,0.12,-0.22,0.03,0.09,0.15,-151.87,2.55,3.11,0.31,-0.16,-0.07,1.45,1.69,0.41,-119.22,8.38,7.14,-0.09,0.07,-0.06,0.57,0.24,0.27
0.11,-110.57,65.91,178.5,0.88,1.8,0.27,2.47,0.34,0.7,-98.88,85.12,175.17,0.2,0.04,0.15,0.57,0.3,0.22,-151.88,2.72,2.88,0.42,0.12,0.19,1.79,1.41,0.57,-119.21,8.47,7.07,0.16,-0.03,0.03,0.36,0.26,0.68
0.12,-109.38,63.56,178.99,0.52,2.11,0.15,1.7,1.13,0.83,-98.87,84.87,175.27,0.43,0.3,-0.01,0.56,0.28,0.37,-151.59,2.64,2.54,0.21,0.04,0.42,1.45,1.1,1.81,-119.29,8.68,6.94,-0.2,0.24,0.07,1.31,0.05,0.72
0.13,-109.38,61.84,178.78,0.16,1.68,0.38,2.01,1.33,-0.09,-99.05,84.63,174.94,0.55,0.76,0.02,0.9,0.2,0.73,-150.84,2.78,2.2,0.31,0.26,0.58,0.91,0.09,3.08,-119.21,8.53,6.89,0.17,0.14,0.09,1.15,0.41,0.35
0.14,-110.01,59.92,178.08,0.32,1.68,0.44,1.66,0.77,0.56,-99.07,84.12,174.82,0.38,0.71,0.07,0.94,0.13,0.85,-150.49,2.63,1.76,0.56,0.03,0.41,1.1,-0.09,3.86,-119.28,8.18,6.58,0.22,0.14,0.25,1.23,0.28,2.66
0.15,-111.29,57.69,177.16,0.33,1.52,0.45,0.7,0.09,0.78,-99.23,83.46,174.62,0.35,0.62,0.14,0.87,0.21,0.35,-150.13,2.88,1.29,0.32,-0.04,0.27,0.99,0.31,4.41,-119.01,8.05,6.14,0.15,0.26,0.38,1.18,0.39,3.3
0.16,-112.06,55.83,176.75,-0.02,1.55,0.19,0.76,0.43,1.07,-99.17,83.01,174.96,0.09,0.76,0.15,1.78,0.53,0.32,-149.63,3.01,0.99,0.52,0.03,0.4,0.9,0.59,4.71,-118.64,7.69,6.0,0.28,0.07,0.35,0.76,0.71,4.28
0.17,-112.21,54.16,176.53,0.24,1.43,0.35,0.79,0.11,1.6,-99.46,82.49,179.07,0.31,0.63,0.02,2.23,0.48,0.5,-149.7,2.85,0.47,0.43,0.02,0.14,0.77,1.02,4.38,-118.49,7.87,5.6,0.23,0.14,0.24,0.47,0.23,4.77
0.18,-112.5,52.3,176.36,0.0,1.62,0.34,0.19,0.25,1.78,-99.46,81.67,178.89,0.15,1.3,-0.14,3.28,0.66,0.26,-149.29,2.66,0.5,0.5,0.3,0.18,0.45,1.18,4.15,-118.41,7.88,5.31,0.33,0.14,0.23,0.04,0.22,4.86
0.19,-112.98,50.61,176.2,0.05,1.61,0.3,0.09,0.13,1.63,-99.22,80.85,184.59,0.19,1.35,0.07,3.53,0.62,0.21,-148.64,2.54,1.78,0.64,0.03,0.39,0.32,1.0,3.83,-118.1,8.01,5.05,0.22,0.12,0.35,0.22,0.4,4.66
0.2,-113.12,48.76,176.45,0.17,1.69,0.08,0.64,0.19,1.1,-99.51,79.75,189.24,0.19,1.3,0.06,4.44,0.14,0.81,-148.21,2.45,2.05,0.42,0.18,0.39,0.22,0.6,3.66,-117.8,8.11,4.75,0.35,0.06,0.5,0.01,0.79,4.45
0.21,-113.1,47.96,176.48,-0.02,1.43,-0.03,0.77,0.44,1.08,-99.3,78.88,191.57,0.18,1.51,-0.05,4.14,0.26,1.12,-147.86,2.39,2.51,0.49,0.17,0.5,0.37,0.64,3.55,-117.64,8.18,4.61,0.32,0.11,0.29,0.1,0.39,4.58
0.22,-113.04,47.08,176.47,0.0,1.68,-0.02,0.44,0.45,1.65,-99.28,78.04,193.61,0.01,1.48,0.05,4.14,0.21,1.28,-147.78,2.21,2.56,0.39,0.26,0.5,0.18,0.35,2.89,-117.61,8.38,4.25,0.5,0.05,0.31,0.12,0.25,4.34
0.23,-113.34,45.45,176.61,0.12,1.53,0.07,0.01,0.82,1.78,-99.0,76.4,197.24,0.19,1.62,-0.01,3.84,0.36,1.36,-147.04,2.16,3.01,0.43,0.09,0.57,0.13,-0.05,2.72,-117.06,8.47,3.68,0.56,-0.05,0.21,0.01,0.29,4.17
0.24,-113.39,44.06,176.47,0.07,1.31,0.11,0.98,0.72,0.94,-98.47,74.77,200.21,0.07,1.73,0.03,4.55,0.09,0.77,-146.71,1.98,3.18,0.34,0.14,0.24,0.05,0.12,2.44,-117.03,8.38,3.28,0.23,-0.01,0.42,0.22,0.38,3.99
0.25,-113.17,42.49,176.59,0.18,1.41,0.19,1.82,0.39,0.39,-98.15,72.88,202.06,0.3,1.68,0.01,4.48,0.1,1.82,-146.21,1.76,3.59,0.13,0.26,0.46,0.02,0.89,2.02,-116.46,8.35,2.57,0.57,-0.0,0.5,0.41,0.36,3.58
0.26,-113.03,41.11,176.64,0.17,1.26,-0.07,3.51,0.3,0.07,-97.4,68.87,205.17,0.04,2.01,0.02,3.62,0.59,0.17,-145.53,1.71,3.65,0.26,0.06,0.52,0.13,0.82,1.66,-116.03,8.5,2.09,0.31,-0.04,0.65,-0.05,0.1,2.68
0.27,-112.79,40.03,177.04,0.09,0.91,-0.04,1.63,-0.05,0.92,-97.49,67.83,205.98,0.17,2.22,-0.02,3.04,0.42,0.49,-144.1,1.16,4.11,0.2,0.27,0.81,-0.11,0.18,1.2,-115.53,8.32,1.12,0.53,0.11,0.57,0.14,0.64,2.56
0.28,-113.2,39.25,177.63,0.42,0.74,-0.05,0.73,-0.09,1.4,-97.45,65.07,207.23,0.47,2.12,0.25,2.84,0.29,0.28,-143.31,1.14,4.13,0.17,0.26,0.67,0.35,0.42,0.67,-115.29,8.17,0.99,0.34,0.07,0.53,0.02,0.89,2.01
0.29,-112.8,38.18,178.02,0.35,0.83,0.22,1.39,0.06,0.57,-97.34,62.45,208.48,0.25,2.48,0.13,2.1,0.06,0.89,-141.61,0.45,4.12,0.19,0.4,0.7,0.72,0.31,0.91,-114.77,8.25,0.46,0.34,0.1,0.64,-0.03,0.7,1.48
0.3,-112.81,37.04,178.31,0.29,1.12,0.06,1.38,-0.15,0.1,-97.35,59.69,209.52,0.27,2.46,-0.13,1.7,0.37,0.69,-140.8,-0.06,3.9,0.32,0.46,0.49,0.87,0.18,1.43,-113.95,8.43,0.42,0.43,0.04,0.52,-0.03,0.65,1.55
0.31,-112.97,35.49,178.11,0.31,1.13,0.1,2.53,-0.18,0.14,-97.3,57.1,210.59,0.23,2.46,0.22,0.79,0.54,-0.1,-140.34,0.1,3.62,0.11,0.47,0.33,0.49,0.17,1.93,-113.36,8.35,0.3,0.31,-0.08,0.53,-0.0,0.82,1.29
0.32,-112.98,34.93,177.59,0.31,0.83,0.32,2.77,0.05,0.45,-97.41,54.22,211.56,0.42,2.29,0.0,0.76,0.07,0.31,-139.6,0.79,3.34,0.63,0.46,0.52,0.67,0.04,1.48,-112.77,8.28,0.67,0.27,0.17,0.63,0.27,0.57,0.88
0.33,-112.89,34.31,177.53,0.25,0.31,0.33,2.17,0.49,0.34,-97.53,52.08,212.25,0.25,2.0,0.17,1.01,0.48,0.3,-139.11,1.24,2.83,0.34,0.51,0.5,0.7,0.54,2.04,-112.04,8.54,0.99,0.19,0.17,0.69,0.31,0.88,0.24
0.34,-112.52,33.76,177.81,0.53,0.47,-0.02,1.23,0.71,0.37,-97.26,49.65,212.52,-0.12,2.34,-0.15,0.29,0.25,0.14,-138.38,1.81,2.31,0.42,0.45,0.7,0.48,0.66,2.15,-111.25,8.56,1.29,0.18,0.32,0.66,0.35,0.59,0.2
0.35,-112.64,32.99,178.11,0.03,0.7,0.14,1.51,0.1,0.04,-96.75,47.06,213.05,0.03,2.38,0.09,0.31,0.31,0.05,-137.69,2.33,1.73,0.39,0.25,0.87,0.36,0.12,2.56,-110.64,8.62,1.7,0.15,0.16,0.57,0.3,0.63,1.42
0.36,-112.79,32.84,178.01,0.19,0.53,0.13,2.33,0.49,1.06,-96.25,44.65,213.46,0.19,1.96,-0.11,-0.03,0.46,0.54,-136.79,2.45,1.44,0.42,0.53,0.77,0.63,0.01,3.11,-109.67,9.23,1.95,-0.03,0.32,0.45,0.25,1.51,1.84
0.37,-113.0,32.01,177.95,0.33,0.55,0.14,2.22,0.39,1.93,-96.38,42.59,213.6,0.11,1.86,0.03,0.42,0.28,1.28,-135.97,2.89,0.4,0.6,0.41,0.65,0.6,0.22,3.2,-109.33,9.57,2.41,0.16,0.31,0.42,0.21,0.88,1.65
0.38,-112.9,31.57,178.33,0.39,0.51,0.15,1.67,0.75,1.49,-96.16,40.81,213.99,0.2,1.71,-0.05,0.89,0.1,1.15,-135.12,3.1,0.27,0.64,0.41,0.78,0.88,0.07,3.31,-108.79,9.83,2.38,0.03,0.47,0.41,0.37,0.45,1.64
0.39,-113.32,30.95,178.75,0.14,0.21,-0.04,1.96,-0.07,0.81,-95.95,38.75,213.9,0.15,2.03,0.1,1.46,0.43,0.3,-134.16,3.46,0.37,0.61,0.3,0.76,0.77,0.3,3.35,-108.76,10.5,2.27,-0.15,0.36,0.36,0.07,0.89,2.34
0.4,-113.3,30.64,178.32,0.3,0.28,0.03,1.79,0.7,1.37,-95.94,36.84,214.42,0.2,1.81,0.1,1.44,0.37,0.13,-133.12,3.98,1.09,0.68,0.3,0.88,0.54,0.65,4.07,-108.33,10.9,2.31,-0.19,0.48,0.55,0.17,1.12,2.44
0.41,-113.84,30.48,177.9,0.25,0.2,0.05,1.18,0.0,1.69,-95.8,34.54,214.49,0.03,2.04,0.09,1.79,0.86,0.9,-132.63,4.3,1.61,0.69,0.54,0.5,1.18,-0.04,4.11,-107.23,11.57,2.14,0.2,0.47,0.41,0.26,0.67,3.12
0.42,-113.69,30.39,178.03,0.19,0.19,0.29,1.4,0.36,1.15,-96.12,33.75,214.66,0.1,1.73,-0.13,1.5,1.03,1.13,-132.37,4.42,2.22,0.61,0.35,0.57,1.42,0.53,3.52,-107.34,12.0,2.02,0.4,0.24,0.36,0.3,0.55,3.21
0.43,-113.65,29.98,177.85,0.24,0.36,0.05,1.45,0.82,0.97,-96.07,32.88,214.75,0.07,1.53,0.12,1.57,0.94,1.34,-131.86,4.61,2.33,0.67,0.31,0.66,1.33,0.99,3.19,-107.11,12.09,2.26,0.16,0.44,0.27,0.29,0.38,3.24
0.44,-113.96,29.75,177.83,0.34,0.28,0.15,1.39,-0.01,1.34,-95.79,29.92,215.19,0.24,1.43,0.18,1.4,0.36,1.59,-131.37,4.94,2.96,0.29,0.14,0.64,0.55,1.54,3.65,-106.67,12.9,1.66,0.26,0.39,0.23,0.89,1.07,4.22
0.45,-113.83,29.6,177.68,0.1,0.13,-0.16,2.0,0.91,1.35,-95.83,28.19,215.47,0.23,1.53,-0.02,1.84,0.25,1.53,-131.01,5.07,3.53,0.64,0.17,0.08,0.84,2.03,3.39,-106.11,13.07,1.71,0.08,0.16,0.28,0.63,0.18,4.5
0.46,-114.21,29.47,177.42,0.19,0.45,-0.11,1.69,1.04,1.71,-95.99,25.8,215.51,0.14,0.97,0.1,1.76,0.62,2.42,-131.24,5.29,3.75,0.29,0.18,0.2,0.55,1.77,2.67,-105.99,13.4,1.31,0.39,0.13,0.28,0.83,1.19,3.97
0.47,-114.31,29.9,177.78,0.4,0.58,0.3,1.25,1.19,1.54,-95.81,24.89,215.78,0.24,0.92,0.04,1.5,-0.06,3.27,-131.88,5.42,4.38,0.34,0.07,0.37,-0.03,0.37,2.56,-105.65,13.55,1.19,0.39,0.55,0.04,1.33,0.83,3.49
0.48,-114.47,30.45,177.93,-0.21,0.42,0.21,1.37,0.96,0.8,-95.72,24.2,216.06,0.32,0.86,-0.22,1.16,1.52,3.21,-132.13,5.98,5.03,0.29,0.27,0.49,0.39,0.44,2.39,-106.21,14.12,0.55,0.32,0.3,0.4,1.15,0.59,3.71
0.49,-114.62,30.87,178.12,0.37,0.0,0.05,0.82,0.72,1.31,-95.83,23.27,215.85,0.31,0.65,-0.14,1.47,1.32,1.43,-132.46,5.8,5.26,0.42,0.23,0.29,0.99,0.35,2.7,-106.56,14.55,0.09,0.72,0.57,0.45,0.88,0.61,3.12
0.5,-114.67,31.0,178.19,0.36,0.13,-0.02,1.07,1.19,2.67,-95.84,22.39,216.09,0.12,0.45,0.0,2.03,0.33,2.35,-132.66,6.29,5.67,0.31,0.27,0.18,0.71,0.38,2.39,-107.03,15.06,0.94,0.82,0.5,0.65,0.89,0.29,2.19
0.51,-114.55,30.74,178.21,0.32,0.01,0.21,0.71,0.42,0.5,-95.85,21.91,216.14,0.16,0.43,0.03,1.97,0.15,2.79,-132.83,6.44,5.86,0.17,0.41,0.17,0.31,4.05,4.39,-107.4,15.46,2.05,0.78,0.49,0.51,0.88,2.72,1.89
0.52,-114.47,30.92,177.25,0.66,0.17,0.13,0.77,0.59,0.5,-95.95,21.8,216.4,0.24,0.28,0.11,0.82,0.45,2.67,-133.25,6.6,6.07,0.17,0.44,0.57,0.24,1.26,3.7,-107.74,15.89,2.87,1.06,0.38,0.11,1.7,1.32,2.58
0.53,-114.51,30.56,176.62,0.27,0.01,0.15,1.05,1.04,-0.11,-96.0,21.34,216.44,0.14,0.06,-0.06,1.36,0.16,0.99,-133.87,7.05,5.91,0.06,0.68,0.94,0.97,1.23,1.99,-106.91,16.03,4.13,1.02,0.09,0.46,0.47,7.51,3.66
0.54,-114.62,30.54,176.45,-0.09,0.3,0.04,0.99,0.2,1.29,-95.91,21.07,216.37,0.14,0.24,0.1,1.11,0.49,2.78,-134.73,7.38,5.81,0.16,0.18,0.63,0.57,3.1,0.52,-106.3,16.63,4.4,0.39,0.13,0.37,1.28,4.01,3.89
0.55,-114.52,29.92,176.03,-0.02,0.28,0.1,2.83,0.41,2.71,-96.14,21.65,216.26,-0.01,0.43,0.12,1.11,0.3,1.82,-135.24,7.7,6.0,0.17,0.09,0.18,0.62,1.58,1.97,-107.21,16.61,5.28,0.4,0.1,1.22,3.11,2.37,4.03
0.56,-114.33,29.89,175.6,0.31,0.05,0.21,1.22,0.8,1.25,-96.01,21.86,215.98,0.1,0.33,-0.06,2.28,0.05,0.66,-134.96,7.51,5.65,0.06,0.24,0.51,0.7,2.21,1.96,-108.47,16.53,5.57,0.18,0.17,0.52,0.57,0.68,1.56
0.57,-114.68,30.03,175.46,0.07,0.11,0.23,0.79,0.35,0.95,-95.88,22.4,216.0,0.31,0.5,0.2,1.96,0.11,1.22,-134.3,7.09,5.43,0.29,0.44,0.46,-0.06,3.73,2.23,-108.29,16.88,6.38,0.56,-0.07,0.05,0.31,1.63,0.34
0.58,-114.57,30.04,175.3,0.0,0.05,0.24,1.79,0.37,1.01,-95.82,23.15,216.57,0.54,0.78,0.21,0.43,0.92,2.6,-134.1,6.74,5.07,0.33,0.21,0.19,-0.01,3.84,2.83,-108.65,16.66,7.0,0.39,0.18,0.03,1.42,1.03,1.76
0.59,-114.36,30.08,175.2,0.14,0.01,0.04,1.79,0.88,0.76,-95.78,23.72,216.99,0.34,0.9,0.12,-0.18,1.23,2.8,-134.36,6.55,4.62,0.2,0.06,0.55,0.6,2.81,2.5,-108.41,16.57,7.26,0.42,0.28,0.12,0.41,0.44,2.38
0.6,-114.41,30.07,175.24,0.08,-0.06,0.03,1.5,0.33,0.57,-95.65,24.54,216.81,0.03,0.48,-0.04,0.13,-0.01,0.32,-135.2,6.38,4.27,0.94,-0.07,0.67,0.19,0.46,2.64,-108.07,16.25,7.55,0.32,-0.1,0.18,0.04,0.82,2.45
0.61,-114.43,30.01,175.13,-0.09,0.07,0.11,0.67,0.06,0.62,-95.83,24.73,216.9,0.06,0.34,0.16,1.07,0.98,1.07,-135.91,6.46,3.31,1.05,0.2,0.6,0.63,1.89,2.59,-108.29,16.55,7.93,0.47,0.17,0.11,0.04,3.1,3.77
0.62,-114.64,30.26,174.99,-0.22,0.2,-0.02,0.93,0.09,0.68,-95.73,25.33,216.84,0.13,0.22,-0.07,1.04,0.81,1.64,-136.37,6.14,2.49,0.85,0.11,0.24,1.2,1.24,2.01,-107.72,16.75,8.59,0.64,0.32,-0.16,0.33,1.47,3.11
0.63,-114.4,30.45,174.9,-0.01,0.26,0.03,1.41,0.1,0.43,-95.99,25.4,216.75,-0.05,0.54,0.03,1.12,0.59,1.42,-136.3,6.05,1.95,0.74,0.19,0.15,0.84,0.83,1.97,-107.77,16.93,8.89,0.37,0.2,0.08,0.26,1.31,2.93
0.64,-114.57,30.48,174.85,0.11,0.08,-0.06,1.51,0.52,0.09,-95.93,25.69,216.8,-0.15,0.41,0.01,1.16,0.03,1.43,-136.46,5.76,1.45,0.82,0.37,0.24,0.67,0.53,2.21,-107.98,16.97,9.05,0.56,0.38,-0.06,0.32,1.14,2.67
0.65,-114.94,31.12,174.74,0.01,0.33,0.03,0.52,0.11,1.15,-95.76,26.14,216.93,0.11,0.32,0.0,0.56,0.31,2.36,-136.03,5.16,0.64,0.98,0.59,0.23,0.12,2.41,2.87,-107.69,17.46,10.09,0.7,0.2,0.16,0.07,1.97,2.71
0.66,-114.88,32.11,175.08,0.21,0.27,0.22,0.91,0.18,0.7,-95.55,26.61,216.84,0.04,0.04,0.06,0.79,0.62,2.91,-136.06,4.67,0.08,1.07,0.55,0.01,0.29,0.9,2.74,-106.5,17.69,10.47,0.69,-0.09,0.7,0.03,1.52,2.53
0.67,-115.26,32.28,175.4,0.02,0.25,0.24,1.56,0.37,0.71,-95.77,26.37,216.87,0.16,0.01,-0.04,1.11,0.31,1.35,-136.77,4.45,1.2,0.76,0.23,0.65,0.2,1.0,2.44,-106.15,18.03,11.29,0.79,0.07,0.39,0.21,0.46,2.42
0.68,-115.3,33.13,175.54,0.18,0.67,0.44,1.64,0.44,0.54,-95.63,26.67,216.74,-0.01,0.05,0.05,1.63,0.16,1.72,-137.66,4.06,2.18,1.07,0.25,0.65,0.11,0.73,2.71,-105.87,18.16,12.09,0.86,0.54,-0.0,0.59,0.05,2.96
0.69,-115.7,33.97,175.82,0.28,0.93,0.28,1.48,0.46,-0.09,-95.75,26.59,216.99,0.14,0.03,0.15,1.33,0.47,3.24,-138.45,3.95,3.1,1.02,0.18,0.45,0.27,0.25,2.33,-105.46,18.66,12.97,0.98,0.34,0.15,0.95,0.97,3.02
0.7,-115.74,35.03,176.17,0.12,1.0,0.36,0.74,0.14,0.37,-95.77,26.88,216.9,0.06,0.21,0.05,0.91,0.54,2.99,-139.42,3.49,5.28,1.07,0.15,0.4,0.66,-0.11,2.5,-105.2,19.06,13.47,0.53,0.28,0.3,1.37,0.99,2.5
0.71,-115.76,36.45,176.22,0.09,1.02,0.27,1.67,0.04,0.44,-95.5,26.91,216.53,0.33,0.2,-0.07,1.54,0.28,0.25,-139.24,3.4,6.43,1.07,0.06,0.13,0.17,0.76,2.36,-104.69,19.6,14.38,0.91,0.39,-0.04,1.33,0.96,2.68
0.72,-115.98,37.7,176.02,0.04,1.29,0.25,1.39,-0.04,0.84,-95.49,26.85,216.68,0.14,0.15,-0.06,1.78,1.06,0.7,-139.22,3.19,7.76,0.98,-0.04,0.13,0.68,0.58,1.05,-104.61,19.83,15.25,0.8,0.24,0.36,1.08,-0.09,2.63
0.73,-116.09,39.25,176.58,0.5,1.31,0.1,1.76,0.61,0.12,-95.66,27.04,216.43,-0.01,0.22,0.01,1.46,0.14,1.72,-138.98,2.99,8.8,1.13,-0.05,0.1,0.36,0.53,1.52,-103.31,21.16,16.87,0.92,0.46,0.83,1.37,0.55,1.79
0.74,-116.17,40.75,176.68,0.04,1.31,0.13,2.18,0.22,0.37,-95.54,28.21,216.19,0.07,0.43,0.06,0.99,0.34,0.13,-138.88,3.54,10.22,1.06,0.22,-0.25,0.09,0.32,2.45,-102.41,21.81,17.43,0.81,0.33,0.74,1.35,0.1,2.07
0.75,-116.65,42.17,176.89,-0.04,1.6,0.07,1.88,0.53,0.98,-95.39,28.49,216.2,0.3,0.5,0.21,1.13,0.88,0.24,-139.05,3.37,11.17,1.09,0.19,0.06,0.07,0.08,1.91,-101.57,22.49,18.34,0.96,0.17,0.63,1.66,0.09,2.18
0.76,-116.91,44.17,176.92,-0.03,1.74,0.3,1.32,-0.02,1.53,-95.2,29.19,215.98,0.31,0.78,0.11,0.8,0.43,1.23,-138.94,3.55,12.3,0.89,0.43,0.25,0.25,0.65,1.06,-101.27,22.86,18.48,1.06,0.65,0.92,1.68,0.27,1.65
0.77,-116.96,45.8,177.11,0.24,1.73,0.26,1.52,1.13,1.23,-95.17,30.17,215.93,0.18,0.83,0.16,0.35,0.27,0.47,-138.99,4.36,13.25,0.99,0.38,-0.01,0.41,0.2,2.43,-100.02,23.65,19.54,0.91,0.6,0.83,1.43,0.47,1.23
0.78,-116.16,47.81,177.57,0.19,1.84,0.35,2.14,0.93,0.88,-95.03,30.9,215.99,-0.13,0.66,0.16,0.94,0.04,0.57,-139.35,5.04,14.06,0.73,0.43,0.4,0.31,0.59,1.28,-98.86,24.94,20.09,0.99,0.74,0.95,2.24,2.08,1.59
0.79,-115.37,49.71,177.79,0.34,1.92,0.2,1.13,0.88,2.92,-94.96,31.76,215.51,0.06,1.02,0.03,1.17,0.13,1.42,-139.86,5.19,14.47,0.76,0.57,0.24,0.34,0.56,1.38,-98.02,25.72,20.83,0.85,0.9,0.82,1.6,0.31,1.33
0.8,-113.97,52.23,178.55,0.71,2.14,0.02,0.21,1.1,2.35,-94.88,32.66,215.6,0.24,1.14,0.03,0.62,0.28,1.06,-140.3,5.93,15.36,0.52,0.7,0.28,0.03,1.05,1.41,-96.89,27.37,21.51,0.85,1.08,0.95,0.8,1.2,0.67
0.81,-113.33,53.24,179.02,0.12,1.81,0.06,0.21,0.14,1.63,-94.91,34.09,215.12,0.14,0.94,0.06,1.23,0.25,0.23,-140.72,6.65,15.69,0.51,0.49,0.61,0.66,0.78,1.27,-96.17,28.92,22.03,0.79,0.92,0.53,1.85,1.55,1.58
0.82,-112.7,55.36,179.27,0.15,1.84,0.05,0.23,0.23,1.64,-95.29,35.2,215.26,0.17,1.18,0.16,1.41,0.33,1.49,-142.07,8.76,16.52,0.12,0.72,0.69,1.06,0.16,0.77,-95.13,29.98,22.76,0.9,1.25,0.92,0.94,1.04,1.67
0.83,-112.65,57.58,179.28,0.12,2.52,-0.04,1.7,0.38,2.75,-95.26,36.86,214.84,0.15,1.59,-0.05,0.62,0.46,1.98,-142.58,9.68,16.53,-0.07,0.88,0.82,0.79,0.97,0.49,-94.54,31.65,23.36,0.59,1.21,0.81,0.18,1.15,1.22
0.84,-112.48,59.0,179.25,0.09,2.19,0.01,1.43,0.61,2.59,-95.19,37.5,214.88,0.22,1.49,-0.05,0.59,0.33,1.47,-142.97,10.43,16.4,0.12,0.86,0.82,1.08,0.58,0.69,-94.02,32.51,23.59,0.52,1.26,0.92,0.02,1.38,0.79
0.85,-112.18,60.09,179.24,0.35,2.08,0.21,1.27,0.59,2.53,-94.96,38.55,214.84,0.18,1.54,0.02,0.5,0.3,1.32,-143.53,11.04,16.2,0.19,0.94,1.01,1.15,0.16,0.7,-93.59,33.18,23.77,0.65,1.42,0.65,-0.04,1.4,0.48
0.86,-111.31,62.5,179.9,0.37,2.02,0.46,1.86,0.17,1.64,-94.83,40.16,214.57,0.09,1.62,0.09,1.48,0.17,0.83,-144.64,12.45,15.77,0.27,1.06,1.34,1.64,0.82,1.75,-93.07,34.82,24.46,0.43,1.08,0.75,2.54,1.94,1.72
0.87,-110.93,64.84,178.94,-0.08,2.2,0.15,3.42,0.18,0.79,-94.95,41.73,214.45,0.43,1.59,-0.0,1.69,0.24,0.26,-145.51,14.05,15.24,0.4,1.14,0.99,1.12,1.37,1.47,-92.32,36.66,24.75,0.01,1.49,1.1,1.3,0.59,1.39
0.88,-110.6,69.47,177.4,0.12,1.88,0.18,2.88,0.34,0.14,-94.77,43.88,214.36,0.14,1.79,0.2,1.19,0.08,0.72,-146.37,15.37,14.27,0.65,1.05,0.91,0.2,0.3,2.53,-91.53,38.85,25.2,0.41,1.68,0.68,0.68,2.02,0.49
0.89,-110.6,71.55,177.1,0.35,1.94,0.08,3.66,0.07,0.71,-94.75,46.01,214.27,0.13,2.04,0.15,0.95,0.21,-0.07,-147.77,17.1,13.32,0.53,1.27,1.04,-0.04,0.1,2.58,-91.1,40.98,25.74,0.36,1.97,0.55,0.39,1.13,0.33
0.9,-111.34,73.27,176.87,0.41,1.54,-0.2,3.37,-0.07,0.18,-95.48,48.23,214.35,0.11,2.05,0.01,0.74,0.4,0.65,-149.81,21.15,11.01,1.04,1.81,1.33,0.99,2.6,4.15,-90.86,43.29,26.38,0.56,1.83,0.79,0.02,0.28,0.34
0.91,-111.81,74.6,176.47,0.35,1.23,-0.07,1.04,0.29,0.4,-95.8,50.6,214.16,0.14,2.19,0.33,0.28,0.75,0.52,-150.88,23.12,9.76,1.11,1.82,1.09,0.35,2.81,3.73,-89.95,45.73,27.11,0.61,2.19,1.08,0.13,0.32,0.38
0.92,-111.46,75.52,175.65,0.2,0.86,0.29,0.44,0.38,0.39,-95.96,52.02,214.28,-0.12,2.61,0.09,0.62,0.04,0.22,-151.74,25.64,8.2,1.09,2.07,1.17,0.97,2.34,3.22,-89.42,48.52,28.23,0.47,2.71,0.93,0.57,0.66,0.07
0.93,-111.57,76.43,174.63,-0.15,0.8,0.28,0.61,0.5,0.21,-96.74,54.96,213.97,-0.12,2.5,0.13,1.76,0.77,0.89,-152.66,27.94,6.15,1.39,2.16,1.2,1.23,2.1,2.94,-88.45,51.64,29.05,0.48,2.56,0.97,1.24,0.37,1.38
0.94,-111.33,76.92,173.89,0.08,0.64,0.15,0.71,0.88,0.33,-97.15,57.62,213.78,0.31,2.46,0.12,2.27,0.85,0.93,-152.96,29.17,4.94,1.57,2.18,1.36,1.42,2.5,2.0,-87.4,54.59,30.14,0.83,2.51,1.42,1.1,0.37,1.84
0.95,-111.15,77.95,173.35,0.3,0.54,0.05,0.8,0.89,-0.0,-97.02,60.56,213.0,0.27,2.7,0.12,2.95,0.17,1.05,-154.15,31.71,2.47,1.77,2.34,1.63,1.91,2.9,1.57,-86.96,56.38,30.77,0.68,2.74,1.43,1.03,0.5,0.92
0.96,-110.83,78.67,172.89,0.13,0.53,0.02,0.7,0.3,0.3,-97.19,63.83,212.48,0.08,2.82,0.13,3.92,0.61,1.23,-155.52,34.39,0.89,1.96,2.38,1.56,1.16,2.98,1.71,-85.22,59.85,31.98,1.1,2.98,1.57,1.41,-0.02,1.02
0.97,-110.78,79.23,172.01,0.02,0.38,0.02,0.82,0.24,0.02,-97.34,66.86,211.63,0.27,2.75,-0.08,5.34,0.11,0.99,-157.0,36.93,5.11,2.32,2.5,2.04,2.95,4.26,1.78,-83.09,63.76,33.74,1.18,3.17,1.64,2.4,0.07,2.55
0.98,-110.31,79.51,171.8,0.29,0.29,-0.08,-0.08,0.37,0.32,-97.06,69.89,210.47,0.23,2.63,0.08,5.1,0.18,-0.04,-158.48,39.26,9.7,2.49,2.31,1.8,0.66,3.79,0.59,-80.86,67.67,35.99,1.16,3.4,2.02,2.23,1.46,1.15
0.99,-110.47,80.08,171.47,0.2,0.67,-0.07,0.28,0.32,0.23,-97.11,72.43,208.75,0.13,2.27,-0.02,3.52,0.11,1.23,-159.25,41.33,9.84,3.23,1.87,1.9,0.63,-0.28,0.64,-78.47,72.02,38.74,1.39,3.48,2.04,2.43,2.3,1.36
1.0,-110.04,80.39,171.21,0.1,0.53,0.05,1.4,0.21,0.1,-97.24,75.03,206.66,0.19,2.22,0.11,2.86,0.18,0.91,-159.97,42.62,16.01,3.41,2.17,2.05,1.1,0.32,0.03,-75.24,76.58,42.79,1.54,3.42,2.23,3.22,2.92,2.87
1.01,-109.85,81.17,170.91,0.02,0.24,0.0,1.67,0.15,0.16,-97.14,77.07,203.75,0.15,2.09,-0.0,2.52,0.25,0.69,-161.51,43.92,22.57,3.43,2.11,2.22,0.44,2.78,1.31,-71.85,81.14,42.87,0.97,3.47,1.62,1.95,0.67,1.83
1.02,-110.19,81.18,171.35,0.28,0.05,-0.0,0.16,0.42,0.46,-97.15,79.09,200.53,0.15,1.81,0.07,1.67,0.82,0.33,-162.64,45.03,29.93,3.15,2.51,1.27,0.82,4.87,1.21,-69.55,84.51,42.8,1.06,3.34,1.66,0.04,3.14,2.33
1.03,-109.82,81.38,171.23,0.03,-0.03,0.05,0.23,0.77,0.29,-97.06,81.16,196.63,0.11,1.8,-0.05,0.72,0.88,0.66,-163.06,46.44,35.99,2.97,2.25,0.95,0.55,3.26,0.52,-66.73,85.97,42.81,0.96,4.23,1.8,0.64,1.61,1.27
1.04,-109.88,81.28,171.71,0.24,0.03,0.21,0.06,1.52,0.29,-97.17,82.57,196.59,0.21,1.54,0.04,0.47,0.21,0.27,-162.89,47.66,41.69,3.18,2.1,0.14,0.26,1.39,1.06,-64.06,82.87,42.79,0.86,4.24,1.87,0.88,1.37,0.9
1.05,-109.55,81.2,171.82,0.44,0.11,0.12,0.47,1.38,0.45,-97.21,83.44,196.52,0.07,1.53,-0.1,0.41,0.31,0.25,-162.21,48.67,44.1,2.96,1.95,0.12,0.55,0.86,0.95,-62.11,80.61,44.69,0.62,4.26,2.06,2.51,3.13,1.18
1.06,-109.46,81.25,172.27,0.4,0.14,0.31,0.87,1.32,0.19,-97.0,83.97,196.64,0.04,1.62,0.03,0.71,0.17,0.16,-161.83,49.2,46.82,2.93,1.71,0.1,1.04,-0.04,1.11,-60.78,78.17,46.46,0.62,4.29,2.35,3.76,4.75,1.38
1.07,-108.66,80.76,172.32,0.7,0.15,-0.02,0.8,0.47,0.14,-96.98,85.22,196.48,0.02,1.52,0.12,1.25,0.38,0.23,-160.59,50.7,51.44,2.78,1.76,0.4,1.74,0.27,0.17,-58.57,73.92,42.66,0.38,2.94,0.32,1.25,0.35,0.03
1.08,-107.92,80.71,172.75,0.43,0.33,0.21,0.55,-0.03,0.02,-97.37,86.61,196.58,-0.18,1.44,0.1,1.76,0.92,0.14,-159.15,52.2,56.24,2.62,1.89,0.32,1.35,0.22,1.18,-57.43,70.45,42.4,0.02,3.04,0.72,0.76,1.5,1.25
1.09,-107.12,80.33,173.11,0.47,0.58,0.11,0.19,1.28,0.5,-97.58,86.37,196.67,0.03,1.4,-0.02,1.96,0.99,-0.08,-158.23,53.3,61.95,2.68,2.26,-0.01,1.49,0.3,0.33,-56.08,67.27,40.7,0.13,2.46,1.32,1.68,0.17,1.55
1.1,-107.05,79.72,173.36,0.2,0.46,0.08,0.33,1.41,-0.05,-97.3,85.94,196.64,0.31,0.96,0.26,0.94,0.1,0.53,-157.31,54.1,67.83,2.74,2.01,0.08,0.23,2.87,0.36,-54.93,64.45,39.9,0.16,2.16,0.74,0.38,1.86,1.06
1.11,-107.1,79.6,173.66,0.07,0.21,0.27,0.79,1.73,0.2,-97.12,85.3,196.62,0.32,0.79,0.02,-0.04,0.64,0.55,-156.76,54.72,73.82,2.49,2.32,-0.01,1.1,0.71,0.28,-54.31,61.86,39.82,0.32,2.11,0.84,0.37,1.04,1.08
1.12,-106.97,79.51,174.11,0.18,0.06,-0.15,0.8,2.01,1.76,-96.97,84.57,196.82,0.31,0.8,-0.01,0.23,0.21,0.04,-156.42,55.28,80.14,2.27,2.22,0.0,2.27,0.68,0.52,-53.83,59.6,40.18,0.43,1.92,0.2,1.69,0.34,0.2
1.13,-107.08,79.48,174.79,0.09,0.34,0.04,-0.01,1.49,1.37,-96.71,83.92,196.8,0.26,0.97,-0.11,1.57,0.44,0.64,-155.42,55.84,85.66,1.91,2.1,0.63,0.9,0.06,0.1,-54.26,57.63,41.14,0.43,1.78,0.13,1.3,1.16,0.61
1.14,-107.45,79.54,176.12,0.3,-0.15,0.28,0.23,1.14,1.56,-96.79,83.11,196.86,0.28,0.54,0.06,1.47,0.59,1.48,-153.76,56.76,91.15,1.99,1.93,0.86,1.45,1.26,0.72,-54.59,55.86,41.36,0.67,1.57,0.61,0.91,1.01,0.65
1.15,-107.76,79.4,177.15,0.22,0.1,0.01,-0.04,0.32,1.44,-96.48,83.14,196.98,0.3,-0.0,0.16,0.73,0.13,0.5,-152.27,57.33,96.72,1.78,1.84,0.75,2.68,3.49,0.45,-54.02,52.92,40.61,0.47,1.18,0.75,1.59,1.98,1.74
1.16,-108.05,79.21,178.32,0.14,0.41,0.03,-0.04,0.19,1.72,-96.09,83.15,197.17,0.26,0.01,0.02,0.43,0.43,0.58,-150.9,57.76,101.78,1.32,1.73,0.89,2.02,0.2,0.95,-54.6,51.96,41.09,0.67,0.63,0.38,1.45,4.22,0.79
1.17,-108.42,78.81,179.33,0.08,0.23,0.21,0.62,0.27,1.98,-95.51,83.16,196.97,0.32,0.19,-0.11,1.23,0.27,0.8,-149.44,57.98,105.94,1.54,1.48,0.33,0.45,1.15,1.0,-56.05,49.95,40.48,0.68,0.44,0.74,2.95,0.82,2.63
1.18,-108.38,78.25,179.78,0.23,0.3,0.04,0.58,0.18,1.19,-95.51,83.05,196.83,0.2,0.08,-0.02,0.71,1.14,0.54,-148.86,57.29,110.24,1.42,1.6,0.32,0.32,3.76,2.61,-56.86,49.5,40.86,0.75,0.76,0.38,2.41,1.24,2.31
1.19,-108.51,78.21,179.31,-0.04,0.14,0.15,0.22,0.38,0.97,-95.26,83.53,196.91,0.05,0.54,0.03,0.11,1.16,1.75,-148.19,56.59,113.77,1.22,1.28,0.21,1.92,0.46,1.01,-58.16,48.79,41.12,1.01,0.57,0.75,1.65,2.07,1.0
1.2,-108.91,77.8,178.07,-0.05,0.32,0.32,0.25,0.7,2.03,-95.31,83.76,197.04,0.27,0.62,0.03,0.24,1.79,1.32,-147.6,55.91,116.48,1.01,1.2,-0.17,1.13,1.26,2.06,-59.12,48.09,41.38,0.78,0.67,0.54,2.41,1.53,0.83
1.21,-108.92,77.59,176.99,-0.04,0.37,0.23,1.06,0.96,2.06,-95.47,84.32,196.9,0.15,0.22,0.09,0.04,1.77,0.24,-146.81,55.7,119.1,1.07,0.76,0.27,1.57,1.01,1.29,-60.43,47.47,41.89,0.6,0.57,0.28,2.83,1.39,0.73
1.22,-109.38,77.65,176.34,0.0,0.13,0.3,0.17,0.57,1.93,-95.37,84.22,197.12,0.13,0.15,0.07,1.09,0.57,1.26,-146.38,55.59,122.16,0.85,1.1,0.54,2.19,1.03,1.13,-61.67,46.73,42.73,0.73,0.34,0.16,1.92,0.51,0.43
1.23,-109.26,77.5,175.31,-0.12,-0.02,0.05,0.56,0.27,2.52,-95.81,85.03,196.92,0.42,0.3,0.07,1.31,0.56,2.0,-145.05,55.64,124.65,1.0,0.8,0.45,1.81,0.94,0.46,-63.15,45.9,43.26,0.63,0.46,0.43,2.22,1.34,0.45
1.24,-109.62,77.19,174.38,0.11,0.24,0.12,0.59,0.64,2.13,-96.26,85.16,196.94,0.2,0.09,-0.04,0.25,0.07,0.56,-144.03,55.33,127.05,0.61,0.87,0.23,1.95,1.07,0.29,-63.82,45.67,43.69,0.48,0.37,0.08,2.16,0.8,0.49
1.25,-109.17,77.01,174.05,0.38,0.23,0.02,0.56,1.09,2.36,-96.63,85.32,196.92,0.29,-0.03,0.17,0.78,0.06,0.36,-143.82,54.67,128.67,0.59,0.96,0.03,3.21,1.71,0.72,-65.33,45.19,44.39,0.6,0.4,0.04,2.62,0.43,1.12
1.26,-109.05,77.04,174.1,0.6,0.18,0.12,0.74,0.6,2.2,-96.5,85.28,196.81,-0.04,0.16,0.18,0.94,-0.01,0.73,-143.41,54.51,129.5,0.79,0.66,0.02,2.65,1.53,0.79,-65.96,44.99,44.69,0.64,0.39,-0.07,2.98,0.45,1.14
1.27,-108.74,76.85,174.16,0.9,0.16,0.02,1.18,0.27,2.04,-96.4,85.45,197.04,-0.1,0.2,-0.01,1.12,0.05,1.26,-143.44,54.12,130.17,0.46,0.61,0.25,2.34,1.15,0.78,-66.68,44.85,44.69,0.64,0.17,0.13,3.22,0.32,1.3
1.28,-107.53,76.45,174.64,0.76,-0.08,-0.01,0.09,1.22,1.0,-96.37,85.55,196.83,0.0,0.34,-0.01,0.8,0.38,0.91,-143.01,53.86,131.26,0.52,0.43,-0.06,1.63,1.51,0.12,-67.67,44.38,45.43,0.43,0.18,0.35,3.09,0.31,0.14
1.29,-106.8,76.58,175.04,0.54,0.03,0.07,0.28,1.46,2.69,-96.43,85.98,197.0,-0.04,0.44,-0.08,0.92,0.49,0.67,-142.98,53.4,131.64,0.56,0.27,0.23,1.0,1.83,0.38,-67.9,44.4,45.86,0.71,0.21,0.07,2.95,0.23,1.25
1.3,-106.36,76.67,175.24,0.15,-0.04,0.09,0.36,1.57,2.58,-96.36,86.29,197.07,0.26,0.24,0.26,0.16,0.19,0.52,-142.6,53.31,132.03,0.1,0.16,0.1,0.92,1.73,0.42,-67.85,44.31,46.47,0.45,0.26,0.07,3.24,1.16,2.45
1.31,-105.4,77.01,175.53,0.36,0.67,-0.12,1.08,0.77,1.42,-96.46,86.46,197.3,0.19,0.34,0.14,0.22,0.78,1.04,-142.49,53.22,132.57,0.32,0.13,0.18,0.97,1.64,0.27,-67.93,44.17,47.65,0.46,0.15,0.32,2.83,2.05,1.9
1.32,-104.69,77.64,176.7,0.16,0.32,0.1,1.58,1.06,1.32,-96.13,86.76,197.4,0.29,0.31,0.05,0.61,0.43,1.87,-142.29,53.07,133.3,-0.02,0.39,0.02,1.1,1.76,0.55,-67.89,44.27,49.81,0.47,-0.02,0.54,1.79,0.84,0.74
1.33,-104.93,77.62,176.02,0.31,0.08,-0.05,1.77,-0.04,0.45,-96.02,87.07,197.4,0.12,0.24,-0.14,0.34,0.94,0.44,-142.46,53.06,133.57,0.08,0.04,0.15,1.84,0.37,1.69,-67.68,44.48,49.93,0.29,0.31,-0.06,2.28,0.95,0.66
1.34,-105.19,77.82,175.47,-0.17,0.09,0.04,2.04,0.97,1.3,-96.33,87.3,197.62,0.2,0.17,0.28,1.03,1.03,0.78,-142.27,53.23,133.56,0.09,-0.09,0.31,1.38,0.88,0.56,-64.44,44.87,50.14,-0.07,0.27,-0.01,1.64,0.6,0.08
1.35,-104.62,77.79,175.12,0.35,0.17,0.05,0.78,1.59,0.08,-96.23,87.54,197.96,-0.04,0.1,0.22,0.38,1.38,2.26,-141.61,53.83,134.31,0.38,-0.01,0.1,0.88,2.18,1.1,-64.8,45.48,50.26,0.13,0.33,0.1,1.16,1.44,0.93
1.36,-104.28,78.07,175.2,0.52,0.16,-0.05,-0.04,1.23,0.19,-96.2,87.6,198.13,0.09,0.14,0.21,1.09,0.5,1.48,-141.59,53.34,134.23,-0.18,0.01,0.23,0.25,1.35,1.86,-65.37,45.65,50.17,0.21,0.39,0.33,0.86,1.76,0.55
1.37,-103.48,78.09,176.39,0.55,0.04,0.16,0.2,1.18,0.36,-96.1,87.72,198.12,0.36,0.13,-0.02,-0.23,0.74,0.08,-141.82,53.39,133.81,-0.02,0.03,-0.0,0.25,1.88,1.63,-64.96,46.19,49.52,-0.15,0.5,0.62,0.62,1.91,0.12
1.38,-102.39,78.17,177.53,0.65,-0.14,0.05,0.83,-0.04,0.16,-96.3,87.75,198.24,0.16,0.3,0.27,2.03,1.58,1.29,-142.03,53.59,133.74,0.12,0.28,0.0,0.27,0.57,0.93,-65.09,46.77,48.87,0.02,0.59,0.31,0.75,0.15,0.31
1.39,-101.96,78.1,178.45,0.41,-0.0,0.15,0.87,0.39,0.17,-95.93,87.59,198.54,0.11,0.09,0.08,2.28,1.71,2.22,-141.16,54.21,133.46,0.09,0.42,0.15,0.63,0.68,0.05,-64.71,47.22,48.63,0.02,0.48,0.39,0.63,0.09,0.47
1.4,-101.38,77.84,179.08,0.41,-0.0,0.04,0.78,0.18,0.47,-96.07,87.61,198.28,0.03,0.15,0.01,1.72,1.13,0.86,-141.55,54.3,132.97,0.18,0.42,0.21,0.42,0.22,0.86,-64.25,47.08,48.52,0.16,0.3,0.34,0.67,0.27,0.56
1.41,-100.65,77.8,179.97,0.27,0.11,0.14,0.5,0.54,0.17,-95.97,87.25,198.43,-0.0,0.6,0.05,1.03,1.53,0.41,-141.71,54.44,132.5,0.06,0.03,0.31,1.04,0.79,0.42,-64.1,47.53,48.31,0.14,0.45,0.22,0.5,0.14,0.59
1.42,-100.16,77.69,179.3,-0.12,0.2,0.05,0.04,-0.07,0.02,-95.99,86.82,198.81,0.27,0.43,0.11,0.92,0.15,-0.09,-141.82,54.17,131.91,0.11,0.17,0.47,1.13,1.06,0.81,-64.0,47.67,48.02,0.06,0.22,0.21,0.51,0.37,0.75
1.43,-100.33,77.66,179.51,0.06,0.11,-0.03,0.24,0.31,0.79,-95.92,86.64,198.78,0.08,0.28,0.17,0.22,0.32,1.6,-142.07,54.42,131.65,0.14,0.24,0.02,-0.0,0.29,1.68,-63.52,48.07,47.72,0.14,0.42,0.09,0.41,0.14,0.94
1.44,-100.02,77.49,179.36,0.13,0.12,-0.09,0.44,0.67,0.66,-95.87,86.56,198.96,0.07,0.09,0.04,0.14,0.96,0.14,-141.45,54.8,131.72,0.18,0.21,0.04,1.86,1.11,1.09,-63.29,48.3,47.63,0.15,0.39,0.06,0.14,0.48,0.85
1.45,-99.61,77.42,179.17,0.32,0.55,0.08,-0.02,0.22,0.39,-95.81,86.54,198.89,0.32,0.38,0.15,0.3,0.57,-0.02,-141.57,54.61,131.81,0.36,0.16,-0.02,1.96,0.46,0.41,-63.03,48.78,47.52,0.12,0.23,-0.05,0.04,0.54,0.73
1.46,-99.59,77.09,179.18,0.23,0.2,0.02,0.51,0.02,0.25,-95.63,86.31,198.8,0.25,-0.01,0.04,1.28,1.02,2.03,-141.17,54.7,131.53,0.19,0.25,0.08,0.22,0.18,1.31,-62.85,48.69,47.43,0.34,0.28,0.12,0.17,0.52,0.34
1.47,-99.45,76.99,178.99,0.17,0.14,0.16,0.27,-0.04,0.41,-95.31,86.34,199.01,0.3,0.04,0.04,1.01,0.69,1.18,-141.04,54.8,131.55,0.22,0.24,0.13,0.38,0.14,1.81,-62.54,48.93,47.34,0.1,0.05,0.05,0.36,0.26,1.15
1.48,-99.11,76.93,179.04,0.25,0.16,0.05,0.2,0.19,0.49,-95.2,86.29,199.0,0.47,0.11,-0.07,0.48,0.34,0.53,-141.06,54.86,131.35,0.15,0.31,0.26,0.61,0.25,2.05,-62.69,49.12,47.21,-0.12,0.06,0.05,0.8,0.21,1.73
1.49,-98.93,76.83,178.73,0.1,0.05,0.12,0.14,0.42,0.62,-94.78,86.2,198.88,0.52,-0.01,-0.14,-0.05,0.05,0.79,-141.51,54.73,130.82,0.09,0.21,0.48,0.48,0.84,1.51,-62.44,49.13,47.06,0.1,0.12,0.23,0.23,0.94,1.07
1.5,-98.69,76.58,178.92,0.21,0.14,-0.04,0.29,0.28,0.36,-94.21,86.27,199.14,0.27,0.15,0.07,0.55,0.57,1.38,-141.78,54.49,130.18,0.15,0.16,0.17,0.65,1.42,1.19,-62.29,49.15,47.01,0.13,0.13,0.06,-0.04,0.65,0.56
1.51,-98.4,76.4,178.55,0.27,0.2,-0.04,0.32,0.02,0.85,-94.08,86.66,199.02,0.13,0.08,-0.15,0.27,1.5,1.7,-141.88,54.72,129.87,0.0,0.14,0.06,0.4,0.52,0.85,-62.14,48.76,46.52,0.02,0.05,0.52,0.55,0.56,1.39
1.52,-98.09,76.32,178.54,0.01,0.04,-0.07,0.36,0.74,0.4,-93.31,86.37,198.92,0.2,0.01,0.05,0.53,1.15,1.26,-142.04,54.84,129.47,-0.08,0.22,0.15,0.74,0.61,0.8,-61.56,48.85,45.98,-0.08,0.08,0.18,-0.07,1.11,0.59
1.53,-98.51,76.21,178.95,0.13,0.25,0.0,0.13,0.82,0.61,-92.89,86.3,198.8,0.45,0.29,-0.04,0.77,-0.05,0.84,-141.84,54.95,128.89,0.04,0.17,-0.09,0.12,1.64,1.55,-62.06,48.69,45.59,-0.02,-0.03,0.15,-0.11,1.26,0.29
1.54,-98.53,76.15,178.75,-0.11,-0.13,0.19,0.51,0.29,-0.03,-92.39,86.83,198.61,0.15,0.05,-0.01,-0.01,0.12,1.5,-142.1,54.95,128.85,0.07,0.23,-0.02,0.73,1.12,0.16,-62.02,48.74,45.43,0.07,0.09,0.48,-0.1,0.44,0.68
1.55,-98.26,76.01,178.66,-0.06,0.31,0.11,0.12,0.24,-0.05,-92.32,86.71,198.65,0.2,-0.08,-0.07,0.78,0.03,0.22,-141.94,55.27,128.24,0.06,0.4,0.18,0.8,0.08,0.73,-61.93,49.08,45.18,0.05,0.31,0.3,0.3,0.23,0.85
1.56,-98.45,76.11,178.24,0.22,0.06,-0.05,0.39,0.14,0.42,-92.07,86.9,198.62,0.3,0.21,0.02,0.5,0.41,0.35,-142.12,55.38,127.82,0.25,0.55,0.13,0.29,0.63,1.8,-62.96,49.36,45.16,0.14,0.34,0.07,-0.17,0.72,0.63
1.57,-98.34,76.04,178.09,-0.07,-0.02,0.14,0.07,0.19,0.03,-92.05,86.88,198.67,0.29,0.23,0.04,0.06,0.81,1.11,-142.49,55.41,127.31,0.08,0.21,0.09,0.88,0.87,0.63,-63.43,49.63,44.96,0.49,0.39,0.72,0.51,1.48,1.48
1.58,-98.22,75.98,177.24,0.33,-0.04,0.18,0.24,0.04,0.09,-91.93,87.18,198.95,0.12,0.09,-0.1,0.46,0.06,1.54,-142.19,55.55,126.85,0.15,0.3,0.06,0.01,0.95,0.28,-64.03,50.19,44.52,0.12,0.2,0.12,0.13,-0.08,1.16
1.59,-97.84,75.79,176.97,-0.13,0.08,0.22,-0.05,0.31,0.14,-91.9,87.18,198.78,0.06,0.09,0.13,0.39,0.11,0.24,-142.52,55.97,126.44,0.2,0.33,0.08,0.79,1.9,1.96,-64.23,50.33,44.75,-0.12,0.28,0.26,0.97,2.14,0.75
1.6,-98.04,75.97,176.57,0.09,0.07,0.04,0.13,0.21,0.76,-91.59,87.2,198.58,0.07,0.47,0.18,0.65,0.4,0.54,-142.69,56.18,126.09,0.25,0.2,0.27,0.53,0.81,0.04,-64.34,50.9,44.68,0.27,0.13,0.14,0.24,0.82,0.89
1.61,-97.68,75.6,176.01,0.2,0.12,0.22,0.71,0.06,0.57,-91.93,87.72,198.59,0.28,0.12,0.08,0.93,0.71,0.99,-142.65,55.97,126.3,0.06,0.16,0.22,0.7,1.28,0.94,-64.75,51.14,44.57,-0.14,0.32,-0.0,-0.09,1.35,0.9
1.62,-97.79,75.59,175.75,0.02,-0.02,0.1,0.53,0.08,0.67,-91.7,87.61,198.82,0.01,-0.03,0.13,0.24,0.68,0.77,-142.21,56.34,125.95,0.3,0.39,0.5,0.29,0.85,1.34,-64.95,51.45,44.79,0.12,0.28,0.38,1.5,3.33,-0.09
1.63,-97.99,75.8,175.63,0.22,0.06,0.07,0.56,0.1,0.82,-91.77,87.68,198.68,0.14,0.1,0.16,0.66,0.82,0.52,-142.0,57.01,126.07,0.15,0.1,0.22,0.15,0.74,1.73,-64.92,51.66,44.77,0.21,0.24,0.3,0.4,0.64,0.15
1.64,-98.13,75.41,175.71,0.26,0.04,-0.03,0.0,0.41,0.56,-92.18,87.69,198.61,0.0,0.41,-0.02,0.5,0.36,0.9,-141.89,57.14,125.77,0.15,0.13,-0.1,0.36,1.64,0.9,-65.0,51.84,44.44,0.12,0.18,0.02,-0.25,0.47,0.73
1.65,-98.3,74.94,175.39,0.16,0.18,0.19,0.14,0.46,0.36,-92.04,87.93,198.66,0.26,-0.0,0.05,0.33,0.0,0.32,-141.96,57.2,125.95,0.25,-0.0,0.12,0.31,1.79,1.31,-64.79,52.03,44.11,0.33,0.46,0.13,0.26,0.8,0.74
1.66,-98.71,74.85,175.27,0.61,0.13,0.13,0.29,0.07,0.51,-92.18,88.07,198.79,0.22,0.03,-0.01,0.47,0.02,0.48,-142.07,57.18,125.75,-0.07,-0.08,0.23,0.72,0.39,1.57,-64.6,52.57,43.99,-0.02,-0.05,-0.02,0.46,0.32,1.47
1.67,-99.34,74.82,175.69,0.41,0.19,-0.05,0.1,0.05,-0.11,-92.11,88.01,198.68,-0.02,-0.05,-0.07,0.6,0.36,0.34,-141.72,57.5,125.9,0.09,0.23,0.18,1.64,0.93,0.47,-64.39,52.56,43.55,0.22,0.01,0.56,1.28,2.49,1.53
1.68,-99.69,74.64,175.86,0.5,0.11,-0.05,-0.05,0.13,0.04,-92.06,88.34,198.91,0.05,0.12,0.08,0.28,0.23,0.1,-141.67,57.57,125.88,0.23,0.14,0.43,1.08,0.74,0.85,-63.81,52.51,42.92,0.07,0.07,0.29,1.14,2.62,1.75
1.69,-100.02,74.55,175.78,0.63,0.25,-0.08,0.06,-0.01,0.36,-92.02,88.32,198.87,-0.08,0.16,-0.09,0.07,0.09,-0.04,-141.37,57.93,125.67,0.05,0.27,0.3,0.48,0.52,1.49,-63.43,52.51,42.58,0.35,-0.01,0.06,1.35,3.32,1.87
1.7,-100.34,74.48,176.17,0.38,0.07,0.05,0.31,0.27,0.18,-92.15,88.39,199.04,0.01,0.07,0.0,0.27,0.16,0.26,-141.55,58.28,125.72,0.14,0.26,0.5,0.33,0.65,1.09,-63.39,52.52,42.55,0.24,-0.07,0.41,1.1,1.19,0.26
1.71,-100.96,74.17,176.25,0.3,0.16,0.18,0.56,1.21,0.69,-92.38,88.62,198.92,0.19,0.04,0.0,0.15,0.01,0.35,-141.09,58.75,125.97,0.17,0.03,0.66,0.54,1.5,0.62,-63.37,52.55,42.97,0.1,-0.04,0.03,1.3,0.97,0.26
1.72,-101.26,74.11,176.63,0.36,0.09,-0.14,0.17,1.21,0.11,-92.56,88.7,199.24,0.24,0.0,-0.2,0.18,0.49,0.34,-140.46,59.63,126.32,0.43,0.19,0.54,1.7,2.85,0.46,-63.57,52.98,42.87,0.22,0.29,0.47,1.13,1.86,1.31
1.73,-101.74,73.99,176.61,0.11,0.17,0.08,0.44,1.03,1.26,-92.95,88.55,199.08,0.29,-0.03,0.18,0.64,0.41,0.2,-140.31,60.19,126.07,0.23,0.38,0.03,0.24,0.47,1.51,-63.95,53.01,42.47,0.22,0.13,0.32,1.1,0.79,1.53
1.74,-101.61,74.08,176.72,0.2,0.16,0.07,0.2,0.75,0.79,-93.13,88.43,198.95,0.24,-0.18,0.18,0.53,0.74,0.76,-140.83,60.04,125.23,0.08,0.07,0.23,0.35,3.15,1.37,-64.08,53.17,42.6,-0.06,0.04,0.63,0.35,0.25,0.39
1.75,-101.35,73.51,176.02,0.04,0.28,0.09,0.31,0.12,0.06,-93.14,88.32,198.76,0.23,0.12,0.18,0.39,0.23,1.9,-141.82,59.98,124.31,0.36,0.24,0.15,2.02,3.48,0.26,-64.79,53.41,43.52,-0.0,0.04,0.65,2.95,5.66,3.27
1.76,-101.27,73.38,175.57,0.1,0.17,0.37,0.09,0.28,-0.01,-93.52,88.3,198.47,0.17,-0.01,0.14,0.07,0.31,1.29,-141.63,59.99,124.17,0.55,0.19,-0.07,0.28,0.53,0.93,-65.0,53.16,43.55,0.33,0.14,0.31,1.89,1.0,1.29
1.77,-101.04,72.86,175.25,0.02,0.18,-0.06,-0.06,0.27,0.15,-93.56,88.08,198.6,0.27,0.11,0.22,0.3,0.41,1.11,-141.28,59.94,124.55,0.43,-0.01,0.03,0.08,1.89,1.84,-65.41,53.13,43.7,0.26,0.22,0.0,0.97,0.83,1.82
1.78,-100.99,72.76,175.03,0.29,0.13,-0.19,0.36,0.79,0.1,-93.73,88.18,198.62,0.33,-0.13,0.06,-0.12,0.58,0.22,-141.02,60.15,125.01,0.15,0.06,0.1,0.45,-0.02,1.09,-66.76,53.15,44.37,0.42,0.12,0.16,0.14,-0.03,2.08
1.79,-101.21,72.61,175.4,0.34,0.17,0.02,0.36,0.75,0.06,-93.9,88.24,198.61,0.17,0.18,0.26,0.44,-0.21,0.32,-140.97,60.11,125.02,0.04,-0.04,-0.1,0.03,0.24,1.13,-66.89,53.13,44.24,0.25,0.12,0.36,0.48,0.82,1.19
1.8,-101.54,72.33,175.66,0.1,0.12,0.0,0.45,0.21,0.05,-94.06,88.08,198.43,0.23,0.39,0.16,0.05,0.36,1.05,-141.53,60.03,125.24,0.14,0.08,0.39,1.3,0.3,2.07,-67.05,52.93,43.79,0.28,0.03,0.61,0.46,0.09,1.14
1.81,-101.4,72.28,175.44,0.05,0.28,-0.1,0.57,-0.04,-0.13,-94.1,88.15,198.43,0.17,0.11,-0.03,0.88,0.65,0.73,-141.07,60.68,125.9,0.25,0.05,0.7,0.11,0.48,1.99,-66.9,52.8,43.41,0.07,0.16,0.29,0.13,0.68,0.9
1.82,-101.64,72.19,175.42,-0.14,-0.05,0.14,0.87,0.15,0.21,-94.33,88.38,198.41,0.15,0.15,-0.08,0.79,0.06,0.87,-140.43,61.19,126.69,0.15,0.08,0.71,1.29,0.04,0.29,-66.94,52.84,42.76,0.15,0.19,0.5,0.41,0.39,0.91
1.83,-101.68,72.03,175.47,0.17,-0.01,0.05,0.36,0.03,0.16,-94.57,88.1,198.43,0.13,0.11,-0.09,0.12,0.63,0.83,-140.09,61.53,128.07,0.05,0.05,0.65,1.1,0.77,1.51,-67.11,53.09,42.33,0.14,0.25,0.23,0.08,0.55,1.93
1.84,-102.49,72.07,176.18,0.35,-0.23,-0.05,0.36,0.03,0.28,-94.55,88.39,198.46,0.14,0.05,0.12,0.17,0.98,1.27,-139.48,62.21,128.57,0.23,-0.03,0.21,1.15,1.1,1.97,-67.61,53.3,42.53,0.26,0.1,0.13,0.04,0.43,1.87
