0.02,-113.92635373685398,73.10625396397137,174.21086866997604,-107.5782616222266,82.37589866554006,37.36129853917664,-185.6638728803799,0.8646729844745634,9.077266630344502,-158.7519313215139,13.082565583207286,18.93377203163604
0.03,-113.56656461773036,73.2426835041156,174.123395909071,-107.40839037462035,82.28842268721579,37.417173185657965,-185.8501293444984,0.972970886093742,9.074569554909434,-158.8230334532607,12.947706596356658,18.801171672040248
0.04,-113.61488642777104,73.15704718820395,174.10713345664757,-107.61701355413165,82.36562588411448,37.11751443698908,-185.96967759522173,0.9498373843317436,9.109277319676297,-158.86339603049746,13.011507497994542,19.067724920385288
0.05,-113.69862458353673,73.00329358536904,174.3729471542968,-107.69250012475358,82.32835799402747,36.87973004414128,-185.8728950715429,0.9285946133610156,9.28385334516084,-158.91659348667483,12.985195196881634,19.18384940594876
0.06,-113.67287604216558,73.24349981365023,174.11587356125304,-107.52033686765344,82.11260686071346,36.9983100991977,-186.0783760805436,1.0399969886286864,9.015463528277095,-159.00173958738463,13.15842618468847,18.831825427962407
0.07,-113.49721838431869,73.25834363904474,174.15560425975366,-107.3741773312581,82.5070367745096,37.17825920384679,-185.96601214027717,1.1199870245075116,9.097160624243678,-159.07645168727834,13.19502887841303,18.903801510502355
0.08,-113.36025763686996,73.15089711254593,174.17500501920728,-107.63687985481953,82.4014826984346,37.11133141905321,-185.9389587391623,0.892889594071661,9.157785687624472,-158.9179936204668,12.924214961255444,18.9064519604084
0.09,-113.6321222626535,72.91579882776279,174.0467952820753,-107.54347385571032,82.51601223114932,36.63255462484242,-186.1041452970443,0.9436407534440626,9.17134610908584,-158.86047902157324,13.2130244410367,19.04867059994601
0.1,-113.59276035981054,73.26064142194109,174.2357509239882,-107.54707010563617,82.24020687881489,36.748933938535416,-185.7821238145763,0.8099328376593201,9.111052051592228,-158.83853173920235,13.004288396083638,18.711975821266268
0.11,-113.58451600160689,73.34511835045214,174.32724807440715,-107.58658259805836,82.3349522295168,36.95162432251223,-185.9801039713714,0.9303102450356592,9.274284671477083,-158.98490646469338,13.058582169121289,18.85841279818161
0.12,-113.81359843275948,73.17753024274845,174.28650104819707,-107.57423983450734,82.23298929586606,36.80099492513461,-185.71596779655297,0.8890577900445323,9.249559182883669,-158.9049300695647,13.329697051210644,18.91825468112151
0.13,-113.70045562933782,73.12478096867991,174.4670843873661,-107.5682752688776,82.31908879783917,37.11183903135507,-185.82599214627348,0.8993724549066595,9.075333694747368,-158.96797553146135,13.216617124442184,19.001777589051112
0.14,-113.5582393734658,73.41054168040485,174.30137499869596,-107.28668856014257,82.23889550754417,37.0087402193638,-185.92392516341368,0.8674596671355409,9.2313202362632,-158.8907645913212,13.25413779771691,19.129723139511103
0.15,-113.69429653984731,73.39924748098741,174.43435085800894,-107.41487186601071,82.34562323917386,37.246142695758685,-185.73424944773544,0.9254917410083996,9.345349173308175,-158.87419713258095,13.19599150935915,19.030012796143694
0.16,-113.50726517836262,73.02339502385593,174.17299161593326,-107.53209684258222,82.23672157057658,37.04668890185969,-185.96385150782936,0.8513301263147569,9.178848268673756,-158.79788913971737,13.278428227839353,18.90941227834125
0.17,-113.39607340243182,73.137149983878,174.35764331694338,-107.3308105313896,82.47069819992724,36.93520993434202,-185.8291595223446,0.9970191175348924,9.116551574982674,-158.86175003435517,13.175637244104411,18.94339756041212
0.18,-113.67124627022925,72.9690451590743,174.3766361588851,-107.3822835208496,82.25384173592074,37.08680453047207,-186.01128281469207,1.029153159005069,9.503697271644374,-158.69518758586096,13.275701562432388,18.85792135504216
0.19,-113.630906092,73.32214803877976,174.20074114264025,-107.34769375865382,82.46671705715279,37.13180255412605,-185.7639023367968,0.8867108684804785,9.276198094235443,-159.09031622901415,13.373093609304854,19.078635539920494
0.2,-113.6010699599558,73.1161983771498,174.23110589324466,-107.42312861440188,82.05755964155706,36.56133458261947,-185.8341176178664,0.8173245313842054,9.225970100787018,-158.77614407762405,13.156379430178273,18.880164009831727
0.21,-113.5553719598246,73.18305944447881,174.29027307804904,-107.16623964526696,82.30616560623453,36.60953551953868,-185.63332797114208,0.8701283030489186,9.401446076545753,-158.9219947372108,13.386760319962889,19.11119887401467
0.22,-113.70448389197767,73.18177097929981,174.36058418185908,-107.3716698750364,82.24457509541992,36.74888424732593,-185.54861860647856,0.8553851619577119,9.304185118670445,-158.82128113332746,13.107566652624133,19.06118984151255
0.23,-113.45567343872712,73.22585436407957,174.33292930366204,-107.31136344381216,82.4259111990958,36.33702826798572,-185.7625442012127,0.8271059857894592,9.306952278524149,-158.70079064470156,13.240505744508948,19.042518604265755
0.24,-113.62448407991236,73.08602316482298,174.34871544638682,-107.38061243491872,82.39120716282326,36.23063790476521,-185.9033884762608,0.7224720914394737,9.415214201979287,-158.77199135187124,13.329860971345544,19.10110682829773
0.25,-113.58495604891516,73.19950509234121,174.37359830372853,-107.16347911091871,82.43413410681872,36.65005503213431,-185.7314387106329,0.7306933435287283,9.385818911477454,-158.76870040667194,13.181773166693578,19.14853324285019
0.26,-113.4496444470194,73.14711745865245,174.3013929796031,-107.435067602567,82.44545878963602,36.46283646323906,-185.69957853745785,0.6802521916708307,9.344273012419489,-158.61723233272,13.189875298961615,19.02171774079325
0.27,-113.49819360416264,73.18666528432563,174.38740712378578,-107.209401768189,82.30314671444569,36.68799184658864,-185.76544925490967,0.8297308304061809,9.285587504206278,-158.78159047992835,13.20488804340886,18.887287746732685
0.28,-113.4750986203717,73.2140104611152,174.29973193428611,-107.47641077352864,82.22387675190974,36.57757027251749,-185.63655624820976,0.6981732079794829,9.04001365571068,-158.77023257443506,13.2897409406243,18.91976333688454
0.29,-113.45068036691288,73.23148798334405,174.32663380813491,-107.33192855152129,82.29294893753811,36.65629053301635,-185.85881723617757,0.7815801059400274,9.362979736253946,-159.00840179709687,13.082973511412536,19.07989661176155
0.3,-113.44506092229707,73.20315878234027,174.48940154767632,-107.42575524318188,82.37034221951546,36.70979537674222,-185.7950160026922,0.8314661989239316,9.401523643687929,-158.99059684868715,13.234805134372678,18.95325284050073
0.31,-113.4494696886676,73.14421656310283,174.2131832458477,-107.19481715486744,82.44374731327801,36.8164904273735,-185.7580450024235,0.8273461391898771,9.41822069072406,-158.7172676087823,13.203391006128292,19.11033626487032
0.32,-113.53929843975148,73.25133769845979,174.25525150567736,-107.41755026248052,82.4304276424258,36.67973587629376,-185.7289803637566,0.6865643051317101,9.171646056833012,-159.03127654948298,13.17560106268454,18.87928662231617
0.33,-113.62030997139414,73.12594651374344,174.171465621951,-107.44202544699696,82.48803092041976,36.773715032313866,-185.88444647530787,0.8532854531163118,9.13394805654568,-158.75270608507304,13.25807712142176,19.115566964524305
0.34,-113.50652800903296,73.21948334139806,174.16850856143088,-107.17719762165136,82.54318230115855,36.94451505534678,-185.70724609879088,0.6548689671127005,9.294146612971444,-158.68682934900963,13.264494636370609,19.043456791064987
0.35,-113.46962339097438,73.14441869270871,174.18055842086716,-107.36867140839392,82.33075529329942,37.0679250098304,-185.79980385841787,0.8412057215261148,9.10297583220592,-158.81038181142847,13.273952824699425,18.910133571869792
0.36,-113.48210649849206,73.27880985648567,174.33883718380042,-107.25927670533562,82.32715608920397,36.85389615037344,-185.71911201112147,0.8368328163062501,9.139054827799631,-158.61538823020632,12.993084961871311,19.054374466639157
0.37,-113.63637120326796,73.31702060311868,174.37975675873898,-107.31989030237946,82.56716377807699,37.18099253518031,-185.7953245806521,0.7727223029410735,9.054354414733249,-158.672578316643,13.1892328471011,18.94222660860388
0.38,-113.5731062458542,73.14406638821562,174.44179831256733,-107.19611621212016,82.5805287418837,37.47413089234962,-186.01380962847043,0.6338836452781497,9.317023047862026,-158.72403706382053,13.431580289740271,18.761875142278896
0.39,-113.6143136733677,73.2330516628178,174.24642823769096,-107.3386283832288,82.53700715249073,37.169822872421065,-185.72292370439965,0.6907797987779289,9.137444868543088,-158.85024962703744,13.229869147516313,19.109265217576876
0.4,-113.5957949826733,73.29752124440539,174.2795685807497,-107.37054118004272,82.5170021627511,37.19588698466456,-185.93431125148712,0.9873732214767862,9.084937626432255,-158.85554599838497,13.343727756449097,18.96780593170424
0.41,-113.51126559538984,73.11216839216989,174.30045403435008,-107.3345060008902,82.59426853067862,37.45542434062667,-185.70530822120784,0.7022632776457358,9.068971260655475,-158.94392772311576,13.143990519810693,19.056837590729565
0.42,-113.57361468919744,73.00474778398802,174.15311794510865,-107.22640175023824,82.54682602923198,37.5790825905156,-186.0373674902844,0.8659092959753315,9.04236047084017,-158.78920286353298,13.167456389911592,18.99012457587823
0.43,-113.51705105908609,73.21620225830034,174.27751278186014,-107.25695609017852,82.53895301892877,37.61295591091554,-185.83715786349387,0.7774291429483526,8.951756591074608,-158.88458957865453,13.093221249381132,18.70004155950744
0.44,-113.61757229255072,73.1209261213027,174.21646935788056,-107.44764107427469,82.58927617428849,37.47601305103581,-185.61037044115463,0.7720502454441212,8.878654511524829,-158.88815732680305,13.192849571942178,18.66707724695708
0.45,-113.52061224652408,73.14514246011805,174.08404631430787,-107.6224744686666,82.69117573131717,37.55869435632216,-185.8799404434007,0.7976580098561401,8.826007841856724,-158.9671660507457,13.226381593474864,18.831666546752917
0.46,-113.73991618525002,73.17388415289437,174.188747904678,-107.37793941092777,82.72002232435483,37.61979933780745,-186.11339570951864,0.8652614430952704,8.847456045360074,-158.91346648487269,13.089524591420336,18.91385924614936
0.47,-113.71474821800204,73.15336179624842,174.08254193608758,-107.3269453846826,82.59847896829638,37.719812865953976,-186.0128441333825,0.756514663278662,9.18702873371588,-158.97382867688287,13.364072476789907,18.78715392165921
0.48,-113.84426241161088,73.24069554829124,173.98064620075095,-107.24719074189112,82.48666104650269,37.99091562406944,-186.15616651770995,0.671054066662812,8.84505231759558,-158.99270656393523,13.044633818961028,18.597982996474364
0.49,-113.75539773495488,73.1405853565787,173.8750288859214,-107.22471912441704,82.69132836423677,38.18376209336818,-186.2551432396377,0.4444394280237759,8.96541216373236,-158.79267089285014,13.231263257551015,18.637191938984483
0.5,-114.0277986350688,73.18738177184967,174.0841483076053,-107.48139108237824,82.6562829491417,38.59087448267145,-186.158155544662,0.199945906061842,8.793885406069098,-158.747348485901,13.214822173324158,19.00915824247444
0.51,-113.83197626811892,72.90366640903383,174.0827681524117,-107.43654665732168,82.73524335239529,38.71350461315046,-185.99292030791716,0.3718220443754324,8.832200899901219,-158.33521456925163,13.342579182115593,18.77515069646468
0.52,-113.8457031390473,72.77861956611802,174.0467648604415,-107.38128596561668,82.79624882214087,38.128663664914654,-185.4929077786188,0.2852136282073115,8.767468130177265,-157.80537376179782,13.237486214456387,19.026809931031792
0.53,-113.7394220530416,72.70200420035314,174.10146445819686,-107.72748185506768,82.71519995321343,37.645159871946646,-185.1203736976589,0.5888667094523187,8.839234604032082,-157.3326411999523,13.592984652169742,18.91423935559468
0.54,-113.98708393935593,72.35767984547448,174.1781859494074,-107.98414195032552,82.73686291710278,37.67374869471883,-184.85458961800964,0.9298102791539448,8.891832249214787,-156.37195493474826,14.117464079605911,19.109710843601864
0.55,-113.79011844709528,72.13841719383423,174.32992538195384,-107.99298962304572,83.0230456290436,37.54629468962945,-184.783389913356,1.3524894061247643,9.133643693299252,-156.04513361914042,14.33476843630588,19.111989848611216
0.56,-113.5651162500045,71.77471121456357,174.25275857618703,-108.27714009763436,83.09210985590714,37.85678060990983,-184.7369251808388,1.7755488601991178,9.248753301607836,-155.4966052404239,14.678607068466636,19.381669127455037
0.57,-113.595795894092,71.8193519662774,174.14375230147846,-108.1369443605787,83.31629246720696,37.90688180127495,-184.66063884977044,2.254916626944784,9.196930227172022,-155.415524646909,14.92940131100558,19.792197527884795
0.58,-113.27931419890074,71.5688311432005,174.46690276735205,-108.16772168158644,83.64425815708212,37.81430108513131,-184.8986438704933,2.8478590929094376,9.389075013812878,-154.96428853115862,15.446782109638365,20.3426860861314
0.59,-113.03678143557116,71.34320931898033,174.3836127228791,-108.30872354378636,83.96280232394648,37.976866928418765,-184.36371369519284,3.2966454694889507,9.30898625944348,-154.95491038156942,15.8460007716228,20.91946196034328
0.6,-112.9680048736936,71.13951152192726,174.71975068390742,-108.0644006327393,84.44284558557432,37.903556118016766,-183.7743232491956,3.70928448627868,9.5656054838965,-154.55036903822173,16.2254843290655,21.541595412169933
0.61,-113.00204495868508,70.68783850052878,174.60374440054576,-108.20038330568732,84.798121660207,37.77375921937284,-183.00294452881295,4.007056307987303,9.297111353802729,-154.17172950341634,16.475961825993874,21.982167029387643
0.62,-112.84508950755524,70.10000538608371,174.9056400569864,-108.06688761887015,85.14001484493866,37.76037110676913,-182.175765667888,4.554906919273543,9.299105014920537,-153.4239636329605,17.516370349184232,22.80597596405551
0.63,-112.8304138255144,69.8824601883109,174.84702208170702,-107.89579159912536,85.63131979337176,37.79443961238921,-181.36298676325745,4.675198808515861,9.37434622563249,-152.9334431413936,17.70746347546346,23.175258836005177
0.64,-112.86606078645968,69.60964905524925,175.2269103099475,-107.98205633422816,85.75759072217451,37.75033110965747,-181.03103017234272,4.8909966216724605,9.4217471500363,-152.54478233197275,18.03461267078797,23.48616592001346
0.65,-112.66177854689028,69.37845193930222,174.99809846246396,-107.6931857306234,85.93032075289247,37.83085976508728,-180.4313181633489,4.927512880943094,9.302407209613095,-152.1807915068972,18.186898121087864,23.80781889716956
0.66,-112.5488340438608,68.17471889610202,175.09235675199483,-107.51337041884452,85.99641837305795,37.83365380269581,-179.6002104738771,5.291373515134206,9.63154454667455,-151.78011337657134,18.383417288874018,24.245832823761805
0.67,-112.64294307747495,67.05867235449641,175.1268895982796,-107.51781147422354,86.0510691094729,37.83926979589175,-178.88619530478684,5.423921098790444,9.286226633771935,-151.08714654934974,18.48408913811592,24.64908319870853
0.68,-112.52450332771954,65.79122589524883,175.27844863788823,-107.17964762558164,85.38463487489557,37.67483277108104,-178.07852716558423,5.475760652209789,9.581727808880018,-150.34747920053158,19.08314515653049,25.266626570475168
0.69,-112.38492120234766,64.24617617929556,175.28036665563022,-106.9837756221702,84.92454659499523,37.65758071794825,-177.01116759235143,5.557670544463698,9.40368576671756,-149.5382489744038,19.29545131288636,25.54951247000408
0.7,-112.27740745682088,62.24384318064995,175.65785775546524,-106.67145433964768,84.01117231030831,37.77698450735396,-175.9206790418447,5.322933837745913,9.092592134369692,-148.7077696555056,19.17492246927325,25.722058716135912
0.71,-112.21847418461375,60.55365102643927,175.89296838949463,-106.45105007597878,83.05834534713476,37.54893070431115,-174.71716057884643,5.2504365154837,9.43344668147282,-148.3751842499912,19.26906003552693,25.859167659747428
0.72,-112.21233260399664,58.77555711287371,175.91678336626453,-106.36388624091262,81.73927299505398,37.653619202276616,-173.76079452361824,4.764312437994554,9.10582069560706,-147.93195477961427,19.397406386420283,26.15406673665253
0.73,-112.3606841543209,56.93978964718551,175.90639615608757,-106.07757969992574,80.33677000835961,41.72750124633141,-173.06605242623186,4.654683829988046,9.209240208991371,-147.3426251146764,19.393540721551915,26.52489979929376
0.74,-112.88496909895323,55.5531627310394,175.9626810058972,-105.85417301115234,79.09546720694816,44.7561829793466,-172.43646917304008,4.414048328760279,8.726402307189392,-146.9794737466886,19.243252455917723,26.84868434174089
0.75,-113.36609773927115,53.784170859090274,175.54980915577383,-105.51544306333447,77.56111511503875,47.01951652460383,-171.7097772255103,4.122922102057313,8.712953007329439,-146.7978345699668,18.93756608747888,27.1056187753186
0.76,-114.15628773645552,52.44292837833007,175.5649243821274,-105.33046191646793,75.91011282732661,48.86279037728464,-170.93484228640224,3.728563692668988,8.708876120827991,-146.39552160841046,18.609395899116493,27.04049935019909
0.77,-114.55045805041996,50.7119605687272,175.3994058205101,-104.95056462989156,73.90517623334598,50.3407842576367,-170.18810867488196,3.612535226211857,8.692027620197017,-146.04190296945458,18.181543998192662,27.399521212800305
0.78,-114.82055447497916,49.20821376260589,175.38871718916553,-104.5206910566825,72.31530992987015,51.46391612373696,-169.47090387174478,3.1211178524234207,8.715815844078,-145.6981912128642,17.74923701885838,27.19808493420509
0.79,-115.10806776900355,48.10126566264921,175.1308035320566,-104.20649129744932,70.71443543106675,52.582563107974,-168.88402393104283,2.899515084635829,8.678770105797241,-145.61454183984566,17.365611091195202,27.26157622040335
0.8,-115.15697854998008,47.48946021283274,175.25640158378872,-103.7333490104118,69.89386119932067,52.85639632632708,-168.74308157804023,2.673316640334682,8.614811068015644,-145.52355038675094,17.341881170944806,27.15450843628331
0.81,-115.41671430946232,46.82151605286746,175.21282775933145,-103.76842002651505,69.18545660065242,53.43628690807953,-168.44579592790475,2.551677510418517,8.676919812740545,-145.65123114052437,17.137926300761194,27.22176596690372
0.82,-115.58418030492888,45.74255204610751,175.10457503996292,-103.31231781114047,67.41673521825545,54.6774355508184,-168.20084815165634,2.00413563123762,8.905676849416311,-145.7001097095887,16.505321058081098,27.04902363219377
0.83,-115.77239390958262,44.43206068167503,175.21115216849944,-103.25132267263524,65.7711684533738,55.34469997894058,-167.96274396960925,1.525454045399473,9.0072331215887,-145.81736758249332,16.124001042356532,26.88597583000742
0.84,-115.4779153180447,42.900249734522006,175.35893900285245,-103.08885233798,63.82992531062118,55.911112040144246,-168.04458659912547,1.0948663116961623,8.904737355391676,-146.28782294282723,15.621329078587264,26.487481665828856
0.85,-115.29458559406864,41.61742404944847,175.44026357131204,-102.93473148565836,62.28953524894975,56.57840257763114,-168.03324825587222,0.5018953666695753,9.14950683714761,-146.8948622616723,14.662757508281956,26.433390211535222
0.86,-115.48000629347511,40.11874827430321,175.9268205581438,-102.6372889792972,60.63142672931139,57.09261656345702,-168.20863852314469,0.1711499058540296,9.501554350486666,-147.15994556829708,14.524571669844828,26.384873431003424
0.87,-115.81067764842976,38.45315066461364,176.56605176380444,-102.59972153942412,58.90734125138106,57.6777797083593,-167.79258331202848,0.682304656340716,9.732610732716438,-147.78158695277298,14.055620873226175,26.02637743024333
0.88,-116.2749790798504,37.43802768532504,177.0255159386229,-102.15130957408854,57.41864679375698,58.1376395612218,-167.9189262355253,0.7111516800212551,9.96575046417626,-147.98221864780325,13.714530994140627,25.83535648908974
0.89,-116.1347030368716,41.45918649466255,177.40897724104315,-102.39561798164098,56.04887646437837,58.686296932003735,-167.79975033666244,1.1175614570823993,10.202238240396705,-148.65533439434276,13.20926385911248,25.529826962474505
0.9,-119.76299127927464,45.08328593385094,178.2750993249019,-102.55422026318764,54.17916545555705,59.27419586146307,-168.12496358503185,1.4237906315799342,10.06858011190904,-149.40817649480968,12.612751359293402,25.4838971725573
0.91,-118.481982951018,49.07773982559823,179.10501979835442,-102.38722621466684,52.52615078035071,59.78745311544826,-168.45105348505982,1.9432980885700089,10.30312265897787,-149.92385741351927,12.197642581804136,25.2452205227055
0.92,-117.45849079150295,53.01259226553717,179.9005731905066,-102.65460181055968,51.93339875882437,60.086290038888336,-168.74241206377957,2.215822224073184,10.443074515266554,-150.74755814365813,11.850658262407936,24.94175639927809
0.93,-117.74023581303244,56.215483505832815,179.35441659523946,-102.727067754161,50.56175802918631,60.720004443568165,-169.2665519931481,2.6399512605825213,10.522369425570355,-152.0177325043808,11.334555262105814,24.99764906950092
0.94,-117.52921919609317,58.18374304207869,178.76645050013116,-103.3318128227302,49.26466075694009,61.14244069726292,-169.88586078402392,2.6645113901955604,10.474005066323445,-152.90583701730722,10.75518756718707,25.168819017005827
0.95,-117.44716629087928,60.09587545570259,178.428609313155,-104.2490541068432,48.176560421267006,62.03274033124876,-170.18149721932895,2.833756621665425,10.4811848076269,-153.9541675037219,10.325356975432015,25.137542370481253
0.96,-117.60294884729484,61.12415126389055,178.4556541633527,-104.57685481009128,47.82031549023864,62.13230809544497,-170.36485441430654,3.2011806855672464,10.29679519295045,-154.146915020973,10.313114602515755,25.11396395496909
0.97,-117.26296842539796,61.948383576981705,177.93343318853232,-104.89238735517146,47.28508080756135,62.26331739440705,-170.5982809413912,3.275602758467007,10.145480631697746,-154.53461531531528,9.864485089627738,24.98055284540879
0.98,-117.58096985011088,63.64802941100536,177.95546056716245,-104.72527247873624,46.41176114679339,62.42633864508534,-171.2775314592718,3.2073951198164483,10.191802206132875,-155.03453341360046,9.824130920005516,24.8429239522784
0.99,-117.74460785698643,65.21280866359308,177.94717992679222,-104.84221039287948,45.41059498658097,63.1321916375575,-171.5316455365012,3.156105444455781,9.901152761492938,-155.79405025440457,9.405740873223136,24.700521950269795
1.0,-117.33695900137724,66.6710642512338,176.96430144566588,-104.89040572765632,44.69531854196527,63.32104976255721,-171.53601205016113,2.989644693021341,9.532707482611066,-156.89188428098734,9.203051571447975,24.736035530956737
1.01,-116.73767523535984,67.41026558892538,176.0652759658002,-104.9672255356242,43.894172300474246,63.846632196866125,-171.37406215831638,3.1164088651332897,8.92977234340194,-157.5152463044987,8.796270674416027,24.72422828485708
1.02,-116.15396409004396,68.31071576604049,174.63451984091685,-105.18903400002134,43.8108972615727,64.18908325417921,-171.30159370873844,3.3170851797053875,8.388635476265355,-157.78749523112486,8.315245941674407,25.229879040136115
1.03,-115.51070022744103,69.19527130666964,173.3642975162912,-105.08231482800504,43.34866800661306,63.98697019498816,-171.15068755023924,3.4117988616156407,7.978451858199175,-158.05826189255814,8.443517422776477,25.298834402480757
1.04,-115.49001209883342,69.83967464234631,172.59032189866744,-104.823774336341,43.1537211310338,64.24541913536758,-171.5974320540279,3.1917655684758106,7.196912220212951,-158.21142896971904,8.581728781508057,25.57532278686565
1.05,-114.98934965495084,70.86943137951879,171.28223636252545,-104.99743975217972,42.755263369844855,64.25379822037206,-172.17019887056065,3.3852780811394494,6.718019899389499,-158.82970587076494,8.599103312775982,26.11596289795648
1.06,-114.68036339144162,71.67428601501665,170.47955824165908,-104.8245373481746,42.56634857163944,64.55805449280113,-172.7384414078688,3.2869395089074893,5.89144960432169,-159.93964039049914,8.655695543242441,26.79370222895821
1.07,-114.69263798173796,72.18699278270239,169.67199133321765,-104.68328308881009,42.240269001229485,64.80813212262079,-173.42684301198074,3.012635040672548,5.192590793114511,-161.82981553174153,8.404249301480897,27.86748514689309
1.08,-114.48068904138135,72.61560277065632,168.82718443306044,-104.67836778491024,42.29500073366388,65.16059147304418,-173.7313600995194,2.867876388662841,4.248267043321918,-163.4196163423836,8.168768479097034,29.196242794927347
1.09,-114.4046272121202,73.39917132041673,167.98588351953566,-104.67345674840573,42.581071119763045,65.22348352377718,-173.16756264862053,2.538376435292344,3.446610360996127,-165.21592720954484,7.864199241313495,30.43607814923205
1.1,-114.1398712929625,74.0176265486255,166.78105923077086,-104.5859600738526,42.63090022678837,65.17499920819469,-172.80420036681974,2.4606034350108583,2.719599757825439,-166.1791166152594,7.270686579313261,31.657220479376807
1.11,-114.23186880697544,74.46391846945565,166.56607654403598,-104.36901902524367,42.70737842467079,65.3028216255594,-170.86329613972467,2.3715350273484352,1.253876846505007,-166.24076640214173,6.761925453974776,32.85351932702128
1.12,-114.22777855143018,74.67749284457507,166.4115442109962,-104.31830181860938,43.05153591970007,65.42305527975113,-170.92121449451923,2.16844239640334,0.8538791145476236,-165.84747565971225,6.933898275980903,33.377062287900955
1.13,-114.0678451021886,74.8158384067421,166.25343840020707,-104.26667277630972,42.93121794631721,65.34283341389246,-170.90439731626014,2.095606105964925,0.8160391691072014,-165.11833962790791,6.917881909581609,33.84002843882887
1.14,-114.00407439699411,75.20139581886237,165.8550232521348,-104.40108672878225,43.355396875076224,65.7361601155286,-170.65033636466802,2.0287582154329424,0.4227901663650431,-162.52254813053133,7.843246100429067,34.668823206865454
1.15,-114.0537532948916,75.4820094117187,165.82931641760317,-104.62145587674576,43.49062085573556,65.60838610543561,-171.17974201980277,1.818596692571661,0.1596334342842058,-159.90659513661444,8.501537294400762,35.66956684418523
1.16,-113.88990624945438,75.43043263918213,165.94583302664512,-104.44195082752792,43.62645051996684,65.84458483445096,-171.62016437798383,1.5248694325131982,0.3131436971492329,-157.82317975971063,9.14086101359243,36.657738470678886
1.17,-114.08453051565176,75.62329235374843,166.35856626771704,-104.1429769656002,43.922938011490544,65.96146985448017,-172.41782863593298,0.8196535045139564,0.4288960823688291,-157.34949060163922,9.482172796226426,36.79630926575672
1.18,-114.29124039916589,75.48049891609894,166.63760583397226,-104.2587563321334,44.26837393399378,65.49266203722706,-172.36410053778994,0.8931757408790709,0.530295343598044,-156.02687645470377,9.86362091112639,37.16512145176028
1.19,-114.27752561324615,75.45189246066037,167.15630035265437,-104.04004184072645,44.1163040242164,65.49913585672113,-172.45780229857536,0.5220542598926423,0.6580578621572253,-154.87030545671925,10.304431342243214,37.66454694823082
1.2,-114.27573208838965,74.93932484535709,167.64796914237854,-104.01363113211671,44.095694262306026,65.24290319910827,-171.9634496232118,0.4797383664635505,1.1012294634382864,-153.61343235274188,10.91813080069216,37.47688178996726
1.21,-114.65350463028662,74.41101787017394,168.69169675673965,-104.11129766900646,44.269659876240034,65.25966472989916,-171.3906009769177,0.489932722501873,1.5375760114238493,-152.0583028676446,11.549714426953672,37.197539647656434
1.22,-114.60512308700548,73.54975784740512,169.67109042204603,-104.33613242784418,44.554547024648286,65.41587921111457,-170.7885150382938,0.6049430457971695,1.7259860909757532,-150.869552591606,12.068443118147377,36.78475549419903
1.23,-114.6701078557002,72.66599689069275,170.80988297662276,-104.47593442994636,44.67513184796218,65.81562177461285,-170.7481825714264,0.8442778193084262,1.971227853799964,-149.80239481859664,12.529061686763656,36.307954680147255
1.24,-114.84222532922077,71.94016103541269,171.65568328720843,-104.4074561545569,44.53270558165089,65.54544144906588,-170.71379548652925,0.8550921543017065,2.3831444848514662,-148.89858116155983,13.070439046596018,35.98092365893627
1.25,-115.149336123241,70.97443154307803,172.30404673838876,-104.34019144940147,44.51477719403322,65.32085841831915,-171.1300994733933,0.9027203872608592,2.849039802220134,-148.11022287187896,13.050740195335692,35.570692072687194
1.26,-115.30616447442128,69.49511042698101,173.28896006544582,-104.52509336197754,44.62876112012786,64.8069145244352,-171.24997750186296,0.5228151126254851,3.01687892780668,-147.61940859609135,13.342766621394295,35.33157437915644
1.27,-115.37802321970732,68.26356001922866,174.19050539497266,-104.14793542141228,44.67823718981342,65.01130639512164,-171.3696990776147,0.57847808777912,3.329573455112921,-147.22382167706064,13.274501347626243,35.03392756189766
1.28,-115.48955601032664,67.43471672950992,175.04043380294763,-104.56705684161194,44.69875172413482,64.88378305904453,-171.11381212465778,0.6062452836717427,3.430466173197185,-146.9463070809582,13.43645641565618,35.03724338464429
1.29,-115.69583239549588,66.80992989297354,175.59051861507675,-104.29636417730812,44.84423534660882,64.77850986719847,-171.02362547172555,0.6839448149740224,3.35516918831359,-146.7328831453053,13.577009245861612,34.99005317501991
1.3,-115.98413324548034,64.99960580479622,176.20737367883228,-104.33690673679789,44.7976975459576,64.89027634699805,-170.50322856526802,0.6609491766306507,3.0782950956478583,-146.20585986242168,13.816433701338498,34.755750259617926
1.31,-116.42823630036264,63.56478691399912,176.97505025467825,-104.16792990923102,44.63515434419081,64.32636097787832,-169.76604142623734,0.5270694470597829,2.8131039606186587,-145.2661432515441,13.994594847553564,34.64092607034757
1.32,-116.8864896577188,62.06880210324998,177.7991987657755,-104.31129546866607,44.56067880064836,64.23458787406166,-169.64470992851014,0.5004641834503705,2.3858242582795675,-145.01220593603952,13.996012575085222,34.28254243792779
1.33,-117.76160655173582,60.34590808933034,178.69562200263772,-104.19104597987814,44.475165619551206,64.16627468593565,-169.3367639863354,0.2116595210321186,2.0946120588013417,-144.61231347660942,13.970688639993528,34.51296055329857
1.34,-118.5303949605132,58.492477312759576,179.79534905665798,-104.13101242829424,44.32131861800461,63.8999557858133,-169.3032698391145,0.2972574269309788,1.9693653722141569,-143.44718482376342,14.015714107159072,34.43243536013479
1.35,-119.57000554660988,57.262253125827016,179.13635587158217,-104.50949511737308,44.60643937530452,64.04761728925615,-169.3514240790142,0.2454871675344209,1.4511609102532812,-142.55651344764053,14.379364787211893,34.303234193454784
1.36,-120.45026468228768,55.197928353849285,178.11318334779358,-104.20246081848089,44.8348161829329,63.91339176773823,-169.7338298860339,0.194131844988694,1.5799379739978894,-141.31930386146345,14.585871688059582,34.7586532677535
1.37,-121.60887678773052,53.14951732684166,177.49835920601416,-104.45258019519392,44.6906898659465,64.03623018187443,-169.903649160151,0.2106328829301335,1.4596195342288212,-140.8647211049926,14.78264462634447,35.18617173852673
1.38,-121.97589256329222,52.340453659670274,177.03387580234613,-104.27373405806397,44.85079830943229,63.55591580920364,-169.97222305559146,0.3289586858135497,1.4398630034572764,-140.49253207164205,15.047324165676502,35.94458083812078
1.39,-122.33802518596232,52.4552625425505,176.93061032531023,-104.32083395217484,45.36525010840085,63.58051680401528,-170.1152591155642,0.3612700056626184,1.3187063441061904,-140.5778782998477,15.306334500261157,36.79216803005137
1.4,-122.73410759697214,52.08768318586141,176.48382736564378,-104.30424164087336,45.6461231433551,63.50175851783159,-169.67046836318238,0.7421984666505296,1.3221959747417855,-140.4996028208878,15.704970968207292,37.7700740551465
1.41,-123.41455438186338,50.35351138994914,175.97558227105282,-104.48456873347538,46.0935032211594,63.51106679211561,-169.56972859220443,0.9935632900855352,1.3474953654587247,-139.86088276168738,15.98385943191191,38.21056136157969
1.42,-123.92748925700334,48.73186705413895,175.74738669154067,-104.26988151730488,46.456415803124,63.15204529704023,-168.96286877038747,1.3366424235094072,1.3932141779414944,-139.71734013923546,16.525759900386788,38.70443979653909
1.43,-123.66076577329864,49.44556689521972,175.684059883012,-104.1121501157632,47.30593183850004,62.98997186260984,-168.75832641182996,1.7780005322596195,1.402964282234051,-138.67366130013443,17.116926167568828,39.569487773448685
1.44,-123.8297141351108,49.91811865259638,175.58703188848574,-104.06129406490484,47.9628937372438,62.80052200473587,-168.7545725478071,1.820466301651144,1.4643729014021558,-138.4477411473312,17.27972980288664,39.82957789437274
1.45,-123.50443464418346,50.40199743485133,175.56945268070416,-103.62981027155126,47.8839150664245,62.77549708347103,-168.4455638829495,1.935514120176863,1.4687086402340654,-138.1645139750438,17.8210350574213,40.157471856352
1.46,-123.38646427014328,51.43336270708245,175.6700955552778,-103.51104408403349,48.84007661674165,62.34776628652178,-168.3866066256729,2.402608438785077,1.3829806559798583,-137.4507425594881,18.3631462386389,40.916573320925856
1.47,-123.105584588485,52.467657690367616,175.35986435339916,-103.20500162098898,49.81448530205549,62.11318992188669,-168.9231889502394,2.8166995713378973,1.6534308631081882,-136.76033320773666,19.17324159931235,41.54529318054516
1.48,-122.81161201951836,53.68918745511149,175.31182871210345,-103.0376578091464,50.81146236323486,61.71523887558693,-169.19727349946734,3.2604013550007727,1.7608074287458453,-135.99483298055787,19.8320144529079,42.34543507281307
1.49,-122.75196686465364,54.525656920087,175.03576799516208,-102.86071181072596,51.84890055805646,61.71249852461997,-169.43184283313815,3.807926047411416,2.058043567562481,-135.40662520151236,20.42605733744223,43.1902762470736
1.5,-122.73746612962478,55.735651946747815,174.9490007945067,-102.8181136817139,52.81137298743553,61.47540667280038,-169.8617153122722,4.216520841442654,2.135561316143276,-135.12348115018025,21.159817185516832,44.73891246742776
1.51,-122.52965007636963,56.56304885689331,174.66916753809647,-102.87283943438862,53.83443305168726,61.119976069717005,-170.21693443343975,4.932785625803209,2.5497075860093563,-134.68160497883028,21.917685922293416,45.588378209876346
1.52,-122.1251532900734,57.56520192514571,174.75767576983964,-102.77248649860952,54.96421862809325,60.74780892556287,-170.84771667903445,5.373462444048183,2.796355759007186,-134.46793998376535,22.539660519460995,47.14311074336657
1.53,-122.06675502112644,58.69620117739894,174.41098378639148,-102.7799929919714,56.145947816862446,60.38225235182249,-171.18396043409894,6.052653061219472,3.566174520426864,-133.88914361557042,23.476850857175265,48.69724812541118
1.54,-121.95249725207655,59.434430285595234,174.2960233957085,-102.83348669087805,57.28105731809131,60.36716307804206,-171.70129034044078,6.97543046524845,3.865090712756456,-133.5160234081493,24.33098719664845,50.391918716383024
1.55,-121.9771517260255,60.23593181773503,174.3150217558359,-102.78297249092849,58.42345576127205,59.840985003862926,-172.25628269680007,7.592645321077292,4.307714124695018,-133.4206628528675,25.24057219857741,52.46298159695726
1.56,-121.66594071084164,61.21576897453566,173.97832989981973,-102.90282246578396,59.49531409429901,59.567428590878535,-172.71177695415244,8.260004805718872,4.702868775451498,-133.04489981401136,26.26761789274257,54.656857454167394
1.57,-121.6107018941251,62.014104203491954,173.5756741383887,-102.80241142139997,60.5988239353569,59.18022813404312,-173.13662955421006,9.220930319563395,5.753952257874583,-132.52210579081495,27.06986407343772,56.876337383394784
1.58,-121.58497689500297,62.77248276591586,173.6404678068929,-102.81870561466528,61.99223099436284,58.53441850439275,-173.50235108238894,10.3241285655012,6.510898261560893,-131.7441067130479,28.282309389149425,58.95302251017269
1.59,-121.43282426762072,63.44986913697481,173.39100320221803,-102.62965062540584,62.92881231866978,58.0193293412886,-173.90578802718406,10.503613093027155,7.086917335763676,-131.0670888308716,29.80429147172547,61.28613364865606
1.6,-121.3654593148958,63.99230404283683,173.39556830224302,-102.65068727700726,63.74632113566591,57.72854821589048,-174.1366952710379,11.200417974681177,7.661282854248898,-130.4086706238556,30.527510891861,62.57987930637081
1.61,-121.46252708268896,64.80970271230414,173.14581121710594,-102.62453045457912,64.1204204273698,57.54403472234642,-174.4265199156643,11.56808024430044,8.117804953496869,-129.85533363701313,31.24196210419789,63.70098067795561
1.62,-121.14556744728384,65.76096258271646,172.880139510046,-102.5023743563427,65.47189857639694,56.95859207052827,-174.80817989282926,12.81429068082092,9.440494938816684,-128.7441437998432,32.906465067396894,66.05343711333687
1.63,-121.17474124370386,66.6044105361314,172.57743631613164,-102.57646662044075,66.31568758614323,56.44535186634113,-175.21819700414838,13.760358907011527,10.759451886965456,-127.66077984517024,34.36254021340283,68.69536500187117
1.64,-120.96349625034895,67.25554882077353,172.5996040828474,-102.76263376645169,67.45203881284218,55.6795034442324,-175.52654254830833,14.75162321481413,12.016833544973348,-126.54732081244994,35.718339127369454,68.6357635429544
1.65,-120.66564057658182,67.96155583820968,172.42488219638594,-102.795425807982,68.4339125900456,54.92187168569812,-175.82047641033603,16.055074224925765,13.607409303622866,-125.33673052545788,37.01621219054583,68.57162019474067
1.66,-120.70972606376868,68.15046878952829,172.63244669140573,-102.7374817108088,69.74186260375951,53.58572360538599,-175.90998485850486,17.06196920231644,15.323520598021464,-124.16398356168294,38.128678552569575,71.39551419800412
1.67,-120.28124122619955,68.80249449556975,172.52470564583538,-102.29049672796214,70.80506493951926,52.69875824203027,-176.22424316364177,17.902386256280103,17.083677369316955,-123.01822298663868,39.25542986635001,74.09821528433855
1.68,-120.20397755864896,69.61704960050172,172.517829416181,-102.31584688748092,71.83396330703245,51.323412777010205,-176.8754825880667,19.17533007838937,18.83208228269797,-121.63557752234168,40.66468032302691,77.02401027897983
1.69,-120.03022014605332,70.14416299963246,172.4391186690578,-102.17147594538248,73.22527864225236,49.54895135513164,-177.1684287442071,20.218559556681345,20.84626508800469,-120.33307287872564,41.73583803801254,79.91186501460852
1.7,-119.83587440402742,70.7249698242197,172.08384002561314,-102.052931947983,74.01641015725842,47.83212584093018,-177.63291035092684,21.548534150222167,22.797869290282662,-119.28140391317125,42.682620658150206,82.87106745388063
1.71,-119.84411958732046,71.09971896081461,172.27262678833145,-101.86912788284396,75.15215949156524,45.80663408484335,-177.88603087075072,22.55869245357192,24.861985446505145,-117.8885131688562,43.81991075940501,85.61227663729564
1.72,-119.55661054171884,71.52009792847525,172.4754090020163,-101.6363605120493,76.06106468151242,43.69954270112775,-178.29511030344,23.54304931419774,26.67241250547023,-116.07449273457468,44.82291736964165,88.42823469005445
1.73,-119.68071292610747,71.85567817624859,172.66436630123667,-101.45237463602535,76.99763327433513,40.81078937837013,-178.2613371213268,24.620957213790824,28.9807359634038,-114.57661120509484,46.32993401244284,91.38357231770333
1.74,-119.51896709971427,72.08816490817065,172.6346289159905,-101.31112178299654,78.07484264184565,37.5396070512547,-178.60573766800522,25.41279109098829,31.40673319276756,-112.99330322477464,47.067059974694594,94.12297877071848
1.75,-119.33766240165473,72.58550094243381,172.80626410924538,-100.91827477256436,78.96025030776306,34.64407565974825,-179.1392123346524,26.28398840009644,33.677310250831255,-111.52226288376713,48.37894258373863,97.36075889034336
1.76,-119.270536757545,72.64243842133638,172.8897751064565,-100.8291402863426,79.1581026078661,34.651021653087675,-179.2709987355365,26.981890046750134,34.62132014540516,-110.73251924014804,48.584482765803465,98.91601630940634
1.77,-119.17659058936178,72.8107153800497,172.96987820056938,-100.88882294413804,79.67410850702636,34.66306504543693,-179.62966712586933,27.54182516885959,35.93081085351464,-110.10018419189264,49.09156046555309,100.25306586434245
1.78,-118.9419837345812,73.29948922436002,173.1491214723402,-100.83416191960352,80.40767665438676,34.64972134198396,-179.7548367357241,28.34636523536092,38.23003576722562,-108.08924871618682,50.04388107674864,103.5616024749274
1.79,-118.9958121248472,73.61366461499401,173.17398270186158,-100.54444998588752,81.29379019970352,29.596339357386388,-180.22495082892885,29.390162001321077,40.717076823816384,-106.17520579456944,50.7772559390278,106.2777733700312
1.8,-118.99363495803183,73.81423297867023,173.3442165758915,-100.46980976697031,81.45759514575435,24.83081013520604,-180.20326372184556,30.41242857133249,43.060401757708014,-104.62655559300067,51.59807049899695,109.06654281988942
1.81,-118.80795989638276,74.21821770159926,173.25422385385502,-100.2496557124132,82.11262122232199,19.140428995690804,-180.3500364957073,31.43936520543874,45.6985846172464,-102.67191609849478,52.55620978471148,111.91058395114584
1.82,-118.94406797260297,74.50137995049394,173.4956885403874,-100.27232166518088,82.45997619794788,12.410306641830225,-179.99288444635226,32.218810114980045,47.84320303435102,-100.83031051120804,53.36901409431248,114.7105285799648
1.83,-118.65549549155104,74.66846737590512,173.49323319432017,-100.17532971257988,82.545769172744,6.532626179765712,-179.84334125467305,33.319482554653526,50.12295581160021,-98.95441019145689,54.31700333752968,117.04560512643206
1.84,-118.69082831422334,75.30672772909905,173.8103640856135,-100.10651689438424,82.51421206418098,0.6618144861469037,-179.63794649123722,34.468285564758524,52.25587946571038,-97.1812059522884,54.88161881867189,119.69138068582372
1.85,-118.60233359003504,75.65692989202603,173.95511173566626,-99.77268039181916,82.46537451491545,0.8354689544471295,-179.159759952439,35.24936963965785,54.365398389027504,-95.9309550052407,55.70031224032925,121.54989815803788
1.86,-118.40988254209194,75.74882016555264,174.01773597217272,-99.62086466596512,82.82047987382666,0.9624407592018156,-178.66783452990677,36.68705025413574,57.0322310099233,-94.35259982902994,56.29901732263322,123.84687342257166
1.87,-118.26749425532178,75.94464123291698,174.4956604814312,-99.56926027614703,82.73390935660477,-3.9627692338548552,-178.38104265059005,37.50824574676161,59.23422733703924,-92.9241957688435,56.99792770184404,125.78751439405453
1.88,-117.910986893228,76.35120434542436,174.64783342723578,-99.43978094608812,82.55223459035302,-7.485967187310122,-177.80191816871022,38.67847710585059,61.45528268801318,-91.87126897803114,57.35112616645273,127.63736677773166
1.89,-117.73423913683745,76.45522197052952,174.86604836751232,-99.54184417591856,82.54208804311176,-10.8400034631023,-177.2361965483023,39.48525319344101,63.27116025888769,-90.93945104581763,57.56543254127748,129.50543801140068
1.9,-117.6220062119062,76.60192166683308,175.30612949298714,-99.16704347174026,82.60723732567985,-14.554832731834578,-176.33708724160618,40.6524932448996,65.07803665825948,-90.3403749760914,58.301347397978375,131.21593513589198
1.91,-117.6605729807182,76.77275047115911,175.48480022391763,-99.04388627501991,82.21764116378291,-17.839584747220908,-175.5281606312866,41.437042191473374,66.79496251422157,-89.2510091679351,58.8196902190301,132.86130478108092
1.92,-117.3609855422285,76.83642134664697,175.67118625762237,-99.03798594199696,82.23926637552294,-19.767365745336463,-175.32009951454776,41.827194205043085,67.41719003702283,-88.7321604363467,59.09151298294731,133.88992643232913
1.93,-117.37771198583636,76.85637566651744,175.75137599139686,-98.80164144749692,82.28722664903283,-21.53787139545634,-175.00734552256472,42.26920012577732,68.47679229987236,-88.3001506511765,59.3513793844953,135.1225078626663
1.94,-117.26607312654164,77.16638565393447,175.99194841255652,-98.75800572213332,82.25531018393542,-24.28061169635262,-174.69819696281488,42.70386215323707,70.28476138832028,-87.65449674490053,59.50571219453716,137.04728208285965
1.95,-117.11185274798802,77.14656380596018,176.6178216752879,-98.75066295646958,82.25197813359519,-26.107682638291173,-174.4710927135022,43.1718537709913,72.2916468187976,-87.0179187977144,59.60537784565792,138.79324593258244
1.96,-116.78009913528868,77.43443882844319,176.87231022632054,-98.81023200533842,81.81868775442564,-27.821685238753933,-174.08670139441543,43.67062088370082,73.79618887339062,-86.08319939411606,59.53409469864382,140.54597068338228
1.97,-116.90343780916454,77.48932744206765,176.85104818269602,-98.65139105546976,82.01267085840294,-29.76945004335437,-173.7472026243416,43.95462061401796,75.63015351894742,-85.58892858144982,59.55843082895391,141.71560302274565
1.98,-116.68194299996485,77.69781464489446,176.99466958940866,-98.82861929037108,81.93527878021558,-32.60491122242279,-172.89015221868786,44.55676367848268,76.7723933065081,-85.38633076619591,59.624652394472896,143.10212308118076
1.99,-116.70639350739732,77.67525560379845,177.2249043405167,-98.79756367723016,81.85525970602868,-35.04117071476928,-172.5502067284764,45.02755494081418,78.35760668402986,-85.36051577806481,59.57822485320589,144.24741982739147
2.0,-116.64738931705855,77.62058615067183,177.5327911226794,-98.72876000839489,81.98722045433114,-36.274956389112354,-171.8077784147467,45.48464746301324,79.78115590616666,-85.12637734998107,58.996093135591686,145.8369627878876
2.01,-116.48936449869964,77.52237311394524,177.70754079755062,-98.68218369702758,81.8386922750091,-36.93351014287436,-171.27608649748134,45.96279136571696,81.2250449430184,-84.86571862867918,58.81433137596297,147.35824309339432
2.02,-116.4788041908472,77.5860078677971,177.69368126688744,-98.7960476216967,81.7753733435155,-38.7494172326286,-170.7949251548797,46.23087360249207,82.63680659801643,-84.79719827309678,58.50464860262335,148.6836015992348
2.03,-116.48879567411272,77.56384223902465,177.7743411425729,-98.6721417835497,81.8936177566871,-40.13760987541834,-170.57625969092425,46.15703841029833,84.2026577853358,-85.02673625206039,58.095091730872426,149.34655575102292
2.04,-116.59408059959684,77.34200887505706,177.8991837912019,-98.66018742482257,81.93749388621373,-40.371152348175904,-170.0816109162431,46.33107765933362,85.47072045720381,-85.48278784899162,57.62201001542255,149.92552916436424
2.05,-116.63861190044028,77.55368405988561,177.84278291539172,-98.64460015458356,81.93742272476894,-40.68551838100026,-169.52138749106487,46.25423550345408,86.82036669393241,-85.29525497704624,57.37452236331577,150.62102689448483
2.06,-116.6299107334257,77.63728897409382,178.17943547347164,-98.86912175259783,81.93250185355544,-41.34776700460392,-169.03359052134152,46.23650226271507,88.03969011811223,-85.71199870284939,57.08997059206626,150.84966422903366
2.07,-116.54760036882176,77.65695358260469,177.9296962625896,-98.91964760053165,82.04331678700784,-41.70365901423976,-168.29270135412162,46.352118860206666,89.5025268535801,-86.45897540165116,56.603414349174656,151.27888036243954
2.08,-116.4873893412446,77.5571263245044,177.8860418625446,-99.11460034182709,82.11292367119137,-42.36848315895551,-168.13221608037034,46.29922560481973,90.10243009514006,-86.89976851522302,56.09574557750204,151.17465630053056
2.09,-116.31105962388956,77.49293672893539,177.8544844378674,-99.2137444099386,81.97865656426917,-42.72280798287882,-167.5860601053091,46.37411304481666,90.80948897603074,-87.10125519875336,55.64640759523764,151.38878999504084
2.1,-116.601683072759,77.38692245053964,177.7310985799017,-98.89736579084216,82.12712695853315,-43.19232865571741,-167.05729534032866,46.45663378296742,92.3097390119371,-87.72634423186486,55.23784992658848,151.4848583658303
2.11,-116.61448458381132,77.3996406991726,177.72642298846375,-99.1847839502023,82.15118451813764,-43.31687886307109,-166.3812749360732,46.58528162098609,93.45187793978938,-88.36536932188247,54.65226995418624,151.8187059531035
2.12,-116.48907082170268,77.19151308635733,177.401613800654,-99.30430466551717,82.38019692535376,-43.92732846250151,-165.5007180731782,46.806971033410775,94.97299787266157,-89.35497443615519,54.23149526567871,152.08821986977907
2.13,-116.8312798740157,76.95066403033806,177.55028120065808,-99.38145447872245,82.27670352297805,-44.228348919265,-164.69478510577477,47.18205802728328,96.00654481763806,-89.68865956268782,53.77501464962509,151.91318263209135
2.14,-116.97402436333417,76.84176221202057,177.2131673842981,-99.29854187098202,82.32260209192341,-44.67852872634389,-163.8012252836796,47.42830722710372,96.75260847141148,-90.6338050994085,53.505351602923696,152.18466380933793
2.15,-116.96942656325278,76.67154405429586,177.04621598367495,-99.37609261707816,82.67063429081277,-44.1631171704827,-163.16685560598893,47.63443407978524,97.69169967526038,-91.44154950445628,53.51234384176398,151.91884798087546
2.16,-117.23231049911558,76.4861062260431,176.70356026386335,-99.49968511068327,82.68936468809355,-43.75892265656152,-162.61949651204645,47.33029447758302,98.5663756953858,-92.52277661644392,53.28381697811546,151.47952132607003
2.17,-117.54771427762644,76.40796547457474,176.63132840745988,-99.53067115046768,83.09751306977468,-43.53189773310214,-162.05175708481636,47.318863836292216,99.50584974521388,-93.14791485483627,53.31186849673256,151.48333147044957
2.18,-117.67816708356924,76.17628247409965,176.57980114237685,-99.6475120880678,83.20472344143764,-43.273483144692,-161.46838484222897,47.09683009853015,100.13255254032376,-93.99621734517018,53.44299745056067,151.55883327521997
2.19,-118.11237342009191,75.86969370151267,176.43525385758204,-99.79987875721191,83.04274276594894,-43.454703957207855,-161.0219808574776,46.84087693613504,100.86144774332708,-94.95135461766262,53.026607104787445,150.87816905809728
2.2,-118.0875420280152,75.7288135193961,176.4456021827453,-100.08369864276172,83.36971747032207,-43.26569092125021,-160.4379259923385,46.66612029995096,101.1622818735072,-96.0529541960082,53.03715446960845,150.44186700815783
2.21,-118.12847027303133,75.59691300850824,176.55942655648064,-100.3485503106427,83.1935756827235,-43.69443433984122,-160.1079044086711,46.52895049490302,101.55394565875302,-97.21265676995988,52.92234059721996,149.56124241488163
2.22,-118.26131738877376,75.38333964058847,176.55440011936764,-100.60598731951762,83.56690285595994,-43.49420435103572,-159.79864120361628,46.70924215811701,101.68680466751528,-98.93325725515388,52.66988821051165,148.85667933170848
2.23,-118.19564604343348,75.01440085015206,176.51492586022005,-100.9839229586742,83.64508543042186,-43.50792077538837,-159.3280002123948,46.11387237746289,101.91700662100442,-99.6430943810768,52.438465567288304,148.27513343913728
2.24,-118.4905272978009,75.08107352733325,176.60226256624782,-100.78084791200364,83.65945478625608,-43.356740708424894,-159.3822701758467,46.24451433666913,101.9757453642214,-100.36177599669487,52.553490275892784,148.03488442920258
2.25,-118.37975198779786,75.00032459098165,176.32315882589245,-100.8330578720094,83.78194149449794,-43.65856241789747,-159.11464786692665,45.88200048245797,102.1858864002776,-100.76260875289704,52.47468462010241,147.67343128693307
2.26,-118.5117346848075,74.62657440460073,176.18669669677257,-101.23136564285234,83.8345627680029,-43.64985349139271,-158.7524768648087,45.814940682016704,101.9687130422554,-102.19857743977816,52.630939178168575,146.83999036522388
2.27,-118.60035814387578,74.57942791617464,176.48957537284008,-101.54557377328274,84.06959777186067,-43.65899728268769,-158.55253800579797,45.714275285034375,102.0444553303546,-103.58998706700368,52.19151560160281,146.05825944540965
2.28,-119.05069718084572,74.25011548704208,176.35923909320908,-101.62117848127612,84.23354423612984,-43.65634943911004,-158.35121766286522,45.53246656340723,102.06349461809104,-104.72535099960557,52.19018392369134,144.81033852452686
2.29,-118.872745158406,74.09288360296068,176.38528805180692,-102.08831950728226,84.63502633721481,-43.70756895904199,-157.8275294598178,45.28226442160382,102.21683423781865,-106.61251909004972,51.84053433615871,143.66494632519002
2.3,-118.70161841441788,73.8092037018816,176.34302400187434,-102.2930755649256,84.83575254719466,-43.578137300355216,-157.98382105205994,45.36661392632753,102.01655250700504,-107.75296371384027,51.89683320155117,142.97986070028682
2.31,-118.79163419438842,73.59902463253054,176.206375475642,-102.42798617398844,84.855871107654,-43.900862426069175,-157.6767606611915,44.64503637681632,102.0225598038519,-108.66651302206712,51.906085675291415,141.93322113764785
2.32,-118.78783061364092,73.31389698015042,176.37972408278262,-102.37741570773228,85.03580775666606,-43.726121876524665,-157.92797984791667,44.10757084809493,102.06569772458488,-109.6398568700501,51.61989723818336,141.12081026959913
2.33,-118.87808839965062,73.20729802405079,176.48524299971135,-102.64556005885146,85.0859680120141,-43.89637355803986,-158.1454549536471,43.74579753521575,102.20910559935744,-111.1807592197524,51.52105100839669,140.3456384034927
2.34,-118.8286400468288,72.80833877014693,176.397383683508,-102.50742603358697,85.18810336054237,-43.84871026882317,-158.42899348808848,43.389650129238525,102.293519686406,-112.44778516414029,51.2414739261386,139.4266931687674
2.35,-118.82382391880908,72.85533835366385,176.23721137358578,-102.50252554351012,85.52310078435328,-43.91208104525583,-157.93890689451604,43.3286424028333,102.25077798898836,-113.263577353933,50.87536884722679,138.6703076979983
2.36,-118.86127775512246,72.51426019855765,176.5085646992831,-102.66463928645172,85.34541151610887,-44.01904215178543,-157.8063042218122,43.29932945431681,102.40668693490623,-114.4436571627503,50.47949411022648,137.94262435698926
2.37,-118.88481759369444,72.1867213687241,176.27024625300294,-102.80878035839446,85.53866761708095,-43.97275375924659,-157.13866323189427,43.59782861452639,102.37110314834946,-115.34782319982484,50.34185245232878,137.37982475155658
2.38,-119.05812790780882,72.03921392972647,176.17692104018823,-102.75388060442393,85.63524666038005,-43.789267808232935,-156.82848150378257,43.493972032238624,102.66756440275738,-115.9990486123228,50.30663981162439,136.96929905671485
2.39,-119.42685004231136,71.8185768013492,176.01535976897398,-102.68562338891633,85.52599581162764,-43.88846240767516,-156.6279695328979,43.573042607090166,102.89195890316712,-116.60130570195408,50.22511123585615,136.37180285685935
2.4,-119.34548499314312,71.78777754451467,176.23999973465934,-102.69779677237324,85.50339531672367,-43.78135222747631,-156.45515299023432,43.35911403498459,102.99510419522036,-117.34137467757192,50.13766060381674,136.20134865339287
2.41,-119.45922913017368,71.75433460619838,176.0774668326143,-102.88512801684227,85.47962162175448,-43.77971277240826,-156.7544696308823,43.118978433727726,102.94500797593608,-117.6293385954812,50.223637451152506,135.69941140094906
2.42,-119.6625228397783,71.41737557502648,176.02561722681534,-102.61771385247263,85.40571554987352,-43.84556836685679,-156.54056719434632,42.628899069030375,102.99061467639952,-118.44515939413304,49.731157811777365,135.25363505136056
2.43,-119.785277999865,71.33726777622603,176.04964165995992,-102.58200934629244,85.34026107028862,-43.80242140238635,-156.73225635990585,42.66033339337696,103.0646110205912,-119.27421896127882,49.71672723714217,134.8163832728765
2.44,-120.07096812104714,71.52965003757006,175.64602448496302,-102.48760528220774,84.93589412275612,-43.63149138283006,-156.31977192545955,42.31794733962301,103.11414674935756,-119.8099767713763,49.63202049039829,134.08471939534522
2.45,-120.0577741133676,71.18869776055516,175.6260928688285,-102.84351050349896,84.99819335376807,-43.767113503454745,-156.05375393306906,42.3732798592068,103.25832240422189,-121.10301313065472,49.23344314719367,133.20564378013398
2.46,-120.14365475866455,71.24857898928352,175.71410486477498,-102.87520631855412,84.76350311396442,-43.58755170293014,-156.1867412533108,42.24375553616495,103.589276660344,-122.12176354696835,48.944142568641965,132.6224525714267
2.47,-120.1641347833142,71.11651893892575,175.6889469873633,-103.02788819077658,84.46551320485366,-43.54031562734076,-155.8566821222588,41.807046351272845,103.35444633648736,-123.38623607091402,48.64507841342505,131.74189429776575
2.48,-120.27275465441755,70.72021226595479,175.63601289564818,-102.82671579873534,84.35518792706627,-43.389571738672686,-156.0836098851558,41.74833178771167,103.56793025407644,-124.53368194227208,48.46172347006813,131.21751670872555
2.49,-120.68660779474828,70.65170733500624,175.47753862801463,-103.11532272018748,84.13547178221002,-43.27169365738191,-156.1113179297837,41.57699756239592,103.52247834706442,-125.31777344740242,48.39570871514424,130.4490493024872
2.5,-120.68398304907448,70.53127480366172,175.2764449158485,-103.34004083884162,83.97562473934417,-43.40947336888492,-156.03404099320937,41.34548880111593,103.7333560753172,-126.04758743751306,48.16128778297333,130.30265892764362
2.51,-120.87445164040334,70.47014666962133,175.1402194684861,-103.19600565129964,83.770147367603,-43.05990789970073,-155.61384130856737,41.434261576821854,103.71517110840765,-126.8895529622052,47.95647150586466,129.8319272038533
2.52,-120.80916988151004,70.48286991899337,175.03916992457923,-103.14531812226606,83.76653698495123,-43.296811170160446,-154.8643277063056,41.86315002181739,103.9253097533581,-127.53713297457412,47.52446213181712,129.61242778524206
2.53,-120.9749623505564,70.04988215594578,174.9945590734892,-103.15785616221962,83.19268388359805,-43.01345830559405,-154.30082435617393,42.14764317272647,103.7287270158996,-128.41743814279994,47.52851097022206,128.9578439042781
2.54,-120.96826288184958,69.87887152744827,175.03784170428003,-103.2917185967404,83.10474307800162,-43.15287886637805,-154.10329784977952,42.19903143654483,104.01781633848604,-129.16900153619244,47.27257125971842,128.18082418518185
2.55,-121.0732699382512,69.78595795238543,174.8542193938471,-103.35616007462284,82.79895019681533,-41.71778630042586,-153.91415205256072,42.300064043998006,103.960171905715,-130.44672306457122,46.92143951587204,127.72959509671377
2.56,-120.90173596640392,69.64869404441681,174.82386133307742,-103.4409559616492,82.65456604995994,-40.34706573266989,-153.7514807557145,42.54659222042287,104.0249011821216,-130.6710181384435,46.926309880340256,127.54327499633165
2.57,-121.0636021588992,69.65046284118688,174.84789891562664,-103.30172177805817,82.44172841627177,-39.35542929454458,-153.59420571452793,42.36305037529684,104.22227523377566,-131.07537923997654,46.85432423399852,127.53996452768112
2.58,-120.87907965831198,69.40061373496593,174.94604148211516,-102.998735483941,82.15815698027076,-36.942398489825365,-153.36077384534696,42.380510079850325,104.12611116925582,-131.64119813382024,46.6800600273111,127.05142089132792
2.59,-120.9812031524676,69.14660377362632,174.87113652632846,-102.81366998479086,81.55985919273901,-35.07640383709783,-153.18292486152632,42.05799292310927,104.1379115449034,-131.9616375180266,46.70623440475028,126.8887677366365
2.6,-120.9187752002844,69.23977808404364,174.95024505027487,-102.93684555028618,81.48089678791423,-34.21914244330069,-153.84330123190728,41.067554398495815,104.2603524313235,-133.10264459859698,46.20720159295129,126.2482908650561
2.61,-121.08300521994444,69.13745291820271,174.81982966595115,-102.97539159767985,81.22074544721906,-33.701463050707495,-154.9052267684679,40.36541768596594,104.53602470282004,-134.2510223621475,45.74382219041334,125.64358682599205
2.62,-120.96584954015788,68.98687325381212,175.0598149473043,-102.80542061868212,80.67396292563933,-32.51102918618096,-154.64446390404066,40.61127310263711,104.46349964978644,-134.77186300604518,45.53069023783883,125.30326367637608
2.63,-121.10594992919582,68.89800025249406,175.0307279454234,-102.593825629087,80.23188252330507,-31.48330051072696,-154.112183364142,40.95336021800658,104.2243285482786,-135.716435923193,45.09867513713718,125.0022278903523
2.64,-121.3995169569894,68.69707634837998,174.9999076069517,-102.6269769631146,80.12365529136362,-31.13015075513016,-154.02657637598352,41.15582485119207,104.21384678573123,-136.57805027540047,44.8086900352819,124.74715497455554
2.65,-121.38203183566168,68.69972094413001,174.85672967193088,-102.6544244088184,79.80667369121412,-30.52472099745079,-154.30761232050932,41.19595235504546,104.50366883107634,-137.58331517969626,43.761490663955705,124.3502622219711
2.66,-121.18840452133917,68.45516892437513,174.93376240980328,-102.74664249057372,79.39270372927454,-30.233440194068493,-154.5182488088444,41.23427440767429,104.44492240819756,-138.09830403336994,43.50713970934043,124.17190301528416
2.67,-121.2683549137788,68.4585155798152,174.96942779855672,-102.2049069991345,79.12861918763937,-29.52392212077279,-154.543649616349,40.91127139608973,104.5500444306138,-137.9787829122356,43.87843331830543,123.78713365585108
2.68,-121.42198357797857,68.2733665899958,174.91516691125275,-102.17072429853177,78.90539865814732,-29.517768865254787,-154.6923940960732,41.11768675518176,104.5095739547822,-138.04374869741764,44.031712971435205,123.9607576957892
2.69,-121.4704679527772,68.11929556991096,174.80088401264183,-102.3556003205459,79.00520228078057,-29.558597287291292,-154.4084779511276,40.8532947363542,104.43155009794933,-138.85681672040968,43.65737675013513,123.8331357887694
2.7,-121.79279345353208,68.08014453479277,174.54309714252256,-102.25966708142202,78.83919011172935,-29.342807821914388,-155.0115474829311,41.06448886747338,104.55659600988312,-139.49767250002444,42.84492169342998,123.83595035654017
2.71,-121.91191271527718,67.83223604290092,174.60963767595806,-101.83032923101554,78.00623796469054,-28.440808753494,-155.1346332770097,41.091113074858775,104.34269259783431,-139.33901177915163,43.304082367002735,123.92021879978272
2.72,-121.71727894711825,67.9477406657318,174.72901109532788,-101.95428421637902,77.99981086479612,-28.47273830240868,-154.86374841794049,41.08528083731524,104.26059341748794,-139.28925559888765,43.456756507485615,123.78943791366864
2.73,-121.71835853907082,68.02917127504514,174.98757968846348,-102.03498530495132,78.17051899051867,-28.41382887824096,-154.92117808869895,41.26948046595613,104.15547643097436,-139.32644848318913,43.42428410432115,123.88155942414282
2.74,-121.61435816364867,67.82736703052471,174.9404324454526,-102.18264712767862,78.26538838690469,-28.64678691275492,-154.64272837854296,41.43801184758252,104.17005460922375,-139.56031462401126,43.405441821326384,123.60321891546572
2.75,-122.17226007889164,67.54978296567641,174.73492997169072,-102.03604334488564,77.86066379968487,-28.314964096386987,-153.91440104878603,41.99280768815455,104.09516251602896,-140.17059056362626,42.9286541572494,123.51441875925772
2.76,-121.98699839365912,67.40514016300358,174.49178700741444,-102.25467233376266,77.92386740326366,-27.99715223226396,-154.5145298209158,41.69689912346505,104.20375757074646,-139.69153354049112,43.09443901126172,123.87271385758832
2.77,-122.19259314859468,67.262480636394,174.58291646770738,-101.98792444893982,77.65365761401613,-27.618643871814964,-154.5961124786567,41.41130867171426,104.35608845036516,-139.51987818988042,43.71671974193321,123.953086286265
2.78,-122.08051691602992,67.27577102861534,174.73547676515597,-102.23779417586752,77.58842797462638,-27.46977655844892,-154.70555411427137,41.35644273905072,104.31659109854225,-139.90144427660246,43.54747553180797,123.69042070442724
2.79,-122.47075921160172,67.34535994866435,174.69316200577106,-102.16606762550713,77.38110040705655,-27.1442335725184,-154.21478919294492,41.699535777248286,104.18837268664628,-140.3500709175713,43.15867224789364,123.75885167880789
2.8,-122.5784658615304,67.31482097014634,174.40725890286595,-102.16311207147356,77.20168438700574,-27.09707669040532,-153.98076991012684,41.78385559080853,104.29031105336928,-140.8118593182318,43.00525045827171,123.33071670594296
2.81,-122.57178811596236,67.23883763645777,174.36881296476088,-102.2110335280713,76.81354551309043,-26.843181140986104,-154.3400167133812,41.68604487445506,104.02840170615288,-140.6673952356821,43.18539006938056,123.40887181325898
2.82,-122.76614843474547,67.04036046537972,174.30130440249332,-102.64700012872044,77.27144401668255,-26.390481899656898,-154.14694763766389,41.88382000418957,103.89309428983086,-140.57353568125328,43.41444579899175,123.29146684249692
2.83,-122.91484410364488,66.98058594984677,174.32275103062295,-102.60393675259746,76.94394830716979,-25.893089047349857,-154.12417557501635,42.15937943786285,104.05741533216651,-141.28754411465982,43.35742349382636,123.10972512170068
2.84,-122.8172409975541,67.08697412094013,174.34142715986022,-102.54064479411204,76.79334288213431,-25.560244118742396,-153.90222798066472,42.4405937011956,103.9174510922131,-141.538824068229,42.851214919438455,122.78103896336091
2.85,-122.97974105973042,67.04723075519847,174.5104685367887,-102.726306739308,76.83452746730693,-25.60169542163269,-154.23301605818727,42.11995925048714,103.8878837494278,-141.37381964665246,43.0648861828973,122.91405114243544
2.86,-123.02803380511914,66.92478073161753,174.29314291770442,-102.83647037761864,76.75366193831886,-25.470737340020808,-154.29825012403745,42.02064933247996,103.76122598095752,-140.9518612691259,43.48067294890016,123.3025053326928
2.87,-123.05500630634178,66.80023168530313,174.1649962347246,-102.7874652076811,76.98390566872634,-25.01026646998127,-154.4820490997735,42.07636697393141,103.85414789510112,-140.77026623286582,43.56320637758158,123.48596944316353
2.88,-123.1142220688213,66.94432948735563,174.14548822409702,-102.89529733142464,76.6722360869165,-25.19271177308237,-154.6276057734782,42.02660413599077,103.85356762913672,-141.02199693377185,43.60834981237141,123.2215640591432
2.89,-123.26688415643058,67.01027594666586,174.20176613087912,-102.81546583164749,76.74921654460455,-24.984382502222022,-154.60850290720506,42.05683418968139,103.91828723688288,-141.22820046383896,43.2591051413529,123.2674025757806
2.9,-123.30827291507728,66.9412498348299,174.36914508969542,-103.01217554712947,76.91326960885878,-25.087787046838944,-154.43470314902967,42.13562138351755,103.709274478733,-141.36147162645213,43.04872309531256,122.958117105532
2.91,-123.5404209920584,66.75764493979929,173.96410667356832,-103.22162103667858,76.70046614444755,-25.00351989879856,-154.00076365823836,42.39409328870041,103.75254449503642,-141.3773458027623,43.10120149573793,123.24140495423568
2.92,-123.59754008205924,66.53944680468251,174.1368583658212,-103.42055634945004,76.62918376986245,-25.35133200544225,-154.36056485511472,42.55926158439928,103.86264151117253,-141.1085348753905,43.05443089017215,123.34318771592648
2.93,-123.50023168681052,66.98252234672866,174.1103328874673,-103.2433997032402,76.59097174968977,-25.26894426773186,-154.57233677509157,42.42992052862594,103.55790722962516,-141.030280114179,43.21568412760856,123.28370696941376
2.94,-123.74283762230203,66.7369437618489,174.10128531934532,-103.3227471595499,76.6375836426357,-25.191679927522976,-154.61538233960877,42.261740945662766,103.72581253405376,-141.53551490622905,43.09735178802629,123.22882953310678
2.95,-123.6174981629705,66.80313994485712,174.0831988227194,-103.3146149722934,76.43907463650208,-25.32768559053893,-154.7555770574052,42.39445093043132,103.65003690752428,-141.31006980355585,43.15378533988039,123.28855040237003
2.96,-123.57310655713022,66.88954686218737,173.85480806831748,-103.55278365877324,76.6174718358539,-24.90363246791805,-154.29041043299418,42.35839618088382,103.46706283424388,-141.73260059295384,43.10317925371107,123.3440872734614
2.97,-123.74883584403612,66.94091400339373,174.13913192292003,-103.5783115630343,76.6226647096083,-25.254145139395817,-154.3408724695404,42.52036440959512,103.66226475789112,-141.67824574217497,42.93139924273169,123.36055256252654
2.98,-123.63738440432977,66.875844072078,173.99447505900244,-103.58391011918356,76.52275057084906,-25.16108851976597,-154.50994353875618,42.67572074815975,103.45466885825644,-141.94279516021862,42.94760686161601,123.24859357484408
2.99,-123.51395201653229,66.83621114165601,174.11466750100104,-103.37054965089564,76.5285352447411,-25.369608823506905,-154.75390432386368,42.47177975428245,103.29868501509642,-141.9848769951947,42.65751575292929,123.3778396771893
