0.01,-42.73,47.77,169.79,0.16,0.38,0.04,1.06,0.27,0.18,-92.72,2.76,174.5,0.06,0.26,0.16,0.54,0.6,2.18,-212.75,9.44,6.65,0.11,-0.06,0.05,0.15,0.48,2.63,-155.13,21.3,12.57,0.52,0.09,0.78,0.35,0.59,1.41
0.02,-42.33,48.92,169.69,0.03,0.26,0.08,0.97,0.33,0.23,-92.44,2.89,174.36,0.16,-0.01,0.2,0.63,0.79,1.87,-212.4,9.16,7.01,0.03,0.08,0.08,0.35,0.49,2.22,-154.93,21.06,12.98,0.37,-0.1,0.75,0.27,0.62,1.58
0.03,-42.08,50.08,169.53,-0.05,0.45,0.25,1.3,0.18,0.01,-92.12,2.83,174.11,0.1,0.36,0.09,0.59,0.51,1.75,-211.92,9.15,7.21,0.21,-0.01,0.09,0.43,0.48,2.23,-154.94,21.16,13.37,0.59,0.08,0.71,0.46,0.58,1.7
0.04,-41.85,51.27,169.93,-0.01,0.46,0.17,1.21,0.09,0.34,-92.05,3.11,173.83,0.24,0.2,-0.01,0.59,0.59,1.71,-211.65,9.06,7.21,0.18,0.13,0.23,0.2,0.42,1.88,-154.98,21.17,13.72,0.6,0.12,0.55,0.71,0.81,1.79
0.05,-41.71,52.37,169.7,0.08,0.77,-0.03,1.37,0.21,0.2,-92.01,3.01,173.59,0.03,0.05,0.25,0.69,0.26,1.76,-211.1,8.64,7.23,0.16,0.12,0.26,0.34,0.39,1.97,-154.83,21.11,14.37,0.43,0.08,0.24,0.75,0.83,2.03
0.06,-41.6,53.35,169.7,0.09,0.54,0.11,1.4,0.03,0.51,-91.7,3.05,173.61,0.11,0.24,0.15,0.69,0.55,1.64,-210.79,8.64,7.15,0.26,0.2,0.31,0.3,0.67,1.86,-154.76,21.07,14.78,0.44,0.13,0.34,0.67,1.13,1.98
0.07,-41.37,54.09,169.84,0.11,0.48,-0.01,1.44,0.11,0.28,-91.56,3.0,173.37,0.13,0.16,-0.01,0.77,0.52,1.47,-210.48,8.54,7.37,0.08,0.13,0.17,0.37,0.69,1.72,-154.97,21.18,15.36,0.5,-0.05,0.34,0.82,1.11,2.0
0.08,-41.04,54.72,169.75,-0.03,0.54,0.2,1.39,0.11,0.28,-91.46,2.98,173.29,0.37,0.25,-0.03,0.65,0.4,1.45,-210.35,8.48,7.24,0.17,0.16,0.41,0.4,0.73,1.76,-154.96,21.1,15.98,0.46,0.33,0.42,0.98,1.29,2.46
0.09,-40.65,55.36,169.89,0.01,0.7,-0.03,1.43,0.11,0.45,-91.16,2.84,173.19,0.22,0.29,0.05,0.83,0.43,1.17,-210.1,8.28,7.11,0.3,0.4,0.2,0.63,0.91,1.82,-155.44,20.93,16.5,0.56,0.29,0.26,0.67,1.57,2.36
0.1,-40.53,55.72,170.06,0.12,0.58,0.1,1.5,0.14,0.44,-91.02,2.72,173.12,0.11,0.35,0.06,0.61,0.47,1.05,-210.29,8.13,6.83,0.08,0.0,0.28,0.56,0.97,1.9,-155.77,20.74,17.36,0.61,0.32,0.42,0.92,1.72,2.49
0.11,-40.34,55.86,170.18,0.15,0.35,-0.19,1.32,0.26,0.43,-91.06,2.86,173.02,0.3,0.06,0.18,0.45,0.29,1.08,-210.27,8.11,6.32,0.34,0.22,0.35,0.63,1.15,1.77,-155.92,20.61,18.03,0.44,0.16,0.43,0.91,1.69,2.14
0.12,-40.0,55.96,170.31,0.04,0.34,0.24,1.31,0.27,0.56,-90.92,2.82,172.82,0.18,0.11,-0.03,0.52,0.32,1.03,-210.77,8.24,5.78,0.15,0.22,0.44,0.76,1.25,1.91,-156.4,20.88,18.89,0.57,0.19,0.45,0.95,2.06,2.27
0.13,-39.76,56.38,170.39,0.02,0.19,0.1,1.24,0.03,0.33,-90.77,2.5,172.95,0.1,0.16,-0.05,0.56,0.35,0.73,-210.95,8.26,5.32,0.26,0.2,0.5,0.82,1.16,1.83,-156.61,20.91,19.64,0.54,0.33,0.58,0.9,2.04,2.28
0.14,-39.52,56.25,170.42,0.13,0.2,-0.01,1.38,0.12,0.06,-90.85,2.69,173.0,-0.11,0.14,0.15,0.61,0.39,0.87,-211.51,8.06,4.93,0.5,0.06,0.52,0.92,1.17,1.75,-156.99,20.74,20.39,0.35,0.24,0.61,0.87,2.14,1.99
0.15,-39.34,56.31,170.58,0.18,-0.0,-0.13,1.17,0.21,0.25,-90.59,2.7,172.8,-0.03,0.17,0.04,0.43,0.35,0.47,-212.28,8.37,4.31,0.42,0.11,0.53,0.9,1.14,1.74,-157.39,21.02,21.36,0.51,0.28,0.72,0.94,2.11,1.87
0.16,-38.85,56.42,171.03,0.17,0.04,0.15,0.77,0.17,0.07,-90.6,2.68,172.96,0.14,0.11,0.08,0.36,0.37,0.53,-213.92,8.64,3.0,0.64,0.25,0.57,1.17,1.12,1.7,-157.95,21.2,22.56,0.6,0.01,0.66,0.96,2.1,1.45
0.17,-38.66,56.06,171.05,-0.04,-0.07,-0.05,0.8,-0.06,0.17,-90.59,2.62,172.98,-0.21,0.08,-0.11,0.39,0.46,0.16,-214.94,8.77,2.37,0.66,0.21,0.41,1.38,0.88,1.6,-158.05,21.55,23.21,0.5,0.32,0.93,0.86,2.13,1.16
0.18,-38.48,56.24,171.14,0.04,-0.06,0.11,0.7,0.07,0.19,-90.76,2.78,172.96,-0.08,0.14,0.02,0.14,0.26,0.27,-215.57,8.83,1.81,0.58,0.24,0.43,1.29,1.01,1.34,-158.39,22.1,24.13,0.73,0.41,0.52,0.98,2.19,1.0
0.19,-38.11,56.24,171.42,0.06,0.08,-0.05,0.68,0.18,0.24,-90.69,2.73,173.13,0.05,0.09,0.01,0.26,0.36,0.09,-216.67,9.2,1.3,0.64,0.16,0.57,1.32,0.7,1.1,-158.38,22.56,24.85,0.65,0.24,0.56,0.93,2.02,0.77
0.2,-38.15,56.17,171.48,-0.12,-0.01,0.01,0.62,0.21,0.17,-90.88,3.0,173.21,0.09,-0.06,0.08,0.2,0.25,0.13,-217.65,9.06,1.02,0.3,-0.02,0.59,1.15,0.73,1.02,-158.32,23.04,25.56,0.59,0.29,0.72,1.11,2.24,0.47
0.21,-37.98,56.17,171.4,0.13,-0.07,-0.02,0.48,0.07,0.1,-90.85,3.19,173.2,0.3,0.13,0.15,0.09,0.19,0.4,-218.67,9.35,0.68,0.45,0.1,0.45,1.28,0.94,0.9,-158.36,23.53,26.4,0.5,0.36,0.77,1.27,1.97,0.65
0.22,-38.01,56.07,171.41,0.09,-0.03,0.12,0.52,0.14,-0.06,-90.83,3.2,173.21,-0.05,0.08,0.09,0.3,0.35,0.09,-219.4,9.21,0.46,0.48,0.07,0.59,1.32,0.7,0.82,-158.43,23.99,27.26,0.66,0.43,0.73,1.08,1.99,0.69
0.23,-37.77,56.2,171.31,0.11,0.04,-0.01,0.47,0.13,0.26,-91.28,3.21,173.4,0.18,0.23,0.14,0.19,0.29,0.17,-220.41,9.5,0.43,0.26,0.19,0.47,1.29,0.57,0.57,-158.26,24.87,28.19,0.76,0.43,0.73,1.32,2.12,0.79
0.24,-37.86,56.33,171.5,0.15,0.14,-0.05,0.25,0.14,0.19,-91.29,3.34,173.43,0.09,0.24,0.11,0.28,0.35,0.17,-220.79,9.16,0.45,0.46,0.22,0.46,1.18,0.6,0.62,-158.02,25.48,29.11,0.69,0.31,0.78,1.33,2.04,0.69
0.25,-37.84,56.61,171.2,0.08,0.09,0.09,0.19,-0.04,0.28,-91.01,3.41,173.36,0.07,0.06,0.08,0.39,0.25,0.26,-221.31,9.03,0.18,0.26,0.3,0.33,0.95,0.94,0.43,-157.79,25.98,29.94,0.96,0.7,0.68,1.61,2.22,0.74
0.26,-37.92,56.56,171.34,0.3,-0.07,-0.13,0.22,0.08,0.23,-91.08,3.62,173.47,0.0,-0.11,0.11,0.26,0.32,0.5,-222.01,8.85,0.56,0.26,0.27,0.42,1.11,0.83,0.55,-157.63,26.49,30.95,0.77,0.69,0.9,1.73,2.19,0.79
0.27,-38.07,56.67,171.25,-0.02,0.23,0.04,0.17,-0.0,0.17,-91.38,3.75,173.55,0.03,0.16,0.07,0.31,0.31,0.4,-222.32,8.92,0.68,0.26,0.1,0.53,1.0,1.03,0.58,-157.24,27.38,31.82,0.9,0.48,0.86,1.61,2.18,1.07
0.28,-38.37,57.04,170.99,-0.05,0.14,0.01,0.15,0.15,0.06,-91.44,3.65,173.48,0.01,0.07,0.13,0.25,0.53,0.81,-222.56,8.49,0.99,0.11,0.27,0.45,0.83,1.22,0.62,-157.07,27.93,32.88,0.9,0.71,0.7,1.69,2.03,1.22
0.29,-38.45,57.15,170.88,0.14,0.12,0.24,0.2,0.16,0.14,-91.54,3.76,173.35,0.19,0.18,0.07,0.53,0.11,1.01,-223.01,8.45,1.51,0.16,-0.01,0.46,0.94,1.28,0.62,-156.84,28.64,33.63,0.92,0.5,0.76,1.84,2.06,1.41
0.3,-38.54,57.18,170.82,-0.02,0.13,0.05,0.12,0.28,0.18,-91.66,3.98,173.43,0.07,0.05,0.06,0.41,0.35,0.82,-223.03,8.27,1.6,0.16,0.04,0.4,1.14,1.27,0.65,-156.33,29.02,34.39,0.85,0.5,0.74,1.78,2.14,1.41
0.31,-38.72,57.89,170.61,-0.02,0.08,-0.03,0.77,0.11,0.3,-91.68,4.02,173.41,-0.1,0.16,-0.11,0.26,0.07,1.2,-223.25,8.08,2.24,0.37,0.0,0.15,0.92,1.46,0.92,-155.58,29.81,36.12,0.81,0.64,0.85,1.96,1.85,1.53
0.32,-38.95,58.06,170.46,-0.08,0.03,0.11,0.39,0.09,0.34,-91.62,4.06,173.26,0.08,0.15,0.07,0.5,0.35,1.37,-223.36,7.89,2.25,0.21,0.17,0.19,0.86,1.44,1.3,-155.25,30.01,36.51,0.74,0.59,0.6,1.98,1.83,1.97
0.33,-38.86,58.37,170.66,-0.24,0.05,0.04,0.83,0.06,0.14,-91.65,4.61,173.31,0.09,0.15,0.07,0.64,0.46,1.49,-223.51,7.67,2.54,0.13,0.05,0.46,0.79,1.16,1.49,-154.94,30.26,37.16,0.57,0.32,0.7,1.92,1.67,1.84
0.34,-39.05,58.52,170.29,0.12,0.14,0.14,0.9,0.18,0.37,-91.98,4.6,173.38,-0.0,0.22,0.04,0.57,0.34,1.74,-223.52,7.84,2.72,0.11,0.13,0.44,1.0,1.26,1.57,-154.51,30.31,37.6,0.61,0.43,0.66,2.03,1.75,2.01
0.35,-38.93,58.67,170.24,-0.06,-0.03,0.1,0.99,-0.08,0.11,-92.02,5.05,173.32,-0.09,0.2,-0.08,0.58,0.44,1.93,-223.64,7.89,2.47,0.09,0.19,0.32,0.68,1.03,1.78,-154.52,30.63,38.07,0.49,0.12,0.67,1.98,1.45,2.05
0.36,-39.04,58.81,170.13,-0.06,0.17,0.01,1.04,0.12,0.12,-92.02,5.4,173.37,0.04,0.35,0.08,0.58,0.36,1.71,-223.92,7.79,2.62,0.17,0.04,0.12,0.79,0.89,1.78,-154.22,30.52,38.57,0.43,0.3,0.46,1.97,1.32,2.11
0.37,-38.98,58.91,170.09,-0.01,0.08,-0.07,1.45,0.15,0.32,-91.98,5.96,173.08,-0.03,0.26,-0.1,0.83,0.21,1.6,-224.22,7.93,2.44,0.23,0.16,0.5,0.96,0.81,1.9,-154.0,30.57,39.15,0.4,0.32,0.25,1.69,1.17,2.21
0.38,-39.03,58.86,170.06,0.14,0.11,0.05,1.52,0.07,0.31,-92.04,6.28,173.12,-0.05,0.6,-0.04,0.57,0.23,1.64,-224.34,7.88,2.44,0.01,0.12,0.3,1.05,0.75,2.19,-153.88,30.64,39.57,0.23,0.11,0.28,1.87,0.89,2.09
0.39,-39.34,58.3,169.97,0.1,0.05,0.22,1.55,0.18,0.34,-92.21,7.01,173.08,0.09,0.37,0.22,0.57,0.28,1.39,-224.68,7.93,2.18,0.18,0.23,0.23,0.69,0.51,2.15,-154.1,30.72,39.95,0.29,0.26,0.27,1.55,0.96,2.03
0.4,-39.37,58.23,169.63,-0.08,0.49,0.07,1.61,0.13,0.42,-91.88,7.58,173.12,0.05,0.66,0.11,0.64,0.33,1.29,-224.94,8.12,1.88,0.09,0.02,0.23,0.79,0.45,2.03,-154.01,30.62,40.14,0.48,0.23,0.3,1.47,1.0,2.02
0.41,-39.57,57.66,169.74,0.07,0.22,0.09,1.51,0.19,0.32,-92.26,8.62,173.0,-0.2,0.6,0.0,0.62,0.14,1.27,-225.27,8.24,1.71,0.15,0.05,0.31,0.69,0.42,2.11,-153.77,30.58,40.67,0.24,0.24,0.32,1.52,0.94,1.97
0.42,-39.77,57.29,169.57,-0.09,0.47,0.16,1.43,0.1,0.27,-92.19,9.46,173.04,0.07,0.8,0.05,0.71,0.18,1.09,-225.6,8.3,1.38,0.5,0.07,-0.09,0.71,0.39,2.09,-153.89,30.74,41.07,0.23,0.08,0.25,1.35,1.03,1.82
0.43,-40.14,56.69,169.19,0.17,0.51,0.06,1.45,0.25,0.48,-92.26,10.39,173.09,0.1,1.02,0.01,0.58,0.12,0.87,-225.9,8.54,1.34,0.26,-0.04,0.23,0.41,0.16,1.77,-153.83,30.81,41.46,0.43,0.08,0.03,1.05,0.76,1.67
0.44,-40.34,56.04,169.48,0.18,0.62,0.13,1.42,0.04,0.3,-92.25,11.81,173.18,0.0,0.84,0.11,0.65,0.21,0.61,-226.22,8.8,1.13,0.25,-0.01,0.09,0.52,0.1,1.8,-153.78,31.08,41.76,0.31,0.2,0.08,0.86,0.65,1.65
0.45,-40.69,55.15,169.13,-0.03,0.63,0.01,1.22,0.21,0.63,-92.26,12.95,173.12,-0.1,0.94,-0.06,0.64,0.21,0.56,-226.68,8.75,0.84,0.2,0.11,0.07,0.36,0.28,1.62,-154.01,31.19,42.32,0.32,0.26,0.17,0.71,0.62,1.56
0.46,-41.46,53.88,168.62,-0.01,0.86,-0.08,1.07,-0.01,0.43,-92.05,15.37,173.35,0.15,1.1,0.15,0.69,0.32,0.26,-227.36,9.11,0.55,0.06,0.19,0.17,0.41,0.21,1.23,-153.87,31.37,43.25,0.34,-0.01,0.18,0.78,0.73,1.26
0.47,-42.05,53.38,168.6,0.11,0.61,0.1,1.06,0.06,0.31,-92.14,16.83,173.33,0.04,1.19,0.09,0.67,0.22,0.21,-227.54,9.15,0.32,0.43,0.18,0.16,0.38,0.14,0.83,-153.97,31.71,43.68,0.22,0.14,0.15,0.59,0.59,1.07
0.48,-42.66,52.86,168.36,0.14,0.89,0.05,0.96,0.09,0.36,-92.17,18.32,173.41,-0.01,1.1,0.05,0.79,0.13,-0.01,-227.82,9.47,0.48,0.12,0.24,0.29,0.57,0.14,0.56,-154.24,31.76,44.35,0.26,0.19,0.12,0.56,0.71,0.67
0.49,-42.94,52.72,167.94,0.07,0.88,0.01,0.92,-0.03,0.36,-91.99,19.54,173.57,0.13,1.17,0.02,0.82,0.11,0.02,-228.15,9.62,0.37,0.21,0.17,0.26,0.4,0.09,0.61,-154.03,32.04,44.86,0.2,0.22,0.34,0.42,0.74,0.79
0.5,-43.5,52.45,167.75,0.13,0.92,0.01,0.79,0.14,0.68,-91.91,21.24,173.59,0.1,1.35,0.21,0.58,0.15,0.04,-228.42,9.85,0.33,-0.01,0.15,0.21,0.45,0.18,0.25,-154.13,32.02,45.53,0.27,0.21,0.23,0.34,0.85,0.5
0.51,-44.16,52.55,167.13,0.37,0.85,0.14,0.78,0.11,0.38,-91.9,22.72,173.93,0.16,1.41,0.07,0.76,0.23,0.15,-228.88,9.99,0.16,0.12,0.09,0.28,0.28,0.12,0.25,-154.66,32.37,46.02,0.34,0.31,0.16,0.25,0.59,0.47
0.52,-44.26,52.85,167.13,0.09,0.9,0.18,0.47,0.11,0.67,-91.68,24.08,173.99,0.25,1.53,0.14,0.66,0.18,0.09,-229.09,9.92,0.24,0.19,0.06,0.21,0.4,0.21,0.14,-154.52,32.7,46.7,0.34,0.21,0.42,0.45,0.64,0.51
0.53,-44.69,53.23,166.78,0.25,0.87,0.04,0.48,0.19,0.31,-91.63,25.52,174.09,0.09,1.43,0.21,0.74,0.26,0.3,-229.34,10.02,0.24,0.07,0.26,0.18,0.32,0.08,0.0,-154.91,32.94,47.39,0.34,0.16,0.29,0.28,0.56,0.17
0.54,-44.91,53.91,166.46,0.12,0.93,0.14,0.58,0.15,0.58,-91.27,27.1,174.06,-0.07,1.35,0.15,0.46,0.25,0.14,-229.59,10.18,0.43,0.07,0.09,0.05,0.32,0.27,-0.11,-155.08,32.85,48.16,0.26,0.34,0.09,0.38,0.67,0.36
0.55,-45.23,55.0,165.84,0.17,1.03,-0.12,0.58,0.14,0.75,-91.33,28.5,174.35,0.23,1.32,0.11,0.47,0.18,0.19,-229.67,10.02,0.2,0.16,0.14,0.03,0.37,0.19,-0.04,-155.16,33.19,48.87,0.3,0.3,0.34,0.36,0.57,0.25
0.56,-45.78,55.92,165.32,0.22,1.08,-0.02,0.55,-0.01,0.59,-91.22,30.25,174.3,0.05,1.47,0.25,0.5,0.21,-0.05,-230.09,10.27,0.36,0.27,0.15,0.0,0.38,0.35,-0.16,-155.47,33.38,49.8,0.37,0.4,0.44,0.19,0.35,0.13
0.57,-45.86,57.0,164.65,0.07,0.93,0.11,0.3,0.07,0.86,-91.23,31.67,174.59,0.03,1.37,0.23,0.45,0.32,0.42,-229.99,10.41,0.46,-0.07,0.06,0.27,0.35,0.4,-0.02,-155.55,33.72,50.41,0.33,0.25,0.39,0.31,0.67,0.18
0.58,-45.94,58.33,163.91,-0.02,1.09,-0.07,0.35,0.34,0.91,-91.02,33.25,174.89,0.08,1.44,0.38,0.52,0.17,0.01,-230.39,10.53,0.34,-0.06,0.19,0.02,0.33,0.25,0.21,-155.78,33.76,51.35,0.21,0.42,0.13,0.28,0.54,0.13
0.59,-46.02,59.7,163.11,0.11,0.97,0.16,0.43,0.13,0.88,-90.96,34.79,174.92,0.26,1.47,0.06,0.3,0.22,0.51,-230.52,10.77,0.32,0.13,0.21,0.27,0.24,0.38,0.38,-155.6,33.91,51.86,0.41,0.33,0.29,0.47,0.4,0.21
0.6,-46.28,61.11,162.49,0.1,0.98,0.04,0.36,0.1,0.76,-90.94,36.35,175.06,0.17,1.49,-0.03,0.36,0.07,0.37,-230.54,10.8,0.42,0.29,0.1,0.1,0.35,0.41,0.36,-155.75,34.3,52.95,0.43,0.16,0.38,0.34,0.44,0.24
0.61,-46.44,63.81,160.25,-0.02,0.99,0.02,0.27,0.12,1.14,-91.0,39.45,175.55,0.33,1.46,0.14,0.21,0.18,0.49,-230.91,10.91,0.74,0.19,0.14,0.02,0.36,0.49,0.59,-155.91,34.9,54.65,0.49,0.29,0.02,0.34,0.44,0.35
0.62,-46.65,65.21,159.08,0.18,1.23,0.29,0.21,0.17,1.09,-91.04,41.36,175.82,0.3,1.42,0.05,0.5,0.2,0.44,-230.85,10.94,0.75,0.19,0.23,0.08,0.47,0.69,0.49,-155.55,35.27,55.47,0.46,0.45,0.24,0.52,0.49,0.52
0.63,-46.56,66.76,157.7,0.18,1.19,0.17,0.36,0.14,1.0,-91.22,43.15,176.3,0.06,1.46,0.25,0.3,0.17,0.48,-231.1,11.31,0.95,0.17,0.41,0.15,0.21,0.66,0.78,-155.46,35.74,56.66,0.62,0.21,0.39,0.71,0.41,0.36
0.64,-46.65,68.16,156.06,0.06,1.13,0.28,0.24,0.33,1.04,-91.65,44.64,176.57,0.34,1.6,0.13,0.3,0.41,0.55,-231.21,11.48,1.32,0.28,0.27,0.05,0.43,0.6,0.92,-155.31,36.1,57.32,0.45,0.39,0.26,0.58,0.51,0.6
0.65,-46.93,69.43,154.25,0.15,1.17,0.14,0.42,0.22,0.98,-91.96,46.35,177.13,0.13,1.24,0.22,0.49,0.2,0.5,-231.66,11.7,1.52,0.25,0.62,0.21,0.39,0.67,1.08,-154.86,36.34,58.38,0.67,0.3,0.18,0.72,0.58,0.65
0.66,-46.91,70.94,152.41,-0.03,0.94,0.08,0.48,-0.24,0.99,-92.37,48.12,177.24,0.24,1.72,0.05,0.43,0.32,0.33,-231.77,11.88,2.0,0.26,0.3,0.22,0.44,0.38,1.44,-154.75,36.64,59.4,0.62,0.41,0.21,0.63,0.62,0.63
0.67,-46.97,71.94,149.98,0.11,1.04,0.01,0.39,0.08,0.74,-92.77,49.63,177.6,0.23,1.49,0.14,0.58,0.23,0.29,-232.07,12.14,2.33,0.35,0.17,0.29,0.42,0.6,1.34,-154.7,37.45,60.69,0.63,0.43,0.35,0.88,0.65,0.49
0.68,-46.9,73.26,147.53,0.11,1.19,0.19,0.13,0.28,0.8,-93.22,51.38,177.75,0.1,1.63,0.21,0.57,0.22,0.29,-232.37,12.7,2.94,0.1,0.21,0.34,0.61,0.34,1.22,-154.62,37.74,61.94,0.7,0.7,0.09,0.93,0.72,0.44
0.69,-47.24,74.47,145.05,0.38,1.08,0.18,0.68,0.17,0.71,-94.03,53.04,178.23,0.02,1.51,0.0,0.55,0.29,0.2,-232.67,12.97,3.15,0.33,0.17,0.28,0.53,0.46,1.33,-154.22,38.37,62.91,0.71,0.57,0.03,0.95,0.72,0.37
0.7,-47.17,75.62,141.94,0.11,0.88,0.04,0.51,0.06,0.56,-94.7,54.8,178.23,0.2,1.55,0.03,0.76,0.23,0.26,-233.05,13.33,3.62,0.14,0.27,0.32,0.64,0.4,1.52,-154.28,38.54,64.08,0.83,0.61,0.08,0.96,0.94,0.54
0.71,-47.05,76.74,138.69,0.11,1.14,-0.06,0.3,0.34,0.6,-95.31,56.37,178.63,0.41,1.2,0.35,0.79,0.32,0.4,-233.78,13.7,4.33,0.39,0.35,0.47,0.65,0.2,1.5,-154.43,39.11,65.43,0.65,0.76,0.07,1.06,0.89,0.49
0.72,-47.4,77.43,135.42,0.04,0.89,0.12,0.58,0.02,0.4,-96.09,57.94,178.55,0.18,1.36,0.04,0.91,0.18,0.3,-234.12,14.07,4.69,0.48,0.4,0.42,0.8,0.1,1.61,-154.46,39.39,66.56,0.88,0.77,0.02,0.98,0.87,0.39
0.73,-47.39,78.27,131.85,0.09,0.87,0.15,0.7,0.09,0.37,-96.94,59.41,178.8,0.15,1.17,0.16,1.01,0.19,0.17,-234.49,14.28,5.58,0.22,0.23,0.49,0.77,0.16,1.4,-154.56,40.04,68.23,0.8,0.74,0.06,1.05,0.75,0.66
0.74,-47.61,79.26,128.14,0.05,0.94,-0.02,0.44,0.3,0.26,-97.54,60.93,178.7,0.33,1.42,0.15,0.92,0.53,0.17,-235.19,14.75,6.06,0.36,0.22,0.47,0.95,0.13,1.53,-154.91,40.44,69.5,0.87,0.95,0.14,1.15,0.66,0.56
0.75,-47.6,79.86,124.25,-0.01,0.82,-0.09,0.71,0.35,0.24,-98.12,62.6,178.42,0.21,1.34,0.11,0.88,0.33,0.11,-235.67,14.83,6.82,0.35,0.27,0.35,0.89,0.09,1.37,-155.16,40.56,71.01,0.75,0.94,0.04,0.98,0.92,0.52
0.76,-47.71,80.63,116.27,0.26,0.69,0.1,0.58,-0.02,0.33,-99.52,65.37,177.9,0.38,1.27,-0.03,0.85,0.25,0.41,-237.03,15.39,8.17,0.44,0.26,0.51,0.82,0.28,1.37,-155.89,41.0,74.32,0.9,1.05,0.06,1.03,0.73,0.47
0.77,-47.72,81.19,112.22,0.34,0.8,0.02,0.58,0.18,0.21,-100.06,66.31,177.31,0.31,1.22,-0.1,0.93,0.14,0.18,-237.56,15.83,8.73,0.24,0.22,0.67,0.85,0.2,1.07,-156.19,41.09,75.84,0.77,1.09,0.25,0.89,0.74,0.69
0.78,-47.78,81.62,108.27,0.03,0.62,0.21,0.62,0.12,0.3,-100.61,67.91,176.64,0.3,1.13,-0.02,0.83,0.16,0.54,-238.16,15.79,9.34,0.46,0.32,0.52,0.64,0.21,0.9,-156.71,41.2,77.77,0.76,1.14,0.23,0.75,0.74,0.72
0.79,-48.36,81.64,104.48,0.35,0.32,0.06,0.62,0.14,0.13,-101.32,69.0,176.09,0.25,1.17,0.25,0.65,0.08,0.22,-238.96,15.93,9.93,0.52,0.28,0.73,0.71,0.26,0.99,-157.22,41.28,79.57,1.0,1.05,0.29,0.61,0.98,0.81
0.8,-48.27,81.78,100.47,0.36,0.66,0.12,0.43,0.35,0.24,-101.57,70.17,174.93,0.48,1.14,-0.06,0.78,0.03,0.27,-239.52,16.42,10.9,0.63,0.33,0.64,0.59,0.51,0.89,-157.72,41.36,81.58,0.85,0.94,0.15,0.54,0.59,0.7
0.81,-48.5,81.74,96.86,0.18,0.56,0.13,0.7,0.2,0.21,-102.27,71.2,173.92,0.28,0.91,0.02,0.74,0.49,0.23,-240.68,16.47,11.42,0.36,0.3,0.71,0.41,0.71,0.71,-158.22,41.24,83.54,0.66,1.14,0.19,0.6,0.59,0.83
0.82,-48.89,81.83,93.52,0.35,0.39,-0.06,0.65,0.13,0.36,-102.74,72.44,172.8,0.46,1.08,0.14,0.51,0.13,0.35,-241.4,16.37,12.34,0.35,0.34,0.83,0.32,0.63,0.72,-158.83,41.4,85.74,0.95,1.02,0.54,0.62,0.64,0.76
0.83,-49.09,81.88,90.19,0.39,0.35,0.04,0.47,0.33,0.23,-103.11,73.49,171.53,0.28,0.9,0.18,0.41,0.25,0.31,-242.4,16.7,12.97,0.46,0.33,0.81,0.27,0.87,0.59,-159.2,41.38,88.11,0.87,1.33,0.16,0.38,0.7,0.72
0.84,-49.25,81.65,87.52,0.27,0.3,0.18,0.12,0.11,0.25,-103.3,74.21,169.83,0.05,0.9,0.15,0.26,0.11,0.47,-243.41,16.59,13.96,0.51,0.28,0.99,0.24,0.97,0.43,-159.81,41.29,90.47,0.86,1.26,0.35,0.42,0.55,0.77
0.85,-49.59,81.9,84.77,0.41,0.36,0.05,0.41,0.1,0.38,-103.87,75.5,168.32,0.3,0.88,0.1,0.5,0.11,0.17,-244.42,16.87,15.23,0.53,0.33,0.76,0.24,0.99,0.4,-160.03,41.34,93.08,0.9,1.29,0.28,0.35,0.81,0.96
0.86,-49.93,81.52,82.29,0.14,0.13,0.11,0.23,0.17,0.2,-104.21,76.38,166.36,0.2,0.77,0.02,0.41,0.2,0.34,-245.47,16.88,16.53,0.77,0.3,0.92,0.04,1.11,0.61,-160.62,41.36,95.7,0.9,1.34,0.32,0.21,0.8,1.04
0.87,-50.15,81.4,80.33,0.05,0.33,-0.05,0.25,0.31,0.29,-104.09,77.11,164.56,0.21,0.64,0.07,0.38,0.06,0.24,-246.63,16.95,17.79,0.77,0.26,0.86,0.1,1.23,0.61,-160.8,40.93,98.4,1.15,1.21,0.26,0.2,0.68,0.9
0.88,-50.35,81.22,78.56,0.25,0.01,0.12,0.16,0.18,0.18,-104.57,78.03,162.5,-0.04,0.71,0.19,0.27,0.06,0.15,-247.76,17.1,19.19,0.79,0.13,0.95,0.25,1.32,0.54,-161.12,40.84,101.36,1.03,1.29,0.14,0.3,0.66,0.73
0.89,-50.6,81.43,76.79,0.25,0.17,-0.03,0.29,0.33,0.33,-104.76,78.8,160.34,0.12,0.6,0.01,0.31,0.24,0.05,-248.94,17.11,20.7,0.98,0.3,1.0,0.07,1.31,0.53,-161.0,40.38,104.18,1.27,1.34,0.14,0.24,0.73,0.87
0.9,-50.76,81.15,75.69,0.13,0.17,0.11,0.34,0.27,0.22,-104.8,79.48,158.42,0.1,0.68,0.24,0.26,0.15,0.2,-250.14,16.83,22.44,1.07,0.26,1.01,0.13,1.05,0.47,-161.3,39.9,107.38,1.23,1.51,-0.02,0.12,0.49,0.79
0.91,-50.9,80.79,73.63,0.11,0.06,0.11,0.25,0.11,0.17,-104.98,81.1,154.27,0.05,0.47,-0.09,0.33,0.18,0.15,-252.22,16.66,26.24,1.37,0.19,1.06,0.27,1.0,0.5,-161.53,38.76,113.51,1.23,1.3,0.24,0.39,0.74,0.8
0.92,-51.34,80.72,72.79,0.12,0.19,0.01,0.16,0.49,0.26,-104.8,81.75,152.78,-0.15,0.59,-0.03,0.2,0.16,0.06,-253.47,16.41,28.45,1.41,0.09,1.06,0.22,0.94,0.64,-161.6,38.06,116.57,1.36,1.46,0.1,0.06,0.53,0.85
0.93,-51.22,80.6,72.24,0.09,0.06,-0.07,0.31,0.38,0.13,-104.9,82.3,150.9,-0.1,0.56,0.06,0.25,0.12,-0.0,-254.49,16.09,30.47,1.48,0.34,1.14,0.28,0.69,0.48,-161.41,37.11,119.81,1.44,1.22,0.18,0.08,0.6,0.84
0.94,-51.03,80.73,71.83,0.16,0.14,0.2,0.34,0.15,0.08,-104.93,82.8,149.7,-0.03,0.3,0.06,0.27,0.14,0.07,-255.48,15.86,32.48,1.42,0.27,1.02,0.23,0.73,0.53,-161.22,36.08,122.85,1.3,1.48,0.15,0.25,0.66,0.77
0.95,-51.23,80.54,71.37,0.06,0.11,0.06,0.21,0.16,0.39,-104.8,83.37,148.48,0.07,0.46,-0.03,0.07,0.02,0.07,-256.35,15.36,34.65,1.44,0.24,0.9,0.37,0.5,0.4,-161.06,35.17,125.89,1.65,1.31,0.07,0.16,0.47,0.57
0.96,-51.34,80.68,71.3,-0.01,0.1,0.18,0.3,0.08,0.15,-104.69,83.7,147.51,0.12,0.28,0.05,0.25,0.1,0.0,-257.31,14.45,36.74,1.35,0.21,0.97,0.34,0.55,0.55,-161.19,34.24,128.49,1.55,1.26,-0.03,0.22,0.52,0.49
0.97,-51.27,80.42,71.25,0.05,0.06,0.0,0.26,0.0,0.16,-104.47,84.13,146.85,0.15,0.34,0.04,0.3,0.17,0.07,-258.28,13.97,39.06,1.57,0.19,0.89,0.38,0.41,0.58,-160.85,32.99,131.4,1.49,1.26,0.05,0.28,0.57,0.58
0.98,-51.35,80.21,71.54,0.06,0.32,0.03,0.43,0.33,0.16,-104.44,84.55,146.29,-0.0,0.51,0.12,0.18,0.05,0.09,-259.33,13.38,41.01,1.52,0.14,0.92,0.43,0.39,0.37,-160.69,31.93,134.08,1.39,1.17,0.02,0.14,0.36,0.76
0.99,-51.2,80.55,71.66,0.04,-0.09,-0.1,0.28,0.12,0.28,-104.55,84.63,146.21,-0.03,0.37,0.04,0.14,-0.03,0.21,-260.05,12.53,43.11,1.56,0.11,0.94,0.35,0.34,0.4,-160.53,30.7,136.48,1.22,1.1,-0.13,0.42,0.45,0.67
1.0,-51.29,80.49,71.98,0.15,0.01,0.16,0.27,0.14,0.23,-104.48,84.88,145.89,-0.17,0.31,-0.12,0.32,0.15,0.15,-260.78,11.72,45.17,1.59,0.35,0.64,0.24,0.21,0.5,-160.53,29.47,138.67,1.39,1.02,0.03,0.49,0.38,0.42
1.01,-51.12,80.38,72.56,0.03,0.08,0.05,0.33,0.01,0.07,-104.46,85.11,145.84,0.01,0.4,0.07,0.36,0.22,0.43,-261.21,11.07,47.05,1.36,0.14,0.64,0.25,0.23,0.3,-160.51,28.4,140.95,1.24,0.9,-0.05,0.46,0.24,0.73
1.02,-51.22,80.47,73.15,0.17,0.04,-0.02,0.28,-0.03,0.2,-104.33,85.17,145.97,0.09,0.39,0.1,0.29,0.05,0.48,-261.71,10.09,48.81,1.33,0.3,0.55,0.36,0.43,0.3,-160.5,27.13,142.8,1.06,0.79,-0.2,0.63,0.3,0.54
1.03,-51.17,80.13,73.75,-0.03,-0.03,0.05,0.06,0.04,-0.02,-104.55,85.14,146.12,-0.01,0.51,0.03,0.19,0.23,0.35,-262.18,9.21,50.56,1.25,0.4,0.49,0.38,0.27,0.06,-160.36,26.45,144.62,1.24,0.75,-0.05,0.31,0.23,0.74
1.04,-51.07,80.09,74.42,-0.02,0.01,-0.03,0.14,0.08,0.09,-104.52,85.1,146.26,0.12,0.42,0.0,0.11,0.15,0.27,-262.19,8.6,52.27,1.34,0.35,0.51,0.37,0.46,-0.01,-160.27,25.61,146.08,0.96,0.58,0.04,0.29,0.39,0.55
1.05,-51.2,80.25,75.02,0.08,0.17,-0.17,0.28,0.15,0.11,-104.34,85.27,146.12,0.09,0.33,-0.07,0.13,0.29,0.37,-262.4,7.52,53.65,1.36,0.52,0.24,0.28,0.6,0.12,-160.09,24.62,147.6,0.81,0.43,0.13,0.31,0.33,0.67
1.06,-51.32,80.22,76.56,0.14,-0.05,0.03,0.18,0.09,0.33,-104.29,85.04,146.64,-0.01,0.46,0.1,0.47,0.38,0.63,-261.89,6.48,56.83,1.37,0.66,0.15,0.48,0.77,0.14,-160.0,23.4,150.17,0.67,0.3,0.08,0.34,0.29,0.74
1.07,-51.52,80.21,76.9,0.06,0.0,0.01,-0.08,0.18,0.17,-104.25,84.91,146.63,0.12,0.37,0.02,0.3,0.28,0.65,-261.61,6.16,58.13,1.29,0.64,0.12,0.45,0.67,0.25,-159.91,22.61,151.12,0.74,0.34,0.03,0.16,0.39,0.45
1.08,-51.53,79.88,77.57,0.0,0.01,0.06,0.15,0.16,0.12,-104.16,84.49,146.8,0.07,0.38,0.16,0.31,0.24,0.43,-261.01,5.62,59.65,1.25,0.82,0.18,0.36,0.54,0.4,-159.75,22.56,151.75,0.66,0.17,0.28,0.28,0.37,0.38
1.09,-51.69,80.07,77.83,-0.06,-0.03,0.16,0.05,0.34,-0.02,-104.01,84.59,146.59,0.23,0.4,-0.04,0.4,0.33,0.43,-260.32,5.02,61.03,1.08,0.81,0.06,0.47,0.55,0.24,-159.9,22.13,152.78,0.46,0.1,0.13,0.24,0.4,0.54
1.1,-51.56,80.01,77.89,-0.0,0.01,-0.05,0.05,0.31,0.14,-103.87,84.3,146.59,0.25,0.4,-0.12,0.15,0.45,0.58,-259.43,4.8,62.54,1.2,0.88,0.23,0.5,0.68,0.53,-159.83,21.8,153.42,0.54,0.15,0.22,0.34,0.5,0.23
1.11,-51.69,79.96,77.75,0.09,-0.04,-0.01,0.13,0.49,0.19,-103.42,84.16,146.51,0.18,0.31,0.16,0.47,0.1,0.69,-258.37,4.54,63.99,1.23,0.77,0.11,0.63,0.6,0.3,-159.51,21.42,153.99,0.5,0.15,0.3,0.14,0.43,0.45
1.12,-51.7,80.17,77.86,0.05,-0.06,0.1,0.32,0.32,0.22,-103.48,83.86,146.46,0.35,0.16,-0.06,0.35,0.26,0.66,-257.49,4.22,65.68,1.42,0.89,0.17,0.64,0.49,0.49,-159.59,20.99,154.6,0.42,0.14,0.2,0.08,0.58,0.35
1.13,-51.53,80.01,77.49,-0.02,0.04,-0.06,0.01,0.54,0.35,-102.95,84.09,146.23,0.47,0.25,0.06,0.22,0.2,0.64,-256.53,4.15,67.22,1.32,0.73,0.49,0.56,0.64,0.48,-159.58,20.78,154.73,0.25,0.23,0.13,0.02,0.49,0.53
1.14,-51.3,79.99,77.12,0.06,0.1,-0.01,0.11,0.4,0.24,-102.55,83.79,146.1,0.13,0.25,-0.04,0.22,0.41,0.48,-255.29,4.02,68.52,1.0,0.84,0.07,0.66,0.5,0.84,-159.61,20.66,155.12,0.09,0.09,0.33,0.16,0.58,0.39
1.15,-51.44,80.34,76.51,0.09,-0.08,0.03,0.08,0.52,0.41,-102.37,83.39,146.12,0.07,0.11,0.12,0.37,0.35,0.39,-254.05,3.85,69.97,1.2,0.94,0.15,0.56,0.53,0.65,-159.49,20.65,155.21,0.03,-0.03,0.37,0.01,0.49,0.32
1.16,-51.21,80.28,75.81,0.04,0.2,-0.09,0.19,0.24,0.16,-102.05,83.35,145.75,0.17,0.04,0.12,0.27,0.3,0.34,-253.39,3.6,71.69,1.06,0.8,0.23,0.42,0.42,0.51,-159.66,20.35,155.23,0.03,0.11,0.26,0.18,0.7,0.23
1.17,-50.85,80.32,75.31,0.2,-0.04,0.18,-0.01,0.35,0.28,-101.57,83.42,145.73,-0.02,0.26,0.05,0.16,0.27,0.4,-252.03,3.64,73.02,1.32,0.89,0.19,0.54,0.11,0.66,-159.61,20.36,155.27,0.08,0.2,0.07,0.09,0.64,0.37
1.18,-50.62,80.43,74.3,0.1,0.07,-0.1,-0.16,0.49,0.38,-101.25,83.45,145.56,0.28,0.07,0.12,0.17,0.3,0.48,-250.97,3.59,74.54,1.13,0.7,0.09,0.54,0.23,0.67,-159.76,20.16,155.28,0.05,0.06,0.14,0.05,0.55,0.15
1.19,-50.41,80.48,73.58,0.03,0.11,-0.11,0.04,0.36,0.17,-100.77,83.54,145.45,0.22,0.01,0.12,0.21,0.22,0.36,-250.11,3.57,75.83,1.16,0.84,0.36,0.61,0.11,0.55,-159.87,20.29,155.2,0.08,-0.02,0.12,0.16,0.64,0.21
1.2,-50.25,80.68,72.86,-0.03,-0.09,-0.05,-0.01,0.32,0.33,-100.42,83.53,145.37,0.41,0.07,0.01,0.19,0.29,0.4,-249.2,3.58,77.52,1.15,0.85,-0.08,0.62,0.18,0.81,-159.87,20.42,155.12,0.07,0.0,0.07,0.38,0.41,0.29
1.21,-49.42,80.85,70.97,0.16,0.04,-0.11,0.05,0.34,0.29,-99.58,83.52,145.05,0.23,0.19,0.18,-0.03,0.41,0.25,-247.57,3.46,79.92,1.27,0.72,0.17,0.49,0.3,1.0,-160.31,20.1,154.51,0.1,0.07,0.09,0.43,0.54,0.27
1.22,-48.95,80.87,69.9,0.02,0.23,-0.07,0.05,0.54,0.28,-99.58,83.7,144.92,0.17,0.13,0.22,0.44,0.6,0.24,-246.75,3.36,81.16,1.2,0.77,0.15,0.48,0.14,1.01,-160.41,20.31,154.46,0.17,0.23,0.12,0.39,0.5,0.37
1.23,-48.83,80.75,68.86,0.21,-0.09,0.11,-0.03,0.42,0.18,-99.1,83.75,145.11,0.17,0.03,0.28,0.22,0.48,0.26,-246.11,3.41,82.38,1.17,0.48,0.06,0.22,0.14,0.64,-160.65,20.25,154.07,0.22,0.13,-0.07,0.59,0.29,0.31
1.24,-48.52,80.82,67.72,0.25,0.1,0.16,0.01,0.31,0.31,-98.89,83.7,144.7,0.11,0.12,0.17,0.33,0.46,0.37,-245.4,3.52,83.89,1.05,0.47,0.01,0.42,0.16,0.93,-160.79,20.29,153.65,0.12,0.0,0.18,0.36,0.05,0.43
1.25,-48.28,80.88,66.87,0.13,0.22,0.05,0.09,0.5,0.21,-98.46,84.1,144.75,0.04,-0.04,0.06,0.45,0.79,0.23,-244.71,3.45,84.98,1.32,0.42,0.16,0.45,0.16,0.65,-160.61,20.47,153.39,0.4,0.08,0.08,0.5,0.24,0.33
1.26,-47.82,80.98,66.06,0.13,0.01,0.02,0.1,0.64,0.33,-98.58,84.3,144.63,0.16,0.12,0.02,0.37,0.84,0.23,-243.85,3.45,86.26,1.16,0.42,0.04,0.61,0.1,0.64,-160.89,20.71,152.96,0.3,0.17,0.1,0.51,0.28,0.47
1.27,-47.47,80.77,64.91,0.2,-0.0,0.0,0.11,0.56,0.49,-98.19,84.41,144.6,0.18,0.16,0.09,0.55,0.81,0.3,-242.99,3.56,87.38,1.29,0.5,0.06,0.4,0.34,0.61,-160.86,20.87,152.45,0.37,0.23,-0.04,0.57,0.25,0.5
1.28,-47.26,80.57,64.12,0.13,0.03,-0.14,0.15,0.81,0.4,-98.38,84.7,144.61,-0.07,0.26,0.1,0.46,0.92,0.43,-242.48,3.69,88.61,1.03,0.52,0.15,0.29,0.21,0.51,-160.94,21.18,151.85,0.34,0.21,0.1,0.38,0.42,0.7
1.29,-46.97,80.47,63.29,0.11,0.25,-0.08,0.36,0.87,0.39,-98.05,84.77,144.63,0.13,-0.04,0.01,0.3,0.76,0.39,-241.55,3.77,89.7,0.97,0.63,0.19,0.49,0.18,0.47,-160.77,21.63,151.59,0.41,0.18,0.22,0.36,0.35,0.52
1.3,-46.62,80.53,62.97,0.07,0.26,-0.11,0.17,0.84,0.61,-97.91,85.05,144.54,0.05,0.2,0.46,0.38,0.96,0.24,-240.75,3.78,90.92,0.95,0.47,0.02,0.53,0.21,0.56,-160.94,21.69,150.88,0.31,0.49,0.12,0.29,0.32,0.72
1.31,-46.61,80.38,62.49,0.41,0.14,0.09,0.29,0.93,0.79,-97.56,85.17,144.3,0.21,0.06,0.13,0.6,0.91,0.24,-240.04,4.21,91.92,0.95,0.64,0.06,0.47,0.23,0.41,-160.83,21.97,150.47,0.31,0.22,0.17,0.4,0.14,0.61
1.32,-46.49,80.39,62.11,0.13,0.17,0.04,0.32,0.94,0.67,-97.57,85.25,144.24,0.3,-0.04,0.05,0.49,0.93,0.34,-239.23,4.25,92.97,0.79,0.5,0.12,0.48,0.4,0.22,-160.84,22.03,150.0,0.26,0.42,0.22,0.33,0.47,0.77
1.33,-46.31,80.31,62.33,0.2,0.21,0.04,0.25,0.79,0.79,-97.53,85.43,144.22,0.15,-0.04,0.14,0.23,0.87,0.34,-238.16,4.58,93.87,1.06,0.45,0.08,0.41,0.31,0.24,-160.7,22.41,149.34,0.44,0.44,0.23,0.47,0.36,0.72
1.34,-46.09,79.92,62.66,0.1,0.19,0.09,0.38,0.86,1.01,-97.41,85.55,143.89,0.07,0.02,0.18,0.37,0.91,0.35,-237.38,4.72,94.91,0.83,0.37,-0.0,0.32,0.45,0.3,-160.36,22.61,148.64,0.32,0.37,0.25,0.06,0.23,0.68
1.35,-46.17,79.85,63.39,0.26,0.13,0.14,0.41,0.96,1.09,-97.19,85.22,143.63,-0.02,0.07,-0.06,0.35,0.8,0.48,-236.47,4.96,95.82,0.85,0.39,-0.1,0.48,0.52,0.26,-160.4,22.91,148.08,0.34,0.53,0.16,0.26,0.33,0.75
1.36,-46.25,79.74,65.74,0.18,0.04,0.23,0.6,0.97,1.14,-96.67,85.44,143.34,0.07,-0.1,0.16,0.49,0.7,0.33,-234.72,5.31,97.79,0.63,0.38,-0.02,0.59,0.76,0.16,-159.96,23.7,146.99,0.26,0.48,0.06,-0.04,0.34,0.91
1.37,-46.01,79.64,67.21,0.42,0.34,-0.05,0.7,0.8,0.95,-96.37,85.32,143.41,0.07,0.11,-0.03,0.2,0.68,0.46,-233.82,5.55,98.6,0.62,0.31,0.03,0.56,0.64,0.1,-159.87,23.9,146.61,0.33,0.3,0.12,0.17,0.54,0.89
1.38,-45.97,79.52,68.66,0.14,0.03,0.18,0.82,0.74,0.82,-96.1,85.24,143.07,0.13,-0.03,0.21,0.39,0.51,0.34,-232.91,5.84,99.02,0.49,0.55,0.13,0.36,0.56,0.31,-159.74,24.28,146.03,0.37,0.37,0.27,0.1,0.3,0.81
1.39,-45.84,79.52,70.3,0.15,0.13,0.03,0.55,0.76,0.93,-95.96,85.28,142.97,0.02,0.03,0.12,0.24,0.58,0.32,-232.16,6.1,99.98,0.73,0.37,0.03,0.5,0.66,0.0,-159.67,24.57,145.37,0.12,0.48,0.22,0.32,0.33,0.68
1.4,-45.69,79.51,72.39,0.27,0.14,0.23,0.41,0.61,0.73,-95.65,84.99,143.0,0.09,-0.19,0.19,0.2,0.49,0.38,-231.28,6.31,100.58,0.49,0.46,0.25,0.55,0.59,0.29,-159.46,24.81,144.87,0.26,0.27,0.15,0.16,0.3,0.98
1.41,-45.62,79.29,74.26,0.06,0.35,-0.07,0.57,0.57,0.76,-95.32,85.01,143.01,0.13,0.12,0.04,0.21,0.39,0.52,-230.17,6.4,101.14,0.66,0.48,0.09,0.36,0.64,0.39,-159.4,25.3,144.57,0.26,0.44,0.02,0.31,0.39,0.67
1.42,-45.66,79.37,76.29,0.02,0.09,0.02,0.54,0.48,0.64,-95.2,84.93,143.29,0.01,0.15,0.03,0.22,0.22,0.47,-229.34,6.68,101.69,0.53,0.4,0.08,0.25,0.61,0.29,-159.35,25.57,143.97,0.3,0.4,0.09,0.22,0.41,0.74
1.43,-45.44,79.4,78.28,0.23,0.35,0.21,0.53,0.39,0.49,-94.76,84.85,143.54,0.26,0.14,0.06,-0.01,0.46,0.3,-228.45,7.1,102.5,0.54,0.38,0.02,0.56,0.53,0.48,-159.39,25.81,143.42,0.29,0.33,0.2,0.25,0.64,0.71
1.44,-45.31,79.32,80.35,0.14,0.05,0.13,0.27,0.49,0.42,-94.54,84.91,143.81,0.14,0.0,0.02,-0.07,0.33,0.24,-227.76,7.4,102.93,0.36,0.56,0.16,0.37,0.45,0.54,-159.12,26.04,143.18,0.2,0.31,0.28,0.12,0.51,0.59
1.45,-45.25,79.41,82.23,0.2,0.28,-0.05,0.11,0.45,0.49,-94.31,84.81,144.24,0.21,0.11,0.21,0.25,0.32,0.14,-226.9,7.46,103.6,0.38,0.42,0.21,0.44,0.42,0.56,-159.25,26.33,142.65,0.29,0.43,0.25,0.28,0.61,0.54
1.46,-45.14,79.64,84.01,0.26,0.12,0.03,0.32,0.23,0.27,-94.1,84.94,144.62,0.02,0.07,0.01,0.24,0.32,0.3,-225.89,7.55,103.95,0.39,0.41,0.24,0.43,0.39,0.86,-159.01,26.54,142.18,0.29,0.38,-0.05,0.3,0.7,0.51
1.47,-44.63,79.3,85.73,0.09,0.12,0.0,0.11,0.3,0.23,-93.61,84.83,144.93,-0.03,0.13,0.24,0.2,0.17,0.33,-225.24,7.84,104.25,0.44,0.45,0.08,0.21,0.39,0.88,-158.88,26.85,141.84,0.31,0.25,-0.09,0.23,0.66,0.79
1.48,-44.65,79.6,87.31,0.1,0.12,-0.13,0.17,0.24,0.1,-93.55,84.97,145.26,0.2,0.02,-0.06,0.25,0.09,0.28,-224.38,8.05,104.57,0.45,0.4,0.17,0.41,0.46,0.69,-159.3,27.18,141.25,0.18,0.4,0.14,0.2,0.65,0.59
1.49,-44.38,79.92,88.63,0.33,0.14,0.05,0.26,0.33,0.32,-93.32,85.05,145.41,0.2,0.13,-0.12,0.28,0.21,0.4,-223.71,8.09,105.14,0.24,0.35,0.17,0.38,0.06,1.01,-159.68,27.66,140.78,0.32,0.44,0.09,0.48,0.51,0.48
1.5,-44.09,79.83,90.42,0.21,0.18,0.05,-0.05,0.23,0.25,-93.07,85.23,145.08,-0.14,0.11,-0.04,0.14,0.08,0.34,-223.0,8.49,105.36,0.22,0.34,0.09,0.31,0.28,0.92,-159.25,28.06,140.61,0.28,0.39,0.12,0.24,0.66,0.58
1.51,-43.82,79.95,92.9,0.05,0.27,0.11,-0.08,0.39,0.2,-92.79,85.54,143.79,0.0,0.28,0.05,0.1,0.08,0.18,-221.51,8.73,105.95,0.31,0.34,0.08,0.18,0.19,1.01,-159.27,28.65,139.45,0.19,0.42,0.04,0.2,0.62,0.68
1.52,-43.46,79.95,94.11,0.06,0.19,0.12,0.08,0.29,0.24,-92.67,85.65,142.37,-0.16,0.12,0.02,0.09,0.21,0.03,-221.03,8.94,106.27,0.09,0.29,0.15,0.32,0.18,1.01,-159.16,29.24,139.16,0.21,0.41,-0.08,0.26,0.31,0.58
1.53,-43.33,80.13,95.4,-0.04,0.19,0.19,-0.01,0.13,0.26,-92.7,85.91,141.09,-0.0,0.34,0.01,0.22,0.12,-0.04,-220.34,9.34,106.41,0.16,0.16,0.06,0.22,0.06,0.96,-159.54,29.56,138.65,0.18,0.31,-0.01,0.16,0.55,0.8
1.54,-43.2,80.12,96.51,0.12,0.19,0.21,0.31,0.28,0.3,-92.38,86.06,139.31,0.03,0.3,0.15,0.17,0.37,0.19,-219.85,9.49,106.39,0.07,0.14,0.06,0.26,0.06,0.86,-159.44,29.93,138.38,0.27,0.42,0.19,0.28,0.56,0.87
1.55,-42.89,80.35,97.58,0.06,0.24,0.04,0.2,0.1,0.21,-92.37,86.24,137.32,0.09,-0.06,0.17,0.42,0.37,0.12,-219.32,9.66,106.42,0.06,0.18,0.18,0.27,-0.03,0.83,-159.39,30.54,137.89,0.05,0.39,0.08,0.29,0.43,0.83
1.56,-42.95,80.31,98.47,0.08,0.03,0.06,0.17,0.14,0.19,-92.44,86.5,135.69,-0.02,0.14,-0.01,0.14,0.15,0.19,-218.74,9.97,106.6,0.28,0.43,0.12,0.39,0.08,0.94,-159.13,30.75,137.52,0.06,0.4,0.22,0.02,0.65,0.68
1.57,-42.76,80.35,99.91,0.07,0.18,-0.09,0.14,0.22,0.44,-92.42,86.69,133.92,-0.13,0.13,0.15,0.1,0.15,0.21,-218.38,9.92,106.33,0.0,0.17,0.05,0.42,0.31,0.97,-159.14,31.03,137.35,0.15,0.31,-0.04,0.09,0.69,0.85
1.58,-42.62,80.5,100.79,0.08,0.13,0.17,0.21,0.4,0.15,-92.4,87.01,133.11,-0.01,0.26,-0.03,0.27,0.01,0.28,-217.8,10.16,106.51,-0.2,0.33,-0.24,0.41,0.32,0.82,-158.93,31.52,136.91,0.16,0.27,0.07,0.14,0.52,0.7
1.59,-42.57,80.72,101.94,0.22,0.27,0.18,0.09,0.18,0.08,-92.46,87.27,133.07,-0.03,0.27,0.18,0.1,0.05,0.29,-217.62,10.39,106.52,0.23,0.33,0.04,0.52,0.41,0.81,-158.79,31.76,136.9,0.14,0.21,0.06,0.45,0.57,0.78
1.6,-42.41,80.56,102.94,0.07,0.14,0.16,0.18,0.25,0.3,-92.34,87.64,134.11,0.08,0.37,-0.07,0.24,0.16,0.11,-217.26,10.65,106.34,0.1,0.23,0.22,0.46,0.53,0.75,-158.7,32.03,136.44,0.15,0.31,-0.06,0.17,0.57,0.76
1.61,-42.46,80.69,104.36,-0.0,0.08,-0.06,0.06,0.24,0.04,-92.38,87.79,136.72,0.02,0.21,0.1,0.21,0.1,0.17,-216.74,10.87,106.42,0.08,0.09,-0.04,0.65,0.44,0.67,-158.28,32.36,136.5,0.25,0.29,0.11,0.32,0.52,0.71
1.62,-42.41,80.62,105.26,-0.04,-0.01,0.33,0.15,0.02,0.07,-92.44,88.05,141.21,0.17,0.15,0.18,0.19,0.12,0.09,-216.59,10.88,106.39,0.22,0.06,0.11,0.78,0.4,0.52,-158.11,32.67,136.19,0.18,0.24,-0.07,0.29,0.81,0.71
1.63,-42.23,80.62,106.38,0.09,0.2,0.06,0.2,0.14,0.0,-92.44,88.0,147.19,-0.06,0.17,0.01,0.12,0.23,0.21,-216.17,11.3,106.11,0.1,-0.03,0.18,0.75,0.57,0.43,-158.17,32.83,135.86,0.15,0.32,0.29,0.28,1.1,0.58
1.64,-42.6,80.6,107.53,0.06,0.14,0.07,0.25,0.08,0.13,-92.55,88.4,155.09,0.11,0.28,-0.04,0.05,0.23,0.06,-215.93,11.57,106.06,-0.05,0.12,0.14,0.74,0.6,0.61,-157.89,33.23,135.74,0.09,-0.03,0.12,0.36,1.15,0.74
1.65,-42.44,80.34,108.56,0.05,0.09,0.0,0.16,0.1,0.1,-92.41,88.69,165.02,0.11,0.25,0.1,0.29,0.08,0.29,-215.23,11.7,106.02,0.04,0.11,0.19,0.56,0.83,0.57,-157.7,33.26,135.57,0.21,0.23,0.26,0.32,1.22,0.76
1.66,-42.62,80.6,110.56,0.02,0.09,-0.05,0.17,0.0,0.03,-92.45,89.0,188.75,0.19,0.23,-0.24,-0.01,0.13,0.11,-214.35,12.48,106.0,0.18,0.22,0.26,0.71,0.77,0.4,-157.5,33.64,134.94,0.23,-0.07,0.27,0.61,1.37,0.44
1.67,-42.62,80.38,111.48,0.04,0.17,0.05,-0.02,0.06,-0.05,-92.41,88.82,202.25,0.06,0.1,0.07,0.16,0.13,0.18,-213.95,12.87,105.91,0.04,0.04,0.32,0.7,0.61,0.66,-157.51,33.83,134.84,0.23,0.39,0.15,0.77,1.42,0.58
1.68,-42.53,80.41,112.24,-0.01,0.16,0.2,-0.17,0.03,-0.05,-92.35,89.06,215.82,0.07,0.1,0.17,0.13,0.24,0.32,-213.52,12.97,106.05,0.13,0.16,0.32,0.79,0.6,0.49,-157.32,34.22,134.6,0.14,0.09,0.2,0.68,1.32,0.54
1.69,-42.55,80.28,113.29,0.17,0.32,0.03,-0.03,0.0,0.14,-92.35,89.54,228.97,0.16,0.27,0.04,0.05,0.06,0.16,-212.99,13.45,105.96,0.05,-0.04,0.27,0.57,0.79,0.46,-157.5,34.44,134.31,0.12,0.09,0.4,0.83,1.33,0.41
1.7,-42.69,80.22,114.28,0.05,-0.06,0.01,0.02,-0.01,0.12,-92.18,89.17,241.47,0.33,0.12,0.0,0.28,0.01,0.2,-212.14,13.85,106.09,0.04,0.04,0.26,0.57,0.49,0.53,-157.27,34.74,134.22,0.28,0.24,0.45,0.8,1.36,0.5
1.71,-42.45,80.26,114.95,0.06,0.06,0.08,-0.01,0.17,-0.01,-92.14,89.37,252.9,0.16,0.19,0.05,0.21,0.05,0.32,-211.76,14.29,106.31,0.07,0.04,0.35,0.52,0.57,0.58,-157.05,35.22,133.85,0.11,0.09,0.17,0.75,1.25,0.65
1.72,-42.47,80.18,115.55,0.09,0.09,-0.0,0.29,0.36,0.16,-91.9,89.41,262.55,0.08,0.04,-0.1,-0.01,-0.11,0.41,-211.1,14.71,106.18,0.2,0.14,0.52,0.41,0.81,0.65,-156.84,35.76,133.53,0.28,0.08,0.51,0.95,1.04,0.48
1.73,-42.51,80.23,116.45,0.14,0.19,-0.03,0.06,0.17,0.13,-92.04,89.33,270.86,0.12,0.04,0.03,0.15,0.13,0.35,-210.25,15.15,106.45,0.11,0.19,0.29,0.39,0.48,0.65,-156.55,36.3,133.05,0.37,0.25,0.41,0.79,1.19,0.55
1.74,-42.23,79.87,117.1,0.13,-0.16,-0.15,0.06,0.25,0.02,-91.76,89.3,276.94,0.13,0.15,0.04,0.09,0.14,0.39,-209.52,15.6,106.53,0.23,0.25,0.36,0.39,0.68,0.75,-156.34,36.89,132.82,0.15,0.34,0.5,0.88,1.05,0.66
1.75,-42.24,79.89,117.56,0.0,0.07,-0.17,-0.15,0.16,0.09,-91.5,89.1,281.46,0.23,-0.02,0.28,0.21,0.25,0.29,-208.78,16.35,107.0,0.07,0.13,0.69,0.43,0.6,0.33,-155.74,37.57,132.68,0.42,0.43,0.47,0.87,1.14,0.61
1.76,-42.2,79.61,118.22,0.02,0.14,0.03,0.07,0.27,0.16,-91.53,89.2,283.91,0.06,0.32,-0.15,0.08,0.35,0.45,-207.64,16.93,107.2,0.31,0.11,0.42,0.31,0.72,0.66,-155.46,38.26,132.32,0.49,0.34,0.63,0.93,1.09,0.42
1.77,-42.16,79.66,118.8,-0.01,0.01,-0.03,0.02,0.29,0.19,-91.21,88.93,285.25,0.16,-0.03,-0.15,0.03,0.18,0.44,-206.86,17.45,107.5,0.02,0.17,0.57,0.3,0.76,0.7,-155.13,39.15,131.98,0.43,0.36,0.62,0.83,0.96,0.59
1.78,-42.28,79.74,118.99,0.07,0.15,0.01,0.08,0.33,0.05,-90.99,88.81,285.45,0.13,0.0,-0.05,0.05,0.19,0.52,-205.75,18.23,107.5,0.17,0.11,0.47,-0.03,0.79,0.82,-154.41,39.91,131.5,0.47,0.15,0.54,0.47,1.05,0.45
1.79,-41.84,79.72,119.69,0.26,0.1,-0.07,0.11,0.37,-0.06,-91.13,88.55,284.61,0.05,0.04,-0.09,0.11,0.41,0.3,-204.89,18.8,107.84,0.06,0.25,0.43,0.27,0.95,0.7,-153.81,41.01,131.18,0.42,0.24,0.68,0.7,1.12,0.65
1.8,-41.92,79.48,119.89,0.04,0.03,0.15,0.17,0.34,0.02,-90.9,88.69,283.24,0.11,-0.03,-0.02,0.2,0.39,0.23,-203.83,19.4,108.23,0.07,-0.04,0.27,0.14,1.13,0.82,-153.28,41.88,130.84,0.4,0.2,0.64,0.32,1.3,0.71
1.81,-41.89,79.3,120.82,0.13,0.1,-0.01,0.12,0.38,0.13,-90.48,88.45,279.68,0.06,-0.04,0.2,0.18,0.12,0.39,-201.83,20.86,108.64,-0.12,0.31,0.53,0.16,1.37,1.19,-152.31,43.75,129.92,0.67,0.09,0.45,0.23,1.5,0.69
1.82,-41.66,79.37,121.16,0.06,-0.03,0.02,0.07,0.35,0.15,-90.39,88.4,278.17,-0.17,-0.08,-0.17,0.24,0.42,0.47,-200.84,21.45,109.0,0.03,0.25,0.51,0.18,1.49,1.19,-151.83,44.7,129.46,0.75,0.35,0.68,0.03,1.49,0.63
