0.02,-294.7822900010092,83.44134551117206,3.726998618736296,-36.05528002373344,87.02754108373593,2.252013247356388,-175.91886809362703,2.200530466350617,11.114806246583132,-157.024758945429,16.800523907048195,7.9374391459273
0.03,-294.6471010988296,83.46639421418735,3.500198293270684,-36.072159216517136,87.00726276599472,2.22185755788436,-176.47161185633544,2.444071275103915,11.082712078049957,-156.65318362500463,16.680925086632477,8.244029572191224
0.04,-294.91560813356733,83.39345237386038,3.427801701862971,-36.01337816328756,86.96755289909068,2.010564532170539,-176.45159433160285,2.0821951379874277,11.302717094652444,-156.8360426244713,16.81841606092515,8.0261803786674
0.05,-294.82403313729327,83.28960292575422,3.583585986454504,-36.35940979528173,86.72664137169835,2.384973579054689,-176.6399616634297,2.132519491416435,11.22318269386833,-156.74043736167496,16.78965070987236,8.1567156126658
0.06,-294.99231746453904,83.49157140241044,3.5675743970223017,-36.13720561657981,86.78496238958452,2.2834300213441665,-176.4861131732166,2.7140545302647867,11.274201713437837,-156.7036696968438,16.70159702951345,8.3173695953053
0.07,-294.98338956868395,83.39323092124104,3.417940161450713,-36.086997050884,86.78065473491466,2.433721858610449,-176.63282760274058,2.2263532585274444,11.276550463751995,-157.1769644622381,16.77110401968003,8.122508788739218
0.08,-295.2156617475076,83.55023501570433,3.727475130731356,-36.14650806053648,86.53497481603091,2.3794961027275083,-176.81895086687842,2.417626737190685,11.007982200484816,-156.95271717747798,16.7037425087453,7.874847763539663
0.09,-294.90645833188364,83.72354956815641,3.652431674960426,-36.23284956437158,86.80666873219603,2.379329724993361,-176.64992012504578,2.2643919244441464,11.347807515760886,-156.886222536712,17.036068832429084,8.042539675292725
0.1,-294.84683516642707,83.45494041848517,3.5829193702418047,-36.58994073884951,86.5861798648716,2.269133365947097,-176.40973123310582,2.04566628812763,11.31667137061678,-156.94326066328193,16.798869686391765,7.8595014604219715
0.11,-295.1672772756298,83.37746617183204,3.768889918903245,-36.220530147144046,86.29795397177523,2.184048433378345,-176.8321034264548,2.0694754787955976,10.9407017186717,-157.16377637725682,16.791360697911188,7.912584864781313
0.12,-295.07693988333574,83.63895543852422,3.4696515402158727,-36.129756550125215,86.52060613261769,2.303698012371923,-176.5011767022714,2.28868511126077,11.126825062480153,-157.4842855921095,16.707984707860316,8.020282872330096
0.13,-294.99361205316364,83.58575405753979,3.585509622894562,-36.195967366378085,86.26250126454366,2.34564052645101,-176.63502287488635,2.110661379711522,10.98349623599418,-157.36081610861098,16.769588738903543,7.697443843155447
0.14,-295.04913551037885,83.62588661010857,3.4875748868143672,-36.16500827320511,86.69579913303293,2.297385801800456,-176.61649759653753,2.2862507158450027,11.063024292057973,-157.4552477469222,16.89666605000865,7.835607179287216
0.15,-295.23537578663,83.47968064024997,3.4074140728745355,-36.026812628990875,86.2509841748026,2.224472037075835,-176.9981698563718,2.16813279831339,10.880148881082867,-157.2742623886545,16.67851331570603,7.886559410487557
0.16,-295.36929868937057,83.53575073574274,3.534291461988977,-36.35834105582946,85.99724449045895,2.4513372959375936,-176.744851588894,2.123197079449725,10.889062073846215,-157.32293210339623,16.651123922481812,7.739881388199998
0.17,-295.1991026240097,83.57979751066615,3.3829597111530383,-35.90066119011837,85.98513124506901,2.0536165859655986,-176.84055370164634,2.2806558679604096,10.848899664828878,-157.29328058876217,16.5707437323611,7.591999578692183
0.18,-295.170441966326,83.47462079081747,3.2694576581211,-36.274363758830695,86.12439058679112,2.013727142705452,-176.8438032157713,2.2654749064394197,10.942208945827206,-156.9147222578409,16.796561321491502,7.800048416789567
0.19,-295.6224989934542,83.64354542953234,3.691683883570537,-36.18052855081815,86.3946842780068,2.124788476997173,-176.60318509039064,2.155905715391139,11.017675570577625,-157.33119460541232,16.465931548358732,7.696750460199543
0.2,-295.1091173418319,83.8508797413402,3.4130960743944447,-36.1008426641104,86.43607383758668,2.4046067009627503,-176.5887017719225,2.094141388964576,10.753927205461723,-157.15887881911576,16.795488504551656,7.524988529181087
0.21,-295.5802080997251,83.39663409643514,3.6488620686369,-36.187436920863945,86.3343675379236,2.350898385451351,-176.68366195192016,2.128011544943593,11.01479679593527,-157.22118982083634,16.7097997529426,7.91440456708719
0.22,-295.1461632593126,83.7027361807219,3.377893515846242,-36.01531570450914,86.20868928356222,2.258342451667896,-176.5912800690066,2.4054879674493623,10.879142295282731,-156.9266129283256,16.787499272419605,7.61886817426866
0.23,-295.37872652029586,83.4690117835808,3.1050717612955894,-35.91751727270379,86.40559485825447,2.3657814764508545,-176.41360169460518,2.328254104805004,10.84527967621266,-156.83771770319177,16.662488772476053,7.844564293994229
0.24,-295.19526230472985,83.62719161895592,3.555707777111177,-36.27471931913463,86.29056515191279,2.2406592118973534,-176.3467268768519,2.322142023447664,10.811430050480643,-157.093312295738,16.96658890199165,7.839730322708128
0.25,-295.26131585678684,83.52484028345104,3.525461485975882,-35.97018398115137,86.41989600635864,2.172951266977128,-176.53429760831935,2.3805852100213856,10.88925111065033,-156.98879575016704,16.796485200548286,7.843669287024268
0.26,-295.2089144143366,83.69922333475441,3.6819715887443527,-36.04620376191223,86.32042171163948,2.4068741415961705,-176.34440324700608,2.277644779912864,10.756628461124867,-156.97114402183996,16.640032145962987,7.933999282381313
0.27,-295.4184209634054,83.76543618416015,3.7763548228354575,-35.95569845795646,86.45710561754842,2.4283939616850776,-176.53852177097227,2.1332625719185825,11.076177841685476,-156.89627211145313,16.709083311028465,7.739804333320471
0.28,-295.4212872671006,83.70352088566156,3.485016355429458,-35.974836290616835,86.42005404776093,2.3400507700515094,-176.34172790842095,2.265021022941413,10.933665596145373,-157.21133159633234,16.629127421265757,7.607455470268047
0.29,-295.3398119262697,83.46836364339687,3.4267376893156154,-36.22579332307288,86.52276333206044,2.4740520639699404,-176.59570880350225,2.47243832345457,10.723278524975218,-157.09547568476253,16.635072223678645,7.661644204746437
0.3,-295.5687710508755,83.81415316705437,3.20981966028878,-35.99891441793446,86.54836034967609,2.405205690826385,-176.39560667727164,2.4290917353030457,10.985683640952097,-157.0715165065434,16.820026597220952,7.518701898633242
0.31,-295.14497528141044,83.7481548491808,3.353131355732309,-36.04593311795738,86.51963186067034,2.297093746302768,-176.57181263852232,2.631680244539301,10.884477577183954,-156.89435705203573,16.537398873940102,7.772590836987351
0.32,-295.54230352072705,83.64701368924041,3.42522767730058,-35.84336451725016,86.82246267545374,2.2509971556163646,-176.24406186063632,2.2221056271090176,10.851165977823802,-157.1473719733372,16.954827389446876,7.811339390822808
0.33,-294.9733891238021,83.78544779060286,3.61820078681882,-35.94387504187343,86.72840881659933,2.417274527331803,-176.32804979986304,2.375081485276243,10.949576138797852,-156.98221647885734,16.751694033618815,7.781601097902598
0.34,-295.0766139682171,83.50555952304529,3.490865859864872,-35.68631258509129,86.69912021302089,2.4667778853598725,-176.17993566845848,2.264869777014273,11.18431557495408,-156.8701934548465,16.72491039921235,7.905925133565906
0.35,-295.1174931211792,83.77090393853376,3.440995779519875,-35.83220926035317,86.8132988605345,2.208195435910008,-175.89256813947438,2.3322131611172296,10.846506808762722,-156.89479602439266,16.73712938740886,7.8669119156314995
0.36,-294.97769227999333,83.65964280789629,3.3752852044936974,-35.70601369496514,87.10529776646943,2.321315214702683,-176.07229088756915,2.501233371853289,11.047611904053818,-156.87270912823462,16.80478928393882,7.836079928374242
0.37,-295.0808620138465,83.68249591708272,3.5112972215280758,-35.5224490854388,86.83519862111883,2.195302271218098,-176.12806647304353,2.1102245234320898,11.000969981892588,-156.77647009165648,16.56066190369098,7.966958086690494
0.38,-295.16608065158863,83.5555239343021,3.42937986319134,-35.352395567863255,87.10208028821091,2.1594597110419387,-175.99853763476054,2.348609056607238,11.07287323812034,-156.5164147924366,16.729730311655363,7.63480651781177
0.39,-295.0349856077502,83.48642028155372,3.302608092990558,-35.46390161655371,87.29627814216427,2.280776924171777,-175.99286742213775,2.3184413265751798,11.184055190129802,-156.80850747703803,16.7014125245609,7.66011183435204
0.4,-294.8218506452986,83.54408714954954,3.194680197065876,-35.36032112834474,87.30658671548746,2.117799068422628,-175.41624645501568,2.227767425282324,10.553025959033675,-156.694714561466,16.642154784927992,7.796984970884702
0.41,-295.02143705076173,83.42828032266964,3.204035165523543,-35.355854374284974,86.97537170362199,2.0183905369885604,-175.9326262192746,2.2212258167065624,10.804583821112068,-156.60996032661384,16.551395968026288,7.58811167192466
0.42,-294.8963086459632,83.33302811266704,3.297888748017008,-35.622838905748715,87.18009153002433,2.035143874281069,-175.56256980531336,2.2494320247753943,10.548417977620488,-156.44244050286466,16.690073680973903,7.850593603670021
0.43,-295.476799239597,83.19654665919062,3.415557643531357,-35.34649096032978,87.2442801446654,1.7236944899116828,-175.80658901998905,1.927786645519024,10.96461512394284,-156.24925958123438,16.52898377247264,7.743348086738381
0.44,-295.17425965592656,83.29781242726253,3.1998746419026336,-35.31995558249886,87.65976093381788,2.1488730801549933,-175.89126055257455,2.1511825530412176,10.767937730201805,-156.2444129869494,16.569605900288703,7.690869059551536
0.45,-295.19898807620854,83.29807188246039,3.1786320468571465,-35.29380310413597,87.57262685524691,2.093148673883954,-175.6227081656509,2.346890649570009,10.856147098170847,-156.29009676435822,16.512021346470245,7.985456756493651
0.46,-295.0354322492876,83.50844464906389,3.575859580239523,-35.186257553487195,87.78312742497528,2.1240196272727965,-175.70395877040335,2.112170465827354,10.831862093311113,-156.0238191458998,16.74859790446449,7.809449214714579
0.47,-295.30608732808224,83.53132489962043,3.4051009331025117,-35.610178953595195,87.87291105301594,2.0755874560678182,-175.64453774198066,2.231036005674682,10.687967714805913,-155.9899171913108,16.52030848125178,7.701029828952652
0.48,-295.37567858244654,83.24349415938038,3.212996930698924,-35.46720030564025,87.58603642236686,1.7621847845367151,-175.62050099118653,2.1830481664098915,10.897397661066051,-155.61603453078064,16.53294352559267,7.384074484812357
0.49,-295.20373779454945,83.47258008318495,3.0200926518799487,-35.53822410861574,87.7356177610267,2.0464657111474773,-175.49238925230986,2.3040276512292586,10.530944535557351,-155.40439318868826,16.609925427518093,7.364186627170777
0.5,-295.1715186338912,82.89431356363453,3.3582312581318634,-35.52928693771684,88.09121387826703,1.9663389071136848,-175.3221891223479,2.5892689196265555,10.60139375532766,-155.34103057277224,16.550452620834836,7.173161486154501
0.51,-295.0843358383909,83.5323442519793,3.270532267814776,-35.566658500682344,88.2748940914495,1.899360582729139,-175.11689801110347,2.3395206461474083,10.546785217335811,-155.47976947881156,16.836709676852387,7.130601996051806
0.52,-295.4437222733694,83.36172825421224,3.3706581729150105,-35.97825084779797,87.81961234677598,2.015296144410911,-175.10707221665427,2.930037867693544,10.545042077092251,-154.67958655886196,16.81372003368765,7.38779824209284
0.53,-295.055192019277,83.52860792154131,3.4384890404470707,-36.02080245039469,87.90188685204454,1.7323306985863784,-174.7836102929016,2.7734959550340634,10.619098806676332,-154.5047976028016,17.03300535144394,7.265415285528877
0.54,-295.2280159369084,83.60788095691987,3.5445002193644264,-35.961587495022954,87.71603944137262,1.8790836065597365,-174.58571711474835,3.1469661746901845,10.388626065330758,-154.10875535595895,17.108918161225816,7.909131542015578
0.55,-295.24945540420623,83.52679818369054,3.294832727400796,-36.21993200589875,87.47990401863937,2.258828901184188,-174.45161306255454,3.4075968970249333,10.785851338806175,-153.91651540973285,17.192211223979566,7.670450722271091
0.56,-295.5846211989952,83.28738459874306,3.5058210372258385,-35.859946048198864,87.06842915375688,2.1847367629964345,-174.25596378904055,3.4097433890894937,10.692492179367877,-153.21583235663047,17.218574733027545,8.00500503286842
0.57,-295.4252032163217,83.3732772894998,3.3045023416654256,-36.22626996183772,86.64491323654737,1.953365882868752,-174.12412104995556,3.6676792299912138,10.819884393719711,-152.9422390041008,17.936217955566377,8.330140959201769
0.58,-295.13725060440163,83.6436730145216,3.404356153277221,-36.4326698980239,86.3627942724089,1.9995366232327143,-173.9073974056639,3.667382502499613,10.73871347218464,-152.57954375234686,18.06980492273168,8.388013573469244
0.59,-295.190429944319,83.38636465768857,3.3080924223134245,-36.31389973758572,85.62798526169169,2.2632821790745883,-173.45602216084004,4.018703487392005,11.140967260825612,-152.61201048118247,18.19089462527573,8.782921765060593
0.6,-295.41821772334094,83.3213006546397,3.321556359512056,-36.01607669513646,84.96693386083984,1.882549127232139,-173.5374771627872,4.325950202268653,11.398395918168896,-152.56751185435152,18.332464225061763,9.406997714119203
0.61,-295.4353401087644,83.41677810763464,3.769253133477225,-36.24003600856471,82.99457585281252,2.362484339879765,-173.08331399820293,4.324353378342658,11.7078892817053,-152.22818407958488,18.361434736341945,10.443128274608156
0.62,-295.42188275352214,83.29437969968055,3.34278788964886,-36.11717785133656,82.04459156789397,4.450750968158278,-173.04149332949603,4.089049007505343,11.682110567442477,-151.99081497115404,18.817777265791182,11.125342172645972
0.63,-295.4832494936436,83.60394479032355,3.014227730219404,-36.24035242786197,80.91552101429465,6.525161029871279,-172.59088497676143,4.409928436162608,11.671909861669914,-151.7731984091974,18.58273136491543,11.292219384021523
0.64,-295.268223410983,83.80630174331242,3.0274760993559515,-35.96319466619289,80.0814577240746,7.909214416292212,-172.30109411257757,4.426289021632475,11.43711975548904,-151.48347600745632,18.776386127056146,11.985058750537718
0.65,-295.39557175360494,83.37332833119035,3.5165324536714664,-36.04956613961473,78.87718008422218,8.98051357103543,-171.71318801514917,4.540487531206823,11.581626835448745,-151.06066076067054,19.002406941184137,12.346291368418813
0.66,-295.3713281460313,83.86264121431903,3.3458109500101147,-35.941440932052906,77.47802114886836,9.913666888189775,-171.4092823300788,4.111739111526725,11.659843591743565,-151.20381470234054,18.85044762718981,12.77385632223995
0.67,-295.44959960273746,84.3496561638987,3.3740596600759845,-35.94668464944818,76.04049209886897,11.327415878072689,-171.5025213285073,4.235332339279247,11.329677249680506,-150.93467569919957,18.82534482109181,13.26132459084216
0.68,-295.4454248702262,84.38967639435803,3.2445503120604564,-36.00839959454886,74.92080943750962,11.471685594137153,-171.58149057038116,4.108987211765428,11.512429154823607,-150.79457870764358,18.88852627323792,13.393520038728765
0.69,-295.248316606413,85.41442396845201,3.1272681804458617,-36.01595307481664,72.34432086741201,12.613345210345392,-171.62079401506136,3.9900306817364224,11.37165895946324,-150.26042006685284,18.774334370871344,14.213284034359816
0.7,-295.07313708835653,85.93703365274956,3.2272628146104703,-35.97819205055655,71.69882241078129,12.605311270431134,-171.5926656064348,3.953046501154888,11.29273826748167,-149.70014804736914,18.81672848973403,14.166549859706086
0.71,-295.333397073539,86.26834942997269,3.50233026813742,-36.174204079188726,69.3584188932552,13.262759264173903,-170.9187219986012,3.6902976901971294,10.887604784784092,-149.76766878785998,18.73913265714553,14.381669845118502
0.72,-295.6820168656636,86.2737627714147,3.605008063636157,-35.94615856038471,68.70653585544231,13.426551302829631,-170.0527340269662,3.57060338200464,10.869304537809477,-149.4139434749359,18.23388653972667,14.639895321116706
0.73,-295.5709534003921,86.37504311924033,3.901868668330237,-36.36633839943251,67.27488094144597,13.621085482820025,-169.79200431377808,3.567532661020808,10.63376882106448,-149.30356737636012,18.488301700170325,14.547618657642102
0.74,-296.1140309101238,85.57577503160378,3.3129123719103006,-36.678071905792805,66.46279481968537,13.494205331004911,-169.07159935233713,3.7240918238268095,10.8304944203607,-148.56660673956785,18.62609953242972,14.61491913189844
0.75,-296.4907193033532,84.8411348024996,3.027062300437781,-37.00146258985082,64.98827455215795,13.1051358140962,-168.73045147500574,3.659575710342041,10.653742381677253,-148.4265541099027,18.53090178590516,14.032091395134817
0.76,-297.674533025693,83.44615126097777,2.8632055416798416,-38.41542829422363,62.310356511674776,12.996521833264175,-168.36758316058803,3.696342706651527,11.136812123521375,-148.4163216543783,18.57917842198786,14.159964137486956
0.77,-298.1678010041244,82.93201062030104,2.653574833408165,-38.59801944857027,60.82585149780528,12.67913478513233,-169.33439745995565,3.2211749805289864,11.04197949816604,-148.41501646603365,18.50346716093085,14.46036020088755
0.78,-298.4282654390973,81.95458265974602,6.630818221525188,-38.66257700969563,59.81156936704609,12.813372326978408,-169.71931316910877,3.0542166718421653,10.833197413833624,-148.14835292782726,18.580574631255868,14.528622186158882
0.79,-298.8069537722833,81.61797341468466,6.6868851369641655,-39.04826889513483,58.57923439213864,12.67602108773812,-169.93828726087716,3.003059011509164,10.615266570815525,-147.99803057640568,18.210538973397885,14.512612082998947
0.8,-298.7728028834867,80.94333984621551,6.556946716419713,-39.28027578044778,57.18111673472762,12.75614837612021,-170.59740675708102,3.044478196260941,10.721005881647672,-147.85878933112568,18.411160282240328,15.088375329097795
0.81,-299.0390514736153,80.40387704103689,9.230086300391802,-39.50222927311796,56.09229609807301,12.665115933729876,-170.78699746406005,3.094983069618269,10.261258954409538,-147.46211039022975,18.42775698853057,15.60127461942716
0.82,-299.059346022051,79.39481496901277,11.564494573741383,-39.83607591035587,54.91989452561064,12.611655775838448,-170.51214638119205,3.125014116692429,9.955571945947671,-147.26969465053537,18.72864035662516,15.836050020433632
0.83,-299.5476147317511,78.7064704539138,13.69071011797324,-39.99572014211035,54.193191942219485,12.40425420982956,-169.61268887168742,3.3532430295346387,9.627130909660163,-146.1804262541437,18.737049141082124,15.726715761093498
0.84,-299.738179538686,77.42025320633844,15.921735517253714,-39.94384047307184,53.419098081885934,12.63755238611287,-169.07843658045303,3.184446829966068,9.327374477248034,-145.87823322035456,18.622933578372542,16.110832711016894
0.85,-300.3534372744388,76.75686998726387,16.688647570591993,-40.05856817457312,52.50720797143919,12.814913747245424,-168.7328956954986,3.088786922898628,9.438363292261132,-145.33608778458537,18.88549258019085,16.063542848459424
0.86,-300.6892555846632,75.39076440777244,17.56645332378892,-40.96556691355751,50.72983127494362,12.297975699459062,-167.91016007874717,2.801153594208011,9.327894969214377,-144.1269138555514,19.093579423685465,16.169874221587232
0.87,-301.521634023536,74.1277670397413,18.350837855386786,-41.445390951840565,50.32049523873581,12.367468298966456,-167.5564650055382,2.968918821203318,9.36785729564344,-143.78544517284354,19.279029086933694,15.985846936718966
0.88,-301.8682100544245,73.49670268790426,19.152800042875093,-41.08609951635325,49.32509763861282,12.355749613445129,-167.10574091599702,3.306730049738676,9.51438448468584,-143.04573964762147,19.433765566480524,16.105171760368265
0.89,-302.4821271496545,72.48923449352773,19.377937917150977,-41.7287572038131,48.80535533153205,12.172414715451978,-166.42622122161296,2.969938991661273,9.728858429560129,-142.2113913038142,19.54664715090422,15.600171454564066
0.9,-302.96388668224773,71.59362202621723,20.04036625552376,-41.84280450577742,47.9366178137537,12.192875349037134,-165.47938934812683,2.483985318804097,9.676118580672185,-141.68663583874667,19.675138142691758,15.021337855757892
0.91,-303.31407230278944,71.2069283748556,20.7336878869407,-42.18420289133589,46.98931000884333,12.389810683630149,-165.03656633207123,2.593721693062393,10.059559421694225,-141.4017650348661,19.283611915175896,14.696390969996148
0.92,-303.32000373758467,70.75548533648869,21.61045048650342,-41.86415727925985,46.36954596324629,12.235622400421397,-164.56373497473143,2.614183315568841,10.3658490141585,-141.18107239752138,19.370401412966004,14.589524775992992
0.93,-303.8860498766923,70.15566596225021,21.704091553439955,-42.11597555155893,46.19702567947577,12.450594014444787,-164.10264779854518,2.3242160985532943,10.724482826496814,-140.54078168441464,19.547658661878067,14.207629443496916
0.94,-304.2297879137138,69.76232793279237,22.13517544481575,-41.413499513488574,45.66254961081846,12.615220361744385,-163.97807521470224,2.213429871997597,10.396254126683427,-140.2032388171132,19.532328075737848,14.077516909542382
0.95,-304.64772869274987,69.1556083923547,22.27223735955675,-41.6139504576456,45.61423248397067,12.682168285936614,-164.07975757173864,2.2299578470282264,10.407123331962037,-139.78475838208666,19.627305558905597,13.739308778064778
0.96,-304.7648983751461,68.92137061905657,22.38231398835244,-41.59918900643,45.05237176356569,12.545199769409738,-164.2177750361817,2.610145882391244,10.397344194401482,-138.74478377232262,19.89274257032808,13.870744967613843
0.97,-304.4285112467118,68.55559623408874,22.91681083023523,-37.18557750516186,44.96291613689754,12.549629098900414,-164.07298250300562,2.501329930601312,10.409157743526167,-137.9254135046104,19.729400296610336,13.674158495857617
0.98,-304.75102691857074,68.03646177227544,22.71604459337441,-37.17945837420483,44.56160905996604,12.581273331266315,-163.79288302179836,2.660301169508471,9.997561190554046,-137.43590805024968,20.31688999898292,13.79256226749808
0.99,-304.70303548931395,67.57260160356036,23.07761392639981,-37.27115759686868,44.13005569416514,12.760414036800894,-163.6350066044393,2.714567305935565,9.576062518717569,-136.95097856090342,20.48631837258607,13.634687419687188
1.0,-305.01833655221924,67.08786033173266,23.51606406671796,-37.08731675432784,44.197031174632336,12.538821537977451,-163.23027565421052,2.804693281582459,9.045426190007747,-136.4906482950709,20.44054738166354,13.63191400841552
1.01,-305.0162833331652,66.45031490143731,23.70497739474872,-37.34219440145834,44.09062387731425,12.614206246390149,-163.06188543115343,3.0715937700958174,8.808519716788496,-136.24724835487484,20.54558768271396,13.007271102248284
1.02,-304.7368247799402,66.12300944757175,24.26330988153238,-37.3037097931479,43.69003479860291,12.35642606246484,-163.07080295588565,2.987593298503804,9.124110267205143,-135.81111225540178,20.62092182640122,13.21944866223537
1.03,-305.3915885709214,65.72701944275025,24.198236678137416,-37.3095145060204,43.72015115525847,12.739537025168111,-161.96927767751117,2.8283356626007485,8.559466192978567,-134.93621535121702,20.837268371306,12.441813085796255
1.04,-305.30958163565435,65.21484366678935,23.967106689209302,-37.27690301038577,43.41202177438139,12.680981724182711,-161.57455492527183,2.6638905237744144,8.576066490563221,-134.43597962550987,20.930412493237935,12.35128973501528
1.05,-305.48502993878503,64.96441503281706,24.629503453976515,-37.48053601122029,43.25663383014725,12.667989887253553,-161.10171838632365,2.933952815305086,8.602982282071025,-133.83115808460647,20.57923017476965,12.170354296034455
1.06,-305.8051318845625,64.45491688269921,24.570638659236916,-37.27663850259983,43.45041914035907,12.521686601649389,-159.98522580454716,2.6402238778483382,8.22669679893897,-133.12659426953758,20.698062896945203,12.0383595369752
1.07,-305.9684518784516,64.72237993448309,24.67025790465456,-37.21084340883001,43.30360136883238,12.68095591110392,-158.87517913147914,2.628140331945228,8.363146979072182,-132.23666723938624,20.69080492580241,11.723116054371385
1.08,-305.83680340429345,64.81488186805112,24.83777275299383,-37.30165408917923,43.54037630426872,12.928101565643924,-157.8728720487371,2.6400772363965346,8.068161403201758,-131.23297395583484,20.982915134822544,11.202180512764588
1.09,-305.38639078353725,64.33579085670291,25.20328648607615,-36.95008176871819,43.23875585676017,12.760526682267738,-157.3261285592857,2.449913876395625,8.020848043115105,-130.28302890770215,21.02019566130009,10.34161523240035
1.1,-305.1581699077765,64.45626766040485,25.45564848584592,-37.186255771150606,43.39977703544846,13.445715481139132,-156.5870593262608,2.574689214736539,7.432870610707534,-128.28975492778028,21.31518810549226,9.979651086285724
1.11,-304.75332728402714,64.7243194119904,25.96429201440524,-37.00088775175168,43.372757191439504,13.558862292987753,-156.4882379410133,2.454771812462806,7.740130541135518,-127.11614551567033,21.63105494918963,10.285757743032567
1.12,-304.2110710117358,65.01253443085558,26.18651059929712,-36.60826103482601,43.27546018749646,13.5953732242737,-156.24621938877917,2.0612744954099136,7.496778105087848,-126.05599434512035,21.587276414892383,10.128016330572787
1.13,-303.8164684458569,65.13227643833486,26.38881112750373,-36.81907694006206,43.16908962691252,13.62801406528134,-156.2870661994379,2.2694426992015377,7.384779282778638,-125.84015992238172,21.33931420524436,10.606550912293764
1.14,-303.1583362388392,65.39296988723207,26.74602913444592,-36.58079494604138,43.59656590059993,13.310168472505527,-155.49028102374788,2.448365158667463,7.220065001687864,-125.55326260509275,20.90933748024468,10.910819832789734
1.15,-302.8058564597505,65.4803673797673,27.190341546617965,-36.75190311336204,43.48844225950421,13.46999440445676,-155.66153103778967,1.9885358520360812,7.420817724172339,-126.32551089359536,20.51708665312324,11.393953896143165
1.16,-302.4490834362402,65.65186900536071,26.881428151505,-36.39448169057169,43.44356811820841,13.497929791302264,-155.71863837367258,2.4982966682259904,7.339045704572002,-126.42030913055824,20.079687102734344,11.824911023852447
1.17,-302.2172284213128,65.67673037311944,27.24673811234378,-36.319104092692726,43.44132012254519,13.700584384852194,-156.16619040514274,2.1975085590725576,6.930052400678681,-127.29333827958874,19.81479678150072,11.862348478305828
1.18,-302.0004297861676,65.4934637679775,27.222561667839805,-36.58144535151975,42.909326300792046,13.594347600631629,-156.7376901914596,1.995711802630245,6.559210873069338,-127.4368265617314,19.193959195517287,12.133989909350689
1.19,-302.3174609554907,65.42369964625126,27.165792656665253,-36.79143456240288,42.91128609391136,13.507106172621564,-157.63514904538218,1.9949776797084569,6.362947334612975,-127.53931260525674,19.438769957785286,12.506508259847486
1.2,-302.8658817323241,65.88645043715181,26.90508368741135,-36.845252942019634,42.783973831487785,13.041440974434014,-159.15255884320445,1.62508426670284,5.475951560133332,-127.2690435293612,19.40683614675449,13.109462567164831
1.21,-303.2773154374219,65.70560842386358,26.74176334202308,-36.86290655659443,42.40299632194471,13.160036211250862,-159.69273112649603,1.634466743064051,4.739271889560203,-127.89374946470372,19.28723969338249,13.88113563836885
1.22,-303.2612229392303,65.5711676659457,26.688822195846143,-37.19083067760047,42.85921523368603,12.622181751895948,-159.99148785212623,1.6652881963184794,4.166240214429862,-128.13018203722777,19.14668558532723,14.359435467592808
1.23,-303.12529273174806,65.37109372960454,26.76277565023037,-37.16602674681415,42.67903443845391,12.591287744181596,-159.98358609569598,1.7065029878234756,3.5925230059517443,-127.69565184391811,19.28358540322915,14.618579478488488
1.24,-303.17321478441323,65.70329487137526,26.84444411112104,-37.38775419351649,42.639234239815,12.406263774884328,-160.58174924928932,1.6255349959770145,2.709093259325822,-127.5714690297536,19.496886159379613,15.09811821144592
1.25,-303.4479983705076,65.65895556534512,26.83457415876471,-37.22988322224315,42.4029329654813,12.432979240281403,-160.41086945007095,1.7747075054317267,1.9331396067697204,-127.85992907434908,19.32017272221737,15.330191038847287
1.26,-302.9895082558825,65.79026102986114,26.76066659839857,-37.38732405281605,42.390643929206,12.271357133759263,-160.84037037079696,2.193268369395364,1.0266102548858054,-127.73726846872748,19.39126347208643,15.602499554111972
1.27,-303.2172355030971,65.62083398348017,26.87836280587909,-37.70601970486244,42.28503763189953,12.17224854111276,-160.9373075802947,2.119473979206085,0.3225114545299471,-127.48972236850042,19.060525012055283,16.227164856699886
1.28,-302.9102122909512,65.99290079724321,27.05259257661426,-37.57815706820787,42.5274339219851,11.764215744016113,-160.66058856921623,2.1409109872560466,0.2946061344488917,-127.21220007500511,19.418992118001334,16.52808139365848
1.29,-303.1032661912897,65.8112416760988,26.95482985807851,-37.38846717360951,42.55227556691901,12.308054019902931,-160.66231061007207,2.174542837679968,1.1731351147694375,-126.9500727143728,19.42210098352547,17.19048390659364
1.3,-302.9580631100139,66.15370483181584,27.219326262681456,-37.45657856226965,42.72880950291752,12.552396120155375,-161.1629019768612,2.223822805839608,1.9289290455801336,-127.15142885392696,19.52686373788713,17.422160193938105
1.31,-303.0232893316348,66.16602807119955,27.0395993346766,-37.73954054368339,43.08387085297161,12.536513866854625,-161.62325202124126,2.327287294783985,2.698878907950343,-126.91646810275064,19.48660718090874,18.109649616623894
1.32,-302.5447115842852,66.32423864663042,27.13330588481801,-37.347609908547874,43.222360627980976,12.65105319042826,-161.85233908271323,2.7863048538949244,3.013667843059828,-126.63065425480688,19.59649398579484,18.43046834020696
1.33,-302.9590888909602,66.635175890028,26.705885149453355,-37.74122266560325,43.1670313102088,12.427000963742373,-162.22284604806202,3.1522009484639897,3.989194727129924,-126.57941541902709,19.7020288960082,19.01659568100598
1.34,-302.7492555853372,66.90211458119789,26.905893761303087,-37.41968658094736,43.73267394252253,12.573429107149488,-162.26730967249088,3.320023815760919,4.534477042403919,-126.16950719754804,20.17843179260817,19.738218924286848
1.35,-302.3863316245873,67.26953405591054,26.63942990346396,-37.29710111283672,44.30155714527288,12.861127243831564,-162.0385847250772,3.9886442111620015,5.037283779584506,-126.38050316041408,20.339179982066312,20.646914457268974
1.36,-302.0276604711005,68.40406322944882,26.55741369788933,-41.718391844664616,46.05786170343296,12.82313633609135,-161.66967322827543,5.197304423305504,6.735103096694717,-125.76267228896614,21.377795064120598,22.681310932277626
1.37,-301.7888688487293,68.88938458374241,26.30168477987577,-41.718526259572805,46.76943638638584,12.99168238256994,-161.82311759035264,6.522816228627186,6.745906701123684,-125.56237266450628,21.9700432160598,23.880424367639662
1.38,-301.5109947755408,69.20720416072905,26.43323629899238,-41.99075745513497,47.555099099942026,12.599638999559396,-162.18686617549668,7.107551122912277,6.854263633074141,-125.07618507676442,22.472715341182724,24.64537930662887
1.39,-301.27279285821504,69.57055844771726,25.91605562661949,-41.53457715280173,48.42362886325896,12.736288497888072,-162.06926987527723,7.543028725458314,6.990684304385117,-124.44978138578588,23.440307146537677,25.387531861965627
1.4,-301.0170391029182,70.47311095924925,26.02911621612837,-41.37368599930443,49.503912959783904,12.536395339126972,-162.16097545794085,8.67250047739987,7.122537498321354,-123.88068081858556,24.03113046104048,26.5415261674482
1.41,-300.928703403342,71.3585378298392,25.52198014451129,-40.78147883062065,50.296672474891054,12.847160942892332,-161.7469226689946,9.546060765917185,7.27192468520064,-123.20976572422396,24.860720563005334,27.542452758592404
1.42,-300.3834069107243,71.85637387999314,25.143919275203157,-40.67724836079857,51.36285190685075,12.73577233840952,-161.9345918179879,10.494500732849415,7.438276732130274,-122.73157365058552,25.251286716523705,28.76207648103169
1.43,-299.9977705558971,72.57803033834686,24.928973271047585,-40.55759282332922,52.50623314119494,12.716959072952852,-160.8799791547395,11.60689548747051,7.419880541134662,-121.9295604792729,25.985869358147795,29.742399294617076
1.44,-299.9505782544481,73.51208973131564,24.927698856101703,-40.1622319315231,53.48114371935301,12.625877593880803,-160.26702603466785,12.926691757088834,7.932176391257308,-120.7906964373513,26.726910953447643,30.676881582191005
1.45,-299.77053151144435,74.39288209670825,24.30308707266072,-39.76903447595082,54.86159811397687,12.857573421694356,-160.06847386987974,14.34327981128877,7.684120049815669,-119.61314816135868,27.66438403570328,31.343881235834605
1.46,-298.99573058500647,74.93267901344707,23.76775028670417,-39.093016101073104,55.93420888028555,13.024937308872708,-158.760766799123,15.75157993548314,7.7172496166601725,-118.22045392926904,28.753072077692067,32.10066737261387
1.47,-298.8197057411554,75.56131894067846,23.634220458942156,-38.75295858812605,57.23211330021681,13.210519513683025,-157.84047568400058,17.540494441575735,8.35643920851656,-116.65005548693308,29.5736280914325,32.852849150891366
1.48,-298.44463132562265,76.39735066965926,23.237989877272703,-38.30811058039206,58.0615670912897,13.03463047668698,-157.1761410476049,18.94255494903788,8.120209433462962,-115.76869036053137,30.103970647899885,33.808129553606804
1.49,-298.07683908606043,77.39619914743423,22.34881317371341,-38.20078947503095,59.41296400587157,12.861034326928088,-156.6585544990209,20.594935904132434,8.37712377914606,-114.7869080249468,31.07429205296827,35.08380763570761
1.5,-297.5703486658357,78.03543669674917,22.001091728909365,-37.38739950456471,60.83501856703734,13.26937621315794,-156.1409728805513,22.342697546151392,8.123181822795404,-113.7630972313675,32.05522290578844,35.840313376209096
1.51,-296.87372963334025,79.85598879368474,19.77053518558856,-37.17914716060815,63.14145464049115,13.103209457624182,-156.1006809754322,26.05520462733351,7.248696302225284,-111.76809334658633,34.27515948258646,37.721067077753936
1.52,-296.6423334732953,80.36569581685218,18.460225206042267,-36.74705049483503,64.45717434306209,12.651473598488057,-155.7977574536386,27.664389038526743,6.904699366710742,-110.66763481551568,35.55007911986067,38.80829048475708
1.53,-296.0346116912308,82.2404370701329,15.032204652545763,-36.33525505114799,66.82767527636496,12.711985082752197,-155.53655474786137,30.84372256785225,6.132188263624441,-108.371217331561,37.6616009951925,40.71250888849515
1.54,-295.97575819905745,82.99176680083244,13.158604592544004,-35.97167993081657,68.60771335323794,12.858069245455376,-155.56897269762936,33.03038674834247,5.098095281960936,-107.39353735056412,38.98240600300212,41.41129908516629
1.55,-295.6147880809752,83.68382672265014,13.126096591003243,-35.92806016284224,69.54505571776902,12.358907413381225,-155.28287417680335,35.13531558396742,4.5409921088346765,-105.87666931803876,40.23548751519509,41.9542607720392
1.56,-295.7073378815048,83.80128677917382,12.981873127737956,-35.54651180514053,70.42812204713796,12.545777341478663,-155.21327942784856,37.121462227497226,3.620291533327936,-104.23126542345774,41.80359635845136,42.99216698266308
1.57,-295.22774752136104,84.68017307638576,13.19764788867442,-35.33034121261307,71.86528507232582,12.427192991124448,-154.6311146360249,38.96544323409358,2.852773625351564,-103.0353861061125,43.2318989172914,43.6351606310818
1.58,-295.0842150298849,85.15846905066098,13.186008194522769,-35.17828522841604,72.93241104833731,12.483907531872823,-154.48104470209063,41.49562823014031,1.4052823155259242,-101.2324282782162,44.44427147701134,43.96548427800521
1.59,-295.09865125422454,85.75761699596771,13.298523436913737,-34.36050943318046,74.21551948823488,12.954963800338554,-154.22010716611604,43.53209518410318,0.6126530659640057,-99.45744657670632,45.99684646763991,44.23331959121335
1.6,-294.8173790424553,86.16676637770138,13.26696265626314,-33.973365080212794,75.20552815550514,12.650131353029812,-152.85740738651018,46.13556113242947,0.5819850622631606,-97.35422769866976,47.64574573266275,43.99230682221885
1.61,-294.2097595133169,86.7099641268301,13.301995304510804,-33.79767224913921,76.15411589566993,12.316657038554515,-152.17520431304564,48.28606871586268,0.4252226407724686,-95.75323462251735,49.34522330968839,44.366037656956685
1.62,-294.1562185729188,87.28042225449464,13.623779498312148,-33.46381971824589,77.4624735545806,11.895055837134452,-151.75044201375664,49.403291204167104,0.6972342883075237,-94.52081121134684,50.94067168989569,44.40891756026547
1.63,-293.9270068305661,87.48525556945448,13.673654121879444,-33.48014146753511,78.00220842541539,11.878256403734015,-150.84172056019074,51.55985334503144,1.1562851971251824,-93.57690303916353,52.26582275882175,45.93668636697401
1.64,-293.51049581577087,87.42409082283389,13.733006072746276,-33.25339619713581,78.79045615724779,11.828143946639589,-150.3081604604523,53.73852066271149,2.2681931785510425,-92.73358253476115,53.75660840742808,46.73187872129231
1.65,-293.4400392214659,87.39775971181128,13.616928722476713,-33.16076137309584,79.48298638082906,11.625484807492676,-149.90468061248205,55.540742283368175,3.0836093533317945,-91.4993590430892,55.202300913724805,47.55363419483415
1.66,-293.29678203537725,87.06924061126311,13.911787897737248,-32.66286209159894,81.12583586078499,10.254332649078648,-148.7808550051943,59.67401713427807,4.701591526337736,-89.48064982629364,58.36029097263664,49.05583448489001
1.67,-292.8495835701353,86.92954582277281,13.817612175671924,-32.51429370729886,82.02022287867925,9.015558205929224,-147.77944399330858,61.53651866804661,4.657690303829006,-88.6703770733026,59.768767356593706,49.57880837809288
1.68,-292.6993483188413,86.50225449130463,13.651980118667767,-32.47545121826274,82.6601350958691,7.550429262520338,-147.2513965057625,63.18192584468542,5.47552104963254,-87.75834103453539,61.025559361118006,50.57277855431265
1.69,-292.7678794961501,86.34840496504582,13.572555669237085,-32.64311679248112,83.36473453798274,7.540299561012484,-146.6474915999493,65.27368413669143,6.279754110729712,-86.59180287163466,62.52462266258849,50.34406893693596
1.7,-292.0004140246601,85.95162110901416,13.45893549036838,-32.30787619834232,84.4357907000324,7.550646327082039,-145.4591568027396,69.25905299442462,8.141792742654516,-84.47638349956247,65.87847117014543,50.7896435735228
1.71,-292.192429916087,85.59457786348098,13.588666132015614,-32.23242451906736,84.91156880106612,7.432867786289663,-144.71688818976278,71.18276272885146,9.309755469372169,-83.92797286893737,67.3798815785519,50.80234722833399
1.72,-292.39783038533375,85.34254717039492,13.67230712587916,-32.27573473793977,85.08381745963797,7.297819690067764,-143.37871767636383,73.15351467723444,7.984011990996168,-83.05911958047687,68.45905946433044,50.81884816052377
1.73,-292.20972637737896,85.86479781068482,13.377537842989282,-32.426284182372775,85.5254210470448,7.18528646748754,-142.37550790108483,75.21424965582816,7.644801403071111,-82.57249735958773,69.27837137450744,50.9326072602328
1.74,-291.9998631065285,85.14248108679665,13.666123441417655,-32.436222803547665,85.47491011085803,7.099739928221098,-141.8669916852399,77.35684126594059,10.771623208278552,-81.50898663397366,70.95791764662974,50.81186359205908
1.75,-291.8064058297359,85.04155813652574,13.575645234300003,-32.23997196147703,86.07926597231868,6.964790674998816,-141.47652683033184,79.07357483043745,13.3024124394946,-81.09248254030092,72.55709868623964,51.023137498582784
1.76,-291.7954036338341,84.41743897524141,13.534349711219628,-32.08567977807502,86.1100104132829,6.818242525210709,-140.44807527446997,80.41259266989768,14.364165965615232,-80.50304859228014,74.16169297766885,52.12666262496226
1.77,-291.7277439347715,84.44347941016528,13.330096271203928,-31.871999291103705,86.22252604264223,6.598012525640008,-139.75818881617522,82.18302736650948,15.1356318914507,-79.81252857015238,76.0222144878247,53.33133849819188
1.78,-291.0919965067756,84.46337953507056,13.164126833260624,-31.92651233079625,86.47977101575904,6.447143542545696,-138.9547223567868,83.54898877839375,15.42690854387155,-79.45511567524088,77.26684525002888,55.8177025355381
1.79,-290.9746890294192,84.63942554435359,12.99949270492782,-31.78631890698845,86.65396635964592,6.456234315338722,-138.74242396353088,84.89500358000257,16.036453135413343,-78.9486664185623,78.57698542254305,55.35953164841143
1.8,-290.5880172692205,84.57345074098708,13.187763061088193,-32.04659597781103,86.788182738528,6.093278066866529,-138.14057844937085,85.88115077980243,16.185221650080315,-79.27655280561406,79.51295943880088,55.50391747009871
1.81,-290.5863537044011,84.64800105190346,13.08992050422761,-31.791620848361028,86.93381950451959,5.981037479958145,-136.44018281887153,87.98628927777348,14.927336739004598,-78.38291936943229,81.51586163365478,63.95479527222372
1.82,-290.38357903031937,84.60249609492477,13.177718567170064,-32.38753643054583,87.05252549077154,5.7028041695304745,-135.81900751034587,87.95027154504415,15.246121781649723,-78.02192471640724,82.4737810793411,69.43379828390303
1.83,-290.0866756018844,84.79272309971782,13.14359543643754,-32.336030755847275,87.06976327138636,5.769572132778429,-134.84175746580286,87.93063806277381,15.402287798769509,-78.65596182526458,82.97936659012457,78.00073395515138
1.84,-290.286997936661,84.795729196616,12.838647832299277,-32.55339690268662,87.11817969365156,5.878455455311017,-134.50937925471982,87.1561514957149,15.584382909551104,-78.37991373112631,82.87395547309619,87.03104636998556
1.85,-290.0614003621736,84.88602463685979,12.659438596270062,-32.75392154663468,87.16213381598064,5.778929354407192,-134.1316834679941,86.60061137466988,15.260041948491386,-78.51048375759687,83.42266986393224,86.92484364085264
1.86,-290.10540501592885,84.6809785018428,12.472930270381214,-32.672703301689225,86.85861723541657,6.141381669159311,-133.54915077958103,85.89119966409798,15.394530180053131,-78.9909374733471,82.96710455458077,86.88695614109051
1.87,-289.9216299036308,84.72957129246538,12.399612046091288,-32.595833983149134,86.98961129247122,6.029553910642176,-132.94201563990302,84.39372473488888,14.80923531252453,-79.71703281635243,81.66403168879296,94.00924703559728
1.88,-289.73779938636886,85.04140709234035,12.093311954740445,-32.67547856111544,87.00048807307185,6.0049971379495215,-132.42300462683892,83.98167456965518,14.60075831114946,-80.22063152019129,81.38403192629636,100.38571769174818
1.89,-289.4433366256079,84.81274817538474,11.936321076858436,-32.43130010245562,86.50265042763183,6.180618178122765,-131.99173285576606,83.59924601614308,14.77944541376766,-80.56603661856327,80.85030159385627,102.82703065174528
1.9,-289.3613998799817,84.96153725632995,12.287273153565142,-32.56996329735609,86.92572589980824,6.07118307848104,-131.93542684713873,83.27457202561686,14.755390731675703,-80.88562696485269,80.01757225140122,105.60969106503003
1.91,-289.2108866692132,84.79547021433689,11.943023831481035,-32.23059416813135,86.5029947648726,6.299642875330218,-131.53571174431994,82.74273546739335,14.64266927132094,-80.89970194769921,79.91778015685637,108.05417380211314
1.92,-289.2308136706635,84.96912573389217,11.901716419579744,-32.58852875656702,86.32263512816192,6.114419333151892,-131.11628793497363,82.30746340216636,15.171154849601626,-81.16887897261645,79.49211790632502,109.43250812041258
1.93,-289.13007345517406,84.83532975914511,11.88536738680924,-32.790234912129755,86.48629432261951,6.173264290804266,-130.56674458651125,82.06305484976222,17.839143037574143,-81.17286887468575,79.55679783287627,110.60892479934546
1.94,-289.2135516239935,85.18535366901457,11.45937678274661,-33.042938988797744,86.43488396298473,6.149125942160891,-129.7933440217183,81.89260875730415,20.297139452932985,-81.57367988514874,78.85964552633516,111.81228544808856
1.95,-289.00550292952687,85.2667557196811,11.402837957601813,-33.06660157161259,86.50372842647646,6.365090729871012,-129.43697075799048,81.78273620417562,22.493253813906254,-81.7773348680481,78.94681831536938,112.62103763438384
1.96,-289.3822503643918,86.06337749716485,11.54818073658875,-33.01746247398369,86.59055754445103,6.192055372297341,-128.41273238684093,81.79468832929355,24.72159814747708,-81.88854670302364,78.43537768372744,114.4531736162859
1.97,-289.34165654968524,86.45399575074337,11.40656061319999,-33.281842744280674,86.70141030618777,6.3983315010044,-128.0403389312837,81.52595493909531,26.013481314446796,-81.78668766581072,78.04436686232097,114.80630665969971
1.98,-289.58945581191387,86.58992830697062,11.25115212256718,-33.823491263853484,86.92322995811033,6.201709593686309,-127.39532926542128,81.79998521893216,27.176699831088293,-82.1122877723947,77.95983858988592,114.3865410159111
1.99,-289.7271278973664,87.21107997434312,11.481558554030425,-33.53684462094742,86.49447812528071,6.246070622483568,-127.6752156009068,81.57067415767283,25.80475570651245,-82.40561454171306,77.87430276194652,113.73504032897937
2.0,-290.05833043430613,87.40338477979502,11.500419711986178,-34.05890598580439,86.45046107593097,5.906155711907998,-127.19299961422264,81.75984134894543,28.25813009504961,-83.13089669207667,77.68979002539335,113.07330323135088
2.01,-289.73274258650093,87.47927934877764,11.625156813165775,-33.70154553419091,86.08616304907002,6.018623720364623,-125.95143064570064,81.80477101157307,32.009444012204135,-82.83522679734452,78.33345720426053,114.2474640639126
2.02,-290.0118678722323,87.84676032878586,11.637543893127448,-33.49723832754283,85.98010131189966,6.064442991094207,-125.40599840212096,81.83926265273502,34.536032402707434,-82.92726022363925,78.34200219704056,114.54839823232324
2.03,-289.98849240676367,87.99330200844943,11.641245326763368,-33.79036521772756,85.764758341345,6.237022590552494,-124.73583351206769,81.64794765815883,32.37829448017874,-83.30690257522258,77.96367663514876,114.0357994855712
2.04,-289.66076656633845,88.94108425754904,11.505238598773149,-33.798828594490026,84.69756312292316,6.454540951990057,-124.16884093470613,82.57507736559556,32.2688626966751,-84.88317442605572,77.53990304869683,112.4249856943237
2.05,-289.3675225300403,89.05073577245402,11.775723122813352,-33.86926831115951,84.48231543167017,6.394649695744374,-123.43648355730332,82.38976585517386,29.6905290944666,-85.22260643059421,77.34837041020978,111.99314503736848
2.06,-289.62562635264385,89.46801688647896,11.58868128591558,-34.06007092351579,84.12396062822735,6.499041394591984,-122.7124749805654,82.73197101304179,29.516102481769767,-85.9761480639358,76.84521262870456,111.73308052856255
2.07,-289.9233199965209,89.43677672085148,11.602545036732046,-33.851556838215664,83.41584838082083,6.428862840366081,-121.89531683707368,82.82014821864927,29.91116601694894,-86.55735198409397,76.41212769347183,111.31568195393916
2.08,-289.7978175401128,89.62393057350408,11.476481820225755,-33.936440860011544,82.58015331594395,6.7349092154812205,-121.66935496092806,83.08094860060582,29.910763144827605,-87.57631243232478,76.01744896633593,110.46201320655383
2.09,-290.14893030818456,89.18388454944747,11.593413454285317,-34.0051198169875,82.23189120688674,6.5771807319953215,-120.44308372461796,82.77044946761646,27.08299854820843,-88.16559411794191,75.53705269881365,110.36443271240564
2.1,-290.3690104476866,88.83992411423311,11.451474160204285,-34.09111394230942,81.31660015277001,6.582125709226252,-119.47951229903744,83.12684911549552,24.02481260799014,-89.20075984496128,75.22690683517487,110.75268477261918
2.11,-290.5728345803334,88.23871094269913,11.650765484222338,-34.05264430672927,80.07924273308068,9.719439525870538,-117.99177740131712,83.20532188210638,20.339135899205164,-90.37143414834796,74.31581340238792,110.20443514816778
2.12,-291.1839634359881,87.96790215557208,11.582284480294192,-34.15098055223345,79.51651887978085,11.409881937077849,-117.7765675259964,83.39581687594954,20.662840676785525,-91.75051708653037,73.55512996734436,109.16138438807933
2.13,-291.00988291626,88.0105022607665,11.512210292088582,-34.1506746611609,78.85833498040165,12.929868186919649,-117.2584359043812,83.51959126278493,21.037521646768013,-93.3369373278296,72.65080373723461,108.77775677659446
2.14,-291.09671891933414,87.68009025075182,11.781938941505544,-33.86153123937072,78.11867026061175,14.343551133153069,-117.26172221390792,83.68083471161881,21.62824818631655,-94.25306456116336,71.80895942144987,108.2183464643078
2.15,-291.2956482372497,87.46308198060389,11.650862183789409,-34.01213827513882,77.3565383183656,15.171207139580709,-116.45140871598268,83.94787767720436,21.602957195809225,-95.82779602308398,70.78257662066014,106.99730832429294
2.16,-290.9670139378439,87.30131974190289,12.000851199572336,-34.181067296184054,76.47882393184183,16.285683343508307,-116.36999802947814,84.13026919722293,21.95474162496219,-97.36395738473271,70.22987203474625,106.47945375138012
2.17,-290.7596840523801,87.00400528282651,11.758485780029226,-33.747634785921875,75.7544539023198,17.33206577516863,-116.0920347077437,84.04550034531776,21.995343410350426,-98.55171756268578,69.21228257446393,105.70322291573176
2.18,-290.71952620518124,86.77295627329106,11.838308862792816,-33.699874590714614,74.7068537347331,18.05719052377906,-115.87461684878004,84.18962261722335,22.543649640383357,-98.7978211365356,68.9852691513842,105.9144634752651
2.19,-290.4068369080867,86.75941678368413,11.31753768128299,-33.73701063111066,74.35207665091667,18.291528572433,-115.59820941024478,84.32157028103411,22.8342083672931,-99.55659260992344,68.49053035343576,105.477753831521
2.2,-290.2095255896205,86.11599513491453,11.38063835775252,-33.58143678976324,73.55435610963768,19.10814198279532,-115.11549199412478,84.50025551588466,22.694393045706704,-101.6730376889654,67.55818449064425,104.61881726245662
2.21,-289.6283411873318,85.81687038979155,11.472359542229556,-33.56389516421021,72.09022982608235,19.80151167864263,-115.22720391013024,84.39075538497701,21.06317903906324,-104.4062931839589,66.54788100981095,103.65258364242742
2.22,-289.325030578998,85.33318278198662,10.968903602378536,-33.547983724869965,71.45395451743383,20.135697412865785,-114.73957857969673,84.18595837469604,21.254520382255144,-105.50057103149776,65.39569099001478,103.10186054494903
2.23,-288.72892544132003,85.05056856792265,10.599288829481406,-33.4646166195878,70.89441807311223,20.274294743384704,-114.19479556606817,84.2133488077993,21.221668064320006,-107.54239160957438,64.75952722351441,102.56894681785025
2.24,-288.5630423354701,84.36891883569518,10.70090082348404,-33.4269133720783,70.29998040965569,20.35654293416503,-114.22475002167344,84.15900217870558,20.66535202689196,-108.94772898332252,63.951110213099966,102.4148523159778
2.25,-288.5769536518892,83.92135703232844,10.624039928240125,-33.59876008828788,70.01637112884043,20.599831066149584,-113.9941228041949,84.11225735356693,20.041995032861816,-110.4988653783382,63.48978719330577,101.67266357536607
2.26,-288.6263505479463,83.40986570737792,10.453918649884567,-33.4833848169807,69.14107103076235,20.7849538684946,-113.7207782419424,83.91439764532673,19.74291809929212,-113.54076759367092,62.24394825606955,100.16768591206976
2.27,-288.5391368957682,83.13385272734752,10.4523568786236,-33.19218786371504,69.04646619485,20.88570534378927,-113.90083344488473,83.74463656205198,19.05753978278846,-114.2301557502005,61.49271488905316,99.73418874354432
2.28,-289.1620148260505,83.05920432954481,10.48446055840641,-33.775487540715666,68.75229741950578,20.963185467553064,-113.62268842003958,83.41888320877295,18.855787940945017,-115.02915881490624,61.76235893424809,99.72864009886638
2.29,-289.3659066339375,83.0308438529438,11.414210836782235,-33.86187831620741,68.61755101516532,20.69398863829529,-113.19432844713936,83.54471325384581,18.64942418148971,-115.86925394425047,61.81667937959944,99.4437210829359
2.3,-289.4855682548473,82.82007067696708,11.268186137717471,-33.80150534141572,68.69558765346879,20.754879550321792,-112.88664752197704,83.44913167618463,18.61461008836512,-116.98769480058996,60.784298644920746,98.62292969783677
2.31,-289.6164084737909,82.55679847468274,12.000364552516634,-34.16224060719472,68.59295245911926,20.66507294449746,-112.85029355271604,83.11105375094452,18.362877659331936,-117.6000370818664,60.35818249778288,97.67582501072285
2.32,-289.7434954598801,82.3505028872279,12.701219628378066,-34.31485723728587,68.301366066435,20.68155847949553,-112.52458564950491,83.52311662268451,18.504273752979906,-118.2320540775535,60.72852766797187,97.00579714367127
2.33,-289.95130489987883,82.54279824450116,13.480479410118708,-34.43535459975397,68.39556092632404,20.549335261032372,-112.5590634361231,83.84998608954132,18.685925047349404,-119.57570019586431,60.06112928039743,96.59407335797064
2.34,-290.0895297898767,82.44144980042266,13.999002881639546,-34.98163919734655,68.10427019100922,20.11672627342965,-112.98567357633377,83.19687745672921,18.84364295212361,-119.52319812538651,59.69918165242443,96.01393569182764
2.35,-290.21728857104137,82.43527412879804,14.575122803599353,-35.260131295537015,68.1173238045673,20.25728404821441,-113.85900224436632,83.17174462646352,18.679454608468248,-119.81115295752802,59.99192936829558,95.7955653215697
2.36,-290.5028272281666,82.29236468245861,15.072691975816834,-35.28595707766642,67.77781970231986,20.23853337309904,-112.67378517513411,83.91755519227097,18.707032020052715,-120.24314620905704,59.78622028843747,95.28367348886842
2.37,-290.3999727991296,82.04760550056727,15.871961780332615,-35.08633146521176,67.7618856399515,20.06190472134301,-112.47454215301931,84.27901473664308,19.083340728609087,-120.65519995040728,59.93348442987024,94.9946453138498
2.38,-290.60510182188824,81.70111641358916,16.230853257955047,-35.22356789623711,67.93462360275214,20.102331896078297,-114.36505784352184,83.32592245389465,18.189409343928272,-120.92719093807692,59.596684847389575,94.3169099120216
2.39,-290.43133690322816,82.00826436175622,16.430627621887137,-34.88275904445623,67.22838364433123,19.94372013590806,-113.23006720913328,83.78330883178825,18.091311029531447,-121.3387332215578,59.39284157284207,94.41177236870946
2.4,-290.38861209132483,81.6228538200946,16.675326125850688,-35.33689590495513,67.37018550118913,19.839812911425053,-113.64943858070512,84.1334343589189,18.23135780563011,-121.64057776974528,59.41813399916197,94.21149008661094
2.41,-290.435428445152,81.49425824013467,17.084146743379183,-35.42869451426346,67.22743318485385,19.552691634193607,-114.13314626273448,83.85097255430436,17.80173319282977,-120.74094298904495,59.782272766490166,94.67822578110822
2.42,-290.24086563853746,81.42325157938927,17.89598661700376,-35.593711792241734,67.342518232958,19.296976091449363,-113.22323428631115,84.51837586913712,18.793890408749903,-120.74585981858618,60.292348716831206,94.86412339682488
2.43,-290.75691280257206,81.35059079645717,18.72890178438568,-35.90992773692035,66.61753028021342,19.21930724620072,-112.65932307125723,85.31284261959902,18.77339833342876,-121.54410006007367,59.57598829131511,94.0962170106059
2.44,-290.3052873864144,81.0404759381466,19.56271525874487,-35.14306118312597,66.04261918775002,19.30150344152718,-113.28972647973995,84.63808589456387,18.26527805354881,-123.06105995273184,58.88628368843924,93.57745236771926
2.45,-290.77380928581005,80.5265296891207,20.043686932320156,-35.08613769893612,65.86526413789015,19.24781052921425,-115.00235361594656,83.1626881571083,18.129940671893817,-123.11268262405466,58.29253467624723,93.0815807828136
2.46,-290.6337048579659,80.34248540371699,20.22143891169837,-35.30694893494788,65.94237796498157,19.262865944943144,-115.77180325556272,82.34836915735482,16.709770501951144,-122.51161472930043,58.532002214981645,93.84095136183176
2.47,-290.9055792913958,80.30810662387938,19.91164197860292,-35.215802553278685,65.1757841125382,19.356955655511715,-114.95857584036185,82.94273862763299,16.75483462627372,-122.0690130946152,58.84438169634812,95.56509946576244
2.48,-290.5778999996518,80.0905803295925,20.27203281184013,-34.6969921700159,64.4195818788352,19.32466963527261,-114.69049438337116,83.44911617567428,17.016326614113897,-122.67278547372888,58.21653623733018,95.36274337835572
2.49,-290.33377076104966,80.36413664120862,20.22491555482793,-34.644131065116675,64.46965628500708,19.264940233550245,-114.36825611271011,83.69700720840524,17.460225282147366,-122.9050345146062,57.72665433902838,95.40858488011172
2.5,-289.9603336884256,80.08313460592184,20.14036714382458,-34.51903931271546,64.24479934535017,19.12415661819591,-115.36353811529573,82.83198671103189,17.131075664708984,-121.64683507187348,58.04913367443968,97.02605493996909
2.51,-289.84058118676467,79.9012585034142,19.56274171874581,-34.40322687694418,64.0290506689178,19.37192184551797,-116.23576195562562,81.48922328998474,16.076604470532367,-119.3128559908306,59.427908914767045,99.5946357157253
2.52,-289.5802675859117,80.05876273546829,19.14664617881473,-34.18946759007973,63.61674007697664,19.508233888349707,-118.03623588223851,80.0916214489245,14.437585472584814,-117.32248924352534,59.836016731385534,101.76386321606988
2.53,-288.88052552126817,80.00933793538317,18.54810193251061,-33.897714712786254,64.16296265441807,19.627316753195306,-119.27450989912607,78.71393030286731,14.015386712084236,-115.94385555917954,60.48033231790517,103.29013551868992
2.54,-289.2204843755221,79.80419729990044,18.405828318650364,-33.80212897038585,64.2768013096634,19.44727405300693,-119.30974665538166,78.490173590509,15.240007053216278,-114.23647307598316,61.12110430298753,104.5751567447645
2.55,-289.3708534701402,79.77632940252178,19.02667710197687,-33.62650236651787,64.15871913461602,19.08259918289394,-120.17707942241591,78.66922974897132,16.36516670711187,-113.32279455465026,61.51813434456896,106.4314506505874
2.56,-289.45369438476035,79.68472390779479,19.543293836464542,-33.659359680224824,64.83097264035298,19.265679485325627,-121.40355590760537,77.97798896070411,16.657454695465262,-111.71814878912818,62.11743465834393,108.54052097759224
2.57,-289.6516847740967,80.18494353474176,19.53808214103451,-33.667190168472644,64.9636559361829,19.31989335051019,-122.1287448581288,77.19133206954402,17.183539229294528,-110.43178257453567,62.71323643428109,110.39193922011732
2.58,-289.87000410895587,80.18891071859878,19.62636736591043,-33.52453410323506,65.39268508304048,19.18252773712729,-123.27676928100648,75.53753407298824,18.49988669190864,-109.5386120758433,62.83786418876538,111.75072264942332
2.59,-289.7970580882902,79.79280249846053,19.858037922575036,-33.50664249144573,65.18152483233868,19.443554609514223,-123.97098581104602,74.2566301095274,19.42760513814038,-109.97038648922714,62.63035070577983,112.51745199168565
2.6,-289.8208230438296,80.11198299348133,19.89162303892276,-33.57803388066403,65.40448918647881,19.45015593059439,-123.81244176744592,73.93067839857608,19.916866735858356,-110.53212708572072,62.069051761274025,112.83491796200234
2.61,-290.09102903410104,79.9487333108522,20.32340478048076,-33.915079337544256,65.3005768320245,19.265865615457987,-124.04065759979568,73.41467967597198,19.450235486642384,-111.27258360057884,61.66900411508826,112.384098025108
2.62,-290.31233660259034,79.8714962691842,20.488989436791115,-33.905662906765784,65.00952117613447,19.236163505834103,-123.79002902711738,73.2996359009601,20.536145356151323,-110.82926894907668,61.84854236795731,113.03687438910046
2.63,-290.38587450766295,79.93781270591118,20.67337749524435,-33.874935851466674,64.86489999977047,19.52630996065561,-123.38676121395112,73.98630528346786,22.404358588247156,-110.1786244263254,61.89997337646805,114.10272943862508
2.64,-290.6075000571435,80.20765849577246,20.621628887672724,-33.18374542574447,65.07349007126969,19.537334136536323,-122.43117279831816,74.80301731305187,23.86529715087277,-109.14993150053378,62.66671394006736,116.0573249540486
2.65,-290.67986180300693,79.59355227680435,20.480784909335807,-33.35530867630428,64.9435520999005,19.66988639587271,-121.6698844941635,75.27789509225447,24.66769818063757,-108.26738814089066,62.868651246478464,117.88971372622709
2.66,-290.8056557501416,79.66100309804706,20.077166840002256,-33.49600693511405,65.22629546141057,19.472262388200203,-121.88405192047024,75.10512962059852,24.92833383859872,-107.96429655356889,62.74098115527042,119.32935489080194
2.67,-291.0122738916418,79.29172702813538,18.91880883808261,-33.8234722624578,65.21142312138994,19.280678823075736,-122.31716209145938,74.4986863343376,24.542545730273037,-108.1831099118754,62.25849261416152,119.80292930922852
2.68,-291.44395007867007,79.60019939326388,17.56363442582229,-34.661092701964215,64.80956669702056,18.717894423226,-122.84168683782796,73.82779400896487,24.235340143665784,-108.40694357789958,61.66455433108169,120.20462323587736
2.69,-292.1471274127731,79.00206124769181,16.48819851098719,-35.14878117354539,64.47433082295056,19.02090073195953,-122.9732906597294,73.18305179510166,24.47613000795203,-107.82622562545151,61.50939289578988,121.34866351201174
2.7,-292.63122570642906,79.02959343240386,15.846565519307612,-35.30936018102758,64.01944262422927,18.936505378865604,-122.85753448453762,73.44173470071648,25.47108641136756,-107.30896967245803,61.89945229897619,123.4791432469388
2.71,-294.7261114332455,78.10806548511006,11.235132618353203,-37.230639374913146,63.77990145177775,18.12049038255244,-119.7145763909376,75.18225496618403,27.681127733018005,-107.71532551873857,62.20571134410287,125.46680294060836
2.72,-295.69736542199774,77.91832719875931,9.57769112951738,-37.36259398876816,63.74147445812691,17.623113894243076,-119.13705066824517,75.76052852244608,28.517625854469063,-108.59939358794114,61.99058429464704,125.07455912836976
