0.02,-116.13052970440924,59.6188908376918,169.40154203829204,0.0313071558488524,0.0334206537490631,-0.0637112926802583,-0.0441814621291191,0.1057724083010975,0.0100526029598038,-108.87176045656965,84.6322641674095,0.6107404550572456,0.0668114824848123,0.3315147829706721,0.0991734827664099,0.2809165933968111,0.031921327386957,-0.1712426441197351,-177.41383185631983,2.200102694969233,0.3132142900315815,0.0099377858065806,-0.0992031457184231,0.2242491249949577,0.505993742384166,0.1671294677799589,0.348394135333003,-134.70028068421723,18.216474990412213,7.896343886084647,-0.0864838723926654,0.2836662793737074,0.2041062512945633,0.332638084167965,0.2289231899202888,0.1887173021179117
0.03,-115.9266893521005,59.62403818654886,169.15016293519778,0.0242150589871252,0.0904447100212601,0.0467165862808359,-0.0963042267070914,0.1166226923427917,-0.0759035789269628,-108.85715202046364,84.96812418402934,0.7320887155075891,0.0156050490108191,0.2052355773607992,-0.1620982999306256,0.0799197536192818,0.107210527518199,0.1863558650131622,-177.21977040923562,2.3567707301577245,0.5831571827992901,-0.038759639252887,0.0857153130163392,0.2639492055053137,0.4588611873959681,0.3293305743876921,-0.0296673080663448,-134.677517290712,18.117970483387715,8.0304829644769,0.0589109920108603,0.1715468006275975,0.2335491716756872,0.191169773862237,0.1855871631123381,0.1529616594782811
0.04,-116.23725024424166,59.73698319824197,169.31064888114625,0.216210882193273,0.0648402715258925,-0.2273592598796374,-0.0179257237369701,0.1000920266055187,0.0976578406927431,-108.99740217428648,84.99621237645712,0.5957390736629615,0.2823731835604592,-0.102457860353401,-0.0019157072385639,0.0077467048683223,0.1217011846515589,0.0174786868129175,-177.10174558548985,2.2276670721722605,0.6342333194114088,-0.0360389780552635,0.0750879210624252,0.1964003191042101,0.2833496586947643,0.2680768062090208,0.171306435977054,-134.54503380107192,17.872222988493156,7.926474842653649,0.1631328174242765,0.221580155436539,0.1541047968278124,0.0379676569541664,0.0245183600461792,0.1652252427012231
0.05,-116.18673404125248,59.60401699302605,169.42377583352572,-0.1649727632832231,0.1310403564443867,0.021569206349353,0.166599563960379,-0.0199578144741029,0.0063967828712812,-109.0574581103043,85.06361217733642,0.4419641061020707,-0.0003506161139976,0.1281158145752814,0.0382879221240297,0.11060481916601,-0.0171884821933586,-0.0759462613739392,-177.13409655029443,2.610959455695133,0.7284395260956608,0.1711426646142906,0.0472196249637835,0.1157273694765051,0.2265934917828274,0.3170802250890986,0.0284715015023485,-134.6121232144698,17.447467470665476,8.084875397498902,0.0248203702800959,0.2124867563742413,0.0272747501438179,-0.0523640006062096,0.1826121547078687,0.0595495245023245
0.06,-116.08252537521048,59.67289076492106,169.21203372658098,-0.0469466412248232,0.0521313404549444,0.2002098869413862,0.0953983653350682,0.1430490025496369,-0.0834104688273051,-108.8701409670662,85.06648558372072,0.4330876923359998,-0.0344414228712669,0.1164248277242399,0.0449392589699836,-0.0227378077237355,0.2396404752887422,0.150642954406682,-177.1605149898607,2.552440164639413,0.8010068282689542,0.0762927328125032,0.1524649262312814,0.1953696938810258,-0.1022647632330971,0.2813373117740181,0.3282450086637652,-134.3630107414519,17.294581787082517,7.911834789431739,0.0496266091949963,0.3172324516983215,0.1916799656884068,0.3180855163554087,0.2236440177861879,0.0303427413982147
0.07,-116.38686630434322,59.72972465846776,169.10028086071966,0.1554419381092117,-0.1289375525523065,0.1255027548915898,0.0491740078062707,0.0807301627454897,-0.0595494887881263,-108.68748965998805,85.11293122292481,0.4948098948375608,0.109124297626875,-0.0504949115887127,-0.0229913383147174,-0.0551939589501723,0.1741770017955592,0.1399817783483261,-177.04208000964564,2.5924672442781755,0.9733507284403402,0.1541312611632955,0.0079829218484982,0.011235989146149,0.2080133967117361,0.0898644604310922,0.1676055540667058,-134.05873457565212,16.981995293572034,7.845700952825327,-0.1083815943236995,0.0482270294818008,0.1979760209364024,0.2623025669513239,-0.029808147994904,0.2686188420504861
0.08,-116.34055571393613,59.77216085106249,169.19652743273463,0.1197693081885756,0.0022581489311377,0.0148755275129937,0.005399271032335,0.008964598391223,-0.1013944994996679,-108.74890915878788,85.30791831412891,0.7244019690018935,0.1037627082858738,0.2166966592700664,-0.0386129217048406,0.0820687448701362,0.1253023407072394,-0.0147117427055824,-177.36724124971977,3.008674138762658,0.7550624590752198,-0.0282805455679344,0.1584295882472956,0.1349222280177783,-0.0671682981872071,0.057709714415069,0.1322613907669588,-133.95906061540396,16.947533824073357,7.7475344756505,-0.1197009386859401,0.3067531109156097,0.188445725755587,0.1126358390461365,0.1119995727396855,0.076923234210503
0.09,-116.11345535092951,59.421664585397565,169.337186078244,0.197816173458814,0.0009296489352825,-0.043305360508309,-0.2243890421763804,0.1503708150033908,0.015348332896011,-108.85798270769972,85.11880031614302,0.7456596265533778,-0.062790205159748,0.016176425044585,0.0569939854104512,0.1453218151194519,-0.0427407405224509,-0.1050799736428899,-177.53797838498167,3.051890576407429,0.8026073014713309,-0.0328884123832056,-0.0469308878680683,0.0774925685468895,0.2368592982271784,0.1119982356182423,-0.0624233466723175,-133.68631157849237,16.82616043172282,7.859039133302988,0.0922205733803691,0.338635579097705,0.1776310086057028,0.165871088834274,0.0970861010568056,0.1840558599319112
0.1,-116.78611884537982,59.48194755341515,169.17611722002212,0.1076462142325248,0.0640447214024412,-0.1758592431626314,0.0344312810716998,0.0787642040158868,-0.0164718957456393,-109.00491615379686,85.10551241850048,0.802958372211377,0.0393262787604674,-0.0043657731463101,-0.116662592318626,0.1504503627604257,0.1880915266218552,0.0592584344706692,-177.49440195293042,2.904477384209119,1.0000365311032633,0.0173031634655644,0.1121854757877637,0.1866765496017175,-0.0269795707386185,0.0795491290361639,-0.0562210925389354,-133.35837897734982,16.572322506837644,7.455203661209138,-0.1229626811477871,0.4847048211883481,0.1081526536394487,0.3989364623184646,-0.090126322301591,0.3080792053750547
0.11,-116.37534433560825,59.508185108000696,169.3924518057685,0.0258701898853959,0.1266292046099299,-0.0308358226533374,0.0984982763570496,0.2824448857432252,-0.0004298676148596,-109.1010757070642,85.16796661296698,0.6222314755926351,-0.0123006208129142,0.0963245123999233,0.0291117074278063,-0.0456936760564207,0.1141409032019368,0.1984874765741954,-177.44962993995026,3.2108782943234195,1.0279983694220738,-0.0112193881072781,0.2965155994030255,0.0970479225658872,0.2262290288423972,0.2917910682918352,0.0946652008647428,-133.1131006415456,16.29730513671922,7.294219738416867,0.0170140771426552,0.4744412914547174,0.2110104963061665,0.3838683869025384,0.0492013149486415,0.2570953864427033
0.12,-116.36746446222618,59.52846666353309,169.2904326286735,0.2311445002030487,-0.0985550533887116,-0.0345360649231855,0.1135035894441096,0.3565998978308726,0.032466110575705,-108.88302305878206,85.08781403293926,0.6834001027299131,0.0688730853333346,-0.0054166806597112,-0.1513193931390053,0.0778430427585234,0.2658294226719875,0.1348823888031761,-177.53540576974342,3.1121146244109,1.008829910860181,0.033161760244088,0.0039275729883091,0.2004874293227495,0.2672457760921303,0.2547463486614048,0.0675109519743204,-132.77251660758273,16.288953635102764,7.119652576155257,0.009740991350117,0.3682648286526251,0.1357893939906676,0.3794286656458334,0.063933789944328,0.1719670650120101
0.13,-116.32963550099149,59.529211621732586,169.2657073237223,-0.0368097133280881,0.08285698108936,0.1083953857008772,-0.2488009915007387,0.1241523573981566,-0.0990003385756391,-109.02082194866688,85.3162158807123,0.5687404330065721,-0.1507143838261142,0.09183118521583,-0.0432118674367321,0.285471368117915,0.2321964941895816,0.0447738422009327,-177.5244491070798,3.427566450673409,1.380272512901985,0.3457509184776085,-0.0834611159779363,-0.0840168468222303,0.0467739234917005,0.2701492033690326,-0.1367210992494964,-132.70100881534523,15.95658331496185,7.154265192513776,-0.1018349875677111,0.3081257841004931,0.0193193149853999,0.2906709660448524,0.0685586358479684,0.082067631702919
0.14,-116.27347252164756,59.66091231167724,169.22034221640584,-0.1189242407397511,0.1120796897075726,-0.0372842888927182,-0.0433121903665542,0.0622710947515496,-0.2471515669020371,-109.07024877429974,85.0795279281467,0.6882092696344426,-0.0349667670382473,-0.008409623103257,0.0112057125199871,0.173937029734076,0.1733681708392487,0.2232533492901971,-177.29780481386825,3.658053620486722,1.2443883636858255,0.0439834845516759,0.1844615927147187,0.0493856509458864,0.2275265563883763,-0.0031985201142143,-0.0540345792920054,-132.37828773973348,16.0233036192973,6.965141060250459,-0.0539110193266218,0.1215260942442653,0.2567511693337344,0.1300954404987629,0.0169517584377678,-0.0019973416639414
0.15,-116.3110105106292,59.51330488365024,169.33685552199745,-0.0595857288880848,-0.0155213024839683,-0.0164959318726462,0.0228851643462771,0.2080366372964349,-0.0871848435901161,-109.036494626389,85.04635810642975,0.5429959962825326,0.0180325064967771,-0.1993988460604329,-0.0005910328471646,0.1979214965113373,0.0216261637656166,0.584931481337485,-177.24320300202538,3.708772486257711,1.509611815795592,0.1669695866701515,-0.045719643572496,0.1494124629226395,0.1066017202749638,-0.0412089845961795,-0.0106499907400786,-132.26406663087218,15.822023482948104,7.139575418289466,0.0254237148826247,0.1049494391786215,0.1284582884111779,0.0496888341301035,0.1697276071943809,0.1432787683993207
0.16,-116.35265838620622,59.839465320316215,169.3896683564318,0.0389763549847635,0.0256440433398969,-0.0790198952225123,-0.070345965942255,0.1987269729811437,0.0590434610995486,-109.10318152209456,84.9552190207543,0.5172476680410718,0.0937023786198057,-0.0251572242825326,0.0590446835906941,-0.0286390968634515,0.036663781348152,-0.1050363275245696,-177.24447026369992,3.703911322041262,1.5854671222603347,0.0209793642187763,0.0942092444733848,0.2371033302968701,0.1132195581064834,0.068251599950503,0.0876923393413344,-132.42603714438542,15.72742639516243,7.045318297401354,0.1738563083687122,0.1209112194488158,-0.0147050612365143,0.089079170804717,0.1131456173866345,0.0967977060156906
0.17,-116.29349408065887,59.769639060239975,169.55562526266877,0.1222946545188904,0.012822305320421,-0.0136725538425562,-0.0085578591958751,-0.0974922994404457,-0.0626443248129765,-109.03247176248684,85.24902016933645,0.4792123293185724,0.0478004612296935,-0.0103650180364584,0.0157522121812862,0.1863272983874107,-0.0125146357811559,-0.0289065365497436,-177.09524007187835,3.829666095618544,1.7784732752157135,0.1805205549311813,0.1399156926360112,0.1660884813670424,-0.0123805587904441,0.1000803580782813,-0.0048120532560912,-132.33037512329875,15.694151761154654,6.824517051680696,-0.0388217604253231,-0.0533779118115992,0.2075757963385504,0.1846191858344253,0.2717692687484172,0.0637293746638584
0.18,-116.35622433060084,59.66396811211462,169.3332484326279,0.2319504692817249,0.2100070449844937,0.0901070693290043,0.0378038276973825,0.1728316820119624,0.0421923361476498,-109.20259573000808,85.15872041756202,0.8188315347138392,0.0281167853508206,0.0015234168082396,0.1739876906107916,0.3843332960802329,0.0560403843183442,0.2107536677211385,-176.97192956513803,4.040401593123363,1.9736441765199824,0.128580025750699,0.1830247259351203,0.1324246013757231,-0.0316184537929615,0.0180573913915324,0.2459410814872762,-132.1458413971517,15.635135192201616,6.721259719062386,0.1238920259519839,-0.0265309587754824,0.1491752234338939,0.5803516183129788,-0.0043900880014086,-0.0056434193546078
0.19,-116.0019900977464,59.71001735860905,169.351941183808,-0.0626359584493253,0.0624565921681809,-0.0667581892301666,-0.193489765219372,-0.0784505580167631,0.0795649385513976,-108.99137166407516,85.19142257415133,0.4667450818290956,0.0011590950758679,0.0121909049733985,0.1769174603926507,0.125915764774715,0.0545281266141634,-0.0486112332531117,-176.88924372754718,4.039655192443373,2.1114751841245347,0.0123717656278746,0.1102707861173783,0.134430486515151,0.2504853026024343,0.1700383116068189,0.1644314760424053,-132.31950297782976,15.823679738955276,6.760629535211908,0.1111427665236501,0.2010502849305633,-0.0461073686074171,0.4543673465311126,0.0106968112122549,0.1738029844758344
0.2,-116.04964960346372,59.44645017943704,169.42428680248494,0.0344424202037605,0.1366337209440314,-0.1041032624364088,-0.0298499179856459,0.0052138695262202,0.1433049506454496,-108.99561731207211,85.1940521688053,0.4266160958133274,0.0857623440287511,0.0505129888310855,-0.0484113092251241,0.0570711140907181,-0.1268561036032569,-0.0040213935171719,-177.050722962333,3.9082103617107142,2.00555480964621,-0.1881995501777179,0.1643942747224464,0.0603070893975721,0.101421326741373,0.003017388694337,0.1191486929080936,-132.5156652574672,15.586801834585856,6.615317965373213,0.1903598653387326,0.1229218873254715,0.0944515101924073,0.241396544678468,0.3096395163570545,-0.0456319123209999
0.21,-116.04013794029686,59.61114104749732,169.36688422358853,0.0973330117713138,0.0129399685932067,0.0306684153927695,0.0707916332546976,0.1130369231563857,0.3287250484028235,-109.23948524914792,85.01248863630458,0.5237919782243596,-0.0991132464342682,0.0148484297992534,-0.1943746292080473,0.1258023427538284,-0.0462549035681652,0.2688355760943854,-176.70302314408175,4.337408371982144,2.14595982528562,-0.0428295729260159,0.1161411394451132,-0.0212313122692044,0.0661635260758173,-0.0103724299485827,0.0038164246177737,-132.4285989192934,15.242068623115264,6.645771473019763,-0.0643425208583855,0.094786970849593,0.1409549921351887,0.3090425798760683,0.0007871873704951,0.0551449783659564
0.22,-116.11404481201284,59.51900166451476,169.5061534582904,0.2041033554970564,0.1010559200347717,0.0828533612861979,0.0424791863873212,0.0774105410039507,-0.133803959844426,-108.97076803303533,85.13647189791801,0.3036740588677022,0.228924200039032,-0.0669090403804762,0.3228484592717743,-0.0482435097066175,-0.1789349923349536,0.0394948480670564,-176.84958769172087,4.142862274798457,2.110040364004172,0.0121867857850105,0.0873177795711722,-0.0007910466585505,0.16417279176412,-0.1058116512378878,-0.0377354161242407,-132.62680067491115,15.380377772191302,6.735257251969709,0.0394800783524455,-0.0241255936195201,-0.1012630333653213,0.3884028155182765,0.0163521785456881,0.1190152366356371
0.23,-116.05418072018443,59.5718865319717,169.23872633414476,-0.0006886957883645,-0.0173816200021244,0.0231603003725659,0.1099215147905694,0.283622566498762,0.1663710702561716,-109.0337442694602,85.14875427309754,0.448368500827574,0.0071866463674655,0.0462964846919082,-0.0371161212698909,0.0776122015910237,-0.0348164186597326,0.0406193754799337,-176.6547495984534,4.152812507798692,2.3575233785097898,-0.0178888294678808,0.0113537470107013,0.2325335839194596,-0.074430555875789,0.0740529674731779,0.0129988631838508,-132.6417338790477,15.23458166541071,6.612722246739681,-0.075573870590028,0.1354957058669507,-0.0389371124860715,0.1464949618555943,-0.1521616326211859,0.1101213875704872
0.24,-116.11169926048998,59.529636862829726,169.2866933827312,-0.0623128728667898,-0.0129496954917011,0.0064495810701277,0.0767618226729665,-0.0029768073487562,-0.000790313892525,-108.8986300961018,85.16111950887486,0.4979206813731082,0.0540468701135856,-0.0285097399629746,0.2136451616595966,0.0091504664524137,0.2214855573540576,-0.0693154174054088,-176.75657181218696,4.342587062681474,2.249096579181201,0.0554160032880178,-0.0632518918187085,-0.054910685168216,0.1149113447565707,0.1804633350419893,0.0322511760951574,-132.66904621029633,15.431010488953264,6.555169158794892,0.1215197574100537,0.0487074299315124,0.0313026009382671,0.2682586289864058,0.1106570407681177,0.0710269200269192
0.25,-116.02783331642132,59.41117849779221,169.1380358541542,0.0406405734289908,-0.1209807517990338,-0.0449914853268943,0.1599596344755804,-0.0016484297508965,-0.011608426601175,-108.82181456012988,85.03978602483433,0.4816722387935785,0.0796421888997919,0.1957280416678622,-0.0267347037211925,0.2165136737144269,0.1112451270633331,0.0739799018148565,-176.91789632208614,4.5267421279230176,2.2917284321971283,0.0204991970288348,-0.022354702869809,0.0340402564645942,0.2419260054447899,-0.033853042386315,-0.0705668804633696,-132.7951185030991,15.552968607606491,6.815985848648741,0.0939825029223306,0.1264273164234968,0.0434608759326833,0.4158221954583246,0.1389982889760583,0.1545808238632807
0.26,-116.0939385982637,59.50081509944306,169.1288815960666,0.0965213377404316,-0.0065007189548903,0.0937832946056964,0.0159897728082923,0.0219916701990787,0.1349400659191541,-108.68531451121316,85.083348031394,0.5324356555086658,0.056988855333409,0.0071869827005666,0.0259876600832806,-0.0029813478216573,-0.0067884825658335,0.0553952562189861,-176.77532403893233,4.49181316075846,2.2051276556445263,0.0820195548614277,0.1593774626070968,0.1725372797350822,0.156330860373926,0.03806790300023,0.2375787534778733,-132.9594720055276,15.50209659623067,6.785218906277746,-0.0246478362117223,0.0314036439128113,0.1540401765010021,0.3383589586002143,0.1302248225894786,0.4224648727815057
0.27,-116.04366082759024,59.566049511752,169.32964583258945,0.0833240398173953,0.0938604797986133,0.0644128917678008,0.1019598529289487,0.0953320543484538,-0.0074232216047307,-108.69373970860798,85.21556533623051,0.6811005316296155,0.0696460448755205,-0.0759023690156138,0.1102965220380484,0.1919855490050082,0.0315458406995325,0.043848163538008,-176.7325726495057,4.440409764576182,2.196841595327861,0.1000444975262416,-0.0458504516750984,0.0139347196830217,-0.0556401638265058,0.0941353171780154,-0.0262175787484146,-133.11135537396174,15.68312293582017,6.630401239606983,-0.1577032442555851,0.0631643804961552,0.1120617933199726,0.3947925016704253,-0.198567108386209,0.1160002601273429
0.28,-116.24764570984244,59.45924189869783,169.3830788816704,0.1008453001504747,0.1598672257837822,-0.0104261884106522,-0.0960313964018604,-0.0563483136150551,0.141906587155031,-108.72868610134024,84.99149072850805,0.4357318747705968,0.1555528748822639,-0.1890010435548678,0.0452092264901253,0.0208690489791356,0.0201649503042608,0.0764652127638591,-176.85443024557924,4.280332708083734,2.4569641809584404,-0.1017875753092492,0.1414122647648255,0.0871462606406864,0.0440371074840159,-0.0779082143055843,0.1835165252424028,-133.18198540759298,15.686294340828788,6.745446835440258,0.0098762071621192,0.0687846388676442,0.3124237427316353,0.3697028332859162,0.0747104354417401,0.3314868891342333
0.29,-116.13696909161992,59.62035324869682,169.40599346298586,-0.1517012239918573,0.0437661236842862,0.0058091281247945,0.0357720879678181,-0.1808386378393086,-0.0717036412678925,-108.72543496197106,84.79430946498167,0.5577747468449108,-0.0241162315012426,-0.1169081884864028,-0.1130655238019563,0.0689801706273472,0.0012315813319184,0.0812660004616655,-177.0168358022528,4.576756528064514,2.262022826696317,0.0715019700847934,0.0374239403013265,0.0234002582567339,-0.0462149436950473,0.0439861292400857,0.070069344024266,-133.2883552170245,15.768331988892106,6.645802997139431,0.005547441008268,0.1195589594349953,0.0468143885976161,0.4200071203883903,0.1367096153154438,0.1792225998799959
0.3,-116.1409467812562,59.3995018400558,169.32324274448058,0.0253932463326299,-0.0990083602162203,0.1439012017603227,0.2285388555794457,0.1547234260674865,-0.0807164604135272,-108.83224208667552,85.07462604508918,0.6680603461065167,-0.1087860085900732,-0.0690795607344657,-0.1396081448105518,-0.0916016689915707,0.1867226889925963,-0.0659546651127876,-176.73011917514904,4.360534800388439,2.5350345115340427,-0.0086675429313988,-0.0734018987788595,-0.0242441110796404,0.0392890968706142,0.0727610449368116,-0.01255555114411,-133.7183934898358,16.072925348617986,6.878035394110076,-0.0849987139222424,0.1846481616169991,0.4665883143805087,0.5941439000066967,0.1165061795161791,0.1653590993723527
0.31,-116.24030879502952,59.664786561032045,169.16376013878067,0.0334262365986772,-0.058520954003627,0.0986996616383771,0.1040179108347329,0.1021386488660911,-0.1255886925644287,-108.6360305664647,85.15671813564164,0.4231359405572719,0.0935560088980475,-0.0511580355583029,-0.080349505673247,0.2294652402151683,0.0960212149515932,0.2641282191843689,-176.6118550533439,4.530082089724963,2.5108720546981296,0.0551509433997951,0.2063643195262528,0.0735034542300648,0.1459669658389931,0.1033699452241079,0.0247657567288313,-134.34455508185854,16.3010959059103,7.113513529615028,-0.0312274854098193,0.3111219897511988,0.5704348971734057,0.3299641353375523,0.0264142429481194,0.2914170413173096
0.32,-116.35980520117371,59.42452725124421,169.29746400020198,0.0929008457926613,0.1280608323993927,0.1942163315312728,-0.0327398705352216,0.1147992903037819,0.0252145609300968,-108.5448061673088,85.23334219567292,0.4381036605662953,0.0477889383562736,-0.0124589205140986,0.1304432522647082,-0.0087344841558538,0.1748077753111223,0.099265228233222,-176.8453218671699,4.696588827524439,2.498413079920712,0.0735663044141494,0.036068649064237,-0.0259183434290931,0.3182372326764302,0.1108609832140691,0.0159004039226107,-134.70832887373604,16.424830754960848,7.157997105006352,-0.1362158447283119,0.4297706794059957,0.6706800525022294,0.1454792595460241,0.1191918761028848,0.0735900789947583
0.33,-116.250939239912,59.52350647015827,169.19312685738564,0.0704141348455399,0.0678682131549772,-0.0025630093675851,-0.0113647816956056,0.1983360253327866,0.091336731975303,-108.7226155892208,85.25950525608732,0.4061080774750834,-0.0455593578255897,0.0731536960361964,-0.0955648316015337,0.0236013265858783,0.2811383370421333,0.0007573984043452,-176.62784821297197,4.447529259600957,2.386909946105482,0.122607521551339,-0.0312171639641801,-0.0818740754017084,0.3017110684313577,-0.0249812856668597,0.1631660655148555,-135.5091627994215,16.987256481030798,7.371758057834016,0.1603147317056856,0.6590700854663419,0.7477673451178888,0.4386860891673975,0.2371952925493026,0.1779202046877308
0.34,-116.11464210969102,59.436051348257486,169.34439611059778,0.0515016242103801,0.0802645837025528,-0.0079056973528554,-0.1175154312746152,0.2603212811177193,0.1268050284031515,-108.5491403679316,85.37955482194589,0.6254650210024661,-0.1143320204939612,0.3898229058791814,0.112766974609393,0.1077754616713801,0.1695927018998915,0.0878144200349751,-176.49164471885734,4.550802799715386,2.2830342432413877,0.0665249445478183,0.1251729028284761,0.0170790613866906,0.0669603965559733,0.1138308208645251,0.1191473738696609,-136.51985200156787,17.47102036702173,8.30510487477172,0.3353608401255771,0.5594921662130298,1.0531127747725462,0.4546202481843383,0.356746068846238,0.0790402786620852
0.35,-116.22762750223907,59.43905804359864,169.47520276702903,0.0219381381783668,-0.0195130084736689,-0.014326011403262,0.19252929384333,0.152769568676087,0.1260388765310138,-108.52800414122176,85.47454191251687,0.576397393411741,-0.0592345201119846,0.0876505189002284,-0.0148633939177094,0.1454394609586521,0.1220787361022733,0.1288582809613635,-176.70010880071237,4.617918720797839,2.316851409880784,0.3237963868787361,0.1147316212699305,-0.0449863783820312,0.3758289340092544,0.0645920944374177,0.033119927547891,-137.53558044750434,18.05689913791364,8.799130939730436,0.1921922189901279,0.5627811919848306,0.956368183677878,0.6101187386222992,0.401467440378031,0.2271415352734484
0.36,-116.1446815644118,59.68218895268463,169.53887613226834,0.1136430126116739,0.0495230538753937,0.0626090532580835,0.067356802694773,0.0891246203709541,0.106085385545419,-108.58981551771988,85.47673544310386,0.6290032105330521,-0.0802849223757135,-0.1155039540044685,0.0314965008917286,0.2682486186555428,0.0462958533639364,0.0909621781043149,-176.71178945804843,4.569342441810089,2.4801082398220333,-0.0586517581167286,0.0299289360127334,-0.3191014304724585,0.4286261777945622,0.5375827196531003,0.0914911796952651,-138.5683828151221,18.34872635257275,9.444799645864473,0.2020797382895653,0.6941523156909849,1.0264757237885849,0.505896021042125,0.4258791445463009,0.2596896762781028
0.37,-116.22596214489135,59.56495080092267,169.44355626970534,-0.0047054963023256,0.2007223410254804,-0.0124802482438757,0.0098966654035641,0.0244401602177214,0.1554357175655318,-108.58422646677256,85.52081430945077,0.5415009180301922,0.0719330491155602,0.014546205184436,-0.0900420102966837,-0.0475347443526337,-0.0368375631563628,-0.1653539368747246,-176.88513468038536,4.442467293785528,2.5420985626146333,-0.1506780285492292,0.0066264084055355,0.0912088703628434,0.2084124403048914,0.4750829063046142,0.0387732324477427,-139.6393789349607,19.21621899699779,10.053452942192637,0.278290045434716,0.8612430792939912,0.7970047831020322,0.278892635346111,0.6533980322924646,0.4402120569381595
0.38,-116.35593098452088,59.719805993877216,169.18669477228408,0.027940525847912,-0.342402086703188,-0.1380348759160516,0.2558322007962991,0.143375108375538,0.25320471768582,-108.78339980327992,85.36001779414717,0.5151601131379893,-0.1374139316347651,-0.0307099554708252,0.0299585465793955,0.092057313237092,-0.0272293925175916,0.3556942922286196,-177.12397203087383,4.51380078597279,2.3941087652519912,-0.0010439185957267,0.2062151604130653,0.0796641666748629,0.1179029671626419,0.2159324689159419,0.2367583550094718,-140.74149434680797,20.09216063493304,11.050751622242869,0.2869473735091013,0.8199666485303522,0.983546859912698,0.0817319363054893,0.6530620035908175,0.7962383853675306
0.39,-116.00695384994802,59.453035975007325,169.3639745483057,-0.0178740134004842,0.2029622990559585,0.015784288569243,0.0311412614571637,0.0403274092957167,0.1939917871560692,-108.662692459844,85.7176563745795,0.2394657558967762,-0.0292883362457342,0.1582949089000252,0.0031739924222726,0.123073987283781,-0.0703837381619479,0.0228906844937566,-176.94096551893324,4.3405250685952685,2.5519790855274134,0.1041363457442701,0.0653946540364052,0.5773844655438425,0.0395594662279999,-0.0911626316762896,0.3592655117951479,-141.8019923145712,20.663176522619345,11.82487614782177,0.2665060087873127,0.8296640833930894,0.7561665655775306,0.0355074342471033,0.6720659203453242,0.4696273830114809
0.4,-116.0411780309222,59.56374216577591,169.4314812747774,0.0623078288126502,0.1071271386356138,0.0766203487479862,0.1854094439974765,0.387788860542815,0.270775183589864,-108.54446450121138,85.83832012460965,0.4610023433137593,-0.0481138474705898,0.0761592725589739,-0.0068325721987621,0.0295904192764722,-0.0140482125090572,0.1483106103908204,-177.46695329661418,4.219959601795651,2.3932447079623524,-0.0301326877805414,0.1874942368448484,0.2820136870442674,0.2489211489009366,0.0724954447819207,0.1953038439603206,-142.45921575651943,21.372500914200536,12.517278626887716,0.4971161355786214,0.6755027504105269,0.6407631653296217,0.1717113851832122,0.9061178700871644,0.25805050953106
0.41,-116.19340087196429,59.56752512347085,169.23693350707188,-0.0587450357286486,0.0039543718412982,0.0071825483588547,0.2503309789841996,0.2103980700557842,0.2189412071863657,-108.57636068632333,85.67910182248953,0.4227165793769795,0.1586028229595961,-0.0814285510332958,0.0784626906420025,0.3580384726065319,0.090300279108642,0.0709030126984959,-177.87698730629145,3.9471352553493535,2.1999670308127395,0.1968392722978855,0.080118034664604,0.3132339911522798,0.1252019775545009,0.4973204056732755,-0.0270599722630974,-143.31751265853043,21.99245197465345,13.25354974276869,0.2782068025244468,0.550664952086758,0.734478296740176,0.4648411898717619,0.9141192526804752,0.2395431965058793
0.42,-115.97331717598614,59.51261811408663,169.48690365543666,-0.0334372877925719,0.174509926310827,0.0395350467527316,0.2263412868411065,0.2798813957313157,0.1919786267809012,-108.64346452982436,85.75946671053927,0.4683992484909565,-0.1550710417293515,0.0799115463874081,0.0755714645585249,0.2836568820053472,-0.0522127105600908,0.1945988428430685,-178.0859319226449,4.123603818329554,2.1494791741534884,0.2850267724411939,0.1794843014183356,0.2605624182922231,0.0728100291361927,0.5555980553079193,0.2235452466878068,-143.4930357125373,22.39926215487645,13.581823751582736,0.2455116981625428,0.6574860506564368,0.3795885336091015,0.2561533182087993,0.6428608268552133,0.1744286447302305
0.43,-115.83195316129014,59.466011956249545,169.4718831671002,0.0418420287089444,-0.0555103555067935,0.0990809467144674,0.0456137836972073,0.5950832341792467,0.2997991673613998,-108.72582456683658,85.78000746724547,0.4979454893062988,0.0438025461652462,-0.0296683948037425,-0.0543040469474602,0.1864341904652443,-0.0119688194089938,0.1368357186805619,-178.32646599281426,3.935041966448334,1.9563396247973588,0.0899564448361528,0.3111223008894463,0.5581334194808429,0.1007077711534113,0.6122212890024352,0.0246099810953313,-143.2910803130571,22.844251998782333,13.692659746845196,0.3898864633497239,0.9710237882694296,0.4744478265454604,0.1708645497877358,0.7198208566031705,0.3066907419358639
0.44,-115.61600779381624,59.42049813042597,169.55670098161556,-0.0017310204786079,0.000378290444169,0.1595478643466379,0.435575085726319,0.3527777386496401,0.3057205512103407,-108.75660288757172,85.7769412928772,0.4559245865164578,0.0560619580277311,0.1000093373104357,-0.0384565254407296,0.0741601660611107,0.1546809553145072,0.1981444594666707,-178.5722252545812,3.748767366755022,1.762817708478977,0.3757911418858723,0.1448201359081532,0.4781313879960621,0.1218760503817968,0.7782598726653315,0.1605533404749282,-143.5703461411071,24.08042201389204,14.294905976491911,0.1712433508701675,0.8280891363988981,0.1381198247065342,0.0333661076045383,0.1606690126589924,0.3923207626609448
0.45,-115.44033899662152,59.1135564434587,169.98056122865816,0.0277810331328507,0.0125019541463428,-0.0840627003514321,0.2769628283341864,0.3870509904294003,0.1428357027206839,-108.7296899350046,85.92555990473244,0.457219538980996,0.0530640720218523,0.1868643910844925,-0.0101920336181039,-0.0289531800767533,-0.0316135616116201,0.3251317573280878,-179.13165562429643,3.3594082086694543,1.519086741203776,0.2563657776388195,0.0937417577539044,0.3386484144508901,0.2228561085318962,0.460549484721281,0.0006714826759908,-143.65558316721797,24.75685861310154,14.559864869062569,0.169046879486248,0.5787024054408865,0.0391885056548269,0.1720972311614995,0.4154639174687362,0.0247772133987298
0.46,-115.46431516849054,59.08203062805763,170.07710921216184,0.0639982537212635,0.1804999518505404,-0.0415336553379685,0.1014686272017606,0.3260412568592481,0.1461701844826741,-108.6430151754914,85.83192465808418,0.5133580965423603,0.0151822840250786,0.1053766557105925,0.0956329316335305,0.0528229666231606,0.2301289004019799,0.4415776290422315,-179.58257583446152,3.2619472409827903,1.3112379917993806,0.4262791823465323,0.2081120664106541,0.2612810156958535,0.0763613438581686,0.4887076028852311,0.2516434658892069,-143.5475331725048,25.596597802740963,14.961252669550095,0.0611642967607694,0.8064366235181497,0.1357374253049287,-0.0226264738643527,0.5531048261934329,0.0529139815002927
0.47,-114.94410166102318,58.93752363443511,170.34739438853524,0.123261511712017,0.0968090939848426,0.1420291402127783,0.1624477509880036,0.1846298462473256,0.1181923088611662,-108.58085482224004,86.35512083513034,0.5831487443776335,-0.0375784100406105,0.1425469477201674,0.0117119148607374,0.2196339495349807,0.0863573936610922,0.2386154711864683,-179.85596957612404,2.853736908577655,0.7873765586684953,0.1700811335476897,0.2120490710414443,0.0313653269202331,0.0159955608489653,0.5712898125730087,0.1568432297648128,-143.32955913256686,26.422853232065226,15.082876967485673,0.281669889738173,0.7014669183365233,0.0789919349920398,-0.0349332910651667,0.1582577950046594,0.3909406088481527
0.48,-114.9587665275967,58.709802667919305,170.18761309544232,-0.0505195352955531,0.3630225622044623,0.158950425906021,0.2502176064794583,0.1535985129814203,0.3122015323320851,-108.74246471721266,86.20938356023815,0.5748924965559741,-0.0547367986862262,0.1066070054866673,0.1282565671936085,0.0572594859517686,0.2636824988889369,-0.0190737055955046,-179.87708074199847,2.738951391231951,0.6358614268100904,0.3441888220612687,0.1456254222058698,0.2130217508662129,0.0049217140055379,0.564327223766739,0.2298300995867118,-143.25803946285677,27.17504702425549,15.482804525933604,0.2121298803897608,0.8417522307222886,0.093737405453054,0.3044592952055214,0.2416918103386831,0.9228541736528764
0.49,-114.92034857178535,58.37990057582054,170.54231499760547,0.0932823462272378,0.1972065372466886,0.0931901083562431,0.1835102437599169,0.3302512299774402,0.285646281607934,-108.73309535025894,86.52068424596207,0.8538142097754343,-0.0087127136093286,0.1016237010343191,-0.0611063465420409,0.3988834132970463,0.1245282579811586,0.4382051283902876,-180.0357525460469,2.829434255331023,0.5309388241987475,0.3412803708614977,0.2316645051183175,-0.0037891888097657,-0.0147736191493629,0.539649005866504,-0.0381226259831386,-143.4551418172717,27.65144994539948,15.746281610407143,0.3319434406180632,0.625689869928237,0.0919963386711378,0.2267248324425867,0.205112200000912,0.6127323010832558
0.5,-114.690365552504,58.28425862960712,170.5726724348139,0.017544952283423,0.059992658541475,0.0152722205241268,0.4455530180881881,0.3940955685436453,0.2916355708639369,-108.4990752709058,86.73474398636118,0.8063800493186201,0.0070266156346984,0.3703546249028426,-0.0717345675330947,0.4034068430869153,0.0958416869787553,0.3893437969195521,-180.3797233750714,2.384989181466461,0.6409292941343209,0.529858874085962,0.4098340664519118,0.0065936950349771,0.1600805817302371,0.4980686572817134,0.4112257189730618,-143.49831710757329,28.13335364756133,16.114246845536215,0.3284445563521582,0.5001755554900846,-0.0515373716731537,0.1721873720503156,0.1319300167684501,0.7807443512415256
0.51,-114.54481536934024,57.70641168260334,171.24793868032134,0.0525318408462009,0.2398705990982811,0.0632566272565326,0.45782583341918,0.3178229798440312,0.448094482358162,-108.65502039478775,86.81002119759268,0.629078494016485,0.1660456768527735,0.2447234259919505,-0.001320872926739,0.0526412139823605,-0.1529726943613022,0.0141283298797546,-180.32459333280696,1.895599404528152,1.0210711280186588,0.4047010626497015,0.2449487807153292,0.0395594097019231,0.1815998349897469,0.1386211305876835,0.0286630718572363,-143.68520364380686,28.74700788896811,16.546086437623227,0.1583749874430417,0.4675431357446254,0.0618592751229781,0.157631527733796,0.3087450511028638,0.7923678565682772
0.52,-114.25659921858464,57.5668293992054,171.4372670366998,0.1017073471349983,0.5579301323837823,0.2253334184421233,0.2409451181271923,0.2806688617113213,0.1629319809152024,-108.47558634574848,87.31766987186438,0.55412063587568,0.0405286419713134,0.3424781650617489,-0.0451536243880567,0.1260250414068965,0.1265278558698475,-0.1818667468566812,-180.4898942639693,1.8023768455151168,1.2212404657128326,0.5301137475551185,0.2578523267859325,0.2214196656573093,0.2220123424846826,0.0517991338499953,0.0599104580887412,-143.45342547394225,29.15976891306705,16.681381763029307,0.308801584184804,0.6766411533848578,0.2482692656200513,0.3066629406127223,0.1814417637064264,0.8768339698614097
0.53,-114.30836721447648,56.86549847452832,171.8761194159439,0.0595249093081727,0.340765488205213,0.3179162016824496,0.5251375615918664,0.416183956143887,-0.0784160546174425,-108.32569945359442,87.60428849694202,0.6396844208658959,0.0907289768347859,0.2271351297071642,0.0287336899271252,0.1254184945816304,-0.0055402955935551,0.1666191694105814,-180.5391766331748,1.5002386439923343,1.9399574580228296,0.574544928383544,0.3191512150235243,0.2334649081317462,0.0237895094063138,0.2293086292987011,0.5625107642539329,-143.42280560479094,30.125046576853524,16.862241298442253,0.3086241423892989,0.4407363976394006,0.3433887278023807,0.2783244386919013,0.0013466985778316,0.1719617707717416
0.54,-114.15987862389724,56.29694958043554,172.10881723809172,0.0521894820559656,0.6465919527875745,0.1894737645090965,0.2036967310391021,0.146213146110315,0.268237276993675,-108.41101582630004,87.80849780117975,0.6473692132367567,-0.0437672354557773,0.3624927400184652,0.2833340570635718,0.0581121135381228,0.1477186915143949,0.4032956062435952,-181.04581446481703,1.1773457709307211,2.194408534888977,0.4082420263430026,0.1666150186662793,0.2640088716853911,0.1654135364522252,0.0925469076929954,0.5466209505923638,-142.97052942844468,30.608866150577526,16.63673094164819,0.2908718423884425,0.5175959056368028,0.4241257934678915,0.7687995963517222,0.2113997800028949,0.1792498831703158
0.55,-114.25339393296235,55.95199036774018,172.46471270112085,0.2523510517319605,0.5575707571132473,0.0916014991175666,0.4491990479818797,0.0384758618626759,0.0814465236629946,-108.36554247265146,88.2043128354298,0.748429913478225,-0.0039395520229563,0.3428505519367934,0.0620477470764876,0.2177570812566503,0.1108030976858634,0.2268541270909486,-181.06757052830105,1.0056833676783077,2.6691367460770685,0.4917097873900332,0.3410821851312401,0.2906284132057096,0.0226590539060052,-0.0513935836539284,0.6993767878276786,-142.74870246915702,31.37450557849133,16.318496989920998,0.084939529430929,0.3052331191269714,0.3759819726782094,0.9977266009571992,0.4937243615411641,0.2937535897112664
0.56,-114.2904890686615,55.58117459235514,172.52743116287903,0.0784269698372439,0.5126718227492113,-0.0091247870292174,0.6447620978253071,0.2586068810515555,0.0242759524707735,-108.25799592225432,88.6145686434195,0.6017508819452531,0.0163219757452166,0.4016586043466915,0.0083700256807044,0.2851932410822489,0.1941688000055551,0.1073263418049336,-181.2130852360978,0.8557994805691406,2.73168042071334,0.3649676317118366,0.2899044441891732,0.312206758142553,0.0960460371131135,0.2622355014843033,0.7123323188214319,-142.38884391513844,31.79839338730514,16.41708678146161,0.056792467760669,0.6691811242608663,0.4942946185001165,0.8348643215673157,0.4011490832077428,0.1026484692335044
0.57,-114.53193656782368,55.18826136776714,172.66111210564534,0.0953362221664996,0.47625353571967,-0.0031100979452749,0.5789437815309221,0.2466667778678875,0.1178155047413516,-108.19695040965006,88.72397385836521,0.6378988299141222,-0.1021866837905039,0.3987832327791111,-0.1297089885553484,0.2220393832454865,0.1522601496732992,0.1584355254806268,-181.2505747137624,0.5326716375568323,2.960860626500861,0.6056278954259526,0.2313821431931585,0.1812258316870127,0.0901156104224612,0.1465162064168093,0.3407311457642218,-142.14564738645623,32.13156234689867,16.30103606322123,0.2066487944022856,0.4549236769209363,0.2857413653583727,0.8453699976623679,0.6209117479456652,0.1556882636082379
0.58,-114.83121698227396,54.84831791749918,172.8339258071363,0.108790984141114,0.5775891287446392,0.2679066017522549,0.5996730143940054,0.4587408159943561,0.1564618062500888,-108.29335221903158,89.34777336532463,0.6201793702253602,0.1331587375938982,0.366922090198364,0.251743277257256,0.2929981196013663,-0.0300642486937886,0.4958858270264156,-181.48384401109445,0.4042115297036006,3.4112585382733056,0.4207203658350952,0.4688681804623755,0.1041448574861554,-0.0025988148011398,0.4701505209984867,0.5000423147265354,-142.29441629416635,32.637285151474366,15.966744048618924,0.0419164656112602,0.3779570553534369,0.0303356224105922,0.1717755070969325,0.4633291662465219,-0.0666594716311619
0.59,-115.13221497036744,54.148047541251074,173.02714932072038,0.067343571704216,0.5761509790792563,0.1200156803408339,0.702873467749925,0.3526857839398775,0.2493289528320573,-108.35428616444406,89.65735478338001,0.4243242390516332,0.0981044116674142,0.4174325790746486,0.1912653754648419,0.3123831783466672,0.0633093789758701,0.0394857061159558,-181.743815156783,0.3521322934119355,3.896597270668156,0.4440244890336985,0.4384131839132517,0.1090318883760681,0.3529953362766601,0.5167091289896949,0.4185331332973512,-142.34701766974078,33.03569079372422,15.943369582822088,-0.145576580261527,0.5559420142225486,0.0927939100944673,0.2693679907359416,0.2066069053206572,0.2549314195225998
0.6,-115.60767275735576,53.42953988491279,173.42814770498495,0.3570447809055448,0.6714682844418256,0.233313915545941,0.5381727849529083,-0.0470517129899735,0.6037076648834095,-108.3145802951298,89.38918829683082,0.4551901821340365,0.0801599644262885,0.4619402851333444,0.020520774758177,0.4624021734480372,0.1544653564225782,0.3315463595843805,-181.5693741309452,0.3959217537919706,4.34494253165138,0.5623661865351173,0.4953555163129234,0.2260395552231337,0.4992480833660392,0.1955109038394067,0.1666943777290045,-142.59606739032176,33.91439756248783,16.36461365147279,0.1511698430556159,0.6652443495061685,0.1280599084910328,0.623996874214265,0.3854025725111428,0.6994608532833314
0.61,-116.07784321889687,52.51763211210483,173.43526271653357,0.2686690938777254,0.7666771875976786,0.0468784005245116,0.5201471428945387,0.1365957168248603,0.343489416556672,-108.47599991289748,89.18448214548661,0.2892313126443365,0.2848208369299048,0.5054992048150734,0.0195598716305068,0.3847840745141381,0.2533761394550503,0.1367250850276713,-181.34072515080493,0.8814630523653899,5.225559209945125,0.6430364140416797,0.4154348723964603,0.152798659477534,0.4742279868323719,-0.0871621317538541,0.1383770840701252,-142.75341937031706,34.36378493948107,16.789908522422014,0.0280999105323043,0.5370529172172523,0.3559738086701692,0.3119586594526873,0.2831618675320869,0.9104437784786236
0.62,-116.6431195093086,51.61187169546941,173.58369771153437,0.6238936242916329,0.8559994099037115,0.2850093560733147,0.2110898636636811,0.2455741877526169,0.2716714796027355,-108.35742767312716,88.33529831302285,0.530143616267182,0.1140987888629895,0.7039253882094647,0.2086863010037163,0.3817871404541559,0.1185489655404292,0.2362923947648065,-181.3127608468492,1.4757316043783728,6.039615303208816,0.726590034805489,0.4950993399723142,-0.0747069714132888,0.4770902508183959,0.3798603872149296,0.4037017541034354,-143.18842826312056,34.764531648091015,17.1886752464677,0.0738595511607647,0.6849757993425514,0.3571406203002195,0.4422840847536072,0.5343471774743065,0.4443663612522799
0.63,-117.13694006435088,50.62808292709425,173.87499778382642,0.3022619771612434,0.9797211680297024,0.4201817103328699,0.7477871990709137,0.3952691714141264,0.0790246411631907,-108.47609636289818,87.80285297349897,0.8749273029140856,0.192000465600826,0.6060237315413395,0.1953819061304141,0.5345876074807615,0.1802840550533813,0.2955704722168553,-181.24596911562296,1.8580662060524933,6.832106186620435,0.6077825081465773,0.4295235302211438,0.0143345277537281,0.503635792202959,0.6411063732936465,0.7909507133488387,-143.54744814151576,35.236274606352765,17.652281971856755,0.1987680584432234,0.4145204675910852,0.2032622707149663,0.4730642862961037,0.4293644196929843,0.8742547109235813
0.64,-117.63012154702668,50.137835325617,173.92783478493908,0.2236009760053361,0.5794205762106294,0.3971200444344772,0.3241229643161178,0.3184168577916587,0.0644572443553144,-108.62375016813762,86.94607011343332,0.3921490764126153,0.1553609593035348,0.5145886443318368,0.0675775366240283,0.715881503256335,0.11947107001044,0.067437010195704,-181.44857442928148,2.0467865387306987,7.378012533702195,0.5432819220517664,0.26051960359435,0.2754615059924238,-0.0269337990531724,0.6336216563126457,1.055212854086296,-143.83286881267097,35.58865882616322,17.939974413674758,0.0893431547111602,0.4915630669637094,0.1738021473994321,0.2163985855919118,0.4596790471285685,1.1119076280807538
0.65,-118.03344106651836,49.49135518662354,174.19811996292117,0.2224118972626217,0.6622750939742458,0.4261339518987984,0.8707310551964528,0.4511949029676657,0.2539364790566057,-108.81121640969263,86.52530959759024,0.5144719079596118,0.333697952375268,0.6039473909194364,0.1549021711553939,0.6919143454570932,0.1414910918202204,0.1488505233838877,-181.8879995753861,2.2387940856813917,7.744492672981008,0.3523438683925542,0.1827324533069109,0.2494673469830293,0.3123395856219061,0.4954787648934224,1.082511365174615,-144.20998666343715,35.7141438624205,18.63758250638861,0.165643330826352,0.1773303930807986,0.0431772775958549,0.421134410991245,0.5569634964152773,0.4211156277954185
0.66,-118.75470542405436,49.05960772928705,174.3568210611564,0.3496836056817684,0.5052569728080988,0.2879801854958754,1.182533679315615,0.3878492507598661,0.5543283481221571,-108.99149240056973,85.71819690370484,0.3825511103170643,0.4171641941940144,0.6418465247975007,0.0903648479354386,0.4788213428501037,0.0518908598644185,0.2799862650018196,-182.0012252913644,2.2473220809096035,8.17103438787798,0.3086284535398849,0.0632384138916503,0.3099032939357448,0.8241014910791762,0.0482506256689486,0.5212005649809626,-144.3529656174364,35.916918464013406,18.953779521318644,0.0496630233245697,0.1817598915093384,-0.1438037250336844,0.4103228275016283,0.369868534129825,0.6893500000416942
0.67,-119.35020478791073,48.00194496494188,174.49471833918236,0.5358700908542379,0.9647581649314864,0.0677010972215509,0.4556809523580635,0.2192137693012338,1.212361836268261,-109.17283654429754,85.05727521755986,0.331155927728913,0.2277857569951107,0.5808787569604128,0.2064134827289828,0.3268666032632161,0.3247771057702235,0.3328273650795247,-182.28635329827716,2.368209339382564,8.606937988395499,0.383700297799702,0.0165747616382153,0.3696539569070343,0.7745981439736683,0.2918058369004604,0.4873031871408166,-144.05554117460747,36.04690216537114,19.056767756395946,0.1349810023895939,0.0264742921671703,0.127653371571645,-0.0760159394291876,0.365818588123934,0.9615604184324408
0.68,-119.92539584190772,47.08262142219058,174.41048986295849,0.2825305379199318,0.8124621389857414,0.2400241324348354,0.6727843593128423,0.1374753866316067,1.057583495036616,-109.82570503022424,84.38717969586389,0.3146692966595831,0.3662372627628976,0.5471439500741216,0.1604322281832968,0.2892681869922495,0.4595377078084733,0.1742170455619215,-182.67964516223097,2.2754374482086264,9.121385766929738,0.5120311909467079,0.1023283996284304,0.456047738182898,0.696140464039782,0.6288592855446853,0.3399769353170856,-144.27695003772723,36.53000548441088,19.35655936045098,0.299072667220719,0.3510162723014806,0.1719948213154229,0.3725835287268496,0.1454979875785522,0.8173844965189871
0.69,-120.56077332476676,46.05593583917612,174.307239841245,0.3985443971807395,0.9936367781685642,0.0598955918528498,1.164373576448656,0.1513580691325814,0.6282513333299373,-110.07564095119176,83.63777041928161,0.2946821239747509,0.6832082437141058,0.5820592258391528,-0.0032063429252521,0.3592705523701118,0.6170572988137494,0.2086458989248702,-183.1665813790817,2.4981514541009098,9.5852237367055,0.5912580716124108,0.169242032626621,0.462077670288503,0.556888591114799,0.150566585357364,0.5889567041686112,-143.81228725309828,37.17192255423183,19.718409298151723,0.4668118089411685,0.5282829733726844,0.2437210233061171,0.2325833250680074,0.4603399173115969,0.5911605817227744
0.7,-120.85692657503688,45.69985831855632,174.4576177656305,0.1835282573208036,0.8258301724462523,0.1621546767990308,0.9101108567202578,0.1357095934935722,0.7731345493388466,-110.57441838434973,83.55189193633765,0.3025187942111905,0.5284892956293531,0.6527186310158838,0.0750161278611013,0.4412457910117808,0.4938429976854168,0.3663947795692814,-183.09324562103905,2.558403579126018,10.05995584350372,0.420271978151553,-0.0101586845700283,0.1930784521662243,0.5658274747137858,0.1574035423227559,0.4811858326367175,-143.5768544438414,37.39672774711941,19.88313692129118,0.4084735971804949,0.3961242363095462,0.5701604901511582,0.1966226323921544,0.3446376606488179,0.6602733486618488
0.71,-121.04780290494726,45.34557037438287,174.32121573169522,0.1676523134333074,0.6562013221213574,0.159725189445687,0.8872704407978699,0.3612950615109133,0.924154236324124,-110.9132364378909,83.28280061929537,0.2257467599094488,0.8115106078396631,0.5494058342005625,0.0721495563766078,0.6390996227512208,0.5937034305792673,0.6153230218196437,-183.1977749923298,2.39428457736749,9.949683260326614,0.4176400152975176,0.2123537473084848,0.289850235308283,0.5258614393465113,-0.0539665563768034,0.5646535393443056,-143.32878793735645,37.68201506530478,19.8548100475478,0.4137754276276089,0.443230685099268,0.5860749007334596,0.4182804674315946,0.2571637157286141,0.5743799841359606
0.72,-121.38150072191534,44.91323728355677,174.30785815466663,0.111104114713357,0.4440575751083004,0.1058639843338564,0.3850917941533863,0.4436630024570939,0.9843373905130512,-111.55630111060296,82.39974702320971,-2.548041132438219,0.6652086709691478,0.7076825488778317,0.1340182291958093,0.5231581321488642,0.5413210161398558,0.2102988450732442,-183.773456653904,2.341351572730336,10.722630306568783,0.4265820164894982,-0.0460830451567213,0.3565458125619952,0.7074675417861775,0.4821649283217226,0.9438694124209708,-142.50094989601754,38.32495754635394,20.118460600906698,0.4951834463731072,0.1229678958252795,0.4869545569383218,1.304915395862642,-0.0035520927382614,0.586837915698204
0.73,-121.38987419457546,44.350425090414745,174.53698569182905,0.1434345389247157,0.1895225604584521,0.0961797257479799,0.6387078323454549,0.6968872641711872,1.4386241671182458,-112.2289067831271,81.73105616303376,-2.425899106055562,0.553645942396401,0.7608950551247117,0.1428269867039692,0.8101642642972987,0.5046642232442562,0.1155937651942174,-183.83629739861908,2.507835295378144,11.25366533998089,0.4366748764169035,-0.0028662148353061,0.2536766005966568,0.7942720753219343,0.512993045554185,1.7762688142691443,-141.6165117614334,38.66924727809359,20.184721616395432,0.3992642704852919,0.1658043110688259,0.6288612796090867,0.4685038619756365,0.3370301946554983,0.709500034326692
0.74,-121.31482421044356,44.05101548410483,174.5613273004054,0.1244541042845763,0.1954092271425505,0.1608006927137302,1.1325625742600138,0.4040608953561517,1.954595994193869,-112.90606252320892,80.80454449743898,-2.223244010993641,0.3945515819675526,0.7191107412921827,0.0692569993906421,0.9788724270968882,0.3968959777434629,0.3148728607878137,-183.68407305219677,2.677793962718786,11.510251960009157,0.4570093426372523,0.0598771009285503,0.3014114550653601,0.8020915278822227,0.5942521106433994,1.488508317085513,-141.02525670693768,39.01868552877222,20.45353471904997,0.7123200473106691,0.3034216416900751,0.5283033529505516,0.0004124218961898,0.1430129914334073,-0.0205419303938446
0.75,-120.92975155699384,43.523443205820186,174.71332060209747,0.1125958690097975,0.2542370241989038,0.1954760379241674,1.2964847763167118,0.0592332601197298,1.57494747562962,-113.34376997161344,79.98997659507575,-2.180385543003009,0.493742838664674,0.8064212931618379,0.0459054026372038,0.5006860991319882,0.433972857019744,0.233050230139674,-183.39033396031937,2.6942250372923544,11.645005662479877,0.1334627118043871,0.1404849165816844,0.4210575639749836,0.847946240560674,0.0505917114191386,1.0091272614028557,-139.98383191667045,39.61788696836776,20.63267060178765,0.7545424232956585,0.1503485260662455,0.8507732933917201,-0.1504946052658906,0.648403044534286,0.5631546307884261
0.76,-120.68251026406072,43.14820675771946,174.77036455338046,0.4142708214886217,0.2989869341092966,0.2780945728314886,0.9806297817207216,0.2964194084007252,1.2499103110890053,-113.70712823623045,79.19056999787745,-2.100366456825044,0.3963110108351524,0.5111213247932281,-0.0234895343936539,0.301477946595915,0.1031944295363831,0.0542777049144023,-182.7685360311009,2.907056492754642,11.837390907089729,-0.1051649900023687,0.2511230491393085,0.3803095430289988,0.7676323589602394,0.1433493013816535,0.5348342438708137,-139.09135201293924,39.88251622988503,20.57237994697129,0.5344948399142263,0.5325104200073638,1.0672567373228254,0.2686728552741132,0.8695304513737845,0.7280450778059475
0.77,-120.3968115709478,42.56718691855511,175.32669264256958,0.2762145606456194,0.5277624034635829,0.097894153816525,1.1117284262170948,0.3174681670335488,0.0892464112274064,-113.74094462314883,78.59699965973945,-2.1105097713838643,0.2876970237647822,0.7257121059719549,0.2138579383714999,0.0978759587974229,0.2382693114595312,0.1584701825252764,-182.52130021221356,3.353987123672912,11.804280851409477,0.0207819501222765,0.2335643027882863,0.4404719195859553,0.2648232875470436,0.253504086857194,0.311326892587273,-138.19576988157343,40.85091201633062,19.96138941266616,0.5706583682328432,0.2916248564651068,1.0557469181414785,0.4772075955027425,0.216254682623871,1.415211896377779
0.78,-120.121422362271,41.81618910308341,175.4822661416083,0.3416085987088705,0.8090308068687837,-0.0159365334851485,0.7026463201786814,0.2245494506725399,0.0979486601047696,-114.08312889062266,77.74533212252041,-2.022095267333845,0.0739013058419213,0.5493035300818742,0.1027367687679813,0.0639278973393027,-0.0657859180398048,0.0477690551968515,-181.9533531279072,3.7658270690215514,11.574624719049748,0.0275265292534817,0.1265383667642839,0.5562158641578401,0.1976327510390013,0.9027333551291654,0.927545086981911,-136.81303938505954,41.75935601388029,20.091544294672897,0.7817553025485997,0.6416844432121209,0.9371812032321968,0.023242546888595,0.715493141912384,0.4094252976077609
0.79,-120.07478726310865,40.91868124107658,176.01152603826654,0.4140694406651224,0.9873377204493934,0.034869810862071,0.2976845700872627,0.9061922421005444,0.3741005179899915,-113.9660120071173,77.15751274219046,-1.956331712182996,0.0679157019192861,0.5518063364254239,-0.1049385650721591,-0.1244599740556669,0.5606729991500891,0.2059913648816768,-181.31764933730875,3.9396562430965703,11.245703246538888,0.2944462126183712,0.3254778576108643,0.8508835000263586,0.2492035910796086,0.9182125530718414,0.8871694783808305,-136.09490797287967,42.482001434648,20.6335036552216,0.5594119645795949,0.5371938652773482,0.2109283549347371,0.2366972279954058,1.028605409733476,0.4521281154371192
0.8,-120.08222114813368,39.6865435655935,176.1234670559374,0.1321347338253639,0.8830454465989764,-0.0519988562309955,-0.0830092800686853,1.4219148734579443,1.042309190865888,-113.8195374169528,76.77447112964173,-1.720753964300168,0.1074511711597267,0.3133436706253855,0.1159529201739795,0.4275292473619783,0.5102207499279952,0.413338256463853,-180.60259614101983,4.164675410672037,10.91320738062192,0.2094738396890883,0.1795778912329032,0.279476569420048,0.7978387921309874,0.0111536258776364,0.1229837220322091,-135.9272463603803,43.02803082107691,21.39792901910303,0.6173886040542763,0.4621122597348977,0.4524218339470435,0.1492445238351774,0.6144288644226805,0.6075768375608755
0.81,-120.10467813278667,39.18343898781576,175.81967938128474,0.1904920674530272,0.6026643172712923,0.1577818186641216,0.2232879795637718,0.6726142976693166,0.2404832738429722,-113.68640983454596,76.22790210676555,-1.1614341670038215,0.1957887616606799,0.3018432171031742,0.2669417228797176,1.141601938023075,0.6140025609497732,0.6281669507688846,-180.651064966714,4.689140585023416,10.86129290338186,0.0398838328796656,0.1272569153564436,0.3095157705102531,0.7871976520178003,0.091982355814861,0.5174995101268132,-135.93950774927634,43.45521402673192,22.68038253290171,0.6893363872368977,0.4627467024027102,0.4735444180929792,0.3373722788219814,0.6734127107125175,0.5599132435823738
0.82,-119.97045399564088,38.54783637493552,175.46359677127114,0.3885733677778771,0.546078353200315,0.2016002140957793,0.8509731751575447,0.4896907611665441,0.285112164040986,-113.56559496286962,75.74822040242796,-1.099354783164424,0.4717043950930963,0.3617776548712945,0.0964485703479273,1.769811924800597,0.7964023669969178,1.0206906240080869,-180.03409872476632,5.129878986183877,10.646961114318827,-0.0546712957416216,0.2802337956174636,0.5358497527855185,0.7627759675112347,0.2235841116027467,1.2581202252216297,-136.8258034414214,43.97713663740129,23.613794182968835,0.3958354212331753,0.607269426237087,0.5117755940069756,0.1553522503747555,-0.0670241152208137,0.1326998286330419
0.83,-119.81001216960024,37.75713682670393,175.08319274165544,0.2493165023399603,0.9958464415344211,0.1326626063755268,1.3313115664770945,0.1958845352963557,0.083766301721577,-113.3002978264583,75.39194937120442,-0.7659818321293188,0.1097604680440799,0.354489031621757,0.1090762486713001,2.1140238162484035,0.577481101159476,0.3702753009399903,-179.94983746763953,5.452161228210802,10.679511650226727,0.1770194884386073,0.139642362165229,0.3719990789844137,0.3210002040063626,0.8980682374947914,0.4015741922152188,-136.82552793118094,44.40852433649772,24.95926005246422,0.5657510895618963,0.6750001068158992,0.1606455829238284,0.3775507658079127,0.4436335889104328,0.5981809232445171
0.84,-119.92924202145174,37.45072807491247,174.86194077671755,0.3611411315012543,1.0305096405481282,0.0989943947696493,1.38633021898727,0.5580391007425521,0.0458007298364092,-113.25149881651294,75.48324713963012,-0.7827713353553734,0.2708467787631749,0.2278727315813464,0.0406285075990781,1.872787028866776,0.4722680756534865,0.3099972542183796,-179.80281961418154,5.813928257515688,10.3933769697745,0.2442177536750146,0.4225589741830069,0.0514822298485343,0.2788306505404438,0.8219534352766551,0.3960494788541296,-137.37048426802238,44.551626950154,25.482912022340148,0.4201015686793372,0.5154195908612247,-0.1385685074160484,0.5399634696183642,0.3371883669099016,0.744160935361709
0.85,-120.0424689386224,36.72432518136233,174.47100060629788,0.2194858795416559,1.032631220243628,-0.042316292097072,1.4805309621507956,0.3848542317579273,0.1411635321441293,-113.07596012480012,75.41413661929693,-0.6693864298877544,0.1936650228735554,0.131828429257768,-0.0272125078230925,1.7670081220042928,0.1547655140633347,0.0437227154455619,-179.7591049299225,5.934872271600433,10.231554046135328,0.250301848535189,0.1914323500926905,-0.0166966928976825,0.4485459863331706,1.0169017199776529,0.3243479928947926,-137.48370943597027,44.9606804803884,26.10590647696838,0.4998952840051536,0.668668960517216,-0.1837784299600548,0.3015954584129821,0.5122359838783554,0.566504903526784
0.86,-120.33797007455372,35.93574535687768,174.27188489236113,0.2511729347055202,0.80765440771498,0.0658727627694086,0.4258694104165093,0.7444299435632699,0.3879536195376736,-112.9042056504297,75.09571179720696,-0.7416828980388495,0.2358820565928053,0.5751114033991453,0.05469781468818,1.0968425217592972,0.5548311175706745,0.2055667409740319,-180.00356386007704,6.157177889238005,9.907506998041804,0.3093004898138289,0.2320576120132489,-0.1973601068667543,0.4252355964781472,0.4297975962422694,0.0078967101059094,-137.36507896276672,45.48887120956931,26.605520777446976,0.3026547012362552,0.6454549917983371,-0.0345658503597826,0.2444549716374106,0.9295291502875748,0.2272104924169152
0.87,-120.412315584689,35.21421965329131,174.687961417138,0.1608039840121668,0.7297899868659354,0.2574528100985114,0.4226422947253214,0.4649194948910228,0.2140175627708725,-112.23353843426804,74.56222757386487,-0.5924061380672041,0.3161613468803853,0.3163667832762604,0.0876459634214405,1.2802898950971668,0.383848090391714,-0.0427284692351383,-180.16038411609537,6.407591532488051,9.799186750641017,0.2725175694472264,0.2275978222929073,0.2734627601119411,0.0775788313625265,0.512569449652698,0.1352634929545511,-137.48049229311508,46.08337848199096,27.22879907061399,0.4389129859867267,0.4567673065807069,-0.0589570855852856,0.2608494934991139,0.8657173351117592,0.2384957926039587
0.88,-120.54375653300228,34.11461525745607,175.03370264119366,0.0219072818255583,0.9993642309430096,0.1720297136046662,0.6607825901644455,0.2815991354302823,-0.0035464890662733,-112.12874044259289,74.08409043903711,-0.2507486245171556,0.2107864478268482,0.6335075792216318,0.0285270367062724,0.3082869757396245,0.2275673618213794,0.4484732989802601,-180.45940264492864,6.450890106927142,9.363000265000172,0.23263652700198,0.247983857577454,0.305980612663969,0.5738409115673699,0.5358706239162008,0.0206719727183653,-137.51562097262658,46.39158567623439,27.905516401810257,0.269247915717772,0.4605018255231631,0.0676375152408945,0.2958542315130837,0.5601751965199855,0.5754930954763221
0.89,-120.69538289036475,33.213196691457426,175.11823662385896,0.1292036214113702,0.9570840037215084,0.020846302960548,0.2539942484923447,0.0053910792186761,0.1911873200371842,-112.37618542461252,73.23668541159968,-0.0441328860963531,0.1501452766454938,0.6035782104729209,0.0395250235203276,0.1374220545817809,0.2418204786134936,0.6066234254498399,-180.42964178191775,6.473698833577015,9.377729153277976,0.279884092007626,0.2254835133226886,0.1433699299288706,0.5971563621105697,0.319221558307821,0.1371792409491422,-137.91233688822317,47.1506412228876,28.730026194726378,0.3526455103155786,0.4703510352145484,0.3480250440711488,0.5584732568287227,0.2225116334592904,0.8106158979289497
0.9,-120.847941810254,32.634087165408204,175.00056737463285,0.3111901239505896,0.7806245334889826,-0.0130481575768755,0.3486948445770766,0.1069484006829711,0.2600352566754006,-112.56285366116006,72.39199373999585,-0.0039672414573131,-0.0001448207588029,0.7209456095698039,0.0435403843737569,0.4062117966108319,0.2807203294160046,0.5998145085691561,-180.7751920901621,6.618408524685775,9.2871444542696,0.1275798489242995,0.2542769953458075,0.5860371532278602,0.6668150761275222,0.3446558180238877,0.4435449244326695,-138.38545330573842,47.5856120095228,29.65141506243989,0.2857633669444662,0.5625744686613775,0.2226925135965936,0.5034111381655723,0.1673115790783327,0.3664864463711759
0.91,-120.87879792511318,31.82948458201316,174.87196876596278,0.0833407119167251,0.5810358912321623,0.1062431877947764,0.2786030296942322,0.0872653661928114,0.4340321191710679,-112.63255717442436,71.89553437576772,0.4374457284634154,0.0787293500903608,0.4832782751423348,0.2964583206283487,0.6273838870402605,0.5642059472745643,0.3580609698419724,-181.4443329852413,7.227771096425295,9.15798736213393,0.0245868047167525,0.407236124795215,0.3242164163680379,0.192164600033189,0.0126736481601974,0.6518501396947832,-138.42278268494343,48.11879675736552,30.78883700174071,0.1260026655537427,0.8579718151175851,0.2033535699163615,0.2615716778849153,0.1581487905272289,0.2686802936014575
0.92,-120.99586831050388,31.103813624658,174.86165745528444,0.1151693048890155,0.891651056950657,0.1386789018030791,1.0739510934376415,0.1010549310459468,0.0860771356934026,-113.13987518504436,71.31301490667101,0.1730096306915751,0.4248356580343461,0.478084187310223,0.1025725919906155,-0.0957892931483628,0.6261116916502354,0.3001531188107628,-181.90439996735637,7.572581931537022,8.877758375380344,0.2236466272397176,0.3954279901652944,0.287492143487914,0.2890370133428953,0.4480690539093877,0.4871119821641551,-138.78747845315178,48.63850586767338,31.9308146922564,0.0213172803355685,0.5274179119622253,-0.0871350832970057,0.5155000112164501,0.3890615550214399,0.3920296530794703
0.93,-121.47777895950075,30.212009577635506,174.64977363864045,0.2233002616261536,0.8136137917669162,0.0059359998532511,1.4444332718924202,0.157427233842027,0.1813129270485414,-113.85681717765034,70.50427322140813,-0.4415695000655001,0.3391372074791877,0.8648765413740465,0.0671043402790646,0.3903851745099015,0.3894110870064723,0.2441946232402272,-182.5345281574837,8.097439858511658,8.86446284627111,0.1709503631089788,0.3432206937846543,0.2877184172118143,0.2380868076258852,1.0568110966593396,0.259076182261331,-139.35329510655683,49.418194812754784,32.51060987300209,0.3694708122891935,0.566903197797674,-0.0595442812763118,0.2859058208198226,0.0127277595521238,0.4831350741673773
0.94,-121.61550414187184,29.351341166948952,174.50908887032725,0.1079117800736925,0.8193584799636686,-0.0063165422469225,1.359703437329519,0.5315970426651914,0.4368437515563318,-114.48366846909592,69.81469991799875,-0.9513229442185964,0.3411268062098075,0.919001352651534,0.1659734827428713,0.2494177823345452,0.1304352897980803,0.2976174296960579,-182.9194129949945,8.303575619525633,8.266497074603762,0.4200015017847779,0.3614329721740781,0.6474090265267788,0.1175576726114872,0.7503186125684786,0.0880328208051924,-139.144251195999,49.876880909432046,33.06044855687967,0.1560783897112784,0.3259291958740048,-0.173004618836337,-0.0704177583300352,0.0057573052038849,-0.0957395249827418
0.95,-121.56471200120956,28.775416029939763,174.51816642115617,-0.0228270334297935,0.5851987275845965,-0.0544840603253901,0.4396219800259378,1.649993796492549,0.2002172598789622,-114.89166561268432,68.81775906634597,-0.8645809266178502,0.3376443381038385,0.6477561849685278,0.0991344133920504,0.1880470530547026,-0.0692124244437837,0.2206318124589202,-183.3671554014352,8.971166362124869,8.161150599987627,0.3612461578915428,0.5672569408522529,0.1950844221334445,0.0808507289347079,0.1849222828957109,-0.0576189519160459,-139.171610245438,49.7712838890666,33.30536241359888,0.1652627476204624,0.4704077972105579,0.0497239323092203,0.055614840967121,1.131987104336964,0.283795827424378
0.96,-121.52180264792716,27.963043401587505,174.51072837219633,-0.1422916693676283,0.6174563738133829,0.2745435120255695,0.3586208747555479,1.6367675035015428,0.5847845549490008,-115.1172876586652,68.00746466587823,-1.3893335568487504,0.2773435052736452,0.8145430747008505,0.2113921544777291,0.3170199509800947,0.0940732622782564,0.1516634407715007,-183.67378518020948,9.064534586233275,7.933285928248743,0.1668534830628516,0.6509825834600338,0.5943137546380881,0.0250820540966033,0.3403842933097858,0.5439688820925703,-139.90333771376004,50.24729513938637,34.01906217360721,0.0860856632858394,0.5482876563119645,0.0829981163235974,0.0135726010131405,0.9907157408559788,0.4735406922062857
0.97,-121.54022322226255,27.46057324824721,174.61300951007405,-0.0775080436327929,0.5028028286697543,0.0200518559313875,0.6357192494741197,0.3243376549186249,0.0866595783636738,-115.71655423627374,67.1075334860211,-1.899334523844028,0.2346388563689528,0.9490442454374995,0.0517229683811846,0.3830006597593314,0.0148400126170926,0.2757140286406954,-184.43136456312533,9.711150248343086,7.629776237845895,0.1251049843266872,0.6009567806603892,0.424761476169797,-0.0256969545273796,-0.1327571019487939,0.4606147821506878,-139.87039686796962,50.7945516539154,34.141199000860624,0.0598903860683848,0.7059518771541253,0.2545355650655566,0.2724923925981976,1.1862347267335476,0.0558867771334259
0.98,-121.5550429876524,27.10366378102072,174.70302792765216,-0.0242002478274633,0.4418869603563998,0.122342465214937,0.7369830806407414,0.3061749140592461,0.1399324721614338,-116.0463051632132,66.76612172224371,-1.7529187335094782,0.2980079512778731,0.692321402513217,0.0852407387636068,0.3712770928010102,0.2230398627016165,0.0900568490809395,-184.69106544997385,9.794468677435532,7.664062210049683,0.0990459850068147,0.6708728941699207,0.4619030914821985,-0.071672036099552,0.2603929427648561,0.4040254259277347,-140.1133083349471,51.1656209186757,34.07347861964412,0.0707324127005117,0.4012106708424002,0.331139720815329,0.4692095818285762,0.802253327246537,0.2165651300855139
0.99,-121.65441178965936,26.92705440523537,174.85940692730995,0.018632103753288,0.6158965463597335,0.1482143535900451,0.5151347183417485,0.3787254319499321,0.2917666468478963,-116.3435360162801,66.32005704816866,-1.9321837889125344,0.2285515866295388,0.7845382073745019,0.0246769745822245,0.4831776703228518,0.1846408452401897,0.3947577642570596,-185.23740738488573,10.221367410455212,7.584919850275293,-0.0110545842863503,0.644220774663988,0.4074438649013439,0.0736444494246111,0.0640067733313374,0.4962201650562404,-140.00156407110296,51.54650856399601,34.18315859787519,0.3481141465835031,0.1987390361775729,0.2753292987639558,0.6736703453176687,0.5031508230578396,0.2120377453384899
1.0,-121.5913325192078,26.5428823830573,174.80203028386666,0.3082767519806872,0.5412219669310019,-0.0162219999300755,0.822957093611831,0.5509446977802887,0.2648856110834952,-116.8609544995224,65.3012198352219,-2.36830055078784,0.3504402665404971,0.5584510445793209,-0.0784334181056349,0.3558308109578991,0.1442794196739509,0.1567848170664011,-186.04146855345604,11.110093079353543,7.471930664690458,0.076871669350589,0.7814004034892393,0.6519651543953872,0.0326922591028742,0.0650925813660736,-0.0520361290850103,-139.70936785040018,52.08797079629939,34.311889348011064,0.2560171844254358,0.4117999771458631,0.2236031671677,0.5483524196499546,0.3824102473648295,0.0265172269140367
1.01,-121.64681980806311,26.051985127349123,175.13778470331383,0.0289148363540626,0.2814094288678884,0.0643831777512289,0.8183551034731928,0.2339955589065127,0.2146526520022347,-117.6090833827295,64.6223625850731,-2.501881594227384,0.4198052021839724,0.8240325298440739,0.0111953336220817,0.3753001081945601,0.2137009411163428,0.2724556673828595,-186.53614923418183,11.717711903570615,7.530723160211819,0.1395397941066455,0.6054329599529126,0.4024090316743254,0.3940383596490938,0.2857512983044412,0.2357932923974972,-140.01852161926985,51.957013852023046,35.63972957062507,0.4810030477165005,-0.0364429510194516,0.7416744060784615,0.502913413658064,0.9603134625300532,0.3758774101194563
1.02,-121.79561647016509,25.645376717578245,175.4507824262722,0.0113146559894206,0.48727569237602,0.2683522732296766,1.008553863484844,0.1348216625966586,-0.1476169430758224,-118.19125893750974,63.7764662328169,-2.653027819748305,0.365985565074429,0.8569163187118372,-0.0793911554376325,0.2486256518813005,0.0501325758387235,0.333486672870752,-187.54719233427053,12.37027227300032,7.631618400346724,0.1857191090678136,0.6028535220305182,0.4021847367668701,0.6272169567096639,-0.1065896760621705,0.6531113467016573,-141.6171158214977,51.36892645266916,37.5974989562468,0.4055062624313849,0.0853169251868003,1.282253788365587,0.0678503634685297,1.584008165961048,0.5888509026670766
1.03,-121.84408766013198,25.32392744476175,175.55526698579357,-0.0479885619703049,0.388548806997898,0.0797827710004705,0.934442254256278,0.1387471689761119,0.3665859717466068,-118.8444908198171,62.87451152027137,-2.901531710650807,0.2788406334467275,0.866660487502596,0.1924737676075277,0.3049529060439522,0.5892886647298731,0.0971821100485614,-188.08103296019544,12.96107907996875,7.578777625567634,0.2281740366068881,0.3603815824204573,0.3329046950128794,0.6415266838312461,-0.1250708296148607,0.7442072206719507,-142.9898203921131,50.49364855341672,39.277487040856485,0.351779582226137,0.3233743910697151,0.7378496246025906,0.9068397355405255,2.1065888583823327,1.3158129073753086
1.04,-122.1317116393435,24.799588991883745,175.56993788116694,0.0055181528719135,0.5552597732796898,0.0392363233924143,0.7312265056033961,0.3102856599973133,0.4152432354590054,-119.42225115288034,62.21679480823137,-3.2200064268026063,0.1263804637057211,0.5711986873590336,0.0722009320830621,0.9006226133016728,-0.0371712402962136,1.414647586794021,-188.48047442835812,13.273407206803524,7.347778852456988,0.0797317853114219,0.5397380430284731,0.4473764396269908,0.5489864801262393,0.0467025615428011,0.3574598888036503,-144.0734106992456,50.47882578848662,40.56595372291734,0.1869759960336727,0.4078204724657972,0.5877040600250529,1.1300898789128917,1.620470494981734,2.03987602437511
1.05,-121.94493444940387,24.310190188278487,175.5614447364817,0.0280563812252054,0.2215047834658064,-0.0355014240773015,0.4954486002699956,-0.0412733536391583,0.2757183376629061,-119.51140269928123,61.37236239547199,-3.2224205660776035,0.3654387733292504,0.5607754699463599,0.1127521325518901,0.249926374868494,0.5769338567359188,0.595500844678439,-188.9101759467808,13.916046142523731,7.238784425638549,0.2253345132692574,0.3516394064903144,0.2920918275235283,0.3979480340293801,0.0100524477167755,0.3677091385579919,-143.86421915336393,51.18054015921898,41.09103982224802,0.1187097230841437,0.6123653305905264,0.7662348813363462,0.7388592925266299,1.2227567533456944,0.6423444924003685
1.06,-122.24762788293462,23.951424870078345,175.532505030371,-0.0059669666002377,0.3739558933311968,0.3158485732738548,0.7410440105966845,0.4252226491101978,0.6146592710166511,-119.90550015630198,60.83480363257949,-3.2785516810774427,0.0871249440267911,0.5832646773307033,0.0907747472304945,0.0702690438931698,0.27361363397561,0.1481320139570087,-189.4785391742071,14.384560259147436,7.098028458469545,0.2400651170971965,0.5771321017039355,0.1924015501591463,0.2137787787782618,-0.0181472965122159,0.3791874648315201,-143.57797301265094,52.08203227810405,41.63856151827677,0.231833319110454,0.6069469419000626,0.3087355202935428,0.3963140252953172,0.742541716521407,1.2537898371851224
1.07,-122.3219919545769,23.59529355140166,175.54706795104553,-0.0194177776271241,0.3852186888977721,0.2185656386586001,1.1629557918144329,0.4887547779761387,0.7668795570307408,-120.13765632624803,60.75697091053554,-3.3033001551069945,0.2430321873220879,0.5602118201630683,0.0699962487659534,0.2995194980430727,0.0092565053039611,0.2149415297706396,-190.07578358837492,14.63793247897815,7.037032137048133,0.1036500617495593,0.4411415022913054,0.3196933235875212,0.7591654826843399,0.3949096618305669,0.5324462405320782,-143.3609875472505,52.11350125744573,41.714849334885486,0.1613829718137074,0.2509037606409421,0.1321609407852302,0.6688796882360819,0.6843939070330652,0.9322084931636204
1.08,-122.43121449745324,23.311974601186407,175.6375534464174,-0.0736388463692801,0.2285633985629666,0.1449308170522142,0.8721653060811176,0.53442106966166,0.3203795170041473,-120.24175997418324,59.80061435971142,-3.418241657261889,0.0003653816716227,0.461076256537227,-0.1979260956881021,0.5025399914639131,0.0652021996752447,0.0649394131763252,-190.57883757134877,15.11005998643532,6.8146517867802725,0.2242548161974247,0.1395556204382154,0.4898367494001404,0.4068129116031191,0.4902725255545182,0.356497245676951,-143.71143192200472,52.140964602360334,41.715175715654055,-0.1801242389158852,0.2101234217968405,0.1020266020955584,0.7809813077341962,1.0305150121453854,0.1139665545849067
1.09,-122.49907766139756,22.948290799032748,175.72565740890926,0.1181385887112421,0.1619271756151664,0.0791271769968462,0.5081608553059673,0.3303501614273446,0.0736890707520541,-120.29511963233396,59.107447502100456,-3.401431357746066,0.0382447039545531,0.6178259360758368,0.2001667053070053,0.5383908037495316,0.3258169633944806,0.1156716000221829,-191.17967457663224,14.965487188630192,6.656571874472318,0.1294572531329073,0.039903946203718,0.3610479768630814,0.3765089066650842,0.4853576564721683,0.707675550559647,-143.93651570369224,52.60360054152546,42.37946702499901,0.4673760851107438,0.0543331442920188,0.1904512520882151,0.7826191313503793,1.4479785345779308,0.230444082245823
1.1,-122.52454106947287,22.674829107096727,175.9654881909776,0.2159062066089252,0.1794600967990569,0.1198623306925956,0.2308570605967243,-0.0326257612004561,0.1735019037889531,-120.4426702500067,58.41399766876918,-3.413103680489625,-0.0770250575541582,0.6501714419306066,0.1755691838087321,0.7047628273616605,0.2954797991005335,-0.1129223067775532,-191.49100919893652,14.989054489425252,6.69768568959449,0.239275958650712,0.0938715458147895,0.3153113844101185,0.3724438064032537,0.5455246818026699,1.0700395538488217,-144.464157000688,52.24377689010644,43.04719701877235,0.3849827324137446,-0.0200512804693499,0.2029300734287354,0.8339186706253221,1.2115194972541423,-0.1720543010566584
1.11,-122.66988796972214,22.489414470142524,176.20624373151412,-0.0298106858018247,0.2828875164105313,0.0548087187444116,0.5676188761806703,-0.0436330013623219,0.2680701274211121,-120.64103163558592,57.93163144477601,-3.446611779865186,0.0304327078327695,0.6226423053788455,0.1313215102806821,0.6485934603918211,0.27585925131458,0.5681691135114502,-191.7859296152275,15.135317725267203,6.5382079413259335,0.2530659969354222,0.1768370927049061,0.3964946117965328,0.3978155251078247,0.8741749016644476,1.165561621703751,-144.42005642233076,52.10318507133027,43.84450954114476,0.3307130823609234,0.1207023057675399,0.3179864084901672,0.5989511826377772,0.5006043965550352,0.4625972541298535
1.12,-122.65951181617112,22.29431555488222,176.45660989920395,0.2030570227522773,0.168237179207487,-0.004974267549143,0.3995427730585995,-0.0179171224218282,0.2774191273568988,-120.9087569725418,57.4079002204565,-3.7456083871846295,-0.0625725192128477,0.44153778777097,-0.0100869234410982,0.7951204840382979,0.3902326473642947,0.653079040667004,-192.1844820375739,15.401582606728574,6.345084706160505,0.2675435770758203,0.2134375169858934,0.4467829864960072,0.581955204148062,0.6963717213437405,1.1848017996754745,-144.96454233202863,51.79609013495161,44.17977492525745,0.0738377939201092,0.0066909824333842,0.1500606049947423,0.1006930238400914,0.154621006274766,0.0583515359808973
1.13,-122.83576398140228,22.27273027994397,176.35061824945458,-0.0552365401166229,0.3003314764252061,0.0942690093063383,0.3685136774138452,0.2163041667340648,0.0151071716187996,-121.1211589392827,57.10596859289588,-3.6202748321554186,0.0286233339095052,0.5713725623115233,0.064215061029393,0.8669560128003841,0.3150856507388149,0.4440771385000042,-192.42257893310892,15.480281461170726,6.166396939484964,0.3382677766966327,0.2354050302085724,0.4012441417801223,0.794952245246637,0.620447668976291,1.4580569072469285,-145.088509593298,51.57249178816595,44.28281073304661,0.0275449414587084,-0.0575556384687013,-0.1702102341266583,0.1134571456550169,-0.012200054100592,-0.1140120428283972
1.14,-122.66468050969593,22.0677453126722,176.57421582023727,0.0907697805888078,0.0999482206517911,0.0815012435384169,0.4664420894146652,0.1579845731279754,-0.038680987302188,-121.51353272007754,56.33767159166068,-3.850780240169272,0.1600384685077811,0.3288550657248225,0.0455519171802342,0.8188842103913265,0.1054766374724552,0.6912857913527168,-193.29818421522285,15.839492772643396,6.155614321747256,0.3301324024612102,0.4843803586005702,0.2491909550662951,0.6636890767233856,0.1931878399359772,1.9274916666068256,-145.67494463358813,50.96695395992904,44.868501104212186,0.2500157358349409,0.3238951215169185,1.0425909916192715,0.2540453617964072,0.4315874574632497,0.3637445731498435
1.15,-122.8212117237038,22.07192886900624,176.69794905977798,0.1822266929951185,-0.0891570072854654,0.1476851918847398,0.7692907224435499,0.4079431664953257,0.0941279754589964,-122.02212364270036,55.897561285793714,-4.030452128628223,0.1406172193233543,0.5637251395691562,0.1442102461169323,0.9132555626081754,0.161160689392221,0.3965663259872178,-194.1775191470362,16.428341769886302,6.3263649606217,0.0954907971491451,0.7108651455166389,0.5260411056576009,0.6185441138582144,0.3086264355222084,2.5530225761885887,-146.0835486338976,50.88228638949821,44.96055390703406,-0.1398812110217032,0.0577369834808978,-0.0580623852368662,0.005855085788956,0.0290750589200379,0.0565620747938992
1.16,-122.6175487593985,22.0427195371576,176.72463609500974,-0.0588636938527227,0.1873456750139954,-0.041908573250596,1.0076552167969093,0.2306079950956165,-0.1266130958048078,-122.5978615326263,55.13359733672058,-4.205248561321913,0.1999717447962018,0.5045122954325342,-0.1181057218677626,0.7551904220827135,0.0235507804757658,0.4771930013718909,-194.8115963130623,16.97730418932117,6.435241445777399,0.3535860671030592,0.4740270183596461,0.7405743153115568,-0.1441420159707113,0.3099781909731458,2.2824998013176465,-146.19948326346355,50.83027902503323,44.96317309005532,0.0381792211263256,0.1156640176537409,-0.0243475491842425,-0.1157786813741609,-0.0393696985216201,0.0399492218998972
1.17,-122.70730252745058,21.97306781245119,176.71623590034048,0.2508303901028155,0.0001128382368944,0.0549012533170924,0.6141175821340675,0.0467259047153323,0.1206763347884187,-122.90218074662955,54.59278037935592,-4.1611401305066185,-0.03057749351781,0.5824075892952301,-0.1634776220787627,0.5241142890519946,0.0702673742861987,0.3816413678685267,-195.36208254083505,17.531694124612393,7.07349120010125,0.2926241219292956,0.6974837381544076,0.5042800067209705,0.0086611856482701,0.3049764191806433,1.232243743988153,-146.304397590679,50.73979274564906,44.92881378832956,-0.0370878650679748,0.0620346132990394,0.0360364896882477,0.1429054105043548,0.0995420071893968,-0.0683234537316943
1.18,-122.75103991279836,22.280177764041387,176.90067816174573,0.0465597128634359,0.1528775162631137,-0.0896861187052371,0.3067018438186263,0.2516280758068152,0.3265911295631542,-122.72649896480831,53.99153988988256,-4.269287387014091,0.0157919043641995,0.5217542782063432,0.04060189652177,0.4743491497525713,0.0418291967497118,0.4971426769234314,-196.39873260427436,18.251338460560245,7.615758608258388,0.2449518072818639,0.5857878766080316,0.566605381467592,0.0801422089517137,0.4755084333966085,0.0765879334620638,-146.39258566208164,50.79315907729378,44.94166963323334,-0.0054166284418179,0.0155096113379826,-0.1895043615295264,-0.0226521710670019,-0.0342747865892859,-0.0283771400358053
1.19,-122.61675188563493,22.50591502815413,177.16814291454153,0.209778794009742,0.0607245396646064,-0.1126424426885512,0.760570515075251,0.3256385733644411,0.4503423612854614,-122.69105286356653,53.43480201457256,-4.028564134874853,0.064847453076785,0.3261857663922196,0.1535578296088988,0.4553324325261818,0.0933270794799953,0.3875705632001003,-196.80120565929897,18.8590998851223,7.7167494872016,0.3143367134513188,0.4285523075285558,-0.0187419348911948,0.0197035082461793,0.3788896585501238,-0.0062379484374319,-146.57121792745912,50.49528583242305,45.10961445354507,0.0325477067784158,0.0703931393355335,0.1212666811032395,-0.014348780642285,0.1118830767687911,-0.0773822763919269
1.2,-122.5488643754316,22.76715518813752,177.01165282359256,0.0516034024313786,-0.0230637741152287,0.133277823214071,0.5481240878307752,0.5487153237369444,0.1516095285832264,-122.80958632506238,52.82880912569412,-3.751612831024653,0.0794510075599578,0.4453012848461941,-0.02391667008958,0.4028039464149831,0.0967948641114755,0.4151218121013736,-197.21710623961536,19.005558334956845,7.812324574461841,0.1707722247961975,0.4563239316038666,0.0544668219471817,0.1665474442372966,0.2545306814265829,-0.0374687363728083,-146.78178734600155,50.3726464912824,45.23843032166891,0.064991575695442,0.0033717758355574,0.0210563493666768,-0.072597020950421,0.0595456083851643,-0.0233312480072287
1.21,-122.66625031964402,22.91382480177119,177.36828987085025,0.0909284269734511,0.0501887757611327,-0.1830302381149358,0.1465181735401144,0.0963362170141024,0.1408471624581425,-122.75968701065736,52.353974736793376,-3.803491687253144,0.2341126002627757,0.3671720372327698,-0.104128234778954,0.0781727656934719,-0.1179146034439055,0.054291485707389,-196.9281968652045,19.64344609058296,8.00051458751047,-0.0040703334401854,0.2639383112553686,0.3966269387482514,0.3940861813708164,0.2339617045967494,0.3854728648920389,-146.7608105327624,50.37794719614765,45.22211968371807,-0.0685576222152534,0.0609733102800404,-0.1596217354610132,-0.0406703750099082,0.1511715611063021,-0.0620608019786101
1.22,-122.4427498442518,23.033462727535024,177.4663399050681,-0.0606355532770371,0.0432267784047206,0.0396898377553709,0.679774228559655,0.1613078801828862,0.1841564696361098,-122.5182579193348,51.61406397844273,-3.5271011375216075,0.1187937625028156,0.4653059572800966,0.0486581383864719,0.4896985406763082,0.1638949107001358,0.010086690405548,-196.3910532693465,20.004237679079285,7.836077696319889,0.106439794205371,0.2041490521887785,0.5795297522419338,0.2666520333287848,0.5426833637056405,0.6917756264829408,-147.15516744745256,50.306273767997546,45.28707485464854,0.1227260898038653,-0.1869069473719951,-0.0257903535374683,-0.0821259144056087,0.0181500713094643,-0.0763261708722924
1.23,-122.4454292435682,22.88803041376524,177.3181656602319,-0.1612280891501161,0.413393453920079,-0.0361779245061612,0.2949249945240457,0.1771203854716192,-0.0822685187688081,-122.97383546419113,51.19664593387437,-3.906906348654452,0.0507430535826046,0.4097570030966664,0.0984179165388345,0.8563234500666711,-0.0245763982006152,0.3433551120367705,-195.9825207657076,20.60943011322495,7.805694864675784,0.1127047945018823,0.3392493022629784,0.6504873688502226,0.278706524772915,0.389549756766031,0.6333566383943166,-147.39906615242904,49.99686215104525,45.265052120473214,0.0971300557899028,0.0593062947744444,-0.0091811847185081,0.0860518712129157,0.1412883018883179,0.0190446434692644
1.24,-122.4298694316976,22.952123167827494,176.9888484699373,0.1048768160677823,0.1096722679105842,0.0424788189442782,0.5159912913403694,0.2980527630119131,-0.1159975054296697,-123.46328156124036,50.59079855952811,-3.873517742254637,0.3641849250744076,0.4919555930618163,0.0077725718807325,0.6620946014015143,0.0515493683023732,0.5389706671682716,-195.459847714095,21.024491806176183,7.540080745654307,0.0501300114681281,0.4726671826779641,0.4216802609764787,0.4927415881682767,0.32052227140231,0.4792682846548545,-147.43129502652482,50.13918986022736,45.0965042733926,0.0519008157538035,-0.0313960958523561,0.0135021675465567,0.074277003651186,0.0072330242109863,0.0443518888409221
1.25,-122.3222903472436,23.354685484334112,176.9824664569717,0.2159099008560586,-0.025573341263519,0.1410368026362092,0.5739372450541349,0.4089755158496405,0.0962407341827403,-123.67401421145642,50.26617952614905,-4.009317220343932,0.001570020034864,0.3342892429014195,0.2089382482498573,1.1039120018322297,0.2052681286146716,0.3887720421932545,-195.1107967986141,21.34252343412253,7.355146792629984,0.1307686052937604,0.169300101315078,0.5086212010146918,0.7561001824728778,0.2437175475263268,0.8504972252499104,-147.49587859485257,50.04800657185016,45.28748562472866,0.1202264784022777,-0.0041175329626935,0.2002792043244913,0.1216869970367831,-0.004443765646752,-0.0791443769165273
1.26,-122.24594920022,23.349163534283868,176.77348092260075,0.0074100438495613,0.1708027293464893,0.0451209860306489,0.354632198419696,0.5913260377385319,0.1314931008911779,-124.03175033966538,49.95860151138364,-4.134257227745693,-0.0335324777905428,0.0744192119268082,0.1954503842000322,0.7640777335072615,0.4829033516315691,0.4222370900168838,-195.00286515125703,21.393350897598545,7.255045479403835,0.0906708022265111,0.3262910345822032,0.5102855260845999,0.6241543068236639,0.1267560879608087,0.6127774246986258,-147.4727473505521,49.90835663418116,45.52074757162243,-0.0001527313539434,0.1750887825258671,0.1586306460393581,-0.0286119546396026,-0.1216491115884882,0.114732487759782
1.27,-122.4429992294362,23.459945755295863,176.7945443025776,0.0550305551561131,0.0406067868860805,0.0205159993231983,0.3647206959162919,0.3810407861702199,0.0664707572943058,-123.8650417785856,50.04754767943479,-4.24405594914968,-0.086008503615221,0.2199012372201668,0.0450320331323739,0.6410152381197703,0.6231941405569585,0.7967547075209225,-195.01390573331145,21.77786901756135,7.145735850401457,-0.0085201190407528,0.0949224596008745,0.5200391287842985,0.4501778037377709,0.453835398781836,0.7158029594476356,-147.71962463908162,50.00035610210643,45.45887140491328,0.0780343202534436,0.2076570357275324,0.0544823376131906,0.1971245414416259,0.1022578876969706,0.1247930728893447
1.28,-122.23800572621909,23.574450137703028,176.84259380687183,0.0634246361953796,0.0593572510669691,0.325954870747876,0.475971147742424,0.461070416592708,0.1182983583632411,-124.27720789849025,49.72959589153117,-4.551194092783466,0.2387830232388032,0.2287816331871359,0.2682853355811279,0.4528282290089042,0.7301279199077676,0.7803648113136342,-194.41327365088085,21.77638463640487,7.27628744775366,0.3183050704133152,0.2258046224473175,0.0707116161925966,0.1426207089906339,0.8378350100928409,0.3769366530424615,-147.50545335967757,49.79632204212426,45.11549403867448,-0.0980223716682321,0.0718716376108029,-0.072239991228165,0.1750710992493274,0.1131122748032523,-0.0132766353103245
1.29,-121.94960236189924,23.646843056149056,176.8650724449616,0.1000793842112434,-0.0321277336850546,0.0444595072022519,0.3123247854057057,0.4853746200105875,0.0342220252581961,-124.75997236878386,49.67242929179148,-4.890721762158876,0.1229718601031587,0.2314909413555672,0.1552498969778677,0.7517508645089873,0.2558115988396454,0.3361510681555395,-194.90284183456896,21.8358914991064,7.255387433655578,0.2065796531132866,0.119539598145225,0.2259649246610083,0.2838223843275708,1.2609192457845992,0.150718002975777,-148.24322234153766,49.66288017955413,45.46204242900666,-0.1160776899195361,0.1190878755025701,0.1928686602502278,-0.0498414392950951,-0.1003183819669034,-0.0950625069465532
1.3,-122.05238096290633,23.818284215456178,176.801096501654,0.0251987076865033,0.1026405203311328,0.1775958975639715,0.6683843374187389,0.1322001756270933,0.0963462323047808,-125.5152844183536,49.351724763678845,-5.249121544940996,-0.0507332516445094,0.2447814797746304,0.0883308786085413,0.5733618375810691,0.1770206951719146,0.4241532428355144,-195.20032395386167,22.04658351511511,7.588838514996742,0.0569992742250426,0.240767620113193,0.3232277618952519,0.3192637108423752,0.1898476491141434,0.0538374092618071,-148.19488267073743,49.57519724324154,45.36803209205837,0.0715927718235956,0.190292270595538,0.4234627431695438,0.3124773765769724,0.6191258132965677,0.5923690171196752
1.31,-122.14069375429624,23.831094216434845,176.8759477948978,0.244201270110401,0.2945628774365399,-0.0905717718903472,0.2745342421324688,0.1228563418794011,0.2353182471964534,-125.90103476023369,49.07582684793133,-5.643817545494252,0.2222295493388868,0.1735521179392289,0.0378975187282271,0.1932419212899419,0.2261418974102806,0.635994897738317,-195.46371160855108,22.14270870209679,7.499393699517825,-0.0330458925635311,0.1425886694774127,0.263765518152019,0.57326497115874,0.3360124509300117,0.3598896553395557,-147.824617717742,50.13621283122694,45.24014649303227,-0.0486717163960579,-0.0853459198228753,-0.166538582867723,-0.0083879018808978,0.1057497358945774,0.0252542300790541
1.32,-121.7285778476924,23.98247213483112,176.95493653541857,-0.062103783281588,0.2264707575812874,0.0122243905289332,0.0432800233939062,-0.0744669585769272,0.1390725165663083,-126.73943782395015,49.1901258704356,-6.153068310180198,0.1742337722664681,0.1347957180091639,0.0451503211236172,0.1187808068615288,0.3612599770694788,0.4230760640119261,-196.0362947756041,22.445965565928816,7.824685511448635,0.1906739819182035,0.1876648217961758,0.3454827409678211,0.1299513766015125,0.1470903448163955,0.0592098318839852,-147.4886543324995,50.73574628872414,44.892652816338085,0.160447935139754,-0.0268623615587072,-0.0655428368079669,0.0400439680838224,-0.0282732162891416,0.0940097890419804
1.33,-121.84233703522708,24.07807132112491,176.90996681371138,0.2814121214150452,0.0039170234705609,-0.0752459507907308,0.4381831506927824,0.1129175577964566,0.3897040041568511,-127.52568292756496,48.90168505079298,-6.559201051690521,0.3105205279213636,0.0889235902148785,0.1417438182888745,0.2348295739510916,0.2490416552576254,0.0963724476102908,-196.24750604182,22.582411211410648,8.157682645434333,0.1333063842397233,0.0500942478483504,0.2391373907490839,0.2735623697540662,0.0502365736653528,0.1899015642114696,-147.4636118543005,51.14557850595571,45.12588887415991,0.0899973449753783,-0.1043146926683788,-0.0631344824839019,0.2204840487412437,0.0388655293928726,-0.0638967963549434
1.34,-121.62658285777232,24.30540942012208,177.14310522812158,0.0481768057295865,0.0620637081732797,-0.0836698442588196,0.411250611138388,0.0955803887120047,0.0634923731859379,-128.22459903731843,48.54625020461056,-6.852319832250201,0.137983150655781,0.2942676256143325,0.2799670286413909,0.2213136616601056,0.2640376980905355,0.2889273270094344,-196.96697512094357,22.77693435126726,8.67086916452784,0.1025968303699499,0.0927156122819748,0.2083917089396825,0.0368030079300611,0.0840577606252662,0.0999509054230062,-147.31454726827735,51.73444974489743,44.74295196432762,0.1555840727043617,-0.1118174414511592,0.1028174293700187,0.1349531347701108,-0.0054085632791547,0.1788224388700063
1.35,-121.62797215988648,24.2475180068684,177.22925284698653,0.3290549247451803,0.3595441704926487,-0.0553824414571549,0.2161792172804563,0.1209182171742073,0.4179620024189073,-129.04091688164183,48.4524754966894,-7.35966447964714,0.2718772251874968,0.1546663031768201,0.1977150944341217,0.5401202083790081,0.1151353305585321,0.0257381616245457,-197.37100370047747,22.691010866861845,8.950165869172977,-0.0448906878279405,0.2254368364599275,0.3959145344747807,0.5668794076258119,0.4897765927101004,0.6827424801086438,-147.25655682664174,51.81830649368587,44.95615950579704,-0.0642472441595733,0.0136479659426118,0.0222183631299761,-0.0639277633062838,-0.0105751350799581,0.0025047375682851
1.36,-121.52684005417014,24.46309060468134,177.13086683929558,0.0544199205738629,0.0321521999801349,0.2166043731233201,0.2143876032091188,0.2813746165806122,0.3532686892116143,-129.5874347275678,48.11531629811852,-7.537138425265839,0.1794496846024514,0.0319825954046737,0.1771679488379665,0.3117923853860099,0.6319520936816986,0.3056258413774089,-197.6865315016358,22.92635182766766,9.163536714698775,0.2530903771290571,0.076522834438355,0.3301843179998611,0.848872503303813,0.0781042487029106,0.6044872638972486,-147.09359121458442,52.50436950385676,44.647357895041246,0.0714301544105482,0.5073053028323518,0.5130870038491993,0.3110392510500355,0.1136451566464073,0.336378975544205
1.37,-121.63931226165298,24.73989518161885,177.33261816530356,0.1691940525221699,0.1417463639524137,-0.0942037159159688,-0.0427736629055132,-0.0674577033035466,0.2419530355147912,-130.1256836070986,47.771877917289736,-8.193252861629523,0.127459228740332,0.1168707260528001,0.1505260325877428,0.1868205509632786,0.4804104929523385,0.5008702330154617,-197.72848988974036,22.967294602108417,9.269380286447635,0.0752841488725694,0.1070482825352435,0.2071576496970337,0.6165980937828364,0.2360959844278163,0.4342463659907756,-146.53609434226746,53.14483694175166,44.22864760314137,0.0818466753022766,0.3866447122320126,0.6647442923156831,0.42157580203563,0.1342275516961496,0.2880624433426899
1.38,-121.69051363759094,24.83900244905206,177.41611674376608,0.2061455989222141,-0.0305524776410157,-0.02600010065672,0.3523435154657895,0.0229235081231345,0.3721706051228574,-130.14517754099964,47.66186286088623,-7.951526147447313,0.1052345691687006,0.2885596669246233,0.0216611817669911,0.1159605561623483,0.5266493583962223,-0.1674008363620212,-198.2323017379746,23.410485234533624,9.878648579044905,0.3258650951338232,0.1676591054310008,0.3073068623337729,0.0514710121517703,0.1791554390490058,-0.0370881309177019,-145.90925117500475,53.86533810912582,43.51423910866095,0.0948600711743119,0.1500648978911515,0.6645956421675476,0.5865348016947178,0.3290481471623625,-0.0624979213590575
1.39,-121.69971076827504,24.876202863540843,177.11167717761987,0.0733411661614609,-0.1488415019712944,0.0776352991113171,0.4739472475908394,0.3406131432360186,0.7460582208236568,-130.06590757062764,47.459743420667934,-7.7860680744994095,0.0174256021975666,0.2320567810588323,0.0549217528629968,0.5039989342594717,0.4060330052576363,0.1285376339678355,-198.36820531746315,23.32419244986662,9.943625334532449,0.325736896344609,0.2852040155994551,0.1245960133394035,0.3197044834977834,0.6900741385582416,0.2020717663055803,-145.72846127768486,54.60720907064811,43.01316287929629,0.2453166697202758,0.1953646235978672,0.7042486550917784,0.1887385472623406,0.8000966679645515,0.1922804688941105
1.4,-121.84763313674604,24.78587999162973,177.00364405388754,0.0071677125967956,0.2407425163258993,0.2224477958306841,0.2697723684753894,0.2183436936364069,0.5676212206866805,-129.94514839811913,47.03498411381152,-7.89683142730656,0.2513312446598174,0.2016902614865239,-0.0943255997002108,0.5132151164272919,0.184843205913807,0.4319055716278073,-198.38826578441848,23.58489794320904,10.140629144556184,0.1703083861135897,0.303506204602358,0.2158647808429517,0.3619773160577868,0.5992978753454924,0.2029669943687923,-145.37299566761786,54.88985381335555,42.86883212755995,0.1122900992169831,0.1387394645790052,0.4146500058893965,0.2339395102298532,0.811446155016218,0.2137137860455407
1.41,-121.77017719086275,25.001127042009077,176.9853543845079,0.0228127831362394,0.0273452728652438,0.2517895525492866,0.0064837003112405,0.0462419493638073,0.5340963153781025,-129.8350573636236,47.09981281347011,-7.748499233754506,0.2243683633075512,0.0272092508173743,-0.015619904408613,0.2497410253470742,0.0474099653673759,0.5642434846485722,-198.61276766962797,23.3604835653406,10.23867025563894,0.0600008014591993,0.1908305320227396,-0.0333236915297752,0.6109391100405449,0.8383201930970663,0.110229617903463,-145.20158231407757,55.21043285792825,42.60925368863283,0.0403447939781273,0.0063459321284138,0.2225778139144586,0.2390167292768617,0.8184973089912213,0.0599154035142943
1.42,-121.97543367880962,25.18897581703943,176.98804742722794,-0.0873293260756278,-0.0599521774889109,0.1166274037301816,0.3912190843156607,0.5795030556515068,0.4129331191086756,-129.8527344449964,46.75146351973382,-7.820509505397326,0.0801230507749422,0.1744083438822863,0.1796876535849859,0.3061280681096052,0.0675671307381214,0.6433436155699686,-198.53980398006004,23.7174092896066,10.287256667531375,0.2605373586384318,0.0256159406587619,0.0475357201249368,0.9654567528317722,0.2758096794967788,0.5545398277195799,-145.62604536595157,55.06128672291272,42.66930486345845,-0.1255863500237705,-0.0524557896090033,0.103049268141798,0.2949227951742206,0.8971472412867257,0.0151495961572933
1.43,-122.1533497679523,24.95770308059081,176.91193400946423,0.1325034154391019,0.2060466438447173,0.0739107998284663,0.5431378028951861,0.2970731377069975,0.183175537292159,-129.8293397645699,46.57373801581337,-8.02137487922094,-0.1029303237355235,0.1881691992228702,0.0188209295369986,0.1768830380407807,0.3794389470722876,0.7546513871506507,-198.7115292755469,23.56395073636392,10.68178968680657,0.0529032589820962,0.3226480274914397,-0.0454360460682031,0.8076608615160701,0.7457551357409583,0.0305444701696617,-145.8592676039658,54.8080322357575,43.10299773139207,0.1067066025559927,0.1066180181450699,0.1799482054008591,0.2863120804835379,0.912208188095593,-0.3503738444834527
1.44,-122.0969898241291,25.15588388347268,176.86598005036788,0.0222813467419197,0.1446562494527436,0.0743537007365029,0.2589990347812976,0.1896683520871979,0.3438283137762913,-129.87220497731514,46.49383530209404,-7.677826113230068,-0.0515501011653552,0.3293547569078507,0.0827607253202209,-0.0173713955899023,0.8476170422206742,0.300610102674772,-198.2679059935092,23.0649251539768,10.762044010909936,0.1035359390552996,0.0977512678143228,0.0344303964870833,-0.0218138555268207,0.3035208813957337,0.4967625602937278,-145.872745454753,54.85768053250468,42.98598164167105,0.0094988337168822,0.0150147069748238,0.2127040677967741,0.73345720491999,1.192210024492273,0.1287743119129942
1.45,-122.02312845458204,25.3889126636157,176.9933260000345,-0.0982477765416445,0.2337374136907996,0.1583378190452462,0.2524562989227533,-0.0458346875020414,0.1650817028454665,-129.5910262268476,46.27752955365928,-7.58858224456182,-0.0339201434454933,0.3089028271934508,-0.0314247207714667,0.5069285910457937,0.6463375406183962,0.4028359625395594,-198.24717391952092,23.048516680880745,10.564689695681292,-0.0267786010288932,0.1170731499883903,0.1969759087859318,0.8267820557172537,0.3756280635136946,0.3190352622216314,-146.03227138796362,55.23197568919006,42.13265184703662,0.2264722210219391,-0.0003907793569359,0.5411393396347094,0.2810964814962392,0.2121165078505182,0.4740016873224548
1.46,-121.9944544655229,25.465139461376456,176.92466463705497,0.0076923758071641,0.2184801354158002,0.0799901740921445,0.5513535082922821,0.3585918796762475,0.3568178821677502,-129.9291281913783,46.05266947765988,-7.693143670481525,0.1479216919121983,-0.0492661688271741,0.0381541945421237,0.1214218363844617,0.2559044163882456,0.7023433698253218,-198.13031280687645,23.02713758620692,10.356563511897397,0.1512255412343351,0.08790862547128,0.086471790271118,0.9832499902037608,0.6922880474563354,0.0800574965975551,-145.6888417683424,55.94841435892987,41.16207440624961,0.3543126618876424,0.2590001586363277,0.5994479333170096,0.0250305803120605,-0.260435178891679,0.6440549498625746
1.47,-121.86857214962122,25.518737699141347,176.81882553887857,-0.0117563730781269,0.1187425765389979,0.054013184315758,1.1419345074828957,0.644963200804557,0.5141877045650816,-129.92316696794276,45.86570714821499,-7.812868612873012,0.0260485509854261,0.2587057029568849,0.0941612939975585,0.0829564654400445,0.1601743599861215,0.5425389608915173,-197.84867135671988,23.15221353149261,10.56612638923033,0.311465536489522,-0.0471007500831253,-0.172666225020466,1.5446921185612938,1.2276096980071831,0.3362570414580464,-145.19479918225215,56.567572390143376,40.323572569881854,0.351057421922002,0.2570758391408573,0.8176558031946161,-0.0450407195015503,0.555016272996669,0.2088463504690409
1.48,-121.7213359970416,25.920008469906573,176.8968322335171,0.1103896835116992,0.0183041245735956,0.1923651586455225,0.6838270547010991,1.0516731337949832,0.5866912525253971,-130.31016640518473,45.73299699533485,-7.668738092883905,0.1288944591521726,0.2127468833101021,0.2517637288748645,0.5049540943339026,0.0421822420605864,0.4985632567800934,-198.45087292491723,22.89441443500681,11.364091960104243,0.2681323327954206,-0.1277837748173587,0.1601955409460483,0.5588389891346177,0.500478155936757,0.362932419596802,-144.70782698494912,57.51297912410485,39.33750074337324,0.2155994422861771,0.2337509888406964,0.6049337441180197,0.1610034985150998,0.6907931032579335,0.4266228005667823
1.49,-121.66429093126564,25.65942172899485,176.69669668213774,0.06223284519046,0.2002759758998835,0.2246321299143399,0.6457051308700212,0.7710065008936622,0.2880915512307825,-130.82784362294478,45.538957269183726,-7.749807874951,0.1215178056816184,0.2717390195705335,0.0479101812183289,0.8069048818571604,0.1512244380651684,0.4924028988864717,-198.9580523447686,22.844538758861574,11.787824358037891,0.4362887877148167,0.1813716439686081,0.7617788283769317,-0.0212510793761779,0.2193579795218917,0.074674654808157,-144.01741700912095,58.20648674120323,38.13733991994818,0.2196449436106772,0.1690340860600246,0.4605515140766717,0.2600293193737005,0.7817770832897899,0.2111924930197223
1.5,-121.6935406963286,26.1897355935364,176.6051896565695,0.0884993380965496,0.0758944914756205,-0.1147774550036654,0.6542822919318005,0.2984541157742795,0.3535822534172284,-131.36891136211426,45.263500135367,-7.996720893064717,-0.0644988777094477,0.116310580924471,0.0313025335950572,0.3643975462874785,0.1795469449635941,0.6067965143887972,-199.92224487443116,22.772954663986344,12.398093511196992,0.3666793934650327,-0.1507635566191518,0.6203772938167589,0.1261315750604714,0.3245574648650647,0.1389170101789568,-144.45518860660437,58.27992865519148,37.846074704025256,0.0161327623356031,0.0357511114863995,0.1291717379216869,1.1592223824840844,0.6598186844089033,0.3060442390522002
1.51,-121.39234349278816,26.153946818278328,176.71342236101003,0.1126039145353675,0.1157706743178723,0.1072455944688361,0.3577781869122952,0.3648371146480819,0.1882298968729965,-131.51793849889756,45.24440441413082,-8.142304300428783,-0.0608718049869656,0.0960413914587384,0.0627201163200025,0.2793335305244762,0.1576915275846851,0.1586887859199215,-200.40690179997927,22.772818234434048,12.916731275005215,0.2186639970193083,0.0086676882272179,0.2102371485742291,0.7210577251506748,0.8353260391146056,0.2473134615614862,-144.48007785358598,58.063401087412586,37.87288943902606,0.1451436223456422,-0.0647532964619119,0.1588040282830377,0.2640629510251243,0.0999280055564098,0.7010167786098179
1.52,-121.46651859197956,26.39402198663128,176.82503026775788,-0.009282194450578,0.1889623112078716,0.2077610533006218,0.7204598190998137,0.2045449348807295,0.207417620096695,-131.4830626260491,44.98860329252302,-8.056585257190402,0.0719919092974874,-0.0236817638938324,-0.0519072486955129,0.3516964840262728,0.1845397259733263,0.0456347024756995,-200.61790785264637,22.487263970590018,13.106038497843002,0.174587482086585,0.0303834347863916,0.0689238048389352,0.5938247270190687,0.3167733963934384,-0.0491975656338831,-145.47490462471393,57.46820112462154,38.71720753382346,0.0024648759275159,0.1975213321193921,0.6465029058246402,0.2856397098650271,0.6306341200341236,0.6806774242340645
1.53,-121.32280461445198,26.5562597770886,176.84625921344528,0.03420090494404,0.1909623508278634,0.0543977518163854,0.4445492669897781,0.2315932017559363,0.414362697572231,-131.45436426559402,44.81233615309178,-8.001456195806865,0.1605163284876644,0.1485961683708642,0.2022540027044472,0.5609825100778657,0.260361748189564,0.6736658672663535,-200.62202466763395,22.266788520021027,13.364630304707989,-0.1504912523093147,0.3447816643861313,0.1653604329421061,0.1169199841901258,0.0270493458652917,0.180962933497798,-146.1802748963799,56.98308594739927,39.588091490063576,0.1292835425772456,0.1163458921901643,0.6616085718177813,0.5868845201204668,0.7250167423509122,-0.0830170935299926
1.54,-121.26869644743772,26.854890673726665,176.79400447518273,0.2562207395987041,0.1259537978050204,0.2787996228082091,0.4203038052423566,0.0761532068672645,0.1008610794865374,-131.58043140541002,44.781064853355865,-8.153243254292,0.0734235458240733,0.1084342003322682,0.1417400697097754,0.3049753759984233,0.5253373158864058,0.5128136970280295,-200.62032941913856,22.26768453339608,13.273306051991108,0.0616872741075105,0.3957631296479597,0.2417403859938888,0.4643255385523328,0.3588413512801288,0.2640020116502026,-146.43603802721526,56.71122908492058,40.05273473019511,0.3626128248413635,0.1786947624798568,0.4766804540772351,0.6992010781290933,1.0837633973727765,0.2741250575994599
1.55,-121.19509619917272,26.87184023795277,176.78906438651208,0.0481535442672487,0.1371112750090702,-0.0296544863848396,0.5332313707758937,0.0538926325245617,-0.0529220427212656,-131.80267505408847,44.616710863488834,-8.225008966957379,-0.0030801491202748,0.3055820991953605,0.1224123979876097,0.4869042796342537,0.6840267484981905,0.0687333957376452,-200.2808249556615,21.92664194223588,12.925583213714996,0.0650808587824059,0.5814905058789457,0.3277863119214662,0.7236457475301913,0.6569330961960433,0.3689474694878001,-146.6342422927827,56.69459481028892,40.2408945912745,0.1183374409761946,0.0127402551421553,0.3092485189389051,0.5736623716587916,1.06533767479334,0.5194654935444831
1.56,-121.10305696874948,27.156359880701796,176.7048866353738,-0.045316359454058,0.0812604829287322,0.1647964609593498,0.4717514622360144,0.2273441138920588,0.1395115032445504,-131.68341772095707,44.52512151361552,-8.270427351971572,0.1141190330689227,-0.0681226017560908,0.1327717596146427,0.3940229962564082,0.3762739229378471,0.3024263987931488,-199.8336346968296,21.97589838526666,12.662376324208482,0.1363457783553987,0.0983387364419171,0.3406001884100017,0.8609494642185287,0.7171040214300999,1.3809792278194717,-147.05528604833012,56.48964802576886,40.567969817656376,0.0636568693480957,0.1290877386129024,-0.0716296713457774,0.2511935912662696,0.6442852790418752,0.9191556933497932
1.57,-120.97919524142608,27.611470956371825,176.8801335359116,0.066124072746949,0.2850008365597485,-0.0150032695463527,0.4924058900145098,0.4663185102164252,0.199396144746782,-131.66843858726966,44.776571979437485,-8.119152299472187,0.1900011557638144,-0.0087320265318812,0.1194349420967473,0.4387473105529144,0.1758392060659672,0.3077282800629954,-200.28459458326807,21.70239472441549,12.898779798211129,0.1820616229790921,0.1654319509927637,0.2687031343988132,0.9426860545861002,0.9403282981258267,1.2177925837083043,-147.1746057157719,56.59408934605809,40.61001385586532,0.115886559234764,0.0788217938723827,0.2669633336077873,0.5608273067678254,0.908914048287001,0.1922171906328273
1.58,-120.9900236003468,27.491186844668,176.63622702638116,0.2317660264458346,0.2012715854102053,-0.1390913088555798,0.9014999044154862,0.3150100249921844,0.2903093321164027,-130.82627097414613,44.761276780698,-7.907525502354434,0.2533801471821553,0.054430424252067,0.0910001322288993,0.4280174682035152,-0.0152926591161168,0.2885131348894669,-200.5357631650929,21.488111302020705,13.02427974387306,0.203991549621661,0.167167828924479,0.5647637841582895,0.3295845139609117,0.5899435609711664,1.41972469698428,-146.83916280985858,56.93999447990821,40.911872205721615,-0.0604381480683693,0.3979972401197079,0.1988822870496046,0.8335104971726184,0.7206565955009652,0.5112343754718763
1.59,-120.93462734724994,27.915790935442377,176.774750786715,-0.0238915272588197,0.0039979731031103,0.058810921009432,0.9585982971805872,0.0841901785767334,0.3963562094767655,-129.90298596573786,44.6016822712641,-7.427293370496549,-0.0103037417839682,-0.0727650594600784,-0.0274531072801881,0.4702183469838544,0.3288617468583036,0.0362927939131723,-200.91813460005423,21.71304452480225,13.24794185186114,-0.1644428366320575,0.1495443319920125,0.4954244486916594,0.0059134295827196,0.205783155769968,0.1754390965194573,-147.28359943844546,56.97134010077845,41.39954482261327,0.0989723073758204,0.0972625138875167,0.5657503696702171,0.3464292517942527,0.4707429642410699,0.2483085569062666
1.6,-121.150701424683,27.733526802688218,176.61576542142132,0.081517150780306,0.0039650281635747,0.0793407441081511,1.2925228685170826,0.1076360225359149,0.3791411682554551,-128.83693893757822,44.77881375591523,-7.005868782778641,0.6543357461775587,-0.0299932924121679,-0.0705845238787884,0.4582319377578343,0.2028096160271263,0.1336988679138298,-201.13218111393712,21.2818551175914,13.430222906102273,0.1494476572593224,0.2764900387513434,0.3769636983735374,0.2190658258033505,0.3598692801233485,0.1538158062889578,-147.70639926492925,57.0195884330812,42.004179473519706,0.36705527393458,0.1772160218493822,0.7230203796858792,0.3129612720188969,0.3178361781659695,0.0494700932163557
1.61,-120.91478770592992,28.145246412502136,176.48954330051524,0.0635139891086012,0.0947037824340883,0.1634657669259204,1.201574421421361,0.1551493484904884,0.1440784563547796,-127.6931969291558,44.70437035416111,-6.250175539152957,0.3894669598534668,0.0080907654386696,0.1266488730881645,0.7316456016363984,0.4186323696476322,0.1188094169193412,-201.26536005466423,21.017151444129237,13.41004230568802,0.1886895870538625,0.2815942604132706,0.0652468041917696,0.5905946905426191,0.317793881136903,1.6472659623523729,-148.8214694615863,56.23248690301076,43.19977231195492,0.268701838214246,0.1495751423761075,0.8573094213557687,0.6809140849157652,0.3323561187644842,0.6784067356296724
1.62,-120.79953585272872,28.23591116928246,176.63460820416395,-0.0788250411219892,0.1361025122694893,0.0311250979558896,0.7045870319950936,0.2061442907331889,0.1098512983513613,-127.55374329366826,44.63946388907557,-6.163596066775591,0.0699983942705295,0.2944181184648156,0.0348638890621821,0.6754828981495358,0.1848974424423429,0.3986477842244273,-201.57209660935683,20.854287200282027,13.181056370270516,0.1361812625310574,-0.0378982459329101,0.2409306330644408,1.8749334291740771,0.0399267242901565,2.5333835398588245,-149.35779275336935,55.5359500124419,44.28245432916276,0.3021653438997492,0.0623395042219491,0.7187738577807097,0.9860526375867736,0.5540649777139908,0.6660353104540653
1.63,-120.72013464262312,28.436068959125272,176.53027878842764,0.2669214808283758,0.1302680254204973,-0.0432765512705832,0.3856408772109906,0.2557770387589704,0.2000085091891307,-127.2856872619706,44.78814136187832,-6.187889950619185,-0.0107815465587308,0.0165979624345186,-0.0162468690612635,0.6097778912235817,0.2467296482708708,0.4776599803543447,-201.9217428006718,21.06797546031675,12.942122282979373,0.3814928105052211,0.0738604190092571,0.2032671068970375,2.2241327511469557,-0.0638929228835483,1.4476687965248949,-150.2205255849927,54.91396633061019,45.06107869623639,0.341062815692377,0.1477820800255254,0.6770967449160795,1.1226915448206805,1.043654335441743,0.5460688325886836
1.64,-120.97997753489616,28.340011376482774,176.85999460004973,-0.1541240282704048,0.2269620442831456,0.1889723267078865,1.0512602462871905,0.1745810576685977,0.8615043528252473,-127.35408428758758,44.6431691400898,-5.888319848740393,0.0120957574664717,-0.1865617398518328,0.3216006146052796,0.6926038846525244,0.0979456378640485,0.507127496296726,-201.99652210545503,21.32558161907293,12.834346425283854,0.2947519605163515,0.3155989890320321,0.1089059887095268,0.9338052226761154,0.2366617294440065,0.8529070965658768,-150.70300483100408,54.51312549186813,46.12678984462641,0.2992437859843718,0.0362088338258045,0.0683310763068165,1.1600069732571523,1.4698207762900248,1.7444069938532094
1.65,-120.92146968167974,27.98393441717968,176.73611565710715,0.2257021614557397,0.2941008144486783,0.1012255474688212,0.7622502582218469,0.1240699098560898,0.005368305743873,-127.07544013060522,44.63307339400347,-5.856513881139601,0.0329510255382107,0.0705218088331716,0.2996139690953867,0.8610900576374061,0.046706676453223,0.681973401144156,-201.48782976986712,21.778460004778434,12.158837218957116,0.4356120484871696,-0.069621963292912,0.2608829570796871,0.0604703896079395,0.5038398654137523,1.401049847960685,-150.4951058770956,54.5131854581724,45.85273006036865,0.1273821677376441,0.0699522710561994,0.7150323868323729,1.480431066280005,0.3733225729347313,2.0497057434548527
1.66,-120.68155909005098,28.03285408115168,176.8501940312185,0.1952935997605549,0.0382612247747701,-0.1472152389270474,0.7473782566793021,0.2638134999419719,0.2610821552022078,-126.75203403258637,44.76920361099906,-5.644752733178571,-0.0582333928750308,0.1152882760668901,0.0563731853441979,1.014568507866485,0.0085076794198785,0.4493072895405568,-201.34048497121475,21.835845646803747,11.856808646718164,0.444604040773919,0.1374177694635492,0.2133016142715487,-0.0030601024700979,0.082446986668266,1.4374663901136853,-149.29340653226123,55.05048566662469,44.91924173092589,0.3695328413372946,0.1286818526419912,1.0354900754826415,0.6120768409693563,1.265432228748,1.9987966206835923
1.67,-120.5374925327504,27.91140465378434,176.87872949050885,0.1790842291053485,0.2373109041904632,0.0561960823440626,0.5239339258512218,0.1062046795272371,0.6949993980217632,-126.54246843374354,44.888871073274245,-5.376361168297436,0.0045143821561432,0.0816225404730441,0.2242128901095823,1.284071598122683,0.2432743106761284,0.3861359950973555,-201.1505837633964,21.974209955104904,11.329225748276102,0.4081329998686788,0.4141632338438465,0.344094430897587,0.3576236212597276,0.0782674431582392,1.3409067887029305,-148.41166472347692,55.43633758218988,43.94264214476665,0.5835172894408551,0.3925000991726949,0.3734730614703399,1.1961692297029545,1.130607497078011,0.9305043700419032
1.68,-120.60039455819104,27.84417991043187,176.87278325125348,0.0923740959064306,0.3565329772232281,-0.0307719546063283,0.6558645737591309,0.0969675312668841,0.7375425150253216,-126.12172324949177,44.84466668237145,-5.456040714251856,0.0715361378337656,0.0433689943317514,0.1979747628355528,1.3809152410189005,0.2586911321442876,0.4481081792784082,-201.01507624991112,22.52609673137381,10.860139452416709,0.6155247008601181,0.3338642268831427,0.3666815621785124,0.5487989881175962,0.2276417741664477,1.334952080754784,-147.9536815941624,55.58248699333773,43.88715459125147,0.4472022592097652,0.2260957359521099,0.0778768338612308,1.5279838244887427,0.9789804280769452,1.0771294247859229
1.69,-120.50593293237785,27.6816509893534,176.8732363345044,-0.0139283989793513,0.1931447807703854,0.1844838196307533,0.593960618452499,0.1054757414218469,0.8414733637932347,-126.26728946413434,45.131514526902464,-5.170530866609063,0.0538504988897438,0.0258581513495333,0.1952860852052773,1.238251991741774,0.0709129751774811,0.2059486218039048,-200.87798230525175,22.517844724924228,10.432973498589291,0.4321996220030923,0.3355048780686124,0.1717458099522184,0.806976343177591,0.1314270708727244,1.4269403575843718,-147.7142341385805,55.47679203544255,44.05280755708762,0.3354489022406674,0.3027301610507172,-0.133335976653755,2.084017902197678,0.6035903927537482,0.95602053481627
1.7,-120.38713835978189,27.313795288357152,177.007834418264,-0.0960008672926152,0.3347672829752209,-0.0141989185864651,0.6620022092996142,0.0376840049970485,0.82505328923406,-125.4794438168966,45.19755460742614,-5.064436287421234,0.2782622327927679,0.2184641330427789,0.0840204538898748,1.0550887471439312,0.4751731590421792,0.6117834481050619,-200.9311076336018,22.967141351514737,9.834329343032165,0.3877431731911894,0.3996221716058911,-0.0225855870648495,0.7006674109915983,1.1383910889132376,1.115994638677266,-147.510217460171,55.090258275919545,44.45148091536616,0.7257602685793525,0.3248305133113055,0.0219720833013393,2.208821648962458,2.139543969509832,1.386012916178477
1.71,-120.37716557522732,26.810584709647618,177.06712067387227,0.0918746701373473,0.3290077059126968,0.0084332226230685,0.6427750999677134,0.2733943940780887,0.4292713421172404,-125.21916244880896,45.35120816149424,-4.682385892674491,0.0732811297073176,0.0922327843240094,0.22283848398987,0.3581801827299249,0.0818633699827993,0.7903197303155896,-201.0006209863339,23.144992505452876,9.618501036327514,0.1603084635368708,0.2869163254169438,0.1615683009240635,0.4637257458954999,0.7528772261722337,1.427051691937152,-147.06511888936043,54.93276479438662,45.11689586919805,0.7629975134636512,0.2711045962251094,0.1845271092072902,1.5894435717046185,1.1737459988470502,1.1253922394725653
1.72,-120.3830460342406,27.07467373930003,176.84667036872145,0.0871959532074194,0.2145071043794461,0.0588500312355336,0.8487733932292651,0.2107036684743147,0.7674860996247513,-124.69306597817533,45.47036567762696,-4.619147983871353,0.08154330941829,0.3937226514448418,0.1253601085805368,0.3972711638578047,0.4380641417680431,0.0767989595190577,-201.04762694890908,23.537738622763968,9.382351736435842,0.0925147867790122,0.336436904731482,0.2978713308771112,0.2406268820453313,0.3076054667913104,1.470394026389294,-146.36248284336716,54.95653621523651,45.74681485708474,0.9435398571032496,0.0677826711931386,0.0940354533296191,1.3988239378326812,0.0016108695352109,0.5737705945762752
1.73,-120.10136968853124,27.073279205119743,176.92489792691438,0.1395381955772702,0.4649393520445528,0.3643513267337895,1.252073167876405,0.2273604755838787,0.9901312395809996,-124.31380540234484,45.65004538030554,-4.330181360473552,0.2017161343871137,0.0029054500889969,0.4545081403751382,1.2317524112505278,0.061777408181298,0.5040535045068585,-201.532272995361,23.883039575659605,9.630626213911578,0.1449861650812228,0.4083130556612081,0.6805391057383986,1.4497757939323954,0.8323784591343096,1.5835281327597608,-146.54856148447286,54.23098657281694,47.30471204115413,0.959605657925342,0.1487219011364958,0.8955564376639881,1.8974387574553937,1.7837478450755886,0.8639156859938744
1.74,-119.88183201362848,27.747313710426543,177.01548166129743,-0.1030574065870667,0.3863146938629844,0.1749432840823549,0.787659005586262,0.1677427818556881,0.3807195453057407,-123.29122698915718,45.75580703386888,-3.957101079613157,0.3394276451493489,-0.0032747000890133,0.0832370182924733,0.8672372618810048,-0.0548579877242536,0.7224186118889325,-202.42353373178173,24.26743793928943,10.165029580155233,0.07638044631965,0.5520544093585518,1.108719993695025,1.5614304573696822,1.1045681798937932,1.3228456797676482,-146.793761146965,53.55831369039108,49.16627910807921,1.1360203623092546,0.2307791236348166,0.8696954021323517,1.9976243545495,0.4007330114729608,0.6321561021750969
1.75,-119.66607230896298,28.238098158249223,177.13202830664443,0.3043646864693678,0.4420496463520945,0.3288422968070658,0.4072176440166868,0.0407674529015058,0.1024142785147706,-122.68250289017575,45.83086955281578,-3.425914486676977,0.1837096471568702,0.0173199526101157,0.1916505712829432,0.7748032614718117,0.0375684344871857,1.0828726074640858,-203.4104131316268,24.72436932340304,10.915292418910548,0.3452274895645866,0.8130990095354245,1.0759444789100894,0.3110344875974478,-0.0965883836591538,0.1607911084811485,-147.10802828634095,52.81670770083869,50.967243234326496,1.1866244628802756,0.126565093361128,0.7286146688980284,1.3240612165525336,1.2833213346634893,0.6050862419939625
