0.01,353.88,87.94,179.94,9.72,0.0,0.34,0.0,0.0,0.0,47.06,28.19,16.56,0.07,0.01,0.0,0.6980046234495954,0.042111932537007804,0.7140320279760778,0.03426942960361082
0.02,353.88,87.94,179.94,9.69,0.02,0.32,0.0,0.0,0.0,80.25,4.0,3.87,0.09,0.0,0.02,0.693243317909202,0.03734725605732787,0.7190578318007627,0.031220492712564163
0.03,353.88,87.94,179.94,9.7,0.0,0.35,0.0,0.0,0.0,80.25,4.0,3.87,0.09,0.03,0.02,0.6979263457333345,0.02741167266484028,0.7152982616730482,0.02226685834475009
0.04,353.88,87.94,179.94,9.69,0.0,0.32,0.0,0.0,0.0,79.5,4.37,4.69,0.08,0.01,0.02,0.6940404908510727,0.039340389864696915,0.7184250424788796,0.025011779699091123
0.05,353.88,87.94,179.94,9.7,0.02,0.34,0.0,0.0,0.0,79.5,4.37,4.69,0.1,0.01,0.01,0.6849983275009485,0.0491684893923021,0.7260091205213068,0.03564418454195764
0.06,353.88,87.94,179.94,9.71,0.02,0.34,0.0,0.0,0.0,80.87,4.37,5.06,0.11,0.03,0.02,0.6943174146311499,0.039667033120611796,0.7171247750043844,0.04562796618561154
0.07,353.88,87.94,179.94,9.7,0.04,0.32,0.0,0.0,0.0,80.87,4.37,5.06,0.07,0.01,0.0,0.6868174391637895,0.03262549666603264,0.7255929631923544,0.0270598224962346
0.08,353.88,87.94,179.94,9.69,0.01,0.33,0.0,0.0,0.0,80.87,4.37,5.06,0.1,0.01,0.01,0.694060621684581,0.037084561599165095,0.7176879699122309,0.04276174179183173
0.09,353.88,87.94,179.94,9.68,0.0,0.33,0.0,0.0,0.0,79.87,5.06,4.25,0.11,0.01,0.02,0.7034662153359396,0.04175063190382353,0.709129893770905,0.022955661110623207
0.1,353.88,87.94,179.94,9.7,0.01,0.31,0.0,0.0,0.0,79.87,5.06,4.25,0.09,0.01,0.03,0.6865563905533489,0.030300985711898615,0.7247088482596469,0.05019221164106017
0.11,353.88,87.94,179.94,9.71,0.02,0.32,0.0,0.0,0.0,80.56,5.06,4.69,0.08,0.02,0.02,0.6893593993744042,0.036455909805285146,0.7224071232151716,0.03978106914613297
0.12,353.88,87.94,179.94,9.68,0.02,0.34,0.0,0.0,0.0,80.56,5.06,4.69,0.11,0.02,0.0,0.6907940030602809,0.05233912925382688,0.7197781394200322,0.04453864499443833
0.13,353.88,87.94,179.94,9.72,0.02,0.32,0.0,0.0,0.0,80.56,5.06,4.69,0.07,0.02,0.03,0.6930813837929137,0.03385450130765888,0.7176434221036351,0.058991413716686245
0.14,353.88,87.94,179.94,9.69,0.01,0.34,0.0,0.0,0.0,80.25,3.25,4.69,0.1,0.01,0.0,0.6900372185700513,0.030470554019795648,0.7219159620043515,0.04192285926753547
0.15,353.88,87.94,179.94,9.7,0.0,0.33,0.0,0.0,0.0,80.25,3.25,4.69,0.09,0.0,0.01,0.6925387130500208,0.02849806717146449,0.7195025079795733,0.043521628021200506
0.16,353.88,87.94,179.94,9.695,0.0,0.33,0.0,0.0,0.0,80.405,4.154999999999999,4.69,0.095,0.0,0.015,0.6921784611689693,0.04163766065921581,0.7197891134668345,0.032540977908080145
0.17,353.88,87.94,179.94,9.69,0.0,0.33,0.0,0.0,0.0,80.56,5.06,4.69,0.1,0.0,0.02,0.6916150995425794,0.054765036178441064,0.7198645072626966,0.021550779116249377
0.18,353.88,87.94,179.94,9.71,0.0,0.33,0.0,0.0,0.0,80.56,5.06,4.69,0.08,0.0,0.01,0.6952053286844243,0.03641963077253952,0.7174276083081593,0.025705802854759763
0.19,353.88,87.94,179.94,9.7,0.02,0.32,0.0,0.0,0.0,80.56,5.06,4.69,0.09,0.02,0.02,0.6969938261275807,0.022218490381402375,0.7164758973585285,0.019189411911232863
0.2,353.88,87.94,179.94,9.7,0.02,0.33,0.0,0.0,0.0,80.25,4.0,4.69,0.09,0.02,0.01,0.6852055402041882,0.02584459745352515,0.7267415360914341,0.040892104071747565
0.21,353.88,87.94,179.94,9.72,0.03,0.32,0.0,0.0,0.0,80.25,4.0,4.69,0.07,0.03,0.03,0.6875084880880755,0.030385761925848787,0.7238165989447997,0.04998315087124084
0.22,353.88,87.94,179.94,9.69,0.02,0.34,0.0,0.0,0.0,80.25,3.25,4.69,0.08,0.02,0.02,0.6937653550092973,0.025288193523023004,0.7185182132516402,0.04221038595933903
0.23,353.88,87.94,179.94,9.69,0.02,0.35,0.0,0.0,0.0,80.25,3.25,4.69,0.1,0.02,0.0,0.68766496367457,0.040878058946180504,0.7242572148708952,0.02995611354462797
0.24,353.88,87.94,179.94,9.73,0.0,0.34,0.0,0.0,0.0,80.25,3.25,4.69,0.06,0.01,0.0,0.7001329492727535,0.05185178555414167,0.7106212886850422,0.04628854874689082
0.26,353.88,87.94,179.94,9.69,0.0,0.33,0.0,0.0,0.0,81.25,4.75,3.06,0.1,0.01,0.01,0.6902868654032218,0.05412393989874519,0.7199891906230492,0.04679965777222686
0.27,353.88,87.94,179.94,9.7,0.01,0.32,0.0,0.0,0.0,79.5,3.69,3.87,0.08,0.03,0.04,0.6852131770212974,0.036148247014941334,0.7265906781607104,0.035244753993832284
0.29,353.88,87.94,179.94,9.7,0.02,0.35,0.0,0.0,0.0,79.5,3.69,3.87,0.09,0.02,0.0,0.7042111155210505,0.03977003319565612,0.7072373069492311,0.04817095489413686
0.3,353.88,87.94,179.94,9.71,0.04,0.34,0.0,0.0,0.0,80.87,4.0,4.25,0.08,0.04,0.0,0.6827450533225974,0.029171229211878806,0.7291487080364181,0.03674769541908647
0.31,353.88,87.94,179.94,9.7,0.01,0.33,0.0,0.0,0.0,80.87,4.0,4.25,0.09,0.01,0.01,0.6954472620157296,0.029021549445206088,0.717584514415465,0.02415202048992886
0.32,353.88,87.94,179.94,9.71,0.02,0.34,0.0,0.0,0.0,80.56,5.06,5.06,0.08,0.02,0.0,0.6878468446648114,0.042892350892248444,0.7236409129872446,0.03702422950698634
0.33,353.88,87.94,179.94,9.71,0.02,0.32,0.0,0.0,0.0,80.56,5.06,5.06,0.08,0.02,0.03,0.6969274785178069,0.05260502077694408,0.7141713250857084,0.038524276777023275
0.34,353.88,87.94,179.94,9.715,0.02,0.315,0.0,0.0,0.0,80.56,5.06,5.06,0.07500000000000001,0.02,0.03,0.6926735075088597,0.04771026741872417,0.7190596256727603,0.029671486406270816
0.35,353.88,87.94,179.94,9.72,0.02,0.31,0.0,0.0,0.0,80.56,5.06,5.06,0.07,0.02,0.03,0.6883195682940324,0.04280862840689661,0.7238441499497323,0.02081441377954975
0.36,353.88,87.94,179.94,9.71,0.02,0.33,0.0,0.0,0.0,80.25,5.06,3.87,0.08,0.02,0.01,0.6922019986384156,0.03042476714983176,0.7205490667221461,0.02719869612142782
0.37,353.88,87.94,179.94,9.73,0.01,0.33,0.0,0.0,0.0,80.25,5.06,3.87,0.07,0.01,0.01,0.6879726007556266,0.03717235875886776,0.7232106144827152,0.04773178661410909
0.38,353.88,87.94,179.94,9.71,0.02,0.32,0.0,0.0,0.0,80.25,3.25,5.5,0.08,0.02,0.03,0.6981995162581937,0.03708224883531589,0.7142788378505021,0.030790974604192684
0.39,353.88,87.94,179.94,9.69,0.02,0.34,0.0,0.0,0.0,80.25,3.25,5.5,0.1,0.02,0.0,0.6889195159319543,0.03408130719336319,0.7233467668225764,0.03158828889633793
0.4,353.88,87.94,179.94,9.7,0.0,0.33,0.0,0.0,0.0,80.25,3.25,5.5,0.09,0.01,0.02,0.6972059414882505,0.028823667390888142,0.7157557624342583,0.027690429642295608
0.41,353.88,87.94,179.94,9.71,0.02,0.36,0.0,0.0,0.0,79.5,3.25,3.87,0.08,0.02,0.01,0.688692784554134,0.034467170626019256,0.7234318572244077,0.034067735541925895
0.42,353.88,87.94,179.94,9.7,0.01,0.35,0.0,0.0,0.0,79.5,3.25,3.87,0.09,0.01,0.0,0.6905822729037855,0.017025477041140224,0.7221335444561953,0.03646095793716215
0.43,353.88,87.94,179.94,9.72,0.01,0.34,0.0,0.0,0.0,80.56,4.75,4.25,0.09,0.02,0.01,0.700233639282513,0.04162207821008333,0.7114695163600343,0.04185188541822428
0.44,353.88,87.94,179.94,9.7,0.01,0.35,0.0,0.0,0.0,80.56,4.75,4.25,0.09,0.01,0.0,0.6924901843711777,0.024592170619776657,0.7199348268037692,0.03932448154530372
0.45,353.88,87.94,179.94,9.69,0.03,0.33,0.0,0.0,0.0,80.56,4.75,4.25,0.1,0.03,0.01,0.682106783058407,0.024831194194477386,0.7295525550497507,0.04320668606787467
0.46,353.88,87.94,179.94,9.71,0.0,0.31,0.0,0.0,0.0,80.87,5.06,3.5,0.08,0.01,0.03,0.6969400300449368,0.04376802418064822,0.7140015758551663,0.05060340163095881
0.47,353.88,87.94,179.94,9.71,0.01,0.32,0.0,0.0,0.0,80.87,5.06,3.5,0.08,0.01,0.02,0.6834838925424672,0.04677538118552489,0.7281671605846702,0.020842710860276326
0.48,353.88,87.94,179.94,9.72,0.01,0.32,0.0,0.0,0.0,80.56,2.87,5.06,0.08,0.01,0.02,0.6937933929858685,0.049296898787037316,0.7175216111796388,0.037192487269772354
0.49,353.88,87.94,179.94,9.7,0.01,0.33,0.0,0.0,0.0,80.56,2.87,5.06,0.1,0.02,0.02,0.6836040106638788,0.03283848409452454,0.7275607995751784,0.04756546528901352
0.5,353.88,87.94,179.94,9.705,0.01,0.33,0.0,0.0,0.0,80.56,2.87,5.06,0.09,0.015,0.015,0.6902649058652223,0.026782000276422146,0.7211193948975416,0.05295188849014735
0.51,353.88,87.94,179.94,9.71,0.01,0.33,0.0,0.0,0.0,80.56,2.87,5.06,0.08,0.01,0.01,0.696821188817614,0.020721457545203156,0.7145687018568115,0.05833028663293892
0.52,353.88,87.94,179.94,9.69,0.01,0.32,0.0,0.0,0.0,80.87,4.0,4.25,0.1,0.01,0.02,0.6882346418688265,0.029461893131306933,0.7245087741043408,0.023497038763061508
0.53,353.88,87.94,179.94,9.7,0.03,0.33,0.0,0.0,0.0,80.87,4.0,4.25,0.09,0.03,0.02,0.6872601177076253,0.0423601413014314,0.7237763557765278,0.04502150437594142
0.54,353.88,87.94,179.94,9.7,0.0,0.34,0.0,0.0,0.0,80.25,5.06,5.06,0.09,0.01,0.0,0.6894041216934055,0.05023091864177698,0.7225275623464185,0.012358537708394905
0.55,353.88,87.94,179.94,9.71,0.02,0.34,0.0,0.0,0.0,80.25,5.06,5.06,0.08,0.02,0.0,0.6841303909567374,0.04401472859368781,0.7271778828581646,0.03522269890458401
0.56,353.88,87.94,179.94,9.68,0.02,0.31,0.0,0.0,0.0,80.25,5.06,5.06,0.11,0.02,0.03,0.6887798282468023,0.043586579856371474,0.7224425575949287,0.04194412035587425
0.57,353.88,87.94,179.94,9.7,0.02,0.33,0.0,0.0,0.0,80.25,3.25,3.87,0.09,0.02,0.01,0.6819001614096941,0.048533374223750064,0.7287050086817547,0.04056712681487561
0.58,353.88,87.94,179.94,9.7,0.03,0.33,0.0,0.0,0.0,80.25,3.25,3.87,0.09,0.03,0.02,0.6920379308002523,0.044405234877450205,0.7194626571722239,0.03853780460621426
0.59,353.88,87.94,179.94,9.7,0.02,0.34,0.0,0.0,0.0,80.56,5.06,4.69,0.09,0.02,0.0,0.6841015541337971,0.04674578546651537,0.7269413659729312,0.037096436624705666
0.6,353.88,87.94,179.94,9.7,0.01,0.33,0.0,0.0,0.0,80.56,5.06,4.69,0.09,0.01,0.01,0.6893715593554202,0.031906411878018216,0.7214552250143865,0.057019227742823246
0.61,353.88,87.94,179.94,9.71,0.02,0.33,0.0,0.0,0.0,80.56,5.06,4.69,0.08,0.02,0.02,0.7058013553772466,0.030853581442209035,0.7067883279764261,0.03664372655883224
0.62,353.88,87.94,179.94,9.7,0.01,0.33,0.0,0.0,0.0,80.87,5.5,4.69,0.09,0.01,0.02,0.6901581437589606,0.06304370441114421,0.7204870949370602,0.024608412514051683
0.63,353.88,87.94,179.94,9.7,0.02,0.32,0.0,0.0,0.0,80.87,5.5,4.69,0.09,0.02,0.02,0.6849090020374833,0.031486963747257395,0.7268318938984764,0.04029426825184443
0.64,353.88,87.94,179.94,9.7,0.0,0.32,0.0,0.0,0.0,80.25,5.06,5.06,0.08,0.01,0.01,0.686942765286404,0.033841615167130135,0.7245094109407961,0.04528240013260223
0.65,353.88,87.94,179.94,9.71,0.01,0.33,0.0,0.0,0.0,80.25,5.06,5.06,0.08,0.01,0.01,0.6953010973487526,0.04494944547744095,0.7169682576328754,0.022191190228783013
0.66,353.88,87.94,179.94,9.715,0.019999999999999997,0.325,0.0,0.0,0.0,80.25,5.06,5.06,0.07500000000000001,0.019999999999999997,0.015,0.6927899375707802,0.0426731614542006,0.7190471807155794,0.034529054391265024
0.67,353.88,87.94,179.94,9.72,0.03,0.32,0.0,0.0,0.0,80.25,5.06,5.06,0.07,0.03,0.02,0.6901623667715387,0.0403897069655186,0.7210052807145338,0.04686111656057831
0.68,353.88,87.94,179.94,9.7,0.03,0.32,0.0,0.0,0.0,79.5,4.37,4.25,0.09,0.03,0.03,0.6959441249338323,0.051973374254807456,0.7146162137777099,0.047793413193269865
0.69,353.88,87.94,179.94,9.7,0.01,0.33,0.0,0.0,0.0,79.5,4.37,4.25,0.09,0.01,0.01,0.7002960631147115,0.05650532217247241,0.7112959384993002,0.0212287641331508
0.7,353.88,87.94,179.94,9.7,0.01,0.33,0.0,0.0,0.0,80.56,4.75,3.87,0.08,0.01,0.02,0.6938727182259702,0.03499190067284245,0.7184233719919412,0.03441041070278361
0.71,353.88,87.94,179.94,9.7,0.03,0.33,0.0,0.0,0.0,80.56,4.75,3.87,0.09,0.03,0.02,0.6902484754094155,0.03703286535347895,0.7216757092913564,0.03701053495298714
0.73,353.88,87.94,179.94,9.71,0.01,0.32,0.0,0.0,0.0,80.56,3.25,5.87,0.08,0.01,0.02,0.6913503709588392,0.06196379619331037,0.7194569372829832,0.024018075105613292
0.74,353.88,87.94,179.94,9.69,0.01,0.32,0.0,0.0,0.0,80.56,3.25,5.87,0.1,0.01,0.03,0.695959347220118,0.04794410510423415,0.7148418334661032,0.048405608451102825
0.75,353.88,87.94,179.94,9.71,0.05,0.33,0.0,0.0,0.0,80.56,2.87,4.25,0.08,0.05,0.01,0.6831374934869543,0.02325909089089948,0.7284131606842192,0.0468662674566291
0.76,353.88,87.94,179.94,9.72,0.03,0.38,0.0,0.0,0.0,80.56,2.87,4.25,0.07,0.03,0.03,0.6932298927237808,0.03938871888394209,0.7191784007083869,0.025754079548381735
0.77,353.88,87.94,179.94,9.72,0.02,0.34,0.0,0.0,0.0,80.56,2.87,4.25,0.07,0.02,0.0,0.6918114864099549,0.03308640586071037,0.720068131946684,0.042474019980242375
0.78,353.88,87.94,179.94,9.72,0.02,0.33,0.0,0.0,0.0,80.56,5.06,4.69,0.07,0.02,0.02,0.7015861203095641,0.032850740248771555,0.7108814193998456,0.036679043146494644
0.79,353.88,87.94,179.94,9.69,0.01,0.33,0.0,0.01,0.0,80.56,5.06,4.69,0.1,0.01,0.01,0.6893468804675237,0.052621069405067576,0.7211882707920346,0.04381072375977845
0.8,353.88,87.94,179.94,9.7,0.02,0.33,0.0,0.0,0.0,80.25,5.06,5.5,0.09,0.02,0.02,0.6967184300618493,0.06063714505788665,0.7139828807160724,0.03368993760397333
0.81,353.88,87.94,179.94,9.73,0.02,0.34,0.0,0.0,0.0,80.25,5.06,5.5,0.07,0.02,0.0,0.6865702451621835,0.04916508053174367,0.7243433649023194,0.039125222507124136
0.82,353.88,87.94,179.94,9.68,0.01,0.32,0.0,0.0,0.0,80.25,5.06,5.5,0.11,0.01,0.02,0.6853131687207593,0.034453521520568846,0.7263060899518898,0.040475663447817944
0.83,353.88,87.94,179.94,9.7,0.015,0.325,0.0,0.0,0.0,80.06,4.715,4.875,0.09,0.015,0.015,0.6880730384243772,0.03860225377770599,0.7232960977322394,0.043681973422021375
0.84,353.88,87.94,179.94,9.72,0.02,0.33,0.0,0.0,0.0,79.87,4.37,4.25,0.07,0.02,0.01,0.6908025163981246,0.042749280998889555,0.7202541580035439,0.046886353992422726
0.85,353.88,87.94,179.94,9.7,0.01,0.33,0.0,0.0,0.0,79.87,4.37,4.25,0.09,0.01,0.02,0.6993127975424445,0.03428464788161206,0.7128521679286927,0.04034799613806115
0.86,353.88,87.94,179.94,9.72,0.02,0.33,0.0,0.0,0.0,79.87,3.25,4.25,0.09,0.05,0.04,0.6921084299413242,0.020780343084575253,0.7195812679629162,0.052506164803042064
0.87,353.88,87.94,179.94,9.72,0.0,0.35,0.0,0.0,0.0,79.87,3.25,4.25,0.07,0.0,0.0,0.6813537611273351,0.054098986000754495,0.7294428607561625,0.02726655099550564
0.88,353.88,87.94,179.94,9.71,0.02,0.35,0.0,0.0,0.0,79.87,3.25,4.25,0.08,0.02,0.0,0.6783227313523965,0.04036851769145687,0.7323435454872329,0.043835901875154695
0.89,353.88,87.94,179.94,9.69,0.03,0.32,0.0,0.0,0.0,79.5,5.06,4.25,0.1,0.03,0.02,0.6919514763815633,0.04548594523939939,0.7197525535830669,0.0330218825887886
0.9,353.88,87.94,179.94,9.7,0.01,0.33,0.0,0.0,0.0,79.5,5.06,4.25,0.09,0.01,0.01,0.6978648487333428,0.026430324681869673,0.7151161823639417,0.029915490315574046
0.91,353.88,87.94,179.94,9.71,0.01,0.32,0.0,0.0,0.0,80.56,3.25,4.69,0.07,0.01,0.02,0.6923807380808071,0.03692738445026831,0.7182452500218394,0.05804345469908297
0.92,353.88,87.94,179.94,9.71,0.01,0.33,0.0,0.0,0.0,80.56,3.25,4.69,0.08,0.01,0.0,0.6838043681640711,0.04241362768144336,0.7262843476832482,0.05589021897392911
0.93,353.88,87.94,179.94,9.69,0.02,0.33,0.0,0.0,0.0,80.56,3.25,4.69,0.1,0.02,0.01,0.6948335865144127,0.03767891529841575,0.7175245610259655,0.030742327790008718
0.94,353.88,87.94,179.94,9.71,0.01,0.36,0.0,0.0,0.0,80.25,5.75,4.25,0.08,0.01,0.01,0.6838718502273625,0.03639429163463384,0.727465683033489,0.042289809784819186
0.95,353.88,87.94,179.94,9.71,0.01,0.33,0.0,0.0,0.0,80.25,5.75,4.25,0.08,0.01,0.01,0.6920553200400675,0.03138350590421363,0.7191015059785223,0.054475073756914176
0.97,353.88,87.94,179.94,9.69,0.02,0.33,0.0,0.0,0.0,79.5,4.75,5.06,0.1,0.02,0.01,0.7062266645680783,0.037354632827046465,0.7059257053340768,0.03895418087946294
0.98,353.88,87.94,179.94,9.7,0.02,0.32,0.0,0.0,0.0,79.5,4.75,5.06,0.09,0.02,0.02,0.6852155961177774,0.031404859982725235,0.725505219744271,0.05599551526900562
0.99,353.88,87.94,179.94,9.7,0.0,0.33,0.0,0.0,0.0,80.56,4.0,3.87,0.09,0.0,0.02,0.6741776102234084,0.030982681446425506,0.7376538077738292,0.019785934413463265
1.0,353.88,87.94,179.94,9.705,0.01,0.33,0.0,0.0,0.0,80.56,4.0,3.87,0.08499999999999999,0.01,0.02,0.6819382367501111,0.03443355771701143,0.729795892097079,0.03424218508400382
1.01,353.88,87.94,179.94,9.71,0.02,0.33,0.0,0.0,0.0,80.56,4.0,3.87,0.08,0.02,0.02,0.6894650499140582,0.03787262789506935,0.7216877542998186,0.04868669527716514
1.02,353.88,87.94,179.94,9.7,0.01,0.34,0.0,0.0,0.0,80.25,4.75,4.69,0.08,0.03,0.02,0.6937935524892297,0.04783910129590231,0.7172056578730126,0.0444743884332782
1.03,353.88,87.94,179.94,9.72,0.01,0.33,0.0,0.0,0.0,80.25,4.75,4.69,0.1,0.02,0.01,0.684144460365508,0.04391735992385159,0.7271743903172533,0.035142978178260995
1.04,353.88,87.94,179.94,9.7,0.02,0.33,0.0,0.0,0.0,80.25,4.75,4.69,0.09,0.02,0.02,0.6916171391360743,0.04093827918652862,0.7201149657483124,0.037738922292308796
1.05,353.88,87.94,179.94,9.72,0.0,0.33,0.0,0.0,0.0,80.25,4.0,4.25,0.07,0.01,0.02,0.6947861268178409,0.029097803610537664,0.7171071478549097,0.04672145440696918
1.06,353.88,87.94,179.94,9.7,0.02,0.34,0.0,0.0,0.0,80.25,4.0,4.25,0.09,0.02,0.0,0.6898227117453553,0.028152179537496998,0.7209550458789703,0.059798854246759243
1.08,353.88,87.94,179.94,9.7,0.01,0.36,0.0,0.0,0.0,80.87,5.06,4.25,0.09,0.01,0.01,0.692960968258598,0.04233046313769044,0.7182432533012065,0.04625859323362287
1.09,353.88,87.94,179.94,9.69,0.01,0.33,0.0,0.0,0.0,80.87,5.06,4.25,0.1,0.01,0.02,0.6769203713325006,0.048793738053113725,0.7335387624412738,0.03631619470701804
1.1,353.88,87.94,179.94,9.71,0.03,0.33,0.0,0.0,0.0,80.56,2.87,4.69,0.08,0.03,0.01,0.6901162368762062,0.05932019205926242,0.7205040289488067,0.033085324275476335
1.11,353.88,87.94,179.94,9.71,0.01,0.33,0.0,0.0,0.0,80.56,2.87,4.69,0.08,0.01,0.01,0.6846138524786687,0.027813046409767228,0.7265526969196969,0.05149258240211435
1.12,353.88,87.94,179.94,9.71,0.03,0.32,0.0,0.0,0.0,79.87,3.25,4.69,0.09,0.03,0.0,0.6924756773839325,0.06461850181567949,0.7169603501672517,0.04764180667032575
1.13,353.88,87.94,179.94,9.71,0.0,0.33,0.0,0.0,0.0,79.87,3.25,4.69,0.08,0.01,0.01,0.6988257884782133,0.03251445406092241,0.7134388258751039,0.039879435413216376
1.14,353.88,87.94,179.94,9.7,0.02,0.33,0.0,0.0,0.0,79.87,3.25,4.69,0.09,0.02,0.01,0.6881438756440796,0.04139676994707757,0.7226482981198524,0.05023694930999577
1.15,353.88,87.94,179.94,9.7,0.01,0.32,0.0,0.0,0.0,79.5,5.5,3.5,0.09,0.01,0.02,0.6900805775970055,0.028561283237117707,0.722503802319447,0.031004921499236292
1.16,353.88,87.94,179.94,9.7,0.01,0.33,0.0,0.0,0.0,79.5,5.5,3.5,0.09,0.01,0.01,0.6953888258142693,0.03155916766997479,0.71627967362955,0.04880398563412012
1.17,353.88,87.94,179.94,9.695,0.01,0.33,0.0,0.0,0.0,80.185,4.375,3.875,0.095,0.01,0.01,0.689445106659021,0.043598424340658096,0.7214304517479319,0.04798672305667541
1.18,353.88,87.94,179.94,9.69,0.01,0.33,0.0,0.0,0.0,80.87,3.25,4.25,0.1,0.01,0.01,0.6833583483744284,0.05562863564921144,0.7264315547396014,0.04715950467706486
1.19,353.88,87.94,179.94,9.7,0.01,0.34,0.0,0.0,0.0,80.87,3.25,4.25,0.09,0.01,0.0,0.6974271864545142,0.06169818596667916,0.7128095916808918,0.04112346593225989
1.2,353.88,87.94,179.94,9.72,0.0,0.34,0.0,0.0,0.0,80.87,3.25,4.25,0.07,0.0,0.0,0.6969720515546005,0.04664140362023477,0.7137002218628172,0.05183176760511662
1.21,353.88,87.94,179.94,9.69,0.02,0.31,0.0,0.0,0.0,81.0,3.25,4.69,0.1,0.02,0.03,0.6839502276973748,0.02958714714414991,0.7273902989542927,0.04732905813307638
1.22,353.88,87.94,179.94,9.7,0.02,0.32,0.0,0.0,0.0,81.0,3.25,4.69,0.09,0.02,0.02,0.6952819213121937,0.035382632122815505,0.715983637759208,0.05194756684944127
1.23,353.88,87.94,179.94,9.69,0.01,0.33,0.0,0.0,0.0,79.87,4.37,4.25,0.1,0.01,0.0,0.7036605431033605,0.03735326013414839,0.7088637668184685,0.03128472676509057
1.24,353.88,87.94,179.94,9.71,0.0,0.34,0.0,0.0,0.0,79.87,4.37,4.25,0.08,0.01,0.0,0.6838207730451535,0.03372573374359987,0.728035684567191,0.034867853850872765
1.25,353.88,87.94,179.94,9.7,0.02,0.32,0.0,0.0,0.0,79.87,4.37,4.25,0.09,0.02,0.02,0.697593957387279,0.03512589218405565,0.7148070847665852,0.03434638092325074
1.27,353.88,87.94,179.94,9.71,0.02,0.34,0.0,0.0,0.0,80.25,2.87,3.5,0.08,0.02,0.0,0.6960043361112189,0.0375207239654732,0.7157270260271001,0.043646117832988024
1.28,353.88,87.94,179.94,9.7,0.02,0.33,0.0,0.0,0.0,80.25,4.75,4.69,0.08,0.01,0.03,0.6858553800440274,0.05347378926836704,0.724249576259372,0.04696278115768992
1.3,353.88,87.94,179.94,9.7,0.01,0.33,0.0,0.0,0.0,80.25,4.75,4.69,0.09,0.01,0.01,0.6917377718012684,0.05469612342863295,0.7187501839619234,0.04365045475132489
1.31,353.88,87.94,179.94,9.71,0.01,0.33,0.0,0.0,0.0,80.56,3.25,4.25,0.08,0.01,0.01,0.6805789490703488,0.04389569504544211,0.7305797909565552,0.03374360805624217
1.32,353.88,87.94,179.94,9.7,0.02,0.33,0.0,0.0,0.0,80.56,3.25,4.25,0.09,0.02,0.01,0.7063043088955091,0.0328940684341263,0.7060505049860009,0.03930506209766451
1.33,353.88,87.94,179.94,9.7,0.02,0.34,0.0,0.0,0.0,80.56,2.87,3.06,0.09,0.02,0.0,0.6883021125364894,0.03063051727698666,0.7244204970180464,0.02273580412645691
1.34,353.88,87.94,179.94,9.7,0.01,0.36,0.0,0.0,0.0,80.56,2.87,3.06,0.09,0.01,0.01,0.6985161657721561,0.04498452105538217,0.7134496952778364,0.03226594688438432
1.35,353.88,87.94,179.94,9.7,0.019999999999999997,0.345,0.0,0.0,0.0,80.56,2.87,3.06,0.09,0.019999999999999997,0.01,0.6932858913919717,0.0363221483724065,0.7188531504488191,0.035854182800048796
1.36,353.88,87.94,179.94,9.7,0.03,0.33,0.0,0.0,0.0,80.56,2.87,3.06,0.09,0.03,0.01,0.6879554613023141,0.027654528401717372,0.7241527563302317,0.03943723903275635
1.37,353.88,87.94,179.94,9.71,0.02,0.32,0.0,0.0,0.0,80.56,5.5,3.87,0.08,0.02,0.03,0.6908336207777811,0.03740441564982641,0.7198232030997376,0.05660719364347414
1.38,353.88,87.94,179.94,9.7,0.02,0.32,0.0,0.0,0.0,80.56,5.5,3.87,0.09,0.02,0.02,0.6865629176656397,0.05953176942963054,0.722551851313699,0.054828374754022115
1.39,353.88,87.94,179.94,9.7,0.03,0.33,0.0,0.0,0.0,80.25,5.5,5.06,0.1,0.03,0.03,0.6828960686669167,0.030961737131850946,0.7285533095899113,0.04363949264868675
1.41,353.88,87.94,179.94,9.7,0.02,0.33,0.0,0.0,0.0,80.25,5.5,5.06,0.09,0.02,0.01,0.677044836102134,0.05050636975473754,0.7337369119877956,0.026259103340486235
1.42,353.88,87.94,179.94,9.7,0.02,0.31,0.0,0.0,0.0,80.25,4.37,4.69,0.09,0.02,0.03,0.697169385694098,0.017538122416072704,0.71544965234501,0.042178867604962526
1.43,353.88,87.94,179.94,9.69,0.01,0.33,0.0,0.0,0.0,80.25,4.37,4.69,0.1,0.01,0.01,0.6844628580714381,0.025115810999418748,0.7278391061293432,0.033615882367692126
1.44,353.88,87.94,179.94,9.71,0.02,0.33,0.0,0.0,0.0,79.87,4.75,5.06,0.08,0.01,0.02,0.6874809551302415,0.03848666896897112,0.7246377738597535,0.028085749775723545
1.45,353.88,87.94,179.94,9.71,0.01,0.32,0.0,0.0,0.0,79.87,4.75,5.06,0.07,0.01,0.01,0.6974525030430508,0.032053707326436864,0.7148883534709932,0.038304150129542955
1.46,353.88,87.94,179.94,9.7,0.01,0.31,0.0,0.0,0.0,79.87,4.75,5.06,0.09,0.01,0.04,0.6857725574155465,0.043404043685541155,0.7253493992514959,0.041235148756593926
1.47,353.88,87.94,179.94,9.71,0.02,0.33,0.0,0.0,0.0,80.56,2.87,5.06,0.08,0.02,0.02,0.6899788930771065,0.05578149546097096,0.7202422698488805,0.04548213490109397
1.48,353.88,87.94,179.94,9.7,0.0,0.34,0.0,0.0,0.0,80.56,2.87,5.06,0.09,0.0,0.0,0.6895267098249667,0.04800254287957876,0.7211927003188301,0.04614933717709029
1.5,353.88,87.94,179.94,9.69,0.01,0.35,0.0,0.0,0.0,80.25,4.0,5.06,0.1,0.01,0.0,0.7024989424397025,0.014726052711944722,0.710748028615703,0.03340088414273484
1.51,353.88,87.94,179.94,9.69,0.01,0.33,0.0,0.0,0.0,80.25,4.0,5.06,0.1,0.01,0.01,0.6930917235015001,0.03995157332453098,0.718998033666507,0.03270416160538534
1.52,353.88,87.94,179.94,9.71,0.0,0.31,0.0,0.0,0.0,79.87,5.06,3.87,0.08,0.01,0.04,0.697109247072083,0.03850770820897409,0.7149756584386197,0.036954862945871636
1.53,353.88,87.94,179.94,9.7,0.01,0.32999999999999996,0.0,0.0,0.0,79.87,5.06,3.87,0.09,0.015,0.02,0.6880897629806183,0.044008689633499354,0.7234453717050372,0.03496437439136598
1.54,353.88,87.94,179.94,9.69,0.02,0.35,0.0,0.0,0.0,79.87,5.06,3.87,0.1,0.02,0.0,0.6789413928111935,0.0495014277913635,0.731779576435223,0.03296733666068291
1.55,353.88,87.94,179.94,9.69,0.01,0.32,0.0,0.0,0.0,79.5,3.69,3.5,0.07,0.01,0.02,0.7015424661049511,0.04787724903530799,0.710073378012102,0.03662970262883637
1.56,353.88,87.94,179.94,9.71,0.02,0.34,0.0,0.0,0.0,79.5,3.69,3.5,0.08,0.02,0.0,0.6950603347450399,0.0357606771162308,0.7170255795494741,0.03855675437640729
1.57,353.88,87.94,179.94,9.7,0.01,0.33,0.0,0.0,0.0,79.5,3.69,3.5,0.09,0.01,0.01,0.6957960714616183,0.03996561296338857,0.715804336089718,0.043528486697762866
1.58,353.88,87.94,179.94,9.69,0.0,0.34,0.0,0.0,0.0,79.87,4.75,3.87,0.1,0.0,0.0,0.6916645943976034,0.04084157100415269,0.7209303299134443,0.013838870821122591
1.59,353.88,87.94,179.94,9.7,0.02,0.34,0.0,0.0,0.0,79.87,4.75,3.87,0.09,0.02,0.0,0.6890790218360093,0.03334667909150622,0.7232738168194518,0.030546465630556116
1.61,353.88,87.94,179.94,9.7,0.02,0.34,0.0,0.0,0.0,80.56,4.75,4.25,0.09,0.02,0.0,0.6895352078193394,0.0369119013687678,0.7224669623671947,0.034931318366204486
1.62,353.88,87.94,179.94,9.71,0.01,0.34,0.0,0.0,0.0,80.56,4.75,4.25,0.08,0.01,0.0,0.6891645948815718,0.040847790137982995,0.7225666035152545,0.035792774228767935
1.63,353.88,87.94,179.94,9.7,0.04,0.33,0.0,0.0,0.0,80.56,5.75,3.87,0.09,0.04,0.01,0.6993437937770642,0.03815553365795322,0.7127068745330768,0.038875755299068594
1.64,353.88,87.94,179.94,9.69,0.01,0.34,0.0,0.0,0.0,80.56,5.75,3.87,0.1,0.01,0.0,0.6875962512700688,0.04676454910547689,0.7232463427169433,0.04403634786032454
1.65,353.88,87.94,179.94,9.7,0.02,0.33,0.0,0.0,0.0,80.56,4.75,5.06,0.09,0.02,0.02,0.6905912357970393,0.02227599374831072,0.7226391308064171,0.01949901972380137
1.66,353.88,87.94,179.94,9.7,0.0,0.33,0.0,0.0,0.0,80.56,4.75,5.06,0.09,0.0,0.01,0.6905514869093989,0.04499715995399393,0.7192310435710704,0.061811046641859
1.67,353.88,87.94,179.94,9.71,0.0,0.34,0.0,0.0,0.0,80.56,4.75,5.06,0.08,0.0,0.0,0.6857179451993246,0.03374996105014493,0.726719929847482,0.023021366666651895
1.68,353.88,87.94,179.94,9.7,0.02,0.32,0.0,0.0,0.0,80.25,4.75,4.25,0.09,0.02,0.03,0.699783588356622,0.05485057829083434,0.7101880420095338,0.05410442231976596
1.7,353.88,87.94,179.94,9.71,0.02,0.32,0.0,0.0,0.0,80.56,4.37,4.25,0.08,0.01,0.01,0.6851967323385049,0.030903541533732527,0.7265782042201181,0.040429225389271184
1.71,353.88,87.94,179.94,9.705,0.02,0.315,0.0,0.0,0.0,80.56,4.37,4.25,0.08499999999999999,0.01,0.015,0.6894163553057313,0.03788557981675552,0.7227877016742631,0.02911546302819993
1.72,353.88,87.94,179.94,9.7,0.02,0.31,0.0,0.0,0.0,80.56,4.37,4.25,0.09,0.01,0.02,0.6934919431985077,0.04485970292302429,0.7188461920053234,0.01779561777128114
1.74,353.88,87.94,179.94,9.71,0.01,0.32,0.0,0.0,0.0,80.25,5.5,4.69,0.08,0.01,0.02,0.6989343817288682,0.04795312835752612,0.7121357261880487,0.04532035971427883
1.75,353.88,87.94,179.94,9.7,0.0,0.33,0.0,0.0,0.0,80.25,5.5,4.69,0.09,0.0,0.02,0.692482617110476,0.03046205252000106,0.7199940918036981,0.033887993801090255
1.76,353.88,87.94,179.94,9.71,0.02,0.33,0.0,0.0,0.0,79.87,4.37,4.25,0.08,0.02,0.01,0.6902980187971607,0.044130539760072585,0.7211605636591569,0.038322084077025184
1.77,353.88,87.94,179.94,9.69,0.02,0.35,0.0,0.0,0.0,79.87,4.37,4.25,0.1,0.02,0.0,0.6778812363060716,0.02550998404825105,0.7336463624299361,0.03986583839997412
1.78,353.88,87.94,179.94,9.69,0.01,0.3,0.0,0.0,0.0,79.87,4.37,4.25,0.1,0.01,0.04,0.6949932663760207,0.041302744713350686,0.7168738844524603,0.03701724950849272
1.79,353.88,87.94,179.94,9.71,0.01,0.34,0.0,0.0,0.0,80.25,2.19,4.69,0.08,0.01,0.0,0.6824476403166596,0.03469510415853805,0.7292031891818848,0.03638924100087654
1.8,353.88,87.94,179.94,9.7,0.01,0.32,0.0,0.0,0.0,80.25,2.19,4.69,0.09,0.01,0.02,0.6873714772217487,0.031898742646315134,0.725273498626311,0.021937974152721893
1.82,353.88,87.94,179.94,9.73,0.01,0.34,0.0,0.0,0.0,80.56,3.69,5.06,0.07,0.01,0.0,0.6925999836772093,0.045704187536955466,0.718580019930969,0.043117801520073835
1.83,353.88,87.94,179.94,9.71,0.01,0.34,0.0,0.0,0.0,80.56,3.69,5.06,0.08,0.01,0.0,0.6934514847730938,0.0395985960236093,0.717629858200596,0.05063966901494437
1.84,353.88,87.94,179.94,9.69,0.02,0.32,0.0,0.0,0.0,80.25,4.75,3.87,0.1,0.02,0.02,0.697118723171253,0.03785636988684207,0.7144456882349304,0.04647299888740994
1.85,353.88,87.94,179.94,9.69,0.01,0.35,0.0,0.0,0.0,80.25,4.75,3.87,0.1,0.01,0.0,0.6800704855122901,0.032621587970256445,0.7304728403130673,0.053379736776582726
1.86,353.88,87.94,179.94,9.7,0.01,0.34,0.0,0.0,0.0,81.69,5.06,4.69,0.09,0.01,0.01,0.6910317396647013,0.04784519642516039,0.7196579972157255,0.047731949451755754
1.87,353.88,87.94,179.94,9.71,0.01,0.32,0.0,0.0,0.0,81.69,5.06,4.69,0.09,0.0,0.0,0.6871348232885217,0.02324856276109812,0.7260651166156629,0.011605403382869375
1.88,353.88,87.94,179.94,9.72,0.01,0.33,0.0,0.0,0.0,81.69,5.06,4.69,0.07,0.01,0.02,0.6950359657875613,0.03740913662758308,0.7167593085681763,0.042209671159587785
1.89,353.88,87.94,179.94,9.715,0.01,0.325,0.0,0.0,0.0,81.28,4.904999999999999,4.28,0.07500000000000001,0.01,0.02,0.6920032590182684,0.04328032143812004,0.7193745526454165,0.04193514385947923
1.9,353.88,87.94,179.94,9.71,0.01,0.32,0.0,0.0,0.0,80.87,4.75,3.87,0.08,0.01,0.02,0.6889355486562556,0.04914931700066623,0.721953408608113,0.04165849535448157
1.91,353.88,87.94,179.94,9.71,0.0,0.35,0.0,0.0,0.0,80.87,4.75,3.87,0.08,0.0,0.0,0.6828413177360931,0.044972207668528975,0.7286350885856454,0.028216006302151934
1.92,353.88,87.94,179.94,9.71,0.0,0.33,0.0,0.0,0.0,79.87,5.5,3.87,0.08,0.02,0.01,0.6958210444626622,0.03431169618433675,0.7146869148706035,0.06227676372919746
1.93,353.88,87.94,179.94,9.69,0.01,0.34,0.0,0.0,0.0,79.87,5.5,3.87,0.07,0.02,0.02,0.673297466694324,0.03564422829823628,0.7367863455204894,0.05045682695721842
1.94,353.88,87.94,179.94,9.72,0.03,0.32,0.0,0.0,0.0,79.87,5.5,3.87,0.07,0.03,0.02,0.699336349163306,0.05813023322777803,0.7117153617895874,0.03179293186448313
1.95,353.88,87.94,179.94,9.69,0.02,0.32,0.0,0.0,0.0,80.25,2.87,3.87,0.1,0.02,0.03,0.6845810575229344,0.03377567185611602,0.7276123720127443,0.028075180594905866
1.96,353.88,87.94,179.94,9.69,0.0,0.32,0.0,0.0,0.0,80.25,2.87,3.87,0.1,0.01,0.02,0.6733714906167866,0.02685391753492465,0.7379535178806922,0.03569745348151931
1.97,353.88,87.94,179.94,9.69,0.02,0.32,0.0,0.0,0.0,80.87,4.75,4.69,0.09,0.01,0.01,0.6812078365002661,0.03776639710323111,0.7297527245712427,0.04461550987398584
1.98,353.88,87.94,179.94,9.7,0.03,0.36,0.0,0.0,0.0,80.87,4.75,4.69,0.09,0.03,0.01,0.6894943035385962,0.0338366301201106,0.7214578236826179,0.05432583636798991
1.99,353.88,87.94,179.94,9.7,0.03,0.32,0.0,0.0,0.0,80.87,4.75,4.69,0.09,0.03,0.02,0.6853549850962618,0.05431025243952321,0.7245547006406133,0.048573929872403644
2.0,353.88,87.94,179.94,9.7,0.02,0.31,0.0,0.0,0.0,79.87,5.06,3.5,0.09,0.02,0.04,0.6904968057337432,0.045196000751959724,0.7210325234370867,0.035827125665803365
2.02,353.88,87.94,179.94,9.69,0.02,0.33,0.0,0.0,0.0,79.5,4.37,5.5,0.08,0.0,0.0,0.6953576718608053,0.04186966078433997,0.7170671797023864,0.023222822476823245
2.03,353.88,87.94,179.94,9.72,0.01,0.33,0.0,0.0,0.0,79.5,4.37,5.5,0.07,0.01,0.01,0.6921293356083318,0.02922492911398114,0.7201991215795329,0.037631258080501426
2.05,353.88,87.94,179.94,9.71,0.01,0.33,0.0,0.0,0.0,80.56,4.75,3.87,0.08,0.01,0.02,0.681407745424253,0.05376885726745744,0.7290796410309256,0.035146429380594216
2.06,353.88,87.94,179.94,9.7,0.01,0.33,0.0,0.0,0.0,80.56,4.75,3.87,0.09,0.01,0.01,0.6993339379441323,0.03700064612230542,0.7133263692329328,0.026990486899013056
2.07,353.88,87.94,179.94,9.695,0.005,0.33,0.0,0.0,0.0,80.715,4.5600000000000005,4.0600000000000005,0.095,0.01,0.01,0.6925613037463159,0.039996440054129424,0.719262673564662,0.03768728900855268
2.08,353.88,87.94,179.94,9.69,0.0,0.33,0.0,0.0,0.0,80.87,4.37,4.25,0.1,0.01,0.01,0.6856470375485725,0.04298405452838892,0.7250518853424491,0.04837638389263049
2.09,353.88,87.94,179.94,9.7,0.02,0.33,0.0,0.0,0.0,80.87,4.37,4.25,0.09,0.02,0.01,0.6914483617602792,0.03393837588125847,0.7210390788898378,0.02915469731042478
2.1,353.88,87.94,179.94,9.72,0.04,0.33,0.0,0.0,0.0,80.87,4.37,4.25,0.07,0.04,0.01,0.6894042850213786,0.051474001029714576,0.7217030686326387,0.03488323004521513
2.11,353.88,87.94,179.94,9.71,0.0,0.33,0.0,0.0,0.0,80.56,4.75,5.06,0.08,0.0,0.01,0.6952959980119379,0.030281802137227875,0.7169917696782026,0.03961426285600064
2.12,353.88,87.94,179.94,9.69,0.01,0.35,0.0,0.0,0.0,80.56,4.75,5.06,0.1,0.01,0.0,0.6859363500603544,0.03217429928785198,0.7253528854792466,0.04815941920481948
2.14,353.88,87.94,179.94,9.71,0.01,0.33,0.0,0.0,0.0,80.25,5.06,4.25,0.08,0.01,0.01,0.6845913304631969,0.06589556272761432,0.7241509255096936,0.05096981607672557
2.15,353.88,87.94,179.94,9.71,0.02,0.34,0.0,0.0,0.0,80.25,5.06,4.25,0.08,0.02,0.0,0.6914695940212969,0.03874986406824901,0.7206444947443115,0.032245321729376705
2.16,353.88,87.94,179.94,9.71,0.0,0.33,0.0,0.0,0.0,80.25,4.37,5.06,0.08,0.01,0.01,0.6967484237219341,0.04444487439965073,0.713833760399104,0.054842043133657425
2.17,353.88,87.94,179.94,9.69,0.01,0.33,0.0,0.0,0.0,80.25,4.37,5.06,0.1,0.01,0.01,0.6838062092178172,0.038678293966235976,0.7277593931258391,0.03576763240879306
2.18,353.88,87.94,179.94,9.71,0.02,0.33,0.0,0.0,0.0,79.87,5.06,4.25,0.08,0.02,0.01,0.7001939599119016,0.045569553542801,0.7109599991020672,0.046773004709860976
2.19,353.88,87.94,179.94,9.7,0.01,0.33,0.0,0.0,0.0,79.87,5.06,4.25,0.09,0.01,0.01,0.6829230389375328,0.046794532767983024,0.7281829664143127,0.03429230256782249
2.2,353.88,87.94,179.94,9.71,0.02,0.33,0.0,0.0,0.0,79.87,5.06,4.25,0.08,0.02,0.01,0.7002999709026537,0.0371775789634724,0.7120061561527932,0.035284727243971935
2.21,353.88,87.94,179.94,9.71,0.02,0.34,0.0,0.0,0.0,80.87,4.75,3.5,0.08,0.02,0.0,0.6850435432550986,0.03645110591771052,0.7267433231747433,0.03508280123944248
2.22,353.88,87.94,179.94,9.72,0.01,0.34,0.0,0.0,0.0,80.87,4.75,3.5,0.07,0.01,0.0,0.6894531297224492,0.03863829740278578,0.7220444190072869,0.0425831054546647
2.23,353.88,87.94,179.94,9.7,0.0,0.32,0.0,0.0,0.0,79.5,2.87,4.25,0.07,0.01,0.01,0.6974484804973512,0.029678568697636187,0.7139468055463221,0.05444959561096802
2.24,353.88,87.94,179.94,9.71,0.01,0.325,0.0,0.0,0.0,79.5,2.87,4.25,0.07500000000000001,0.015,0.01,0.6895006291511186,0.035082957477008736,0.7216006420211143,0.05148380259454177
2.25,353.88,87.94,179.94,9.72,0.02,0.33,0.0,0.0,0.0,79.5,2.87,4.25,0.08,0.02,0.01,0.6814426280797587,0.040481741652180256,0.7291392007006298,0.048509784891342875
2.26,353.88,87.94,179.94,9.69,0.01,0.34,0.0,0.0,0.0,79.5,2.87,4.25,0.1,0.01,0.0,0.6959406611110857,0.05317804357420418,0.7144274872521107,0.049315893508282145
2.28,353.88,87.94,179.94,9.69,0.02,0.36,0.0,0.0,0.0,79.87,4.75,3.5,0.1,0.02,0.01,0.6799726735623943,0.0313556230438454,0.7315106473818607,0.039321252255142214
2.29,353.88,87.94,179.94,9.7,0.01,0.32,0.0,0.0,0.0,79.87,4.75,3.87,0.09,0.01,0.03,0.6822993366921959,0.03099726542848312,0.7293339827241404,0.039733189264000844
2.3,353.88,87.94,179.94,9.66,0.03,0.33,0.0,0.0,0.0,79.87,4.75,3.87,0.13,0.03,0.01,0.6982438820862746,0.013244389078364893,0.713979754509111,0.050129606403192785
2.31,353.88,87.94,179.94,9.67,0.01,0.36,0.0,0.01,0.0,79.87,4.75,3.87,0.12,0.01,0.01,0.6893999367940736,0.043372899287261873,0.7207845574701216,0.05758593984945989
2.32,353.88,87.94,179.94,9.61,0.04,0.25,0.0,0.0,0.01,80.56,4.37,3.87,0.19,0.04,0.09,0.6963450064181655,0.033756553941623274,0.7146790018215061,0.05655131703052481
2.33,353.88,87.94,179.94,9.63,0.02,0.3,0.0,0.01,0.0,80.56,4.37,3.87,0.16,0.02,0.04,0.6947871119670509,0.024009503414860047,0.7182793552824045,0.027734104733157777
2.34,353.88,87.94,179.94,9.68,0.0,0.34,0.0,0.01,0.01,79.87,4.75,3.87,0.01,0.02,0.05,0.6815382635065336,0.03594049952266466,0.7298154599338883,0.039790329378471816
2.36,353.88,87.94,179.94,9.67,0.0,0.36,0.0,0.0,0.0,79.87,4.75,3.87,0.12,0.01,0.01,0.6912397771898449,0.04619824578999504,0.7189197502571548,0.05663643003095151
2.37,353.88,87.94,179.94,9.71,0.01,0.33,0.0,0.0,0.01,80.25,5.06,4.25,0.08,0.02,0.02,0.7082814651056201,0.04618470963731884,0.7028228368789197,0.04737508569934505
2.38,353.88,87.94,179.94,9.69,0.01,0.33,0.0,0.01,0.0,80.25,5.06,4.25,0.1,0.01,0.02,0.6841516353907413,0.04831565976333256,0.7262789757000735,0.04605416669379619
2.39,353.88,87.94,179.94,9.69,0.02,0.32,0.0,0.0,0.0,79.87,5.06,5.5,0.08,0.03,0.02,0.6989135158801582,0.040291095113258464,0.7136362502208936,0.024896331964218536
