0.01,1.19,87.31,0.62,8.98,0.69,0.59,0.79,0.00,0.02,49.88,1.69,15.06,0.81,0.80,0.15,0.72,0.02,0.69,0.01
0.02,86.87,82.56,14.44,9.61,0.36,1.15,0.01,0.01,0.00,51.88,5.69,10.25,0.10,0.05,0.06,0.54,0.44,0.49,0.52
0.03,86.87,82.56,14.44,9.61,0.39,1.15,0.00,0.03,0.00,51.50,5.06,12.69,0.10,0.08,0.06,0.54,0.44,0.49,0.52
0.04,86.87,82.62,14.50,9.62,0.40,1.08,0.01,0.03,0.00,51.50,5.06,12.69,0.10,0.08,0.13,0.54,0.44,0.50,0.52
0.05,86.87,82.62,14.56,9.64,0.41,1.09,0.00,0.03,0.00,51.50,5.37,12.25,0.07,0.09,0.11,0.54,0.44,0.50,0.52
0.06,86.87,82.69,14.63,9.65,0.39,1.04,0.01,0.02,0.00,51.50,5.37,12.25,0.07,0.07,0.16,0.54,0.44,0.50,0.52
0.07,86.87,82.69,14.69,9.66,0.40,1.09,0.01,0.01,0.00,51.50,5.37,12.25,0.06,0.09,0.10,0.54,0.44,0.50,0.52
0.08,86.87,82.69,14.69,9.62,0.38,1.07,0.00,0.01,0.00,51.50,4.25,10.69,0.10,0.06,0.12,0.54,0.44,0.50,0.52
0.09,86.87,82.69,14.69,9.55,0.39,1.09,0.00,0.00,0.00,51.50,4.25,10.69,0.17,0.07,0.10,0.54,0.44,0.50,0.52
0.10,86.87,82.69,14.69,9.56,0.40,1.12,0.00,0.01,0.00,51.50,5.06,11.06,0.08,0.03,0.03,0.54,0.44,0.50,0.52
0.11,86.87,82.75,14.81,9.68,0.36,1.14,0.00,0.05,0.01,51.50,5.06,11.06,0.06,0.06,0.19,0.54,0.44,0.50,0.51
0.12,86.81,82.75,14.81,9.50,0.31,1.09,0.01,0.00,0.01,51.50,5.06,11.06,0.22,0.00,0.09,0.54,0.44,0.50,0.51
0.13,86.81,82.81,14.87,9.58,0.30,1.15,0.01,0.03,0.01,50.75,5.06,11.88,0.05,0.02,0.08,0.54,0.44,0.50,0.51
0.14,86.81,82.81,14.94,9.75,0.35,0.98,0.01,0.01,0.00,50.75,5.06,11.88,0.09,0.05,0.15,0.54,0.44,0.50,0.51
0.15,86.81,82.81,14.94,9.50,0.36,1.12,0.03,0.00,0.00,50.75,5.06,11.88,0.22,0.04,0.05,0.54,0.44,0.50,0.51
0.17,86.81,82.88,15.13,9.63,0.36,1.06,0.01,0.01,0.01,51.50,4.69,12.69,0.17,0.03,0.26,0.54,0.44,0.50,0.51
0.18,86.81,82.94,15.19,9.60,0.38,0.90,0.00,0.03,0.00,51.50,5.06,12.25,0.12,0.06,0.26,0.54,0.44,0.50,0.51
0.19,86.81,82.94,15.25,9.66,0.41,1.00,0.00,0.03,0.00,51.50,5.06,12.25,0.08,0.13,0.04,0.54,0.44,0.50,0.51
0.20,86.81,83.00,15.31,9.66,0.46,1.16,0.01,0.02,0.00,51.50,5.06,12.25,0.06,0.14,0.01,0.54,0.44,0.50,0.51
0.21,86.81,83.00,15.31,9.67,0.42,1.11,0.01,0.02,0.00,51.50,5.06,11.50,0.09,0.07,0.12,0.54,0.44,0.50,0.51
0.22,86.81,83.00,15.31,9.61,0.41,1.05,0.00,0.01,0.01,51.50,5.06,11.50,0.08,0.06,0.09,0.54,0.44,0.50,0.51
0.23,86.81,83.00,15.38,9.68,0.38,1.02,0.01,0.03,0.01,51.19,5.06,10.69,0.04,0.06,0.12,0.54,0.44,0.50,0.51
0.24,86.81,83.00,15.44,9.65,0.36,1.00,0.00,0.00,0.00,51.19,5.06,10.69,0.06,0.04,0.14,0.54,0.44,0.50,0.51
0.25,86.81,83.00,15.38,9.63,0.35,1.07,0.01,0.02,0.00,51.19,5.06,10.69,0.10,0.03,0.07,0.54,0.44,0.50,0.51
0.27,86.81,83.00,15.31,9.62,0.33,1.06,0.00,0.02,0.00,52.19,4.69,13.06,0.11,0.06,0.06,0.54,0.44,0.50,0.51
0.28,86.81,83.00,15.31,9.64,0.36,1.04,0.00,0.00,0.01,51.37,6.50,11.88,0.08,0.05,0.12,0.54,0.44,0.50,0.51
0.29,86.81,83.00,15.31,9.65,0.35,1.02,0.00,0.01,0.01,51.37,6.50,11.88,0.07,0.04,0.16,0.54,0.44,0.50,0.51
0.30,86.81,83.00,15.38,9.64,0.35,0.98,0.01,0.01,0.00,51.37,4.25,12.25,0.07,0.04,0.12,0.54,0.44,0.50,0.51
0.31,86.81,83.00,15.38,9.64,0.37,0.98,0.01,0.01,0.00,51.37,4.25,12.25,0.08,0.06,0.17,0.54,0.44,0.50,0.51
0.32,86.81,83.00,15.38,9.60,0.37,1.00,0.01,0.01,0.01,51.37,4.25,12.25,0.12,0.05,0.14,0.54,0.44,0.50,0.51
0.33,86.81,83.00,15.44,9.61,0.36,1.01,0.00,0.01,0.01,51.75,5.69,12.25,0.11,0.04,0.12,0.54,0.44,0.50,0.51
0.34,86.75,83.06,15.38,9.60,0.40,1.00,0.00,0.02,0.01,51.75,5.69,12.25,0.12,0.09,0.13,0.54,0.44,0.50,0.51
0.35,86.75,83.06,15.31,9.65,0.34,1.03,0.01,0.03,0.01,51.75,5.69,12.25,0.07,0.05,0.09,0.54,0.44,0.50,0.51
0.37,86.75,83.12,1.75,9.68,0.36,1.00,0.00,0.01,0.01,51.37,4.69,11.88,0.06,0.06,0.08,0.54,0.44,0.50,0.51
0.38,86.69,83.19,1.75,9.64,0.40,0.99,0.01,0.01,0.01,51.06,4.69,12.25,0.09,0.10,0.12,0.54,0.44,0.50,0.51
0.39,86.69,83.19,1.75,9.61,0.37,0.92,0.00,0.02,0.01,51.06,4.69,12.25,0.12,0.07,0.20,0.54,0.44,0.50,0.51
0.40,86.69,83.19,1.75,9.56,0.35,0.93,0.00,0.02,0.01,51.37,4.25,10.69,0.18,0.02,0.19,0.54,0.44,0.50,0.51
0.41,86.69,83.25,1.75,9.62,0.32,0.93,0.01,0.06,0.02,51.37,4.25,10.69,0.07,0.01,0.17,0.54,0.44,0.50,0.51
0.42,86.69,83.31,1.69,9.71,0.33,0.84,0.00,0.06,0.03,51.37,4.25,10.69,0.03,0.02,0.34,0.54,0.44,0.50,0.51
0.43,86.63,83.37,1.69,9.50,0.23,0.83,0.01,0.03,0.02,51.06,4.69,12.69,0.16,0.07,0.22,0.54,0.44,0.50,0.51
0.44,86.63,83.44,1.69,9.63,0.20,0.83,0.01,0.04,0.01,51.06,4.69,12.69,0.03,0.08,0.20,0.54,0.44,0.50,0.51
0.45,86.56,83.50,1.62,9.71,0.24,0.88,0.05,0.01,0.02,51.06,4.69,12.69,0.03,0.04,0.18,0.54,0.44,0.50,0.51
0.46,86.50,83.50,1.62,9.61,0.29,1.01,0.07,0.01,0.02,51.37,4.69,12.25,0.12,0.00,0.05,0.54,0.44,0.50,0.51
0.47,86.44,83.56,1.62,9.65,0.36,0.94,0.05,0.04,0.01,51.37,4.69,12.25,0.08,0.08,0.11,0.54,0.44,0.50,0.51
0.48,86.44,83.56,1.62,9.46,0.39,0.84,0.03,0.00,0.01,51.06,4.25,11.88,0.28,0.10,0.20,0.54,0.44,0.50,0.51
0.49,86.44,83.56,1.62,9.59,0.50,0.85,0.02,0.10,0.03,51.06,4.25,11.88,0.15,0.21,0.18,0.54,0.44,0.50,0.51
0.50,86.44,83.69,1.69,9.68,0.57,0.84,0.05,0.15,0.02,51.06,4.25,11.88,0.06,0.27,0.16,0.54,0.44,0.50,0.51
0.51,86.56,83.87,1.75,9.54,0.62,0.92,0.03,0.13,0.03,51.06,5.37,14.25,0.13,0.27,0.06,0.54,0.44,0.50,0.51
0.52,86.69,84.00,1.81,9.64,0.57,0.84,0.06,0.12,0.04,51.06,5.37,14.25,0.19,0.24,0.13,0.54,0.44,0.50,0.51
0.53,86.81,84.13,1.87,9.59,0.58,0.80,0.08,0.14,0.03,51.06,5.37,14.25,0.23,0.25,0.13,0.54,0.45,0.50,0.51
0.55,87.12,84.62,1.87,9.53,0.58,0.70,0.13,0.30,0.01,51.88,4.69,13.06,0.10,0.19,0.14,0.53,0.45,0.51,0.51
0.56,87.25,84.94,1.94,9.67,0.62,0.63,0.14,0.32,0.00,51.19,5.50,13.75,0.09,0.29,0.16,0.53,0.45,0.51,0.51
0.58,87.69,85.56,1.94,9.63,0.51,0.52,0.21,0.32,0.01,51.19,5.50,13.75,0.14,0.17,0.14,0.53,0.46,0.51,0.51
0.59,88.00,85.87,1.94,9.65,0.46,0.41,0.23,0.32,0.00,50.38,5.50,14.19,0.12,0.12,0.19,0.52,0.46,0.51,0.51
0.60,88.25,86.19,1.94,9.59,0.39,0.35,0.25,0.32,0.01,50.38,5.50,14.19,0.18,0.06,0.19,0.52,0.46,0.51,0.51
0.61,88.50,86.50,1.94,9.46,0.26,0.26,0.25,0.33,0.01,51.50,5.50,15.50,0.32,0.06,0.22,0.52,0.46,0.51,0.51
0.62,88.75,86.87,1.87,9.48,0.22,0.27,0.23,0.38,0.01,51.50,5.50,15.50,0.30,0.10,0.14,0.52,0.47,0.51,0.51
0.63,89.00,87.19,1.87,9.55,0.15,0.35,0.22,0.42,0.00,51.50,5.50,15.50,0.24,0.16,0.01,0.51,0.47,0.51,0.50
0.64,89.13,87.37,1.87,9.67,0.24,0.33,0.21,0.46,0.00,50.00,5.37,16.19,0.12,0.07,0.07,0.51,0.47,0.51,0.50
0.66,89.56,87.94,1.81,9.80,0.36,0.08,0.19,0.47,0.01,49.69,5.06,16.69,0.03,0.01,0.09,0.50,0.48,0.51,0.50
0.67,89.81,88.12,1.81,9.81,0.33,0.06,0.19,0.47,0.02,49.69,5.06,16.69,0.02,0.09,0.23,0.50,0.48,0.52,0.50
0.69,90.19,88.00,178.19,9.56,0.36,0.43,0.19,0.47,0.03,49.25,5.69,19.06,0.23,0.05,0.25,0.49,0.49,0.52,0.50
0.70,90.38,87.75,178.19,9.54,0.31,0.51,0.17,0.49,0.05,49.25,5.69,19.06,0.24,0.01,0.23,0.49,0.49,0.52,0.50
0.71,90.50,87.44,178.25,9.50,0.29,0.59,0.16,0.52,0.06,49.06,5.19,20.25,0.41,0.07,0.36,0.49,0.50,0.52,0.49
0.72,90.62,87.00,178.31,9.32,0.23,0.80,0.13,0.57,0.08,49.06,5.19,20.25,0.44,0.02,0.37,0.49,0.50,0.52,0.49
0.73,90.69,86.44,178.44,9.29,0.17,0.89,0.11,0.65,0.08,49.06,5.19,20.25,0.52,0.19,0.37,0.48,0.50,0.52,0.49
0.74,90.75,85.81,178.50,9.24,0.08,1.03,0.10,0.71,0.08,48.38,5.37,20.25,0.53,0.19,0.37,0.48,0.51,0.53,0.49
0.76,90.75,84.13,178.69,9.12,0.03,1.40,0.02,0.89,0.08,48.38,5.37,20.25,0.62,0.18,0.42,0.47,0.52,0.53,0.48
0.77,90.69,83.12,178.75,9.00,0.12,1.48,0.03,0.90,0.06,49.50,5.06,23.06,0.63,0.05,0.31,0.47,0.52,0.54,0.47
0.79,90.38,80.62,174.00,9.06,0.12,1.47,0.02,0.89,0.13,47.00,5.69,23.25,0.61,0.04,0.11,0.46,0.53,0.55,0.46
0.80,90.25,79.75,175.44,8.84,0.19,1.65,0.00,0.79,0.16,47.00,5.69,23.25,0.79,0.00,0.06,0.45,0.54,0.55,0.45
0.81,90.00,78.81,176.87,8.77,0.09,1.94,0.06,0.86,0.19,45.88,5.69,25.75,0.84,0.00,0.05,0.45,0.54,0.55,0.45
0.82,89.62,77.75,178.31,8.95,0.24,2.25,0.10,1.03,0.21,45.88,5.69,25.75,0.63,0.18,0.18,0.45,0.55,0.56,0.44
0.83,89.31,76.56,179.56,8.80,0.02,2.55,0.09,1.06,0.20,45.88,5.69,25.75,0.73,0.04,0.27,0.44,0.55,0.56,0.44
0.84,88.94,75.50,179.50,8.87,0.09,2.77,0.12,0.95,0.15,45.00,3.87,27.87,0.62,0.11,0.32,0.44,0.56,0.56,0.43
0.85,88.56,74.50,178.87,9.03,0.33,3.00,0.19,0.89,0.11,45.00,3.87,27.87,0.41,0.38,0.38,0.43,0.56,0.57,0.42
0.87,87.94,73.00,178.12,8.87,0.10,3.02,0.14,0.88,0.09,43.50,3.87,30.69,0.47,0.20,0.08,0.43,0.57,0.57,0.41
0.88,87.69,72.06,177.81,8.84,0.08,3.04,0.08,0.82,0.13,43.50,3.87,30.69,0.46,0.04,0.04,0.42,0.57,0.58,0.41
0.90,87.06,70.25,176.94,9.42,0.35,3.18,0.12,0.70,0.14,41.75,3.56,31.50,0.21,0.16,0.17,0.42,0.58,0.58,0.39
0.91,86.69,69.50,176.50,9.34,0.26,3.28,0.13,0.56,0.10,40.06,2.69,34.75,0.17,0.04,0.18,0.41,0.58,0.58,0.39
0.92,86.37,68.94,176.19,9.42,0.12,3.48,0.13,0.52,0.07,40.06,2.69,34.75,0.29,0.11,0.08,0.41,0.58,0.59,0.39
0.93,86.06,68.31,175.94,9.50,0.13,3.59,0.12,0.52,0.06,40.06,2.69,34.75,0.40,0.40,0.05,0.41,0.58,0.59,0.38
0.94,85.75,67.75,175.75,9.57,0.06,3.68,0.12,0.49,0.09,39.25,2.87,34.88,0.49,0.16,0.15,0.41,0.58,0.59,0.38
0.95,85.44,67.25,175.50,9.85,0.12,3.65,0.10,0.35,0.02,39.25,2.87,34.88,0.72,0.16,0.03,0.41,0.58,0.59,0.38
0.96,85.31,66.94,175.38,9.85,0.30,4.04,0.06,0.25,0.03,39.25,2.87,34.88,0.83,0.00,0.17,0.41,0.59,0.59,0.37
0.98,84.94,66.50,174.94,9.52,0.41,3.94,0.04,0.18,0.09,38.50,2.37,36.19,0.36,0.03,0.07,0.41,0.59,0.59,0.37
0.99,84.75,66.25,174.69,9.08,0.26,3.78,0.05,0.22,0.08,37.56,1.19,38.19,0.00,0.03,0.13,0.40,0.59,0.59,0.37
1.00,84.56,65.94,174.56,8.98,0.31,3.82,0.01,0.30,0.08,37.56,1.19,38.19,0.06,0.10,0.22,0.40,0.59,0.60,0.37
1.01,84.56,65.56,174.56,9.11,0.17,4.06,0.05,0.29,0.01,38.25,1.50,38.75,0.19,0.20,0.00,0.40,0.59,0.60,0.37
1.02,84.69,65.25,174.69,9.15,0.25,4.27,0.12,0.20,0.01,38.25,1.50,38.75,0.24,0.11,0.17,0.40,0.59,0.60,0.36
1.03,84.87,65.06,174.87,9.01,0.29,4.10,0.13,0.15,0.03,38.25,1.50,38.75,0.12,0.06,0.01,0.40,0.59,0.60,0.36
1.04,85.12,64.94,175.12,8.96,0.31,4.05,0.09,0.19,0.04,37.38,2.19,38.25,0.15,0.07,0.11,0.40,0.59,0.60,0.36
1.05,85.25,64.69,175.31,9.42,0.19,4.04,0.04,0.23,0.02,37.38,2.19,38.25,0.60,0.27,0.00,0.39,0.60,0.60,0.36
1.06,85.38,64.50,175.50,9.44,0.03,4.36,0.04,0.18,0.03,37.38,2.19,38.25,0.49,0.32,0.30,0.39,0.60,0.60,0.36
1.07,85.56,64.37,175.75,9.26,0.04,4.61,0.10,0.03,0.07,36.88,1.75,39.50,0.36,0.15,0.37,0.39,0.60,0.60,0.36
1.08,85.94,64.44,176.12,9.18,0.24,4.44,0.21,0.02,0.05,36.88,1.75,39.50,0.39,0.05,0.14,0.39,0.60,0.60,0.36
1.09,86.37,64.37,176.44,9.20,0.31,4.23,0.21,0.07,0.00,37.38,3.00,39.06,0.23,0.04,0.08,0.39,0.60,0.60,0.37
1.10,86.56,64.31,176.50,9.06,0.35,4.14,0.13,0.06,0.05,37.38,3.00,39.06,0.34,0.14,0.02,0.39,0.60,0.60,0.37
1.11,86.75,64.31,176.56,9.47,0.43,4.50,0.09,0.00,0.01,37.38,3.00,39.06,0.60,0.18,0.41,0.39,0.60,0.60,0.37
1.12,86.87,64.37,176.69,9.38,0.49,4.74,0.08,0.09,0.02,37.38,2.50,40.25,0.49,0.26,0.54,0.39,0.60,0.60,0.37
1.13,87.06,64.44,176.75,9.65,0.54,4.79,0.08,0.04,0.00,37.38,2.50,40.25,0.98,0.37,0.54,0.39,0.60,0.60,0.37
1.14,87.12,64.37,176.75,9.96,0.59,4.77,0.06,0.05,0.06,36.38,3.75,39.00,1.12,0.35,0.54,0.39,0.60,0.60,0.37
1.15,87.06,64.37,176.56,9.98,0.56,4.89,0.00,0.00,0.09,36.38,3.75,39.00,0.99,0.29,0.66,0.39,0.60,0.60,0.37
1.16,86.87,64.44,176.31,9.57,0.44,4.76,0.07,0.10,0.06,36.38,3.75,39.00,0.72,0.18,0.55,0.39,0.60,0.60,0.37
1.17,86.69,64.62,176.12,9.10,0.02,4.16,0.09,0.16,0.03,37.06,3.37,38.69,0.24,0.25,0.02,0.39,0.60,0.60,0.37
1.19,86.50,64.94,175.87,8.90,0.10,3.99,0.01,0.12,0.02,37.50,2.56,39.06,0.02,0.19,0.14,0.39,0.60,0.59,0.37
1.20,86.50,65.00,175.81,8.99,0.23,4.08,0.00,0.08,0.01,37.50,2.56,39.06,0.10,0.06,0.03,0.39,0.60,0.59,0.37
1.22,86.44,65.06,175.75,9.52,0.47,4.21,0.01,0.00,0.03,36.38,2.25,38.25,0.63,0.17,0.09,0.39,0.60,0.59,0.37
1.23,86.37,65.06,175.62,9.67,0.63,4.25,0.01,0.05,0.05,36.38,2.25,38.25,0.71,0.28,0.17,0.39,0.60,0.59,0.37
1.24,86.25,65.25,175.44,9.53,0.61,4.29,0.05,0.17,0.04,37.88,3.00,39.06,0.63,0.29,0.20,0.39,0.60,0.59,0.37
1.25,86.12,65.44,175.19,9.50,0.59,4.27,0.10,0.14,0.03,37.88,3.00,39.06,0.58,0.25,0.20,0.40,0.60,0.59,0.37
1.26,85.81,65.50,174.87,9.52,0.60,4.27,0.14,0.07,0.04,37.88,3.00,39.06,0.60,0.24,0.22,0.40,0.60,0.59,0.37
1.27,85.62,65.50,174.75,9.54,0.59,4.33,0.14,0.05,0.03,37.06,3.00,37.06,0.73,0.18,0.37,0.40,0.60,0.59,0.37
1.28,85.38,65.56,174.50,9.93,0.57,4.57,0.10,0.09,0.02,37.06,3.00,37.06,1.00,0.18,0.54,0.40,0.60,0.59,0.37
1.29,85.25,65.69,174.31,10.34,0.57,4.67,0.09,0.13,0.01,37.06,3.00,37.06,1.57,0.20,0.68,0.40,0.60,0.59,0.37
1.30,85.06,65.87,174.25,10.72,0.68,4.64,0.09,0.19,0.02,38.19,2.25,39.06,2.02,0.33,0.67,0.40,0.59,0.59,0.37
1.32,84.81,66.56,174.06,11.48,1.00,4.72,0.18,0.42,0.08,38.19,2.25,39.06,2.36,0.50,0.90,0.41,0.59,0.59,0.37
1.33,84.62,67.19,173.87,11.21,0.77,4.50,0.17,0.57,0.08,38.19,2.25,39.06,2.09,0.35,0.59,0.41,0.59,0.59,0.37
1.34,84.44,67.87,173.69,11.14,0.75,4.15,0.19,0.58,0.05,38.19,2.25,39.06,2.05,0.35,0.48,0.41,0.58,0.59,0.38
1.35,84.06,68.50,173.31,10.87,0.68,3.82,0.27,0.60,0.02,38.19,2.37,37.50,1.72,0.21,0.23,0.42,0.58,0.59,0.38
1.36,83.69,69.25,172.87,10.83,0.61,3.68,0.36,0.67,0.09,38.19,2.37,37.50,1.53,0.17,0.27,0.42,0.58,0.59,0.38
1.37,83.19,70.06,172.44,10.46,0.46,3.59,0.42,0.78,0.09,39.38,1.87,36.00,1.24,0.03,0.28,0.43,0.57,0.58,0.38
1.38,82.75,71.00,171.94,10.12,0.40,3.42,0.40,0.84,0.10,39.38,1.87,36.00,0.70,0.00,0.23,0.44,0.57,0.58,0.38
1.39,82.37,72.00,171.50,9.80,0.45,3.06,0.34,0.89,0.10,39.38,1.87,36.00,0.47,0.00,0.07,0.44,0.56,0.58,0.39
1.41,81.75,74.06,170.38,9.16,0.17,2.59,0.28,0.95,0.09,41.19,0.25,35.06,0.38,0.19,0.01,0.46,0.55,0.58,0.40
1.42,81.69,75.19,169.94,8.82,0.30,2.54,0.21,1.00,0.15,42.25,1.19,32.25,0.65,0.13,0.07,0.46,0.54,0.57,0.40
1.43,81.69,76.37,169.75,8.51,0.33,2.36,0.17,1.07,0.20,42.25,1.19,32.25,1.01,0.07,0.09,0.47,0.54,0.57,0.41
1.44,81.75,77.56,169.62,8.46,0.34,2.26,0.14,1.08,0.20,42.25,1.19,32.25,1.11,0.03,0.19,0.47,0.53,0.57,0.41
1.45,81.87,78.81,169.50,7.97,0.14,1.84,0.13,1.07,0.20,44.19,1.69,29.50,1.64,0.19,0.02,0.48,0.53,0.56,0.42
1.46,82.06,80.00,169.56,7.90,0.00,1.72,0.05,1.06,0.23,44.19,1.69,29.50,1.75,0.30,0.05,0.49,0.52,0.56,0.42
1.47,82.31,81.19,169.56,7.96,0.13,1.54,0.01,1.11,0.18,46.88,0.69,27.37,1.72,0.39,0.07,0.49,0.51,0.56,0.43
1.48,82.50,81.81,169.56,8.16,0.07,1.51,0.08,1.03,0.20,46.88,0.69,27.37,1.56,0.30,0.24,0.50,0.51,0.55,0.44
1.49,82.81,83.00,169.81,8.28,0.09,1.19,0.06,1.00,0.21,46.88,0.69,27.37,1.45,0.28,0.11,0.50,0.51,0.55,0.44
1.50,83.19,84.13,179.00,8.36,0.15,1.15,0.06,1.01,0.21,47.38,1.69,26.37,1.38,0.35,0.14,0.50,0.50,0.55,0.45
1.51,83.50,85.25,179.19,9.08,0.07,0.88,0.11,0.96,0.17,47.38,1.69,26.37,0.69,0.19,0.18,0.51,0.50,0.54,0.45
1.52,83.81,86.31,179.38,9.32,0.04,0.77,0.12,0.94,0.15,47.38,1.69,26.37,0.38,0.12,0.15,0.51,0.49,0.54,0.46
1.54,84.37,88.44,179.69,9.81,0.20,0.03,0.13,0.89,0.12,48.38,1.25,23.06,0.19,0.18,0.19,0.52,0.48,0.53,0.47
1.55,84.69,89.44,179.81,10.19,0.02,0.11,0.15,0.90,0.09,50.00,2.37,19.87,0.37,0.09,0.30,0.52,0.48,0.52,0.47
1.56,84.94,89.44,0.06,9.94,0.16,0.53,0.13,0.99,0.06,50.00,2.37,19.87,0.11,0.23,0.72,0.52,0.48,0.52,0.48
1.57,85.06,88.25,0.00,9.55,0.32,0.57,0.04,1.07,0.09,50.00,2.37,19.87,0.24,0.32,0.87,0.53,0.47,0.51,0.49
1.58,85.19,87.06,0.13,9.08,0.26,0.04,0.07,1.07,0.14,50.88,2.50,20.00,0.75,0.28,0.35,0.53,0.46,0.51,0.49
1.59,85.19,85.94,0.31,8.87,0.25,0.37,0.12,1.00,0.16,50.88,2.50,20.00,1.12,0.16,0.05,0.54,0.46,0.50,0.50
1.60,85.31,84.75,0.50,8.53,0.00,0.89,0.10,0.99,0.19,50.88,2.69,16.00,1.22,0.08,0.01,0.54,0.45,0.50,0.50
1.62,85.56,82.94,6.44,8.42,0.13,0.90,0.03,0.70,0.04,50.88,2.69,16.00,1.30,0.00,0.29,0.55,0.44,0.49,0.51
1.63,85.50,82.25,6.00,8.99,0.20,0.52,0.12,0.59,0.00,51.37,2.75,13.06,0.72,0.06,0.78,0.55,0.44,0.49,0.51
1.64,85.31,81.69,5.81,9.56,0.23,0.34,0.16,0.50,0.02,51.37,2.75,13.06,0.02,0.09,1.05,0.56,0.44,0.49,0.51
1.65,85.25,81.06,5.81,9.67,0.12,0.88,0.09,0.57,0.05,52.56,3.56,11.50,0.00,0.03,0.63,0.56,0.43,0.49,0.51
1.66,85.25,80.38,5.81,9.59,0.04,1.30,0.05,0.58,0.04,52.56,3.56,11.50,0.07,0.12,0.31,0.56,0.43,0.48,0.52
1.67,85.19,79.81,5.81,9.39,0.36,1.58,0.11,0.51,0.05,52.56,3.56,11.50,0.25,0.19,0.13,0.56,0.43,0.48,0.52
1.68,85.12,79.31,6.00,9.21,0.47,1.68,0.13,0.40,0.05,52.69,4.00,10.25,0.42,0.28,0.11,0.57,0.42,0.48,0.52
1.69,85.06,78.94,6.19,8.83,0.35,1.81,0.15,0.33,0.04,52.69,4.00,10.25,0.78,0.15,0.04,0.57,0.42,0.48,0.52
1.70,84.94,78.62,6.44,8.99,0.46,1.91,0.18,0.27,0.04,52.69,3.56,7.87,0.61,0.24,0.00,0.57,0.42,0.48,0.52
1.72,84.75,78.25,6.56,9.40,0.50,2.00,0.06,0.18,0.02,52.69,3.56,7.87,0.19,0.27,0.00,0.57,0.41,0.48,0.52
1.73,84.69,78.06,6.44,9.38,0.37,1.89,0.11,0.18,0.04,53.56,4.06,7.06,0.22,0.16,0.16,0.57,0.41,0.48,0.52
1.75,84.44,77.69,6.19,9.53,0.13,1.95,0.04,0.11,0.04,53.69,3.69,7.87,0.04,0.08,0.12,0.58,0.41,0.47,0.52
1.76,84.31,77.56,6.06,9.40,0.20,1.75,0.13,0.08,0.04,53.69,3.69,7.87,0.17,0.01,0.33,0.58,0.41,0.47,0.52
1.77,84.19,77.50,5.94,9.29,0.50,2.43,0.12,0.01,0.00,53.69,3.69,7.87,0.28,0.28,0.32,0.58,0.41,0.47,0.52
1.78,84.06,77.50,6.12,9.37,0.58,2.33,0.13,0.01,0.00,54.06,4.06,7.06,0.32,0.36,0.11,0.58,0.41,0.48,0.52
1.79,83.94,77.50,6.25,9.18,0.63,2.22,0.14,0.05,0.02,54.06,4.06,7.06,0.35,0.56,0.42,0.58,0.41,0.48,0.52
1.80,83.81,77.62,6.31,9.38,0.87,2.62,0.10,0.09,0.02,53.69,3.69,6.37,0.13,0.69,0.54,0.58,0.41,0.48,0.52
1.81,83.75,77.75,6.19,9.37,0.90,2.28,0.01,0.00,0.03,53.69,3.69,6.37,0.60,0.67,0.06,0.58,0.41,0.48,0.52
1.83,83.75,77.87,6.00,9.16,0.68,2.30,0.05,0.15,0.02,53.25,3.00,7.19,0.27,0.60,0.24,0.58,0.41,0.48,0.52
1.84,83.75,78.19,5.81,9.40,0.85,2.20,0.11,0.30,0.07,53.25,3.00,7.19,0.25,0.63,0.15,0.58,0.41,0.48,0.52
1.85,83.81,78.50,5.37,9.31,0.77,2.07,0.13,0.29,0.08,54.06,3.69,8.00,0.30,0.37,0.13,0.58,0.41,0.48,0.52
1.86,83.87,78.81,4.94,9.32,0.34,1.96,0.23,0.29,0.07,54.06,3.69,8.00,0.24,0.00,0.00,0.57,0.42,0.48,0.52
1.87,84.00,79.12,4.44,9.41,0.05,1.85,0.22,0.29,0.07,54.06,3.69,8.00,0.23,0.04,0.15,0.57,0.42,0.48,0.52
1.88,84.13,79.50,3.87,9.41,0.06,2.05,0.21,0.31,0.07,53.25,2.56,9.19,0.18,0.02,0.24,0.57,0.42,0.48,0.52
1.89,84.25,79.81,3.44,9.53,0.04,1.98,0.19,0.30,0.05,53.25,2.56,9.19,0.12,0.13,0.07,0.57,0.43,0.48,0.51
1.90,84.37,80.12,3.00,9.55,0.12,1.70,0.20,0.28,0.04,53.25,2.56,9.19,0.10,0.21,0.02,0.57,0.43,0.48,0.51
1.91,84.50,80.44,2.69,9.53,0.07,1.76,0.15,0.27,0.03,53.25,3.69,9.56,0.10,0.21,0.00,0.56,0.43,0.48,0.51
1.93,84.75,80.94,2.06,9.64,0.03,1.65,0.16,0.17,0.03,53.25,3.37,10.38,0.03,0.09,0.11,0.56,0.43,0.48,0.51
1.94,84.87,81.19,1.44,9.78,0.10,1.36,0.17,0.25,0.07,53.25,3.37,10.38,0.04,0.08,0.25,0.56,0.44,0.48,0.51
1.95,84.87,81.44,0.81,9.58,0.01,1.19,0.10,0.26,0.08,53.25,3.37,10.38,0.11,0.00,0.25,0.56,0.44,0.48,0.51
1.96,84.87,81.75,0.19,9.46,0.05,1.24,0.08,0.24,0.07,53.25,3.00,10.75,0.23,0.05,0.16,0.56,0.44,0.48,0.51
1.97,84.87,82.00,0.50,9.32,0.08,1.44,0.06,0.21,0.09,53.25,3.00,10.75,0.38,0.06,0.07,0.56,0.44,0.48,0.51
1.98,84.81,82.25,1.44,9.52,0.14,1.44,0.04,0.28,0.10,53.69,3.00,11.06,0.18,0.10,0.13,0.56,0.45,0.48,0.51
1.99,84.75,82.44,1.94,9.54,0.13,1.24,0.03,0.27,0.11,53.69,3.00,11.06,0.17,0.08,0.01,0.55,0.45,0.49,0.51
2.00,84.62,82.69,3.00,9.57,0.09,1.10,0.01,0.23,0.11,53.69,3.00,11.06,0.15,0.02,0.11,0.55,0.45,0.49,0.51
2.01,84.50,82.94,4.06,9.60,0.08,1.10,0.04,0.26,0.11,52.56,2.56,12.25,0.14,0.07,0.02,0.55,0.45,0.49,0.50
2.03,84.25,83.56,0.75,9.47,0.03,1.24,0.02,0.34,0.13,52.56,1.75,13.06,0.30,0.15,0.11,0.55,0.45,0.49,0.50
2.04,84.06,84.00,0.88,9.45,0.05,1.07,0.01,0.41,0.15,52.56,1.75,13.06,0.26,0.18,0.04,0.55,0.46,0.49,0.50
2.06,83.75,85.00,1.19,9.45,0.08,0.81,0.03,0.55,0.14,52.88,2.06,13.06,0.38,0.31,0.05,0.55,0.46,0.49,0.49
2.07,83.62,85.56,1.31,9.50,0.10,0.59,0.09,0.60,0.15,52.88,2.06,13.06,0.17,0.19,0.36,0.55,0.47,0.50,0.49
2.08,83.56,86.12,1.50,9.78,0.13,0.27,0.10,0.62,0.15,52.88,2.06,13.06,0.22,0.04,0.32,0.54,0.47,0.50,0.49
2.09,83.44,86.69,1.69,10.03,0.43,0.04,0.09,0.64,0.17,52.19,1.75,14.25,0.17,0.15,0.30,0.54,0.47,0.50,0.48
2.10,83.31,87.12,1.87,9.91,0.40,0.05,0.07,0.55,0.11,52.19,1.75,14.25,0.10,0.06,0.37,0.54,0.48,0.50,0.48
2.11,83.25,87.44,1.94,9.91,0.41,0.09,0.11,0.48,0.08,51.37,1.37,16.25,0.02,0.02,0.35,0.54,0.48,0.50,0.48
2.12,83.31,87.62,2.06,9.71,0.23,0.09,0.14,0.38,0.07,51.37,1.37,16.25,0.13,0.22,0.24,0.53,0.48,0.51,0.47
2.14,83.50,87.69,2.25,9.94,0.46,0.08,0.20,0.51,0.09,51.75,1.06,17.87,0.14,0.07,0.09,0.53,0.49,0.51,0.47
2.15,83.56,87.62,177.62,9.75,0.53,0.39,0.13,0.33,0.06,51.75,1.06,17.87,0.21,0.12,0.50,0.53,0.49,0.51,0.47
2.16,83.56,87.50,177.62,9.63,0.43,0.42,0.01,0.24,0.02,50.69,0.25,18.25,0.16,0.02,0.31,0.52,0.50,0.51,0.47
2.17,83.56,87.37,177.56,9.79,0.38,0.21,0.04,0.32,0.01,50.69,0.25,18.25,0.29,0.05,0.02,0.52,0.50,0.51,0.47
2.18,83.69,87.19,177.56,10.14,0.38,0.30,0.15,0.40,0.04,50.69,0.25,18.25,0.34,0.02,0.05,0.52,0.50,0.51,0.47
2.19,83.75,86.94,177.50,9.94,0.22,0.36,0.12,0.33,0.06,50.38,1.37,19.87,0.15,0.19,0.05,0.52,0.50,0.51,0.46
2.20,83.81,86.63,177.44,9.86,0.28,0.63,0.11,0.30,0.05,50.38,1.37,19.87,0.13,0.16,0.32,0.52,0.50,0.51,0.46
2.21,83.81,86.37,177.44,9.91,0.29,0.86,0.08,0.29,0.03,50.38,1.06,19.50,0.13,0.14,0.44,0.51,0.51,0.52,0.46
2.22,83.87,86.19,177.38,9.64,0.32,0.88,0.04,0.20,0.03,50.38,1.06,19.50,0.14,0.11,0.41,0.51,0.51,0.52,0.46
2.23,83.87,86.06,177.38,9.46,0.41,0.78,0.00,0.15,0.01,50.38,1.06,19.50,0.32,0.03,0.28,0.51,0.51,0.52,0.46
2.24,83.81,85.94,177.38,9.56,0.70,0.65,0.05,0.21,0.03,50.38,1.06,21.56,0.21,0.26,0.12,0.51,0.51,0.52,0.46
2.25,83.81,85.81,177.38,9.72,0.76,0.90,0.02,0.23,0.05,50.38,1.06,21.56,0.05,0.32,0.33,0.51,0.51,0.52,0.46
2.27,84.00,85.50,177.44,9.59,0.47,0.79,0.09,0.21,0.03,50.00,1.75,21.87,0.18,0.03,0.13,0.51,0.51,0.52,0.46
2.28,84.06,85.25,177.38,9.85,0.56,0.86,0.03,0.26,0.03,50.00,1.75,21.87,0.07,0.12,0.15,0.51,0.51,0.52,0.46
2.29,84.00,84.94,177.38,9.97,0.52,1.01,0.01,0.26,0.01,49.56,1.75,21.50,0.23,0.07,0.35,0.51,0.51,0.52,0.46
2.30,84.00,84.75,177.38,9.83,0.48,1.34,0.01,0.14,0.00,49.56,1.75,21.50,0.05,0.00,0.45,0.50,0.52,0.52,0.45
2.31,84.00,84.62,177.38,9.63,0.36,1.12,0.01,0.15,0.01,49.56,1.75,21.50,0.11,0.15,0.09,0.50,0.52,0.52,0.45
2.32,84.00,84.37,177.38,9.71,0.29,0.88,0.00,0.28,0.01,49.25,1.06,22.25,0.01,0.13,0.02,0.50,0.52,0.52,0.45
2.33,84.06,84.06,177.38,9.75,0.20,0.88,0.09,0.31,0.00,49.25,1.06,22.25,0.07,0.25,0.20,0.50,0.52,0.53,0.45
2.34,84.19,83.81,177.44,9.60,0.20,1.25,0.13,0.23,0.04,48.87,1.06,22.69,0.14,0.23,0.30,0.50,0.52,0.53,0.45
2.35,84.25,83.62,177.38,9.50,0.32,1.48,0.07,0.20,0.02,48.87,1.06,22.69,0.26,0.03,0.08,0.50,0.52,0.53,0.45
2.37,84.37,83.19,177.38,9.86,0.62,0.87,0.06,0.25,0.00,48.50,1.37,23.19,0.12,0.18,0.20,0.49,0.52,0.53,0.45
2.38,84.44,82.94,158.56,9.79,0.61,1.13,0.04,0.18,0.01,48.50,1.37,23.19,0.00,0.13,0.15,0.49,0.53,0.53,0.45
2.39,84.44,82.88,158.75,9.62,0.56,1.53,0.02,0.02,0.02,48.87,1.06,23.56,0.28,0.09,0.39,0.49,0.53,0.53,0.45
2.40,84.44,82.88,159.12,9.57,0.52,1.58,0.01,0.08,0.05,48.87,1.06,23.56,0.10,0.07,0.36,0.49,0.53,0.53,0.45
2.41,84.50,82.81,159.75,9.67,0.46,1.49,0.01,0.10,0.03,48.87,1.06,23.56,0.05,0.04,0.34,0.49,0.53,0.53,0.45
2.42,84.50,82.69,160.19,9.53,0.44,1.13,0.00,0.10,0.01,48.87,1.06,23.56,0.08,0.03,0.00,0.49,0.53,0.53,0.45
2.43,84.50,82.62,160.69,9.76,0.43,1.18,0.02,0.03,0.04,48.87,1.06,23.56,0.09,0.00,0.30,0.49,0.53,0.53,0.45
2.45,84.62,82.69,161.06,9.85,0.17,1.17,0.01,0.03,0.01,48.00,1.06,24.00,0.29,0.17,0.05,0.49,0.53,0.53,0.45
2.46,84.62,82.69,161.19,10.07,0.27,1.25,0.03,0.00,0.00,48.00,1.06,24.00,0.34,0.12,0.08,0.49,0.53,0.53,0.45
2.47,84.69,82.69,161.12,10.16,0.33,1.38,0.03,0.04,0.00,48.75,2.50,24.37,0.09,0.20,0.48,0.49,0.53,0.53,0.45
2.48,84.69,82.75,160.94,9.67,0.14,1.63,0.01,0.05,0.00,48.75,2.50,24.37,0.07,0.26,0.34,0.49,0.53,0.53,0.45
2.49,84.75,82.81,161.06,9.64,0.18,1.33,0.00,0.02,0.03,49.50,2.06,24.37,0.08,0.21,0.17,0.49,0.53,0.53,0.45
2.50,84.81,82.81,161.44,9.67,0.35,1.21,0.08,0.01,0.03,49.50,2.06,24.37,0.05,0.03,0.05,0.49,0.53,0.53,0.45
2.51,85.00,82.88,161.50,9.55,0.43,1.40,0.08,0.10,0.02,49.50,2.06,24.37,0.17,0.04,0.26,0.49,0.53,0.53,0.45
2.52,85.06,83.06,161.31,9.32,0.42,1.44,0.00,0.17,0.03,48.75,1.37,23.87,0.40,0.04,0.32,0.49,0.53,0.53,0.45
2.53,85.06,83.12,177.81,9.40,0.35,1.11,0.03,0.12,0.06,48.75,1.37,23.87,0.33,0.01,0.02,0.49,0.52,0.53,0.45
2.55,85.19,83.31,177.87,9.93,0.38,1.24,0.04,0.11,0.02,47.69,1.37,23.50,0.19,0.02,0.17,0.49,0.52,0.53,0.45
2.56,85.25,83.50,177.94,9.61,0.04,0.97,0.02,0.25,0.05,47.69,1.37,23.50,0.13,0.30,0.05,0.49,0.52,0.53,0.45
2.58,85.75,84.00,178.06,9.85,0.11,0.89,0.19,0.10,0.03,48.75,2.06,24.25,0.10,0.20,0.07,0.49,0.52,0.53,0.46
2.59,86.00,84.06,178.12,9.94,0.31,1.15,0.23,0.05,0.01,48.75,1.75,23.50,0.19,0.00,0.18,0.49,0.52,0.52,0.46
2.60,86.25,84.19,178.12,9.68,0.48,1.33,0.15,0.16,0.01,48.75,1.75,23.50,0.07,0.16,0.40,0.49,0.52,0.52,0.46
2.61,86.31,84.37,178.12,9.67,0.54,1.23,0.06,0.17,0.01,48.75,1.75,23.50,0.08,0.22,0.33,0.49,0.52,0.52,0.46
2.62,86.37,84.50,178.12,9.84,0.46,1.08,0.01,0.11,0.02,49.88,1.75,23.50,0.08,0.15,0.19,0.49,0.52,0.52,0.46
2.63,86.37,84.56,178.12,9.64,0.42,0.90,0.02,0.15,0.02,49.88,1.75,23.50,0.11,0.11,0.04,0.49,0.52,0.52,0.46
2.64,86.44,84.75,178.19,9.50,0.27,0.92,0.01,0.18,0.04,48.75,2.00,22.25,0.26,0.03,0.09,0.49,0.52,0.52,0.46
2.66,86.44,84.94,178.25,9.63,0.10,0.95,0.03,0.01,0.02,48.75,2.00,22.25,0.13,0.18,0.14,0.49,0.52,0.52,0.46
2.67,86.44,84.94,178.25,9.79,0.15,0.87,0.04,0.03,0.01,49.88,2.50,23.50,0.02,0.13,0.07,0.49,0.52,0.52,0.46
2.69,86.50,85.00,178.25,9.85,0.28,0.84,0.00,0.01,0.01,50.56,2.06,22.69,0.08,0.00,0.04,0.49,0.52,0.52,0.46
2.70,86.50,85.00,178.25,9.75,0.27,0.90,0.00,0.01,0.00,50.56,2.06,22.69,0.01,0.02,0.10,0.49,0.52,0.52,0.46
2.71,86.50,85.00,178.25,9.55,0.21,0.93,0.01,0.02,0.00,50.56,2.06,22.69,0.21,0.07,0.14,0.49,0.52,0.52,0.46
2.72,86.50,85.00,178.25,9.57,0.23,0.93,0.02,0.02,0.01,49.50,2.06,21.87,0.15,0.05,0.13,0.49,0.52,0.52,0.46
2.73,86.44,84.94,178.25,9.61,0.17,0.98,0.05,0.08,0.01,49.50,2.06,21.87,0.29,0.09,0.07,0.49,0.52,0.52,0.46
