0.02,-0.21295583121976894,-0.15006187194422982,0.5884177605105823,0.24691594027365182,-0.6313663764779717,-0.295056384547425,0.38124378233970235,0.7184271488365325,17.60320093136393,0.8516709710851206,-2.2656105401588587,-31.248536529641864
0.03,-0.2292552804921396,-0.12258958052569213,0.36801616153042976,0.025247524323711926,-0.3151096100307249,-0.2794724209166042,0.18861600992020672,-0.08412116975310913,23.384310847000698,3.963599026113716,-4.734968527849855,-39.207408506615316
0.04,-0.27618983960418114,-0.008568127666163251,0.4211774160298343,0.25837860917979766,0.13079944069140154,-0.3751845664504301,0.57761928438587,-0.7034648916154512,28.685962421467565,6.868936227173975,-7.358911328190658,-46.3008210603616
0.05,-0.2531321861457924,0.18382298091810093,0.6308950476311992,0.3208645781268069,0.5473071398827616,-0.3815682297423011,0.7838312454908216,-1.6599085027945486,32.99076430006231,10.04668994840433,-9.761997845942703,-51.606685735794365
0.06,-0.3452881194768571,-0.15850305369749482,0.494708229497021,0.20895554240281589,0.7872397956179848,-0.10852793468859101,0.4976850165829375,-2.3109923881015266,36.195884211941646,12.952917698189781,-12.331120502545428,-55.16331782265689
0.07,-0.38504190667772425,-0.26226582706406043,0.6186662167961028,0.06026635813265746,1.086808261320458,-0.24392259444625147,0.4663740515248489,-3.0464714032876397,38.12789355561382,15.707027380779355,-14.243706291658611,-55.94927350382757
0.08,-0.3106405350849939,-0.0253080923896684,0.4425713080734872,0.234369747140931,1.6905927505066662,0.018288159667727816,0.6010706732636089,-4.072846020647043,38.307527089975736,18.08382058660195,-16.174145556143674,-54.25157553071591
0.09,-0.4047416483957078,-0.15653970768047099,0.5441704205050346,0.017806508850756242,2.083424642533599,0.11168270375375879,0.5215303006569291,-4.78465722847439,36.66162402428105,20.1454327667606,-17.405675040964773,-49.2689093119552
0.1,-0.19335720449508068,0.028566334309453836,0.6640052269470238,0.16678852423978194,2.4096606252224126,0.15003906046611132,0.38958415563152016,-5.474622354269756,33.11935068978307,21.887268274420403,-18.438287103466816,-41.42313052067432
0.11,-0.4075184291005257,-0.07863498371649823,0.7252364633790551,-0.03646738787105089,2.8901194164885373,0.3296348579538949,0.07707863070843918,-6.175030596907339,27.587954367361434,23.417455833292003,-18.837078394688923,-30.084548404241588
0.12,-0.21540026965693249,0.04644222107206131,0.6745148350380944,0.07933623349880825,3.2145518770699586,0.5668305211241929,-0.012307136755432782,-6.754403804354022,20.115758338022783,23.55226872147171,-18.695449661643277,-15.87884180521435
0.13,-0.36626254082476495,0.004323736462143221,0.6580553439737398,0.1316472297079312,3.5339121772834874,0.6373009143188592,-0.30575290491486945,-7.132511011649545,10.513294053492768,23.567263236469305,-17.933261823789717,1.576344876429197
0.14,-0.3975682941858327,0.046864881246404685,0.6032947225273103,0.09927999901191506,3.6935752688163097,0.8721491986772958,-0.3621675494713241,-7.304282665297333,-0.8011469662891529,22.673725673946457,-16.665572289953317,21.216564803863623
0.15,-0.2617704982729293,-0.055370425602360177,0.5827908563325092,0.003183578458919373,3.7397592305450313,1.2422128129442847,-0.8548640806272069,-7.363177325474676,-13.579780113258566,21.03440390407084,-14.326574621192705,43.28023699710351
0.16,-0.1966055695301176,-0.21349618230874928,0.7984089599668696,-0.1304080112105053,3.7901962172810184,1.239710809380294,-0.8192203274601655,-7.150031939253796,-27.580215967693032,18.81445592948564,-11.794335945883484,66.82496676183158
0.17,-0.2888765958862558,-0.07748611451669878,0.7914270119277114,-0.08800953079492543,3.5600995597874463,1.624319020666514,-0.9540002657777081,-6.671101293271792,-42.63179799516424,15.552268667820293,-7.862596988437541,91.4512456454292
0.18,-0.24931938069760176,-0.23653977613401195,0.7336877851655281,-0.18415016202758247,3.3125672820168623,1.5349304165280306,-1.2999520854798698,-6.1180340072364805,-58.26512035676308,11.637505051285784,-3.9419242327463517,116.31551791524846
0.19,-0.05795907385726866,0.023078706056399056,0.49308428684212446,-0.18156722197105335,2.2310955580427003,2.0107288227286446,-1.2342409211490593,-3.6542686474227004,-88.71227445521473,0.9673034668710134,6.551442516071842,163.33398250325163
0.2,-0.12110559756654515,-0.07172913550002288,0.41997883682615594,-0.3356655688773471,1.2818480535725607,2.101643110341873,-1.4892379779336704,-2.373040092492619,-102.23324328962852,-5.38954540006556,12.569639441263904,183.782480328951
0.21,-0.11017073131418678,0.09831059666541173,0.5477659335515901,-0.5081735146624647,0.577143499356445,1.9574025124781609,-1.2055158979090213,-0.572560483251381,-114.31187018140221,-12.54328033537569,18.91478987392668,200.73595892678392
0.22,-0.03741434681757749,0.14002674317897845,0.38913161394460005,-0.24699326186950027,-0.4316353556452935,1.7675261892076342,-0.9383753252463869,1.390908216719045,-123.90277935818911,-20.042679632089754,26.039714024531694,213.56034560073763
0.23,0.019348984100355043,0.0757592665081144,0.5918552575094338,-0.48137552253056193,-1.5220930161421862,1.7822294027817227,-0.8191928481853326,3.4943426277710405,-130.58173868083458,-28.098731616133872,33.46658651076648,221.14898312159858
0.24,-0.033590898828930446,0.19996229079479216,0.608881145318604,-0.3413828488117516,-2.746876769883515,1.3487334764351122,-0.6355930359499325,5.779825307066141,-133.4457226283326,-36.90864608596284,41.27263398933728,223.0595080310345
0.25,-0.07923383853192753,0.016541382677550204,0.41951945688244846,-0.14480301256533012,-3.816329373860918,1.0041426177312376,-0.2300602341961624,7.979039290196573,-132.02425237059086,-45.26690544173242,48.602525563916615,218.10892890971667
0.26,-0.23707208592882134,0.08938494182019922,0.33581824327576404,-0.256137081549474,-5.336863326894466,0.5702848156058336,0.4818850610917478,10.022407687820994,-126.02587797463043,-54.050088378854795,56.34389092791334,205.85670002332466
0.27,-0.18253552771858,0.10887395912296091,0.3988495324685382,-0.056893322474868946,-6.428756679400333,0.18023906216340602,1.080446302890208,12.242746801513002,-114.70609332153867,-62.795083001873024,64.07042904033605,185.92815030864747
0.28,-0.27888148971095617,-0.10128638463813298,0.5780880109528828,-0.21221477582198014,-7.467906870029605,-0.6013230963055131,1.9137467963258583,14.141580477016097,-98.13427106631079,-71.09842428374394,71.10109182017226,158.05898620929054
0.29,-0.28143871534592646,0.19950413926328697,0.45602235756016335,-0.16964791174112034,-8.47041004416745,-1.2743048344247887,2.7451545779990014,16.06870329695965,-75.28527420138657,-79.0819143430316,78.14320406761641,121.87684966658962
0.3,-0.18501731768610333,0.1041231957764281,0.4017685252367511,0.06164613866718817,-9.30298628871325,-2.1457332051886917,3.768376598690428,17.261284088679076,-46.52341913661024,-86.51664199016187,84.73924450741502,77.65056300794524
0.31,-0.22392843421397635,0.1360658734268324,0.35986329392184624,0.10772719349798862,-9.577200597453617,-3.355569180594529,4.7440643157401,18.21928424893819,-11.695908430253827,-93.29053837650429,90.7377529203881,25.458389492987266
0.32,-0.4243007934419551,-0.1568649982873593,0.5217193068671372,0.5562480980870124,-9.743967369956156,-4.353991749682407,5.730681658349768,18.45419557240623,29.084756363425566,-99.32030319158824,96.0940348138442,-34.19585461581202
0.33,-0.5346232438034657,-0.006662449470661925,0.6217598675367944,0.49234519395024956,-9.35346149407993,-5.161631478975607,6.871282994757559,18.275997735209927,75.77573196335162,-104.28307670811769,100.86691489167487,-100.30461000561112
0.34,-0.4786113721612013,-0.14374155300521657,0.9561153726603069,0.49805764635260796,-8.46591332416163,-6.3192594234250175,8.144104679492068,17.20230063044355,127.70848598125009,-108.23300642567828,104.88917622306467,-172.29295488705873
0.35,-0.5793106941811845,-0.1037801179284515,0.7674865513238893,0.9413308304670899,-6.990011207622342,-7.563539141531523,9.344345149576188,15.537582734771242,184.930288777275,-111.0480907961621,108.23725647290665,-249.1185901261353
0.36,-0.7380544864094902,-0.3887713200746544,1.1013590289148636,1.074378711634191,-2.3799591903175616,-10.128537716703908,11.681468307535441,9.692291473314983,311.36864598134457,-113.19465850492948,112.40934580263895,-411.73093566264293
0.37,-0.6608871743359237,-0.18071363831759377,1.1576535107388948,1.232054583690493,1.091719393208458,-11.348633163815718,13.02145842225429,5.151413757373572,379.47196118277475,-112.27476052430589,113.40858632308229,-495.0047984695808
0.38,-0.6434225137450585,-0.5750575229410922,1.429116719220129,1.0297439313447658,5.223786336587572,-12.4810453880123,14.426821238963688,-0.2143695632581264,448.94223666577847,-110.23788374405697,113.75127763530237,-577.31748861873
0.39,-0.508143924082118,-0.6630433075354846,1.6531084916326007,1.1622005645865243,10.328049060403707,-13.787857828732596,15.465421733122856,-6.455955294302235,519.6239792248683,-107.18950987572438,113.09256568823119,-656.8998324847257
0.4,-0.39982405071273397,-0.9395227960073389,1.6798138635916366,1.192641919125162,15.656969990972861,-14.927999823563713,16.741081113268056,-13.35215788673066,589.7999607400773,-102.86715419583156,112.02336111599085,-732.3758774484504
0.41,-0.1719647707344678,-1.201856047177485,1.861597306241958,1.01422424661036,22.208834381136086,-16.12204886803388,17.792749543656864,-21.225169395339588,658.4276585408122,-97.86391348116554,110.28232503412137,-801.846954990006
0.42,-0.046213895307338465,-1.3251335910136515,2.1737735273642143,0.8788014366902354,29.34587770146507,-16.977424051698257,18.872789606852987,-30.0652534099835,724.6445160921645,-91.66242403292311,107.96400657703133,-863.7477172546835
0.43,0.19009790844765684,-1.4520495616236195,2.291985814921588,0.468308940228104,37.144299999235,-17.96287374243722,19.999543469850988,-39.45974941268015,787.1677863536627,-84.84592744799917,104.9991770184585,-916.4504441162599
0.44,0.6221940013007168,-1.6186600227633106,2.419135883500855,-0.08372654185959358,45.52138451395623,-18.959288212101995,20.69154658610712,-49.29486005576322,844.5632224738694,-77.49571779579344,101.75856139863549,-959.1556999299228
0.45,1.248411657300413,-1.706229205701404,2.852992734238438,-0.3089378244541625,54.64614681514407,-19.717207569076486,21.86960351331885,-59.8323662693647,896.2028282708185,-69.41884367230061,97.98557780122988,-989.8435910087893
0.46,1.665253708534352,-2.162768156654632,3.0723748088225475,-1.216531146297143,64.47525084520078,-20.458190037708192,22.436046106343145,-70.56630759167477,940.7610979429822,-61.30324433572388,94.07041749140367,-1008.0879570516428
0.47,2.462304924028105,-2.1653925524908875,3.1275623838431845,-1.6590543921800485,74.66927766405566,-20.86340698624533,23.234124705448895,-81.57226674298487,977.4142450759374,-53.14738990836328,89.44724145759784,-1012.9016127953784
0.48,3.1530815140546125,-2.4889620619425092,3.5430253879586115,-2.812252374759762,84.84524220867722,-21.220117128682357,24.049305729775927,-92.23134262321592,1005.6066883770535,-44.848803904366015,84.97236163106164,-1003.7719223176176
0.49,3.982650639595334,-2.646799736616549,3.780171918184748,-3.7005137482357866,95.55358838550359,-21.57948749157158,24.574886158175254,-102.93687351025578,1024.0682890410624,-36.63697966637749,79.74998337346678,-980.0366004412277
0.5,5.11954599861217,-3.0039227274102336,4.105052667677403,-4.622153328539825,106.36649985019226,-21.75297867386619,25.14185284508406,-113.37888030249287,1032.743595951539,-28.942168303956368,74.60113226705926,-942.5443014186658
0.51,6.406866450324318,-3.1997251006808836,4.1917280459164035,-5.941405381167729,117.2422827630376,-21.664519021707804,25.725084624924325,-123.23339892606349,1031.33131298872,-21.63638833569484,69.1909596796456,-890.7551862074574
0.52,7.53536082416731,-3.161247189850644,4.752152806831525,-7.1968905171567386,127.85226505561714,-21.929601277113196,26.13738735201943,-132.4505029157342,1019.1092520137171,-14.716294162721296,63.437301657829344,-825.4416421866794
0.53,10.3770206217811,-3.863389745613593,5.182577367856682,-10.393490761711877,148.40862485556107,-21.68800574783025,26.927857839650404,-147.94938277233373,963.7804683984948,-3.134075584318425,51.37750418834971,-658.5149509233111
0.54,11.959648703257624,-3.918673083130007,5.093475003792727,-11.948781913274875,158.30440361151608,-21.540122134852798,27.342106811773785,-154.42604947511114,921.0451327327688,1.7230294338760166,44.768472655660744,-559.2785043841197
0.55,13.755357807646433,-4.336263161421311,5.576765666442983,-13.688005309262934,167.1636872616282,-21.266364489113425,27.6089959410555,-159.53582868058814,868.6589751466286,5.827662522854498,38.32021064776511,-450.7983926630705
0.56,15.560194587967493,-4.284905141120355,5.734998282455152,-15.246896607681492,175.71450389863898,-20.89075089521637,27.702518815513724,-163.27657175762317,807.4643600579171,9.37829706098905,31.42194537285075,-335.9775244155465
0.57,17.662308191336805,-4.589927690718429,6.11120968331845,-17.17477910636307,183.3594931114969,-20.765897619968253,28.03615780667353,-165.5656287855153,738.2905360491402,12.148171323702886,24.18053575832387,-215.66487132122967
0.58,19.343197269724104,-4.931183743868267,6.324037427285484,-19.0021406909404,190.24867767561358,-20.353078122437818,28.40527949214923,-166.4706741508556,662.0311878376904,14.688211092618525,16.919283783326826,-92.7806281883732
0.59,21.51960284410749,-5.121524866280441,6.736457323921199,-20.649303255492796,196.16846155622056,-20.038318412750527,28.39986480011603,-165.99158379000292,579.8474665460624,16.31373589436206,9.343435504222219,31.611551567269547
0.6,23.514339778424464,-5.319059795510274,6.661408001516727,-22.556184301868885,201.01067136745132,-19.77927839875149,28.56909029519038,-164.23128756475356,492.8425141449263,17.87250214568659,1.8593693636036353,154.61997005479273
0.61,25.76579470747116,-5.201892071635977,6.948442552676944,-24.192710544295572,205.01183137814706,-19.354258874894654,28.772258868341506,-161.13168866278696,401.86842207143326,18.902482469073288,-5.714673317462687,275.11159425413
0.62,27.745533102053628,-5.557745968425265,7.32410736084457,-25.757824206996144,207.8892431859356,-19.46630329152326,28.78370430462625,-156.59415889292418,308.16270553809517,20.0925044066862,-13.067671311040746,390.57752509903264
0.63,29.890823677472273,-5.666682984429234,7.664237279964581,-27.446815263699442,209.7525500394724,-19.064547143152975,28.729646994417703,-150.91877097681825,213.83443265359693,21.005775743477933,-20.480083155947966,498.9231333294753
0.64,32.148547204582705,-5.916552656579334,7.930577546820578,-28.9571861771846,210.67690876078876,-18.90558954242812,28.70250339352465,-143.92760645861097,118.88861946835107,22.248303815294857,-27.41755412031467,599.1347007577453
0.65,34.2212324941856,-6.148770859816956,8.142144357758891,-30.191436699176627,210.48956098068885,-18.594808433916395,28.7433275429294,-136.29990357298013,25.316051999415386,23.650809398450196,-34.23992489099278,689.239966247636
0.66,36.348230079164956,-6.349089018223208,8.600629255610496,-31.56799421196236,209.1761967406612,-18.301715806865634,28.3635247809578,-127.49741820327446,-66.03647577250929,24.913872013530675,-39.82593130916576,768.464480312551
0.67,38.346870446809696,-6.509664117662086,8.954427075653358,-32.69016461186538,207.3598186565766,-18.567201813638526,28.23044836179008,-118.35792841527147,-153.95810407528367,26.753784405458493,-44.619073496589074,835.0657030059645
0.68,40.602300201155266,-6.5062009700325945,9.077454104636448,-33.655786079333936,204.4837817766688,-18.08012143096252,28.029751005293566,-108.5015121919545,-237.62917210661377,28.906398969538735,-48.38710933389392,888.6984267619156
0.69,42.40157565533251,-6.856540018827958,9.446240410035047,-34.63466170588397,200.72428012608123,-18.11037113597799,27.686087798129524,-98.18231825808022,-316.1789152200827,31.63988431651491,-51.19745417296456,928.9818330337168
0.7,46.51691670595611,-7.169013898034737,9.917368829253842,-36.22453445185412,191.39558292176102,-17.926133652415242,26.89989120994535,-77.4644275569779,-454.60761270892954,37.77301069646529,-52.46669236945688,967.8743804078185
0.71,48.028508980019474,-7.213918739202414,10.301970973453274,-36.62478056318454,185.86187513970378,-17.513063393043332,26.567525674875444,-67.1545205702675,-513.8040514612081,41.384821679594026,-50.428344972798264,967.0139391926856
0.72,49.95045391809187,-7.543430380930653,10.547081452203797,-37.304317873739606,179.85683475188324,-17.37039594569068,26.097287499191175,-57.09209588880055,-565.5309423475536,44.9127635666341,-46.4362919014306,953.162056009833
0.73,51.61259256707552,-7.741301018055725,10.661103619754488,-37.52314854106426,173.35742919962644,-17.20289854632328,25.718485798995278,-47.49672208243074,-609.8735350277519,48.37160087874331,-41.09238244344553,927.2601427121576
0.74,53.23111165821589,-7.805202949234302,11.185148790699039,-37.70499785665743,166.4007011781172,-16.916351101998305,25.292714204916372,-38.49633633894739,-646.7379488449494,51.933013887226195,-33.28300511965316,890.047523529965
0.75,54.73137026387606,-7.866633497456511,11.300321382406455,-37.896031795491815,159.53481728189803,-16.42030428485669,24.802594235445365,-29.94488464284334,-676.2164744787137,54.98526091206622,-23.483602327311697,843.2533317842662
0.76,56.25493501319469,-8.206857062434443,11.695920587217657,-38.20380142102652,152.6093753328265,-16.251834591616692,24.632702563910456,-22.29249897663698,-698.1832075925973,57.562288587232594,-11.604943716394711,787.5733908540836
0.77,57.701908415753344,-8.31298261282667,11.886269059142606,-38.31799963597987,145.6027054354444,-15.785569473032133,24.282087830335975,-15.312241171818966,-713.504891399774,59.426595905539465,1.9157682610154714,724.6623480322942
0.78,58.94005639139395,-8.257186609164542,12.128366858469887,-38.30541802057878,138.42120181645785,-15.149475035896282,24.39772272577492,-9.221449248961312,-722.1601389889765,60.30836136078716,17.153751758568543,656.1028528119409
0.79,60.26807440327589,-8.812680725136183,12.464345594090013,-38.27797990604852,131.09660044504957,-14.754089934096127,24.410702558630067,-4.122318043073141,-724.6712508713046,60.31035434630964,34.02129185369284,583.2234316072226
0.8,61.533707407133626,-8.967645146689541,12.579701609270096,-38.41365743933313,124.27333434885952,-13.891601558111457,24.770749640354076,0.41420055100437,-721.6256074496727,59.11686555930506,52.2836513702231,507.77668491971434
0.81,62.38949902953742,-9.020361295612805,13.03042909337784,-38.158978740825766,117.4246674984835,-13.296957796456454,25.11093350219272,3.6732737078024913,-713.633129625494,56.25971499853754,71.58907287338046,431.3662242962269
0.82,63.56695910167248,-9.255887345968267,13.230179977287914,-38.326286140160946,110.8914828218017,-12.71050397164806,25.427888666823762,6.501800873622141,-701.4871369752818,51.852600588765114,91.24796146826824,354.93964514282834
0.83,64.82352201537093,-9.333296491092112,13.506370916830614,-38.05313934242789,104.60433975387902,-12.282311251867506,26.486616555121746,8.476709787354329,-685.2772370463731,46.06349541185307,111.4009733179304,280.410327598196
0.84,65.6331775484165,-9.338145057991476,13.668580428744924,-37.991207121840326,98.11146116550721,-11.378423540136101,27.40736639424511,9.62028590869622,-665.847115445622,38.85265909565456,131.01999779360773,208.5688235598542
0.85,66.68072710726068,-9.433660095472327,13.993076726145391,-37.96664552848702,92.5669867152636,-10.936103259092464,28.719748764572383,10.368977052460743,-643.740651260252,29.642410043106405,150.31580305591237,140.67035100426673
0.86,67.55446670168223,-9.684604907471227,14.191002295078587,-37.87006040510304,86.43003294020966,-10.596053422453311,30.1686610001699,10.140328932074679,-619.852074666631,19.056862051181824,168.2383664063795,78.1084798940514
0.87,69.07589290162532,-9.950606547991285,14.983086413527,-37.87388054503845,75.72994189775375,-9.972229776474391,33.64210256565108,8.789969269331431,-567.6703880131579,-6.40555066246258,199.10370914802843,-30.107487236169682
0.88,69.97433512232116,-10.041228488311026,15.114961186776577,-37.89368590259607,70.5651816769705,-9.969788821596921,35.446600537250845,7.692167072183308,-539.8577105238409,-20.99290592582386,210.89103705712154,-74.6455665079717
0.89,70.41264562813136,-10.003932436161486,15.56064683264765,-37.7407936531885,65.88501311785555,-10.117311398707603,37.65194975082056,6.360019416258425,-512.1687367199961,-36.34277498313486,219.81704416441855,-111.92832168880493
0.9,71.32643851304418,-10.417385337219415,15.851105556083814,-38.02701914362795,61.27927768260676,-10.355949336806756,40.065366877788726,4.644076535564009,-484.4023576018168,-52.18796139072724,225.06443466804507,-142.68754964571892
0.91,71.80905195265933,-10.326787146237473,16.359657675471247,-37.89015373275219,56.94087339339778,-10.648677542603796,42.515385531955054,2.908598995531757,-456.5567166039515,-68.00346135544875,226.8973622318792,-166.45900725692314
0.92,72.37184709683143,-10.698132603195724,16.569073728119754,-38.07322402008052,52.90994833338841,-11.257008233242049,44.87740152646685,1.2121416119210668,-429.14570722223135,-84.04535075110478,225.00432680006034,-183.70082462315926
0.93,73.01207536732524,-10.382386650597264,17.218166234704814,-38.12373376303002,48.62879327179903,-11.884549784457848,47.22686704864933,-0.48768466320772824,-402.2034205373316,-99.41524240788569,218.98198531441093,-194.83116410058454
0.94,73.39193789706742,-10.524404908490371,17.621222582709922,-38.35933241685086,44.8407794014726,-13.077422526331125,49.63835884683728,-2.1330253727888535,-375.91878227579076,-113.88838445359106,208.7175163059812,-200.42402776776845
0.95,73.95548184721414,-10.501803244932448,18.1101354173282,-38.196297438995636,41.193428705204234,-14.148339064632196,51.82391455114388,-3.620042792007595,-350.2260277366823,-126.84183184397135,194.5818408310672,-200.98769353840657
0.96,74.41907940237235,-10.811929165655188,18.61594348966282,-38.272076075913375,37.825291503946794,-15.720853480614863,53.92548816208084,-5.2928617396167015,-325.16033983909,-138.16386376527296,176.39529775223284,-196.83117987710816
0.97,74.82524336672928,-10.76663489038011,19.287386550256375,-38.32452513519555,34.5848820299123,-17.219297096982903,56.168340592122654,-6.352195329989582,-300.3869306762859,-147.72025244600994,154.5270623584211,-188.98203178125968
0.98,74.98590247044541,-11.02582054321884,19.832195346593892,-38.5555129861807,31.462913060953486,-18.851806938187217,57.83259673135518,-7.506043368972635,-276.73347542883425,-154.56911570315688,129.2630715347193,-178.29275913162837
0.99,75.26970172552991,-11.231048133261245,20.53508386808398,-38.3781047681293,28.479337527805257,-20.72849236310846,59.13334014424809,-8.486551345409104,-253.2988084159915,-158.78450181605265,101.21455329183661,-164.9976300165154
1.0,75.64846263793407,-11.304255953694886,20.91552080542027,-38.431549209412076,25.902981305784397,-22.440755633662484,60.30730596805375,-9.12241910105381,-230.64378316764996,-160.00001165911237,70.52572938780679,-149.90294067324325
1.01,75.79747087729655,-11.68118927810637,21.461883229693992,-38.6251964703354,23.47365182800809,-24.376370462062567,61.0897944499183,-9.969355681134353,-208.7133436744312,-158.32187870924838,38.212208722633484,-133.7266538642519
1.02,76.03705939744692,-11.950285986762228,22.291567878309408,-38.803836685046186,21.053443384829574,-26.238428701963734,61.54085557215783,-10.45556667128679,-187.6139302176066,-153.12788142547643,4.653295849645918,-117.15635761520167
1.03,76.13818495017715,-12.234712428015042,22.79760536098014,-38.90215735911072,19.0437133618809,-27.89263805009927,61.56564692465175,-11.095400343396065,-167.04402571744458,-145.10733818771592,-29.48205199328856,-100.47704810079556
1.04,76.36520677778526,-12.589069441182067,24.086928796643456,-38.73483351996165,15.547940448481846,-31.3423250769122,60.24071357061518,-11.764500268667202,-129.104414328543,-118.94865307140644,-95.33789860343803,-68.76155643625364
1.05,76.421905916517,-13.054293661342825,25.000175886129963,-38.852668872986804,14.357822892733802,-32.521337796785566,59.42142707224373,-11.986655860770458,-111.65013693833848,-101.53957500816037,-126.18546143092594,-54.65009013442864
1.06,76.74435735170525,-13.43506849739204,25.651811249959376,-39.01412723177659,13.09202637261074,-33.57530759767024,57.94494828682864,-12.263195198398446,-95.70471543294799,-81.54549553379465,-154.1855993103489,-41.47133244962117
1.07,76.73937723180646,-14.091578709497632,26.024647262216735,-39.057747486590486,12.14057047157586,-34.47018157578579,56.18688517369853,-12.312997509154393,-81.31842638746788,-59.18224812646982,-178.5994757739729,-29.994486206553162
1.08,76.71673289256023,-14.079802199165433,26.676427695917546,-39.00727654892287,11.264105488649673,-35.22065583279974,53.8164743087927,-12.614850084329133,-68.49273326304552,-34.702298626634196,-199.0024861777951,-20.044887812366834
1.09,76.75334839530069,-14.746873932184199,27.00960282059991,-39.093896527457744,10.87148005329897,-35.61874500704913,51.51762269795438,-12.926270392825804,-57.88468279127321,-8.952154068671515,-214.7313803121374,-11.543872404471678
1.1,76.80594100743818,-15.002250145826698,27.8135085079312,-39.428739510196465,10.40160564627156,-35.41007067428156,49.053680673168614,-13.331424672538313,-49.14193398577246,18.249646842782646,-225.56081030494101,-4.755100645097425
1.11,76.98929115451058,-15.427995031045041,28.22941144960261,-39.54374719387375,10.047051793661032,-35.43118289952171,46.025464399775494,-13.539509955243096,-43.19857436833493,45.47729421236135,-230.418339369807,0.9271673249492464
1.12,77.12812877964244,-15.795206042923846,28.554275212118494,-39.60229313415367,9.892365955233092,-34.449593841270435,43.289221608414536,-14.021269471862778,-39.66836652866763,72.79700001740851,-229.7568925053262,5.358485604738953
1.13,77.3228538482109,-16.070964246240244,29.040027281461693,-39.74645471030389,9.791701214069583,-33.32239316110734,40.78716652808253,-14.55096658897217,-39.20010286608751,99.6950780275833,-223.16516128004383,8.154304520276273
1.14,77.27258240678945,-16.507441293187323,29.36703121197747,-39.8785050891833,9.579802644285628,-31.972132753325347,38.13367278533324,-14.88728906747967,-41.53754128362802,125.37451724427248,-210.5193353405345,10.579321558896472
1.15,77.38344897438145,-16.715726474495163,29.750492895080228,-40.22723092140455,9.232880304837305,-30.502281082696076,35.539577166003305,-15.252348235866757,-46.96403630094537,149.4679144346648,-191.95221730650604,11.921740020367434
1.16,77.30526233902917,-17.139824660184452,30.192865379044843,-40.18177937891475,9.104224967077572,-28.450212610540003,33.361882787359136,-15.663001606394763,-55.903072838831136,171.81583499474183,-168.06122539752766,12.463660862552809
1.17,77.45615225451056,-17.520830644586823,30.52445970820973,-40.50554865584602,8.736822222031547,-26.24037291800466,31.589134270090184,-15.984140642328994,-67.78318252126142,191.25215839456055,-138.95562011001056,12.645500122884334
1.18,77.62249255824514,-17.61429130232808,30.934171665800083,-40.57856803767745,8.200081259696493,-23.638260745804022,30.029692411257624,-16.47658551814237,-82.87965060054441,208.0460227113167,-105.3490436328265,12.254105758308945
1.19,77.5896026975898,-18.009297848198383,31.025437405714445,-40.62206284861894,7.646609081151646,-21.064937597495398,28.806286119880927,-16.94513803484161,-101.12349356948648,221.6079050195562,-67.7468444385143,11.742506641819885
1.2,77.83427870901801,-18.16416660838106,31.271785013836553,-40.875092510055694,6.762315599352862,-18.329088639044503,28.121231085117337,-17.140820598930226,-122.08428679758559,231.88741963937593,-26.947223893959546,11.095213661140846
1.21,77.75320420421276,-18.483149407208565,31.6060195493576,-41.51220406890017,3.8725755834263684,-12.947843607965948,28.20233368748843,-17.45830318420222,-172.84572916153294,242.0535858701647,60.317562475418,9.475354493755358
1.22,78.1246092603075,-18.382201356272947,31.926897581055545,-41.598521552762385,2.104643909124224,-10.279836885562835,29.287894737384253,-17.48073381818209,-201.76054976821501,241.63887335386175,104.89021201346674,8.487704974175697
1.23,77.86335371353401,-18.382445962237377,32.32192186734321,-41.851826788820404,-0.03369045561552006,-7.500276487069725,30.74268024955489,-17.57812276268377,-232.48121322332895,237.81355328560636,149.30661648839458,7.790600147917587
1.24,78.10947465082631,-18.48964302662232,32.51994266850996,-41.98843972793785,-2.7335241277664677,-4.833327052801161,32.717697557403,-17.200769114759805,-264.5687817490678,230.72129253743847,191.88119747580097,7.289335029210013
1.25,77.8315865570855,-18.550718484116917,32.82785464156212,-42.27766412998677,-5.6256812601710084,-2.458298021268282,35.28676022094486,-17.11425927146761,-297.9678087490317,220.67780546720715,232.02453103373594,6.754157214576065
1.26,77.99981911073344,-18.55546324661246,32.960480605394864,-42.65471748496289,-9.084581368784901,-0.19259531487203713,38.11680858553728,-16.723029545151736,-332.0603758326666,208.08074583380815,268.5965661594116,6.205452339028964
1.27,77.79279547451193,-18.439264821512825,33.48776691124062,-42.73072863521623,-12.833324159170305,1.827193170003026,41.78297836426833,-16.411697316769718,-366.16602963300215,193.21251332751936,301.0642543349321,6.3018564841636175
1.28,77.67038195512585,-18.362003964100197,33.87278956844502,-42.59607055924537,-17.150317827328497,3.767344810777563,45.19843564815748,-15.956039742615713,-400.02205584265073,176.20311481532582,328.8981542842575,6.655506373879195
1.29,77.47557947150692,-18.31460690467946,34.35489172357085,-42.95819932393892,-21.75803195959679,5.358519922986386,49.387672600815335,-15.476522709047018,-433.33147919581864,157.96842768352283,350.63071059760284,7.50728606323891
1.3,77.09729163737714,-18.15803359726424,34.96510023575884,-43.06698058081431,-26.67934040395711,6.768042829050875,53.51143423602717,-14.80980524384,-464.97841883004185,138.75905582193283,366.74252208227136,9.077395356181324
1.31,76.67541010820278,-18.228672494298994,35.43696301484594,-43.226840516575926,-31.64927473099109,7.749663457139283,57.85965788384741,-14.046738135186729,-495.54435548124536,119.01417267159304,376.49397575858427,11.156700204390612
1.32,76.54659905544716,-18.114109727414522,36.02225447970186,-43.47568575216773,-37.465167807526505,8.401783521978421,62.29999957610152,-13.56428770707468,-523.2861651172983,99.32875387367355,379.57973634949826,14.407306439424305
1.33,76.05233735021619,-17.94737165760217,36.74311756414654,-43.5509073661707,-43.01044427364155,9.143155442752414,66.63270552828162,-12.861160902776824,-548.8948380343782,79.92727457279699,376.5023094915348,18.965938788596162
1.34,75.701747175114,-17.886620266277703,37.685826795296116,-43.61732896817079,-49.09008040190889,9.604299687779688,71.10517894125483,-12.136612082691085,-571.3954931796427,61.41234890550175,366.75177810427044,24.930391483886716
1.35,74.98473201981969,-17.551549736964787,38.399900276177135,-43.69249646723181,-55.4124557871145,9.612862546070676,75.02605846890204,-11.409292286027975,-591.0050961914,44.05661332764449,351.44359778418703,32.326057472461045
1.36,74.32329958107452,-17.681254803915905,38.91214100253164,-43.79475865778011,-61.42204172155455,9.591232395137224,78.87703396596397,-10.63741202443645,-606.7641741779705,28.20895402557911,330.0168255662894,41.9646147606533
1.37,73.9372303933163,-17.531320971056164,40.03814876561776,-43.9658607464758,-67.92971727831875,9.372650901332719,82.4029921096563,-9.67659785547687,-619.0517785270378,14.224670596540545,303.8214357638336,53.56545633254323
1.38,72.0762766298779,-17.38955117000702,41.46355817473433,-44.009489725479746,-80.74318813081375,8.38667233023184,88.02533774470172,-7.908001029244646,-631.0517410165154,-7.8444731200495,239.61250398445648,84.90296529447093
1.39,71.12481187177494,-17.086454171159076,42.62165911359331,-44.07329018413177,-87.05549079442177,8.041966796891646,90.14596948802794,-6.617041874169635,-630.9102403763999,-16.116038794907706,203.12111678135685,104.70320434284784
1.4,70.11081268415398,-17.14291213955583,43.76395760111191,-43.98750855341051,-93.46740203166875,7.420245903842894,92.00270328844351,-5.728554864062376,-626.1269835403539,-22.15716037204956,164.66389638114,127.67974672312225
1.41,69.18473610084867,-17.19937504977737,44.802680885301044,-43.9328092042085,-99.59136751562856,6.845354724526121,92.95196381341312,-4.203647827928007,-617.1875566222344,-26.352310477808746,125.8680044545683,153.91264214848886
1.42,68.20606641283128,-17.151290069735666,45.73403219035913,-44.10501014342996,-105.54556099052832,6.338617471581169,93.77175133351686,-2.7832127737892116,-604.1061903830397,-28.760280039395486,87.3531005485411,183.27055866058683
1.43,67.01143406288537,-17.282275522371492,46.71369324768796,-43.89419597959542,-111.28398824011002,5.66743916967117,93.93525345995417,-0.8606413329037861,-586.7469836125306,-29.73026916177604,50.0925995572482,215.7332423407033
1.44,65.70761123334447,-17.026874013757613,47.80446357590456,-43.83514500984585,-116.65048379270533,5.32092674164452,93.85457851385702,1.301558605852939,-564.8225182959759,-29.469344438470237,14.784809272448793,251.28075409608817
1.45,64.60185936703873,-17.074886207121953,48.57912682512989,-43.94035068350681,-121.94101218967573,4.948310986304966,93.28101775600243,3.6400091723646355,-538.932781731306,-28.320408140090958,-17.286485632814173,289.32597460852236
1.46,63.442316507541115,-16.991464140113063,49.78259811076387,-43.705580955108275,-126.67626834462276,4.587078572381382,92.22602388100266,6.43458604369237,-509.08862316105905,-26.466945739104514,-45.632745833894155,329.9353252560862
1.47,61.94643261824763,-16.756509167169796,50.4182220774055,-43.55973181282109,-131.2521823715758,4.406659661576727,90.97395403868575,9.667822036911822,-475.2312355339318,-24.356270384724414,-69.79991639384724,372.3904380360449
1.48,60.51056666536216,-16.966076239784215,51.45206032380798,-43.7046629616071,-135.3246182390327,4.536705572734671,89.2496598816745,13.4130438985228,-437.6267328473753,-22.473218793926883,-89.07045795252827,416.3306910297333
1.49,59.234970745957405,-16.77980878637068,52.4390233242253,-43.409632999239165,-138.99984427434097,4.198806226783273,87.58670874835936,17.2964794171702,-396.71131492546954,-20.7931196491184,-103.29348637028107,461.17760357892956
1.5,57.85718557127276,-16.819570008248494,53.262470340464326,-43.003967665660866,-142.1630714859441,4.435225857102287,86.04378691877837,21.910710300688972,-352.5808529675007,-19.94059320280548,-111.71560953156639,506.14967191739436
1.51,56.33929905347104,-16.952282404975865,53.94843822095341,-42.976116905343545,-145.07792407314187,4.252704842116167,84.21712733458449,27.001245172019104,-304.8723112912541,-19.817473532646126,-115.34046867525716,550.4231067211114
1.52,54.884829081392006,-16.890914248216347,54.724543413302435,-42.45609804632166,-147.28989078080286,4.544634994575647,82.48442247227165,32.5243685782303,-254.4527869826638,-20.810795501837294,-113.55273664955136,593.0588855228311
1.53,53.460905631800415,-16.697239904573024,55.59934958071262,-42.253828541233574,-149.14896001736466,4.649108996410661,80.58435689675461,38.492415586943224,-201.2901161625919,-23.195305387900053,-106.6260538561498,633.3183726742269
1.54,51.82102923478825,-16.69661698394615,56.375216128643686,-41.935858389726214,-150.53534453745365,4.60536118310173,79.49531007311556,45.03889011992533,-145.76246971807745,-26.624344639761375,-94.92485040618439,670.6280512935825
1.55,49.205340207253315,-16.690051407903624,57.83107157018827,-40.760662438215654,-151.43021349230196,4.798898808120502,77.48346984732358,58.997815811782935,-28.609486304232554,-37.52436071028596,-60.9235386901296,730.945883886389
1.56,47.452897338856765,-16.528805419369416,58.58618825539182,-40.21725397736909,-151.34068098980168,4.789086801335154,76.58544310014692,66.56524185523685,32.972701258822546,-44.4701793662224,-39.59601143392128,752.7084402364933
1.57,46.04037544652057,-16.559117216571174,59.14578311401261,-39.55936822143965,-150.3426754897523,4.233997022745039,76.54504778974838,74.36617219203194,95.63106915923859,-51.98674710952737,-16.419358738760756,767.7608461065342
1.58,44.29541281423787,-16.5213066056155,59.82197864768653,-38.83427257168461,-149.18492784373095,4.191918958322834,76.74166567406103,82.27159748732701,158.90414445494125,-60.01657995659887,7.67347906781601,774.9929009924109
1.59,43.07295243260882,-16.306137621018912,60.65777685252946,-37.972620325941314,-147.00279843102678,3.8626049169475487,77.08049233955921,90.3751670992856,222.97092239245066,-67.91262114093983,31.366092798309978,774.5557466295911
1.6,41.69473228054959,-16.39808413727236,61.39921468725611,-37.080050470801666,-144.2299958421897,3.4525961808304344,77.97334793706507,98.63609299752218,286.94046816033295,-75.53284621211468,54.11720741463993,765.1927268480387
1.61,40.52327446690807,-16.258339495716765,62.16803878102097,-35.89466402193735,-141.080078390337,2.755945405089527,79.09693154683947,106.37708084321238,350.85289021069735,-82.09127132175173,75.15182839272786,746.5658592954607
1.62,38.963970236942124,-16.42388670178105,63.02248863001158,-34.82757463044106,-137.30671835901032,2.1476674274964944,80.35549842495841,114.11634707071293,414.1767766619658,-87.47931063540723,93.24494707841099,719.2535056274519
1.63,37.668452605494004,-16.365596152782658,63.660299053557694,-33.714533731672134,-132.74809809503068,1.3197199077261108,82.17405064033302,121.51238573227639,475.921645724036,-90.74475555613729,107.75454162204944,682.5226234620525
1.64,36.30339739896829,-16.230915802513827,64.43028509320452,-32.45152861222966,-127.84781056050691,0.43706672246996364,84.01807284689532,128.2435668317961,535.912027790452,-91.89669089805336,118.19604309173761,636.6869558730627
1.65,35.05842816706133,-16.173030553246306,65.23298403123658,-30.945554654423187,-122.18501297786186,-0.391522609674672,85.8461086632157,134.80389492707417,593.5714308828609,-90.18973539330126,123.59982735733269,582.1187374906543
1.66,33.84234516959691,-16.020603258408073,66.22798413543195,-29.596725905247474,-115.8548039614021,-1.6340881247967507,87.67704722384345,140.56762361528394,648.5516615207549,-84.80823166254554,123.88422755484603,519.0621268560709
1.67,32.75003386592034,-16.196027603505588,67.09147662358541,-28.0966486612935,-108.94461232632925,-2.2712300508372274,89.63474280293396,145.5154883061706,699.9845960646994,-76.00528586016142,118.51640769396008,448.3822339824781
1.68,31.61357628343483,-16.23822256607833,68.07322643385946,-26.45699902652918,-101.85619569837135,-3.4470406455548224,91.34152001425788,149.60492940443976,747.6869312819018,-63.214006408944456,107.38949201870251,370.6333539559408
1.69,30.83788241912065,-15.986150638119188,69.18981613874487,-25.069893963965605,-94.08577857539282,-4.074812341584636,92.64096944013241,153.15717936713784,791.2272271015196,-46.331678190030985,90.51972748819296,287.0825904111695
1.7,29.828176665083888,-16.062337875939765,69.98187847709687,-23.42395759201554,-85.89334472949513,-4.71007087254834,94.0427675906154,155.5723170178081,829.5060802423184,-25.184925951008164,67.67042117745974,198.72161388258502
1.71,29.03904022368851,-16.2143932103865,70.98021384360021,-21.85117861679481,-77.31557729185933,-5.065233743868191,94.73543560755417,156.73263169267133,862.6960989766093,0.25626470924827943,39.94440426103655,106.49864619998041
1.72,27.8021660978157,-16.329898928760155,72.93508175276109,-18.652404055327004,-59.23171679775643,-4.77208185116534,95.13349035850217,156.14927100988032,911.2400652321805,63.914849210039684,-30.556660910500348,-83.27464978782906
1.73,27.351927293041893,-16.1640372653971,74.16127518977305,-16.757204923796483,-49.890725382853475,-4.282280113798612,94.37804568311581,154.57426319373724,925.9491931062288,101.18240242888565,-71.75879152539459,-178.35462713451685
1.74,26.639199684512807,-16.488476702772164,74.8910816486163,-15.392549568541485,-40.36976924849505,-3.26877528145086,93.3435183129293,151.59287893689051,934.070519437695,141.76647683078775,-116.11635580409744,-271.73882449628013
1.75,26.409652116443464,-16.384867291043374,75.98897202640572,-13.766151432159528,-30.803430396819213,-1.9234421796605863,91.85257766445262,147.66904169896824,935.3065957185848,184.59582671211956,-162.906858145912,-362.038790418625
1.76,26.212777967301896,-16.402341699971316,76.77042683671642,-12.25785284332635,-21.24966763793738,-0.01588233086168328,89.41838093470746,142.93769215298175,929.7635389902689,229.59909726039695,-211.16395993080954,-447.93567576896396
1.77,26.194048593545258,-16.517279215673785,77.81912857460149,-10.932669024404573,-11.837678316926025,2.4011480267956973,86.46534613965113,137.33316570403716,917.2348417271492,275.54745375801997,-259.751199495899,-528.1196816157463
1.78,26.13201801973299,-16.391644802554875,78.92545222904579,-9.80472010385538,-2.6901084943286078,5.310753376460121,83.07365129268848,130.7323529801387,897.8440023643268,321.65937719692187,-308.50213781825715,-601.3772565406133
1.79,25.998789124147567,-16.40213714935622,79.61386527292767,-8.285832339969176,6.667751775255567,8.886926134031292,79.31724348720176,123.59330493996649,872.2161564824225,367.329928057588,-355.96458909721446,-666.8735696061285
1.8,26.131270803477623,-16.279565204875176,80.26094266349618,-7.480720344423178,15.359222608767169,12.650292053482245,74.6056353056574,115.87347329649094,840.1924385561065,411.2400975900975,-401.68471847035744,-723.4604596196885
1.81,26.640729967462185,-16.150726994140538,80.97183133741214,-6.053475172497864,23.595050504170388,17.04569819713877,69.4724950733416,107.39613979999052,802.1943517862667,452.608249336432,-444.6956555682883,-770.594469793094
1.82,26.900845143548732,-16.186882710170273,81.51677581387656,-5.237567777774309,31.55040655554425,22.04823121189079,64.08730877361022,98.93983897553653,758.9181818374842,490.0532662136106,-484.066545784964,-807.8117288211054
1.83,27.181892091600247,-15.729344618952696,82.26533239768257,-4.379117341474895,38.89818220114144,27.397695134062864,58.331061912324834,90.01939569389948,710.7949365650825,523.138181190151,-519.8629561929549,-834.6147974781975
1.84,27.6236774652338,-15.341463580501756,82.66308425769996,-3.565420833259656,45.8049063083454,32.935794301657275,52.308550698306895,81.11850720757056,658.338556537519,550.7525859047585,-551.2778065925372,-850.5762852709605
1.85,28.39643449935524,-15.19287415648013,83.27678058989271,-2.8102031179819433,51.99141269968398,38.84689376344074,45.8650170047556,72.04176320659263,602.4656331173503,571.983794652386,-577.7155299378743,-856.2128386056467
1.86,28.8822494807487,-14.68453018792587,83.46266571441917,-2.2886630901688734,57.74570376199861,45.07087873659878,39.405665623303534,63.039854878177,543.690611739748,585.837460866762,-599.1445205658665,-851.4555534006635
1.87,29.621156800145805,-14.063901701774743,83.89284383577805,-1.833768999753696,62.653778814312055,51.351864061015426,32.723344083338496,54.484110659278265,482.48878045110655,592.3133230606622,-615.0562964401889,-836.8521770716004
1.88,30.32836536004305,-13.77062431354296,83.9462363387847,-1.3006037065914489,66.55113873651744,57.92785697879829,25.990458083926903,45.9967728912077,420.16691680802336,590.3443950704999,-626.1755484362943,-812.5467266012325
1.89,31.66332581954833,-12.385951399238824,84.21068469267738,-0.8529111768577315,73.04622196069072,69.94611282067157,12.907618517014456,30.705766925888906,294.7380080776688,560.4275728902261,-632.2138238931685,-739.491005751006
1.9,32.65379986487942,-11.652137591269499,84.17969888018337,-0.5403152701881552,75.35446581409558,75.90212806096754,6.546231385560336,23.79697334430193,233.02101385780898,532.1150195065618,-627.6580140495015,-691.5255348411656
1.91,33.39982349960022,-10.663658499062434,84.19279241667235,-0.4374851129318704,76.70248775200326,81.26137827617787,0.348189124252899,17.420078172653305,172.70948630819217,495.19512402337244,-618.6762907886075,-638.36100177902
1.92,34.37654131477335,-9.921892983053766,84.33329744629751,-0.284569236651161,77.49521608377516,86.03704426176846,-5.850918821367698,12.021713464500445,114.89857981175055,449.53856458553867,-605.5208031793782,-580.0975413722414
1.93,35.06744685815888,-9.023139706656234,83.99087803531273,-0.3637885097429926,77.77712820882864,90.37813886572397,-11.43267100717613,6.900144100556524,59.47192998817963,396.0444709382823,-588.548241653778,-518.765985316346
1.94,35.82498845828502,-8.022965293776023,83.69515777615517,-0.3779251221850478,77.6805299338109,94.31976738988247,-16.87568929646393,2.7716813665031923,7.5972040404860515,334.8999842077466,-568.1733272248134,-454.8324916926307
1.95,36.54321354520276,-7.062800152970786,83.43884516325832,-0.39279332206530837,76.94131044043081,97.15343132196983,-21.91596068991052,-0.8896679836165368,-40.447080655937555,267.58171928123204,-544.8689382033654,-389.8502504239641
1.96,37.40320689779278,-5.98892618610072,83.22504371528898,-0.3868936237949146,75.62516514602878,99.37809646204434,-26.59291122556278,-3.590952696920398,-84.81647260405731,194.4118404518715,-518.9672112484719,-324.67832775557264
1.97,38.00445012976541,-4.825467482760112,82.66445745430644,-0.3658219771368923,73.96023214500516,100.67598556390382,-31.22760448031903,-5.754670043140331,-124.60403510169053,116.46777478892386,-490.7645359397276,-260.88820108619853
1.98,38.602147980333285,-3.846556629419892,82.57149916075771,-0.5320930466222527,72.07256587167777,101.33059755839521,-35.327846679707136,-7.344548027779232,-159.92655542889005,35.18692144996677,-460.7588868417999,-199.1245173507597
1.99,39.33862865006504,-2.6805816718092172,81.94636749816705,-0.5057512894147437,69.92101473666882,100.92570032898665,-38.81853420525098,-8.364220755054632,-191.0510689730478,-48.178931100705896,-429.3567870220337,-140.5960048297916
2.0,39.95696442282616,-1.8527969658151393,81.74237802404602,-0.7357703785310084,67.36675364659405,99.48733134695374,-42.34685946305338,-8.791429741821636,-217.83474620576368,-132.64133330978242,-396.809147830858,-85.84869948140081
2.01,40.54857988325068,-0.6570462967097314,81.1387908359441,-0.6317172231865625,64.8557475599184,97.27102856479749,-45.42768573004399,-8.587356604414648,-240.03750894143508,-216.86009470480315,-363.22632937457314,-35.924177847148805
2.02,41.29703652795155,0.2023625052324165,80.69829399362379,-0.8542033869371648,61.740996715453335,94.0703210073439,-48.208936466659026,-8.230168192190574,-258.39366817744764,-299.38306796520146,-328.21243443502647,8.916620420425728
2.03,41.871293469542785,1.106044696559793,80.34730711766993,-0.7862413665099861,59.15547218344914,89.99864682817564,-50.78889101213811,-7.500919317951657,-272.9895311735747,-379.01712551301324,-292.719572858491,48.14946124285946
2.04,42.40359358891581,2.0942635674869905,79.80460079717568,-0.8233479768834722,56.225105558871356,85.21272536190953,-52.928012676328,-6.393555856125591,-284.15176361488994,-454.0005003809872,-256.36141148997876,81.22671704642211
2.05,43.05292622327852,2.894180768078759,79.23267124300153,-0.9119155132380101,53.27676627013441,79.58009111914939,-54.71141538732809,-5.050801642751331,-292.1928637418279,-523.7071789080027,-218.9255095046503,108.54384883751756
2.06,43.896258996513765,4.350690556407671,78.31017019892452,-0.8943671457832018,47.58823966794074,66.4129852963317,-57.350429325472135,-2.0191832628202753,-300.4945952616482,-642.5819249170318,-140.51535029697718,144.51836501031823
2.07,44.263366498809866,4.774861744857724,77.6369062036165,-0.9447450037288205,44.88345800550116,59.11854196472999,-58.243125637442965,-0.6021447090900498,-301.6148897235534,-690.1134815263482,-99.06347594951819,153.73016606444804
2.08,44.2905021956233,5.443228575916194,77.3069613299527,-0.8387264659291777,42.0218213972032,51.43721460273095,-58.795251301958025,1.1414690822533715,-301.2021096945735,-728.1791538777812,-56.405468266828095,157.4745167576578
2.09,44.810992584588725,5.8169543093797484,76.63753829860053,-0.7072852406237055,39.33182813744365,43.310490640332446,-59.038492034411796,2.3787292183903115,-299.6383650470397,-756.43047121116,-11.579520686735433,156.26738720084725
2.1,45.20632324080902,6.110584949161332,76.17413211536942,-0.6238282608576828,36.674584501562485,35.1691312547988,-58.95586643714573,3.4352364131991555,-297.6421678868626,-775.0016739228976,35.0527731354361,150.4402892127267
2.11,45.54299042707645,6.300563731199406,75.58369188926571,-0.6323809211453109,34.054001490568524,27.095678841966812,-58.1860753546253,4.980778485423272,-295.37059034248284,-783.021829672246,84.0369409163671,140.37760805096931
2.12,46.051865791861474,6.4792114648304535,75.00028393048765,-0.6584087039414857,31.402670799587973,18.855250222823102,-57.08719927714451,5.936737131422358,-292.51035054562874,-780.9519642641595,135.23525958947744,127.54508775270169
2.13,46.30185238780388,6.335459560531614,74.49072948970982,-0.3679245234435002,28.851311302597008,10.806349995887516,-55.69726111092472,6.941785844725534,-289.94488113422943,-768.468673728871,188.3721376039558,111.74725242793743
2.14,46.46830192024034,6.833140215060865,74.08491656660222,-0.40975264272216366,26.474881368605708,3.1654127327686186,-53.86191883658799,7.369804596440208,-287.4893007657637,-746.3845876254342,243.92007054765904,94.17439922069244
2.15,46.77672701922844,6.690749540810336,73.42163019720866,-0.38557448974308134,24.10056171038191,-3.6424370552267717,-51.21533469759598,7.934219841192022,-284.9838562160869,-714.7798474438055,301.44884249145576,75.27066806065433
2.16,47.04226221415639,6.29954153436953,72.88956744675953,-0.19950959254484638,21.339585058512856,-10.632662298947729,-47.95644713159225,8.193842808609432,-282.6347212011424,-674.1745052821251,360.69309165279736,55.182042163767385
2.17,47.17101419457278,5.985997622847129,72.45507652726207,-0.1551141790256036,18.914063615913484,-17.03566225088791,-44.2282528187086,8.269839318223232,-280.6029726271869,-625.3651136986019,421.12126351475007,35.27825873436843
2.18,47.31086236835205,5.918052948288121,72.13274529458138,-0.00672846717966577,16.17163311792117,-22.604745749336406,-39.83299519303198,8.160717746366583,-278.2725906190434,-569.6772136531423,482.6372210614078,15.666225456727373
2.19,47.77158953921806,5.76589917432646,71.82307378822605,-0.04039491126978965,13.7205187618897,-27.569906535416592,-34.99119037687517,7.677818969755531,-275.7053110552991,-507.3312298793936,544.2473037134093,-2.776796193919567
2.2,47.72342988958905,5.261376285018463,71.3400088526777,-0.11861922809181796,11.145157674503821,-31.6197047664759,-29.26292985286841,7.6329259434552075,-272.8926100461823,-439.5894620670396,605.9882208983739,-19.756676882025943
2.21,47.64220953881541,4.89210302265522,71.2047991060122,-0.021999048762718534,8.364083423535156,-35.11131776468889,-22.97110831195776,6.713523633328616,-268.9985182031073,-368.0668316550101,666.059953563542,-35.109612384089104
2.22,47.77173670675388,4.6954228693849815,71.07655031660563,0.1434769601855478,5.8919109211435945,-37.744306784928305,-16.09310466576352,5.97108666076272,-264.4620161356646,-293.16165204999777,724.3149848351372,-48.23645320580737
2.23,48.16108427596005,3.7278223033197713,71.02748133144651,0.25578196021455296,0.644455625794563,-40.7879895788958,-0.30714645237777616,4.614998852453083,-250.2477752361048,-138.23173307949378,831.1634595809086,-67.83647593305413
2.24,47.80358463662849,3.5050151474515303,70.63758197473095,0.13111537571611853,-2.1649401060063465,-41.10762243035751,8.199046791268056,3.874625014419714,-240.19325766481637,-60.46819140686392,877.7010826022857,-73.84890494076593
2.25,48.14230114167119,2.8081940592851704,70.966065085781,0.20864944428139534,-4.811676397204729,-40.592057545632954,17.379909475801515,3.0790342039865473,-228.17267989384237,16.34373449309435,918.1044103708651,-77.24632723889238
2.26,47.929516219175305,2.6566461646873387,71.02271479839436,0.23277060364358565,-7.055316330270766,-39.532859138149185,26.961571284807743,2.4470585861004905,-213.65653328701802,90.67657182109251,951.841171836465,-78.39552868125739
2.27,47.80663537381981,2.34097444285773,71.38444112674065,0.09083455832393571,-9.469868723341978,-37.59710080406546,37.007289545631444,1.7411007957478148,-196.13430926729714,162.056713494582,977.1724844582212,-77.17547288020606
2.28,47.75346923156519,1.8929657455599123,71.84819291474885,0.3051341030591705,-11.598325200025519,-35.199735764659266,46.831169759343794,1.0603911280688212,-175.78754770552956,229.54717672135095,993.7845197085376,-73.75522636337327
2.29,47.513394091810966,1.5737428713160593,72.4444643538661,0.17616598470594355,-13.257793142445674,-31.825754512927826,57.081215998975985,0.6111573762698891,-152.4461591139503,292.92249689223803,1000.264638154173,-68.7049569751566
2.3,47.377410792293965,1.2026157094019705,73.08235490999564,0.1623140553130956,-14.8954340321845,-28.377688032792754,67.30815525383031,0.05142771655901801,-126.376662699526,350.81017518807516,996.3893548691041,-61.76601322877756
2.31,47.257911422228084,0.9686505141986751,73.87377472901373,0.4239939892135741,-16.282120529585608,-23.99221831641784,77.66847101769804,-0.05929648280284361,-97.12688029456358,403.0579375558856,981.0967779325786,-53.79067075238324
2.32,47.232396361890736,0.8097629404066702,74.77839878197152,0.4327241764643686,-17.279012465696162,-19.220816024100955,87.38810231585785,-0.44308669648821075,-65.04452915968658,449.34001635905014,954.1297909776678,-44.46804940601215
2.33,46.82345652814299,0.7516814861139307,75.7703517330087,0.16719558745217272,-17.684170635649664,-14.564209260775804,97.00149838740094,-0.5387041195418621,-30.43370932513972,489.23069708221266,915.3544193979709,-34.53122254396339
2.34,46.57437231541951,0.7001200233840668,76.84118323940731,0.2664494675756488,-17.858052507125656,-9.01182756338446,106.06873630775083,-0.6769749881474679,6.717025265715315,522.9037810877139,863.705786510455,-24.153412745092492
2.35,46.49425445276953,0.37172337381953535,78.1481829842973,0.38405548198729744,-17.69759228976013,-3.7538904503599784,114.45073421191417,-0.7385639099197492,45.90069770574278,549.986285951009,800.0481339743868,-13.810483942954743
2.36,46.340880531646235,0.5111872400062821,79.19878468578534,0.26984086120048156,-16.84870960238962,2.1303275096575818,122.1010833505486,-0.5043201621980503,86.79906807865531,570.8277491199804,724.2792639957017,-3.9804839347264673
2.37,46.13075899704626,0.6118701013460126,80.5356335076732,0.10983546258376252,-15.723858307698855,7.764574271555231,128.64401945447128,-0.37761471764536664,128.92635967813467,585.2363423228194,636.8029615135778,6.006519193551689
2.38,45.80374535947722,1.0059610817600482,81.86507675908793,0.057282939930222654,-14.052071672388342,13.712877444587708,134.28830264178112,-0.09257190220810463,172.0141799711442,593.237756297464,538.1728491984835,14.857413810895867
2.39,45.66837550262811,1.190688680943728,83.13194888849283,0.3536516140893839,-11.933246895549805,19.493188770460144,139.04421960886393,0.24211691978964234,215.15548838643528,596.2205543267632,429.4835596270763,23.10001998869635
2.4,45.68454413686768,1.6702720577864747,86.33435434521658,0.4777230250987051,-5.9558329268006585,30.876369613441792,144.40696660069034,1.0966735044358857,300.4251781908224,585.5486228916661,184.6898485084874,35.91598098251196
2.41,45.597104383606904,1.9747673836708304,87.63479117930136,0.2803606633485101,-2.199537419428134,36.497546770552404,145.13950191657426,1.45693859041389,341.2101397188854,573.2566164036263,51.28746435479135,40.27673823969892
2.42,45.70725417283892,2.4416833187172653,89.11758609634543,0.4613468262356487,1.9119540815125065,42.0423284432314,144.0967595949008,1.863018972414979,380.25921074803085,556.7769139464999,-87.55900349933408,43.330795247809874
2.43,45.62087371695463,2.9485449026476376,90.79088774696945,0.36890677585375103,6.216851368698202,46.91838304062553,142.05424834748143,2.3440237411477276,417.0457684283444,536.6216260055072,-230.16742955164142,45.00570482720461
2.44,45.74103578471659,3.2616163696141984,91.92956594469167,0.3414908405863856,11.011149887361825,52.05926285375327,138.0055091695086,2.806843296704352,451.01676019892506,513.3934519636097,-374.688752362414,44.95112906375344
2.45,45.70447975861979,3.8967706601159406,93.20690809291824,0.3358663435141116,15.980438064411342,56.793046482330105,132.86054531789625,3.096519960933557,481.45730763401974,487.50281758789106,-520.1356892167357,44.12851461346483
2.46,46.12421691809688,4.620610988679098,94.66133730564884,0.31116345239074433,21.488003464607782,61.1411697050211,126.16563013548432,3.336142664291111,508.48570568027833,459.3075393262138,-664.101606507972,41.65984238757777
2.47,46.23236045791702,5.128949598912146,95.89516107033079,0.40389579869947045,27.21562625269552,65.53149402433945,117.98815794521775,3.510087303645857,531.4234047231495,429.35736587832827,-804.7564677030781,37.84262175772291
2.48,46.73648874359366,6.027616325725409,96.91380430448989,0.6146257554876781,32.879542180373484,69.26493346108906,108.61961143057064,3.827019291329191,550.1546253976348,397.88506725069817,-940.6448453132111,33.23796881653372
2.49,47.080589617377484,6.580995328004291,97.86168092014991,0.4983823756744477,38.83843955128816,72.30497608909101,97.42727196773238,4.129766979456444,564.3662390217079,365.7326646492025,-1069.6404448787343,27.600645116598773
2.5,47.554293727903335,7.497495334507548,98.78575480501286,0.8386029856880652,44.96835890573735,75.88591790840361,85.619213616586,4.17906741793873,574.2629482873044,332.5522798262651,-1190.562246025007,21.043069671205586
2.51,47.945425428371934,7.958702357321925,99.46876157853289,0.5994596921802743,50.97034018831114,78.83063879103254,72.05458453741188,4.3068539483082535,579.271376570124,298.6850084656892,-1301.0821141667097,13.976244252083395
2.52,48.632617683169435,8.940498393135867,100.06436206130634,0.6394725717843556,56.72407677663202,81.4223624134926,57.91334215472504,4.006479175935418,579.7168248755659,265.3237814887657,-1400.6218739065407,6.372393856508854
2.53,49.20320422955582,9.876516511499757,100.41098783437371,0.7110551540702758,62.414750972809685,83.82226727658612,42.91117691405529,4.053720343857293,575.5644220252577,231.72868345646262,-1487.2651567275843,-1.2649383695671075
2.54,50.11492117424735,10.650744064347457,100.86858676936666,0.611994976667293,68.02758973841689,85.56008808140761,27.229982963890084,3.8721822988319117,566.738010850561,198.21502799284102,-1559.7197407931503,-9.218580034846955
2.55,50.730412895721905,11.722724437189829,100.82439526768809,0.7077027387546959,73.56677435047904,87.32888436129366,10.965922379470511,3.573793294293528,553.7464924433765,165.15513797191736,-1617.399890947642,-17.29427010251117
2.56,51.61740967205512,12.515663243293,100.64441726841243,0.7956188123566754,78.85280907300458,88.66635363869032,-5.956286311865001,3.360134674416456,536.5173818491888,132.51902339695263,-1659.4960738116088,-24.983713973389182
2.57,53.384798549795306,14.215723470362725,100.22364494168151,1.027184176678726,88.51515620241561,90.34010064228453,-40.006221704626604,2.7077613752425087,490.9383960911658,69.41108040124183,-1694.7096861602633,-39.352093383198415
2.58,54.534807049120246,15.137088537974195,99.64308103270614,0.8254805401237056,92.80025598358836,90.91848440832706,-57.001779678033635,2.2270916846915947,462.95742101995273,38.5773455937283,-1687.2832890299471,-45.72948460359601
2.59,55.42810120240608,15.99998761716377,98.8424156054441,0.9430441556686076,96.73600964006808,91.28060521104493,-73.69898598461614,1.8402517384846453,432.0506182482433,8.743211419406794,-1663.124378857992,-51.58129735164352
2.6,56.30740197379541,17.039753717699433,97.94837383393258,0.8185732483781304,100.62930831026758,90.98367181172884,-90.20453091493326,1.2466254492353954,398.3861797176808,-20.749478294462282,-1623.0001981896878,-56.592042218056875
2.61,57.32569690047479,17.848404904564468,96.98048066128256,0.9372490928742124,103.87545825088998,90.74642821879546,-105.71530518645777,0.7512758164664549,362.60598989367116,-49.32507225921023,-1567.3481327038958,-60.79535953372822
2.62,58.32433924366195,18.637469558022797,95.67475794695834,0.8762893860008849,106.74402376208455,89.969155288214,-120.9869527665293,0.10948844598652488,324.90171318028996,-76.96928611595061,-1496.5004687742012,-64.03798671318273
2.63,59.37998855151622,19.58895423762166,94.26501153892251,0.8548407096389591,109.22395330734928,89.24830904411071,-134.89150501648805,-0.5913067621650387,285.8484768266123,-103.95207543731705,-1412.139642531203,-66.69477755607944
2.64,60.72694678084413,20.511577622439734,92.65958527327503,0.8310541760498624,111.6227984232956,87.71971707411126,-147.97819891969417,-1.1081885972331997,245.31251068494112,-129.80595154212367,-1314.9606461142882,-68.13770325774725
2.65,61.67244624204778,21.42195134032825,91.14258272563147,0.8129711872649801,113.362348013014,86.54747699106309,-160.24815488680284,-1.712328988450291,204.25513140077823,-154.94233293177888,-1206.339463101877,-68.5349254830014
2.66,62.9867143659124,22.10822266873759,89.3412147606383,1.031078504741135,115.03697872681282,84.84075915931511,-171.13691524358782,-2.381338517918272,162.56886397005903,-179.18016652456123,-1088.0619816155431,-68.03836474908746
2.67,63.89272660727421,23.17502174529752,87.542403614699,0.8304116828795808,116.06390949005161,83.0249339661905,-180.69289705926275,-3.1890624516519157,120.69281163696671,-202.21271560256216,-961.508181882114,-67.17017976207362
2.68,65.08850253172196,23.91087394834843,85.7378071623416,0.872996361866385,116.79905141232454,80.99266996643105,-189.31915818703104,-3.746376423084747,78.94668186813443,-224.23060598412408,-828.1496123777872,-64.95440853318404
2.69,66.3232487611704,24.615204185711736,83.77805582158635,0.7454344968080115,117.31871962145443,78.6389664186396,-196.2573127982808,-4.488958314593794,37.598565930176065,-245.23560800060125,-690.330864381441,-62.11718469620867
2.7,67.3955498743641,25.244265804047913,81.84633736187806,0.7343817492833072,117.37127510967694,75.84608615342175,-201.84341439105506,-5.03469954930231,-3.0532329908661118,-264.51959181276635,-549.2073254960537,-58.78127594235579
2.71,68.53156008020291,26.184869201784558,79.73850961934393,0.7286564168161097,116.96982075145719,73.25133776637033,-206.0535824336114,-5.421284562297372,-42.55822192978635,-282.18044007963994,-406.8764185325564,-54.47851906825742
2.72,69.74346699588183,26.863082501667588,77.4563084156794,0.5126539497317285,116.54394401350748,70.41942164981917,-208.6085922672517,-5.970836911873496,-81.0641514071998,-298.5438968502058,-265.34872970174206,-49.77707051878122
2.73,70.9604158724882,27.395879736716434,75.71319069536868,0.7014094439418646,115.83935278386154,67.30198200981876,-210.24007844384818,-6.500580508545081,-117.90411687591384,-313.21135111595964,-125.9228856886363,-44.54127340596799
2.74,73.26156047076205,28.781171417805172,71.14949959012354,0.4277546881030066,112.63393639932195,60.54659677120718,-208.7904222905538,-7.390244429288788,-186.40437030605835,-336.1887734450806,139.04106718030746,-32.869647305608915
2.75,74.10737672350716,29.503170837436738,69.33246961680919,0.233560374442008,111.09053526414927,57.079256852098325,-206.2240304456002,-7.493382644834886,-217.66261797049916,-344.81432209247833,261.9709860964996,-26.851087828438146
2.76,75.27920388701546,29.918926836683436,67.23801318691874,0.2275511475108973,108.89731020390745,53.589978324030206,-202.32049145528845,-7.804926164797052,-246.42206394545244,-351.34320448831045,376.5519148624447,-20.92073272563607
2.77,76.3163009129665,30.512257242425083,65.07776978867805,0.3575445932507718,106.52043232696157,49.937750672012356,-197.54214437081336,-7.968354869533632,-273.03408677613925,-355.46053879856504,481.69138335206156,-14.665992157026357
2.78,77.23385425133618,30.907631736284255,63.36766034803914,0.23976647714533952,103.8779107071631,46.063565635767986,-191.60898172891066,-8.257824031163626,-296.79172667859365,-357.55146497971066,576.5453144166879,-8.490662079702252
2.79,78.3880482926213,31.522196316762944,61.46721902861258,0.07840980670700982,100.78016478862097,42.4377087498684,-184.89981914999288,-7.9716055271248205,-317.92768722965087,-356.9998043260007,660.6424092622851,-2.645757547381456
2.8,79.41045145131127,31.691027312487503,59.772638248792255,-0.13414131030190093,97.59992966572167,38.71466994466121,-177.43244878495233,-7.924217330681279,-336.5168546745932,-354.7137635749597,732.9048165405744,3.245824692739091
2.81,80.37894390331806,32.21704040256855,58.10990397462674,-0.12853703884573112,94.24365080535127,34.99068216690646,-168.76408221908437,-8.132866634617,-352.0789634144968,-349.7059494042218,793.5280904326731,8.579305525980633
2.82,81.23222569631963,32.40079064317457,56.36188639461274,-0.3901899648894902,90.5261132960152,31.555988692579316,-160.10107628101755,-7.964054505605509,-364.8280347999208,-342.97911751768174,842.2605343243619,13.723754198386576
2.83,82.30051522799819,32.779613008430886,54.85381009947486,-0.28762250974900816,86.89378624768882,27.939637473648745,-150.90918342339822,-7.810894365666136,-374.6996657669287,-334.07519296853803,878.8897565024148,18.34022401351477
2.84,82.93423187100403,32.95191197512535,53.567247340560215,-0.42812480160296235,82.74607226696642,24.634789912905422,-141.4627641446845,-7.581748913654825,-381.8903626339105,-323.3124010365648,904.4117667854998,22.586837339500608
2.85,83.81670760332634,33.193080997646824,52.19095293784982,-0.45248026738931246,78.856994319266,21.27443504621981,-131.60753112711728,-7.422497460141363,-386.38205953073265,-311.0252318749345,918.7626477811651,26.35032665172852
2.86,84.70481236258316,33.389953019230894,51.076374113013884,-0.4908562695494985,74.35785458229837,18.184008588560157,-121.90326472505095,-6.701990122002836,-388.0797266690179,-296.9389593028001,922.9079443944221,29.445273735078644
2.87,85.28114974859469,33.46314675317587,49.85150334355183,-0.5641458426549871,70.13269692899682,15.526285401699301,-112.02952704666227,-6.41543762350331,-387.4614544323238,-281.81580824542175,917.6537963378055,32.39385571028641
2.88,85.98407277625414,33.756056905581566,48.867190785191625,-0.7557095847517108,65.7827075544411,12.322886592703254,-102.4291466223542,-6.110304680734456,-384.67086765248314,-265.91827860925264,904.038188304693,34.58709447527862
2.89,86.87884679661524,33.59389703957279,47.93176359602721,-0.5997635997603054,61.466211738765644,9.804408381304118,-93.0163683928886,-5.414505993251161,-379.9751267508239,-249.08558123467628,882.7090071193958,36.345030694299574
2.9,87.51020150530208,33.66674628156731,47.10411401836328,-0.7402909562052891,56.97084995618618,7.735094056493977,-83.97159193478302,-5.074518464027237,-373.15578356311295,-231.8654552960227,854.9477506535617,37.864699886982486
2.91,88.4053862614876,33.73457188399906,45.59896106827584,-0.7838243077457965,48.86829759249257,3.3396706285696847,-66.9703165451452,-4.047577869795745,-355.4353290711344,-196.9563915656227,785.8935381473386,39.41250167541907
2.92,89.04854804952932,33.66094720552695,44.96743590588293,-0.9800457428691199,45.02241928024566,1.5011070396508903,-59.509819589299426,-3.6581334243645487,-344.93970636134384,-180.24979271791574,746.9156037485966,39.49562272364049
2.93,89.22123867855038,33.81942395104142,44.48948769399651,-1.0652979120670658,41.02781567956951,0.01255679159311597,-51.97190473038204,-3.2090188333260703,-334.0090651636494,-163.33171624122764,706.1960652198901,39.51713516860579
2.94,89.63177804342843,33.77912442574374,43.98844654951813,-1.0055255082233086,37.78643804713154,-1.5550256471365755,-45.33445140151434,-2.842383428615922,-322.71610968939365,-147.54114030232077,664.7485480538843,39.40268255646827
2.95,90.10974633140671,33.717288279738746,43.75629805718903,-1.3392164873527934,34.57216337157753,-2.755957259829833,-39.291194563224735,-2.5310900722367795,-311.41262677807566,-132.84477160994783,624.2577578972777,38.84763672186743
2.96,90.37149849238752,33.71724152710921,43.30212620649716,-0.8440686721672621,31.401307345329144,-3.7412109193453733,-33.87044987013753,-2.0963986515134363,-300.00886870128153,-119.00926846300094,584.9637263021759,38.262592512582394
2.97,90.49756419023984,33.50548363036386,43.00244556734635,-0.8946418870788301,28.8252291464021,-4.624780177341174,-29.202514906574862,-1.608763427221744,-289.5446685432288,-106.4845659761823,548.020442998336,37.68403302412706
2.98,90.83655000557614,33.65239368660062,42.92126593453687,-0.8497427233936308,26.378226467258457,-5.233730936592107,-25.058015317166994,-1.397134484098268,-279.42948815790777,-95.11042603877792,513.5292241149797,37.0603154455537
2.99,91.19917796351106,33.52704353081478,42.447733414936856,-1.1369285233384303,24.001244405963682,-5.954359567969885,-21.46301999260349,-1.0913705246158825,-270.072075651311,-85.21239784727028,482.50120426474444,35.97192825169731
