0.01,-51.0,37.4,173.69,0.12,-0.29,-0.17,0.04,0.02,0.44,-107.45,54.48,176.76,0.11,0.08,-0.09,0.38,0.31,0.29,-186.84,3.59,9.84,0.34,0.06,0.23,1.07,1.2,1.29,-145.73,31.95,24.98,0.62,0.26,0.73,0.49,0.63,1.51
0.02,-50.98,37.56,173.84,0.02,0.1,0.09,0.04,0.27,0.18,-106.94,54.43,176.77,0.04,0.01,0.09,0.35,0.14,0.35,-186.76,3.84,9.52,0.41,0.1,-0.06,0.86,1.14,1.12,-144.88,32.62,25.33,0.92,0.41,0.62,0.46,0.71,1.52
0.03,-50.73,37.69,173.97,0.1,0.08,0.04,0.22,-0.0,0.53,-106.73,54.17,176.52,0.21,0.16,0.15,0.6,0.26,0.38,-186.8,4.27,9.14,0.5,0.04,0.07,0.74,0.97,1.38,-144.04,33.06,26.18,1.0,0.21,0.68,0.78,0.75,1.53
0.04,-50.62,37.92,173.73,0.04,0.17,-0.1,0.09,0.09,0.28,-106.31,53.95,176.24,0.18,0.01,-0.07,0.43,0.24,0.4,-186.8,4.42,8.78,0.36,0.22,0.21,0.48,0.69,1.25,-142.83,33.81,26.76,0.79,0.4,0.55,0.62,0.57,1.5
0.05,-50.42,38.17,173.83,0.01,0.29,0.1,0.16,0.36,0.38,-105.99,54.17,175.86,0.14,0.2,0.07,0.45,0.31,0.42,-186.81,4.83,8.6,0.28,0.41,0.14,0.43,0.68,1.21,-142.16,34.3,27.57,0.98,0.34,0.81,0.6,0.63,1.45
0.06,-50.39,38.33,173.93,-0.03,0.08,-0.04,0.28,0.2,0.38,-105.8,54.23,176.02,0.06,0.07,-0.15,0.78,0.11,0.32,-186.83,5.17,8.12,0.5,0.43,-0.01,0.13,0.67,1.03,-140.89,34.85,28.22,0.83,0.47,0.56,0.34,0.67,1.52
0.07,-50.14,38.6,174.08,0.09,0.3,0.18,0.09,0.25,0.19,-105.62,54.04,175.69,0.26,-0.04,0.09,0.75,0.31,0.5,-187.01,5.72,7.71,0.31,0.28,0.06,0.32,0.41,1.21,-139.82,35.63,29.31,1.09,0.52,0.44,0.67,0.66,1.76
0.08,-49.97,38.6,174.18,0.11,0.19,0.06,0.16,0.09,0.3,-105.37,54.46,175.73,-0.01,0.29,-0.02,0.72,0.15,0.32,-187.0,6.16,7.4,0.44,0.42,0.02,0.24,0.57,0.92,-138.9,36.61,30.1,1.1,0.44,0.53,0.58,0.8,1.56
0.09,-49.88,39.04,174.29,0.19,0.32,0.09,0.38,0.16,0.32,-104.85,54.71,175.22,0.07,0.3,-0.07,0.77,0.02,0.39,-187.29,6.41,6.66,0.45,0.67,-0.02,0.13,0.55,1.15,-138.21,37.56,31.3,1.21,0.43,0.47,0.63,0.79,1.54
0.1,-49.62,39.35,174.38,0.24,0.22,-0.0,0.4,0.3,0.2,-104.75,54.94,175.15,0.25,0.41,0.03,0.82,0.2,0.36,-187.24,7.0,6.26,0.54,0.47,0.15,0.31,0.47,1.04,-137.16,38.23,32.38,0.93,0.54,0.57,0.51,0.8,1.38
0.11,-49.44,39.76,174.68,0.07,0.4,-0.12,0.28,0.34,0.28,-104.31,56.04,174.86,0.41,0.45,0.07,0.64,0.15,0.65,-187.58,8.08,5.25,0.29,0.62,0.06,0.25,0.51,1.01,-135.58,40.09,35.01,1.06,0.81,0.68,0.47,1.03,1.23
0.12,-49.23,40.18,174.87,0.2,0.5,0.14,0.27,0.33,0.35,-103.89,56.75,174.73,0.09,0.45,0.0,0.64,0.02,0.61,-188.04,8.96,4.89,0.24,0.64,0.08,0.16,0.51,0.95,-134.68,41.19,36.61,0.94,0.81,0.61,0.55,1.23,1.22
0.13,-49.0,40.6,174.8,0.16,0.22,0.12,0.16,0.23,0.29,-103.76,57.42,174.54,-0.04,0.52,0.03,0.63,0.01,0.24,-188.42,9.59,4.54,0.29,0.52,0.41,0.17,0.57,1.11,-134.24,42.32,38.28,0.99,0.94,0.65,0.26,1.32,1.11
0.14,-48.82,41.16,175.21,0.27,0.2,0.02,0.45,0.28,0.09,-103.56,58.09,174.56,0.05,0.54,0.22,0.52,0.17,0.4,-188.68,10.13,4.35,0.11,0.73,0.33,0.31,0.63,0.94,-133.63,43.66,40.16,0.88,0.76,0.58,0.43,1.32,1.02
0.15,-48.85,41.44,175.21,0.19,0.22,0.12,0.4,0.23,0.07,-103.4,58.92,174.5,0.27,0.73,0.27,0.55,0.2,0.37,-189.09,10.74,4.12,0.16,0.62,0.43,0.14,0.69,0.95,-133.32,44.73,42.15,0.95,0.95,0.4,0.46,1.32,1.02
0.16,-48.64,41.74,175.4,0.08,0.21,-0.09,0.34,0.43,0.35,-103.43,59.81,174.31,0.19,0.59,0.1,0.46,-0.03,0.33,-189.65,11.79,3.76,0.29,0.69,0.54,0.37,0.71,0.88,-132.89,45.91,44.25,0.91,1.15,0.52,0.68,1.2,0.88
0.17,-48.21,42.3,175.55,0.28,0.33,0.2,0.28,0.38,0.24,-103.52,60.7,174.42,0.06,0.66,0.18,0.36,0.24,0.06,-190.48,12.26,3.89,-0.03,0.7,0.48,0.37,0.78,0.79,-132.59,47.14,46.44,0.94,1.23,0.36,0.63,0.99,0.89
0.18,-47.93,42.79,175.37,0.16,0.37,0.14,0.46,0.29,0.28,-103.32,61.84,174.48,0.18,0.89,0.09,0.44,0.08,0.44,-190.92,13.0,3.99,0.08,0.68,0.65,0.23,0.84,0.66,-132.01,48.37,49.0,1.04,1.2,0.27,0.56,1.02,0.81
0.19,-47.9,43.48,175.68,0.07,0.46,0.06,0.26,0.19,0.2,-103.31,62.7,174.44,0.05,0.8,0.23,0.34,-0.03,0.24,-191.63,13.8,4.18,0.25,0.57,0.52,0.31,0.7,0.59,-131.75,49.81,51.24,0.8,1.54,0.44,0.83,1.03,0.7
0.2,-47.36,43.93,175.58,0.2,0.38,0.13,0.39,0.19,0.28,-103.42,63.81,174.45,0.27,0.72,0.28,0.38,0.07,0.25,-192.3,14.61,4.43,0.01,0.62,0.64,0.37,0.73,0.49,-131.57,51.21,54.0,0.9,1.63,0.34,0.77,0.89,0.66
0.21,-46.67,45.23,175.56,0.19,0.61,0.0,0.32,0.39,-0.0,-103.48,66.16,174.54,0.01,0.98,0.11,0.46,-0.01,0.23,-193.93,15.94,5.75,0.22,0.73,0.78,0.41,0.43,0.48,-130.64,53.75,59.47,1.09,1.6,0.33,1.0,0.75,1.03
0.22,-46.38,46.05,175.46,0.3,0.54,0.04,0.53,0.2,0.18,-103.96,67.46,174.62,-0.28,0.84,0.2,0.37,0.18,0.1,-194.78,16.78,6.62,0.47,0.79,0.7,0.6,0.74,0.45,-130.19,55.0,62.48,1.14,1.7,0.2,1.18,0.57,0.82
0.23,-45.99,47.18,175.65,0.16,0.68,-0.14,0.21,0.18,0.1,-103.77,68.57,174.55,0.02,1.08,0.08,0.48,0.25,0.18,-195.68,17.51,7.71,0.66,0.59,0.85,0.46,0.65,0.46,-129.86,56.3,65.35,1.32,2.08,0.27,1.05,0.24,0.74
0.24,-45.78,48.0,175.51,0.05,0.57,0.06,0.37,0.3,0.19,-103.92,69.83,174.59,-0.01,1.03,0.16,0.56,0.18,0.17,-196.32,18.17,8.89,0.7,0.45,0.88,0.5,0.72,0.57,-129.56,57.49,68.38,1.35,2.01,0.28,0.98,0.33,0.78
0.25,-45.38,48.85,175.54,-0.05,0.69,0.03,0.21,0.1,-0.02,-104.1,71.24,174.52,0.21,1.03,0.03,0.43,0.04,0.12,-197.23,18.89,10.34,0.85,0.7,0.93,0.62,0.65,0.58,-129.15,58.22,71.68,1.43,1.99,0.26,1.15,0.5,0.89
0.26,-45.04,49.89,175.3,0.15,0.92,0.13,0.64,0.15,0.28,-104.47,72.47,174.27,-0.02,1.06,0.08,0.68,0.12,0.11,-198.03,19.13,11.72,0.94,0.6,0.78,0.65,0.72,0.74,-128.71,58.81,74.97,1.37,2.06,0.36,1.16,0.47,1.05
0.27,-44.99,51.2,175.07,0.21,0.89,0.03,0.54,0.09,0.04,-104.62,73.74,174.29,0.04,0.84,0.18,0.61,0.28,0.01,-199.04,19.57,13.39,1.1,0.52,0.77,0.7,0.72,0.91,-128.18,59.42,78.38,1.61,2.12,0.27,1.27,0.48,1.07
0.28,-44.73,52.15,174.75,0.03,0.87,0.25,0.45,0.14,0.08,-104.73,75.01,174.1,0.04,0.84,0.11,0.55,0.08,0.05,-199.93,20.02,15.39,1.04,0.49,0.76,0.77,0.92,0.72,-127.84,59.59,81.43,1.48,2.23,0.34,0.98,0.86,1.16
0.29,-44.59,53.34,174.55,0.2,0.9,0.16,0.63,0.41,0.18,-104.88,76.15,173.97,0.01,0.85,0.21,0.65,0.06,0.15,-200.73,20.17,17.13,1.45,0.44,1.06,0.79,0.82,1.02,-127.22,59.91,85.44,1.48,2.09,0.36,0.99,1.02,0.98
0.3,-44.65,54.54,174.25,0.04,0.83,-0.01,0.6,0.01,0.31,-105.09,77.53,173.53,0.12,0.9,0.23,0.56,0.41,0.16,-201.64,20.46,18.94,1.19,0.28,0.84,0.83,0.62,0.96,-126.58,59.22,89.03,1.54,2.21,0.13,1.13,0.97,1.13
0.31,-44.83,56.84,173.43,0.04,0.79,-0.08,0.68,0.07,0.16,-105.38,79.76,173.12,0.13,0.82,-0.0,0.4,0.36,0.19,-203.56,20.54,22.89,1.45,0.4,0.97,0.85,1.12,1.01,-125.29,58.31,96.46,1.4,1.98,0.21,0.98,1.62,0.73
0.32,-44.7,57.88,172.95,0.08,0.83,-0.03,0.47,0.2,0.13,-105.42,80.94,172.77,-0.11,0.64,0.06,0.52,0.43,0.25,-204.61,20.26,24.91,1.45,0.27,1.14,0.81,1.1,1.06,-124.73,57.5,100.33,1.62,1.9,0.36,0.9,1.86,1.35
0.33,-44.73,59.2,172.61,-0.05,0.77,-0.03,0.66,0.17,0.02,-105.27,81.99,172.39,-0.02,0.61,0.01,0.46,0.42,0.36,-205.73,19.77,27.17,1.67,0.34,1.14,0.87,1.07,1.18,-123.88,56.58,104.6,1.23,1.83,0.42,0.86,2.17,1.05
0.34,-45.04,60.25,172.07,0.08,0.84,-0.07,0.68,0.21,0.21,-105.49,82.54,171.96,-0.03,0.61,0.17,0.38,0.43,0.18,-206.62,19.2,29.21,1.82,0.04,1.12,0.75,1.24,1.27,-122.84,55.41,108.29,1.37,1.9,0.43,0.81,2.26,1.14
0.35,-45.2,61.16,171.48,0.16,0.86,-0.02,0.55,0.09,-0.01,-105.32,83.46,171.71,0.1,0.48,0.13,0.28,0.42,0.23,-207.68,18.85,31.54,1.79,0.21,1.34,0.79,1.25,0.98,-121.86,54.53,112.08,1.2,1.77,0.47,0.87,2.69,1.03
0.36,-45.42,62.44,170.88,0.19,0.62,0.13,0.56,0.21,0.35,-105.08,84.11,171.34,0.06,0.42,0.04,0.49,0.65,0.27,-208.81,18.35,33.78,1.62,0.12,1.1,0.77,1.46,0.95,-120.76,52.93,115.83,1.21,1.45,0.39,0.77,2.49,1.08
0.37,-45.53,63.37,170.41,0.07,0.63,-0.09,0.57,0.16,0.1,-105.0,85.16,170.99,0.12,0.61,0.02,0.22,0.56,0.28,-209.48,17.74,36.23,1.85,-0.03,1.12,0.75,1.43,0.71,-119.67,51.64,119.39,1.19,1.4,0.49,0.64,2.65,1.16
0.38,-45.56,64.04,169.96,0.18,0.8,-0.11,0.51,0.15,0.06,-104.84,85.37,170.94,-0.07,0.5,0.15,0.3,0.54,0.38,-210.41,17.04,38.33,1.71,0.16,1.2,0.74,1.37,0.69,-118.14,50.31,122.64,0.89,1.3,0.54,0.81,2.82,1.27
0.39,-45.69,64.86,169.36,0.04,0.51,0.04,0.4,0.34,0.32,-104.54,85.66,170.82,0.23,0.23,0.04,0.3,0.76,0.34,-210.9,16.34,40.86,1.7,0.3,1.17,0.59,1.33,0.66,-116.53,49.36,125.95,1.07,1.17,0.34,0.67,2.69,1.29
0.4,-45.8,65.67,168.8,0.19,0.63,-0.03,0.33,0.32,0.18,-104.36,86.16,170.36,0.05,0.15,0.27,0.36,0.53,0.17,-211.38,15.79,43.29,1.97,0.13,1.33,0.65,1.63,0.65,-114.96,48.1,128.78,0.89,1.04,0.48,0.74,2.3,1.09
0.41,-45.99,66.87,168.01,0.07,0.5,0.14,0.22,0.4,0.1,-103.84,86.63,170.16,-0.16,0.3,0.02,0.27,0.47,0.27,-211.87,14.64,47.96,1.84,0.23,0.86,0.75,1.25,0.71,-111.63,46.12,134.19,0.72,0.85,0.53,0.77,1.93,1.35
0.42,-46.03,67.58,167.57,-0.04,0.58,0.22,0.19,0.23,0.3,-103.95,86.78,169.8,-0.06,0.19,0.06,0.18,0.59,0.24,-211.62,14.23,50.35,1.92,0.24,0.91,0.75,1.26,0.58,-110.03,45.22,136.61,0.72,0.76,0.53,0.6,1.95,1.11
0.43,-46.1,68.04,167.31,-0.04,0.58,0.11,0.23,0.35,0.23,-103.64,86.58,169.79,-0.05,0.32,0.14,0.15,0.58,0.24,-211.6,13.95,52.88,1.81,0.27,0.77,0.69,1.36,0.57,-108.62,44.12,138.99,0.83,0.64,0.51,0.68,1.78,1.3
0.44,-45.82,68.55,167.18,0.12,0.5,0.12,0.34,0.31,0.4,-103.38,86.58,169.78,-0.04,0.23,0.22,0.22,0.26,0.16,-211.02,13.8,55.22,1.82,0.4,0.87,0.7,1.07,0.87,-107.16,43.4,141.18,0.77,0.68,0.71,0.83,1.5,1.28
0.45,-45.97,68.98,166.82,-0.06,0.42,0.12,0.08,0.61,0.24,-103.42,86.52,169.66,0.06,0.11,0.18,0.27,0.38,0.23,-210.5,13.52,57.4,1.66,0.28,0.63,0.93,0.91,0.8,-105.89,42.79,143.3,0.76,0.53,0.66,0.74,1.37,1.12
0.46,-45.91,69.82,166.47,-0.09,0.37,0.05,0.22,0.62,0.06,-103.0,86.31,169.39,0.16,0.09,0.13,0.41,0.19,0.2,-209.64,13.67,59.52,1.69,0.33,0.57,0.91,0.75,0.92,-104.89,42.29,145.22,0.74,0.5,0.68,0.73,1.28,1.29
0.47,-45.66,70.03,166.19,-0.06,0.31,0.01,0.14,0.24,0.1,-102.93,86.29,169.26,-0.07,0.28,0.05,0.34,0.26,0.37,-209.04,13.94,61.62,1.66,0.23,0.33,0.84,0.87,1.09,-104.24,41.87,146.8,0.74,0.64,0.65,0.87,1.21,1.13
0.48,-45.44,70.31,166.12,0.13,0.34,0.01,0.26,0.52,0.08,-102.58,86.25,169.31,0.27,0.19,0.17,0.3,0.44,0.11,-208.17,14.05,63.71,1.73,0.09,0.03,0.85,0.75,1.02,-103.84,41.5,148.55,0.71,0.42,0.86,0.85,1.28,1.14
0.49,-45.32,71.01,166.1,-0.04,0.43,0.03,0.19,0.36,0.05,-102.4,85.89,169.14,0.04,0.16,0.19,0.31,0.32,0.17,-207.75,14.17,65.71,1.53,0.33,0.04,0.91,0.62,0.97,-103.64,41.36,149.97,0.85,0.47,1.09,0.9,1.16,1.18
0.5,-45.04,71.31,166.12,-0.04,0.13,-0.06,0.24,0.54,0.26,-102.39,85.76,169.25,0.08,0.07,0.27,0.29,0.22,0.1,-206.82,14.84,67.5,1.48,0.43,0.23,0.87,0.83,0.81,-104.21,41.36,150.81,0.56,0.49,0.94,1.04,1.13,1.34
0.51,-44.74,72.09,166.59,0.07,0.09,0.02,0.27,0.41,0.05,-101.81,85.17,169.03,0.25,0.03,0.08,0.21,0.38,0.14,-205.67,15.43,71.14,1.3,0.4,0.39,0.97,0.79,0.81,-105.48,41.69,152.54,0.4,0.25,1.05,0.99,1.34,1.33
0.52,-44.37,72.44,166.65,0.09,0.27,-0.04,0.32,0.49,0.2,-101.55,85.11,169.07,0.09,0.21,0.13,0.2,0.27,0.47,-205.11,16.16,72.94,1.27,0.45,0.21,0.9,0.93,0.85,-106.4,41.78,152.94,0.54,0.42,0.93,0.81,1.16,1.11
0.53,-43.99,72.82,167.02,0.09,0.06,0.16,0.26,0.45,0.11,-101.39,84.9,168.95,0.04,0.09,0.14,0.31,0.63,0.2,-204.55,16.71,74.67,1.28,0.66,0.6,1.09,1.07,0.9,-107.3,42.21,153.03,0.42,0.31,0.96,0.98,1.33,1.35
0.54,-43.37,72.84,167.72,0.28,-0.0,0.07,0.17,0.58,0.18,-101.07,84.83,169.15,0.24,0.35,0.09,0.3,0.52,0.44,-204.09,17.75,76.1,1.22,0.69,0.74,1.09,1.17,0.7,-108.5,42.71,152.77,0.44,0.34,1.02,0.86,1.22,1.27
0.55,-43.05,73.13,168.22,0.22,0.09,0.05,0.3,0.4,0.27,-100.95,84.58,168.88,0.13,0.19,0.09,0.29,0.5,0.41,-203.57,18.75,77.75,1.17,0.55,0.85,1.11,1.33,0.75,-109.72,43.26,152.47,0.6,0.32,0.97,1.05,1.25,1.29
0.56,-42.44,73.22,168.68,-0.03,0.14,0.17,0.31,0.59,0.42,-100.74,84.55,168.99,0.08,0.23,0.06,0.39,0.42,0.44,-203.24,19.69,79.58,1.18,0.91,0.81,1.33,1.4,0.51,-110.99,43.68,152.04,0.39,0.41,0.87,0.88,1.5,1.07
0.57,-42.27,73.37,169.42,0.23,0.18,0.02,0.28,0.66,0.21,-100.41,84.29,168.88,0.15,0.33,0.02,0.32,0.5,0.49,-202.67,21.18,81.17,1.18,1.0,1.02,1.56,1.48,0.63,-111.95,44.23,151.4,0.36,0.22,0.74,1.05,1.36,1.25
0.58,-41.44,73.32,170.15,0.22,0.12,0.05,0.35,0.63,0.2,-100.18,83.99,169.07,0.22,0.14,-0.03,0.45,0.71,0.63,-201.92,22.53,82.92,1.09,1.03,1.14,1.33,1.47,0.6,-113.01,44.86,150.62,0.19,0.63,0.74,0.8,1.38,1.05
0.59,-41.04,73.28,170.85,0.09,0.27,0.19,0.52,0.71,0.37,-99.89,83.85,169.05,0.19,0.11,0.03,0.55,0.53,0.64,-201.23,23.88,84.2,1.18,0.84,1.22,1.62,1.4,0.7,-113.61,45.23,150.28,0.26,0.5,0.56,0.9,1.67,1.11
0.6,-40.36,73.04,171.65,0.4,0.08,-0.09,0.47,0.67,0.54,-99.72,83.51,169.24,0.01,0.36,0.09,0.5,0.45,0.52,-200.27,25.54,86.14,1.13,0.76,1.37,1.65,1.46,0.63,-114.49,45.64,149.64,0.2,0.34,0.61,1.0,1.66,0.88
0.61,-39.28,72.96,173.4,0.28,0.36,0.13,0.72,0.97,0.6,-99.28,82.99,169.1,0.19,0.1,0.14,0.65,0.65,0.88,-198.47,28.66,89.64,1.0,0.81,1.41,1.67,1.34,0.35,-115.32,45.87,148.91,0.13,0.55,0.5,0.93,1.52,0.95
0.62,-38.62,72.28,174.23,0.09,0.03,0.1,0.77,0.7,0.71,-99.08,82.76,169.05,0.02,0.28,0.04,0.46,0.72,1.0,-197.24,29.94,91.52,0.86,0.81,1.38,1.9,1.33,0.58,-115.35,45.73,148.97,0.27,0.57,0.54,1.02,1.58,1.03
0.63,-38.21,71.99,175.25,0.2,0.27,0.07,0.71,0.84,0.81,-99.1,82.54,169.25,0.08,-0.02,0.07,0.73,0.45,1.06,-196.29,31.6,93.64,1.02,0.67,1.23,1.92,1.14,0.47,-115.3,45.39,148.89,0.09,0.6,0.41,0.91,1.66,0.89
0.64,-37.72,71.41,175.77,0.23,0.41,0.03,1.02,0.87,0.81,-98.63,82.27,169.18,0.34,0.39,0.23,0.82,0.49,0.87,-195.12,32.87,95.44,1.2,0.81,1.06,1.88,1.0,0.46,-115.02,45.22,149.34,0.36,0.41,0.51,0.95,1.72,0.92
0.65,-37.28,71.19,176.53,0.46,0.19,0.12,0.77,1.1,0.8,-98.63,81.83,169.49,0.11,0.18,0.06,0.64,0.75,1.18,-194.0,33.7,97.39,1.2,0.51,0.96,1.76,0.91,0.62,-114.8,44.41,149.66,0.48,0.61,0.22,1.0,1.78,0.84
0.66,-36.79,70.62,177.04,0.14,0.28,0.21,1.06,0.96,1.09,-98.37,81.76,169.57,0.1,0.4,0.19,0.86,0.42,1.21,-192.77,34.72,99.43,1.05,0.57,0.84,1.7,0.7,0.54,-113.97,43.76,150.39,0.48,0.58,0.31,0.82,1.75,0.91
0.67,-36.51,70.15,177.61,0.35,0.42,0.21,1.03,1.06,1.0,-98.39,81.37,169.5,0.1,0.18,-0.05,0.75,0.35,1.13,-191.5,35.48,101.36,1.29,0.63,0.86,1.84,0.75,0.48,-113.64,42.78,150.93,0.51,0.54,0.3,0.84,1.78,0.94
0.68,-36.27,69.66,178.26,0.36,0.45,0.07,1.07,1.23,1.07,-98.16,81.15,169.88,0.32,0.42,0.14,0.84,0.33,1.06,-190.31,35.98,103.11,1.15,0.48,0.71,1.6,0.89,0.54,-112.95,41.85,151.34,0.58,0.41,0.48,0.69,1.85,0.86
0.69,-36.2,69.15,178.41,0.29,0.58,0.06,1.37,1.08,0.96,-98.27,80.74,170.37,0.04,0.14,0.16,0.88,0.38,0.98,-189.13,36.27,105.24,1.25,0.42,0.62,1.51,0.76,0.6,-112.25,41.02,151.62,0.52,0.56,0.48,0.91,1.81,1.08
0.7,-35.91,68.71,179.01,0.38,0.11,0.15,1.1,1.06,1.0,-98.42,80.49,170.89,0.18,-0.01,-0.03,0.83,0.26,0.85,-187.92,36.32,106.55,1.3,0.35,0.65,1.17,0.69,0.68,-111.61,40.03,151.99,0.65,0.6,0.43,0.98,1.88,1.06
0.71,-36.09,68.05,179.19,0.51,0.23,0.11,1.06,1.06,1.08,-98.68,79.98,171.53,0.29,0.19,0.12,0.69,0.3,0.83,-185.41,36.39,110.07,1.1,0.3,0.25,1.0,1.03,0.75,-110.39,38.04,151.75,0.9,0.51,0.73,0.58,1.93,1.23
0.72,-36.19,67.81,179.25,0.58,0.25,0.1,1.24,1.04,0.88,-98.91,79.67,172.12,0.29,0.16,0.05,0.66,0.4,0.7,-184.04,36.21,111.24,1.25,0.38,0.24,1.05,0.69,0.87,-110.2,37.44,151.46,1.02,0.61,0.68,0.67,1.66,1.39
0.73,-36.56,67.61,178.99,0.26,0.13,0.09,1.07,1.02,0.77,-99.48,79.18,172.91,0.37,0.23,-0.0,0.78,0.29,0.66,-182.73,35.68,112.15,1.22,0.36,0.31,0.88,0.76,1.11,-110.14,36.39,150.86,0.78,0.57,0.56,0.6,1.9,1.4
0.74,-36.89,67.41,179.06,0.71,0.26,-0.06,1.21,0.89,0.54,-99.81,78.71,173.63,0.24,0.53,0.08,0.93,0.45,0.44,-181.53,35.42,113.29,1.12,0.31,0.46,0.71,0.93,1.04,-110.05,35.66,150.11,1.05,0.51,0.71,0.66,1.71,1.14
0.75,-37.51,67.07,179.07,0.51,0.12,0.04,1.03,0.72,0.83,-100.22,78.57,174.36,0.41,0.34,0.01,0.72,0.28,0.39,-180.31,34.99,114.06,0.99,0.62,0.32,0.68,0.87,1.02,-110.36,35.09,149.31,0.98,0.37,0.89,0.58,1.74,1.51
0.76,-38.2,67.08,178.51,0.47,0.11,0.06,1.14,0.66,0.53,-100.89,78.26,175.17,0.47,0.39,0.17,0.83,0.36,0.43,-179.13,34.64,114.61,1.16,0.42,0.2,0.6,1.02,1.18,-110.84,34.28,148.57,0.73,0.35,0.97,0.73,1.46,1.46
0.77,-38.66,67.21,178.11,0.53,0.15,0.14,0.79,0.56,0.48,-101.43,77.61,176.02,0.57,0.29,0.12,0.67,0.29,0.4,-177.98,34.39,115.46,0.84,0.36,0.13,0.34,0.79,1.22,-111.83,33.91,147.58,0.81,0.31,0.93,0.68,1.55,1.5
0.78,-39.65,67.01,177.88,0.62,0.18,-0.07,0.95,0.49,0.34,-101.91,77.34,177.06,0.59,0.3,0.13,0.78,0.19,0.36,-177.01,34.07,115.87,0.82,0.35,0.2,0.46,0.82,1.12,-112.65,33.53,146.56,0.85,0.38,1.06,0.62,1.6,1.32
0.79,-40.51,66.96,177.12,0.61,0.11,0.07,0.77,0.39,0.18,-102.75,77.0,177.92,0.64,0.3,0.27,0.59,0.3,0.38,-176.13,33.96,116.2,0.89,0.48,0.3,0.19,0.65,1.23,-113.8,33.09,145.95,0.81,0.27,1.05,0.47,1.35,1.15
0.8,-41.86,66.76,176.41,0.43,0.08,0.04,0.71,0.29,0.16,-103.31,76.49,178.73,0.62,0.56,0.12,0.71,0.21,0.29,-175.34,33.96,116.57,0.72,0.36,0.5,0.5,0.84,1.27,-115.24,33.17,145.38,0.6,0.08,1.0,0.58,1.16,1.32
0.81,-43.67,66.49,175.06,0.51,0.11,0.07,0.8,0.28,0.19,-104.77,75.4,180.3,0.74,0.49,0.34,0.7,0.13,0.34,-173.8,33.72,117.31,0.46,0.4,0.37,0.29,0.98,1.19,-118.2,33.08,144.22,0.65,0.4,0.78,0.42,0.98,0.94
0.82,-45.13,66.39,174.27,0.58,0.01,-0.03,0.8,0.38,0.2,-105.55,74.93,181.38,0.45,0.54,0.04,0.65,-0.0,0.27,-173.32,33.73,117.35,0.18,0.32,0.37,0.44,0.97,1.12,-119.57,33.3,144.26,0.62,0.25,1.02,0.49,0.91,0.81
0.83,-46.05,66.26,173.41,0.61,0.12,-0.01,0.6,0.15,0.12,-106.49,74.53,182.14,0.59,0.32,0.26,0.63,0.26,0.39,-172.64,33.73,117.74,0.38,0.28,0.38,0.42,0.93,1.04,-120.87,33.52,143.97,0.61,0.38,0.82,0.4,0.83,1.11
0.84,-47.65,66.02,172.43,0.72,0.14,0.15,0.63,0.35,0.07,-106.99,73.91,182.58,0.43,0.43,0.08,0.49,0.42,0.27,-172.23,33.95,117.7,0.12,0.2,0.37,0.61,0.94,1.18,-122.36,33.66,143.91,0.33,0.44,0.73,0.46,0.72,1.13
0.85,-49.01,65.85,171.48,0.76,0.12,0.06,0.53,0.27,0.12,-107.88,73.59,183.3,0.44,0.37,0.17,0.46,0.28,0.28,-171.93,34.09,117.67,0.15,0.26,0.37,0.43,1.08,1.11,-123.34,34.5,143.98,0.46,0.44,0.69,0.49,0.84,0.78
0.86,-50.25,65.68,170.79,0.68,0.18,0.02,0.69,0.09,0.33,-108.56,73.14,183.86,0.4,0.27,0.25,0.25,0.14,0.2,-171.6,34.01,117.89,0.17,0.06,0.53,0.57,1.01,1.05,-124.54,34.75,143.98,0.24,0.4,0.52,0.56,0.78,0.81
0.87,-51.49,65.55,169.84,0.61,0.26,0.2,0.32,0.23,0.3,-109.04,72.64,184.77,0.5,0.41,-0.06,0.09,0.37,0.36,-171.31,34.35,117.98,0.21,0.24,0.42,0.61,1.08,1.05,-125.49,35.4,144.24,0.27,0.65,0.63,0.69,0.9,0.98
0.88,-52.76,65.38,168.99,0.56,0.16,0.08,0.4,0.18,0.11,-109.56,72.19,185.32,0.51,0.22,0.2,0.25,0.48,0.49,-171.15,34.47,117.79,0.03,0.09,0.49,0.43,1.37,0.98,-125.87,36.1,144.16,0.26,0.47,0.58,0.77,1.07,1.02
0.89,-54.12,65.02,168.28,0.7,0.17,0.22,0.22,0.41,0.14,-110.26,71.9,185.76,0.33,0.38,0.12,0.39,0.36,0.31,-171.14,34.85,117.7,0.16,0.21,0.51,0.45,1.36,1.03,-126.75,36.68,144.28,0.31,0.49,0.38,0.79,1.27,0.93
0.9,-55.09,64.93,167.35,0.72,0.2,-0.01,0.37,0.39,0.18,-110.8,71.52,186.34,0.41,0.3,-0.03,0.17,0.33,0.38,-170.93,35.13,117.39,0.18,0.17,0.59,0.59,1.35,0.95,-127.24,37.36,144.37,0.3,0.51,0.39,1.04,1.4,1.3
0.91,-57.28,64.59,166.11,0.47,0.13,0.01,0.4,0.43,0.37,-111.56,71.02,187.19,0.19,0.21,0.13,0.38,0.56,0.5,-170.89,35.5,116.81,0.36,0.25,0.48,0.73,1.28,0.93,-127.85,38.26,144.22,0.3,0.42,0.26,1.53,1.82,1.36
0.92,-58.13,64.08,165.39,0.15,0.34,0.29,0.48,0.56,0.46,-112.2,70.73,187.55,0.33,0.36,-0.04,0.23,0.61,0.42,-170.94,35.9,116.35,0.36,0.41,0.38,0.97,1.38,1.25,-127.79,38.64,143.96,0.37,0.67,0.45,1.76,2.02,1.38
0.93,-58.93,64.12,165.0,0.42,0.1,-0.01,0.13,0.48,0.23,-112.35,70.49,188.01,0.06,0.26,0.13,0.4,0.58,0.49,-170.89,35.88,115.79,0.58,0.24,0.45,1.0,1.51,1.23,-127.8,39.21,143.91,0.33,0.38,0.3,1.9,2.38,1.61
0.94,-59.62,63.78,164.7,0.44,0.22,0.16,0.35,0.54,0.6,-112.69,70.31,188.34,0.01,0.26,-0.1,0.35,0.47,0.53,-171.23,36.14,115.42,0.45,0.13,0.38,1.12,1.41,1.24,-128.31,39.53,143.54,0.31,0.52,0.39,2.28,2.52,1.75
0.95,-60.26,63.7,164.34,0.17,0.28,-0.05,0.3,0.38,0.36,-112.75,70.16,188.58,0.1,0.29,0.1,0.45,0.55,0.55,-171.16,36.4,114.86,0.32,0.11,0.51,1.29,1.47,1.31,-128.37,39.77,143.23,0.11,0.47,0.33,2.54,2.67,1.77
0.96,-61.05,63.32,164.1,0.37,0.19,0.28,0.25,0.69,0.36,-113.0,69.99,189.1,0.04,0.22,-0.07,0.42,0.39,0.64,-171.59,36.56,114.31,0.45,0.3,0.36,1.42,1.4,1.29,-128.52,39.91,142.74,0.46,0.34,0.13,2.78,2.91,1.97
0.97,-61.19,63.2,164.01,0.24,0.21,-0.05,0.27,0.73,0.43,-113.3,69.83,189.07,-0.02,0.2,-0.04,0.59,0.49,0.49,-171.22,36.75,113.85,0.4,0.34,0.52,1.49,1.6,1.3,-128.67,40.04,142.58,0.44,0.37,0.41,2.56,2.88,1.91
0.98,-61.67,62.67,163.93,0.12,0.3,0.19,0.43,0.49,0.43,-113.38,69.51,189.29,0.08,0.29,0.12,0.5,0.54,0.65,-171.47,36.93,113.1,0.62,0.17,0.69,1.61,1.33,1.52,-128.8,40.0,142.12,0.54,0.23,0.18,2.84,2.65,1.84
0.99,-62.04,62.2,163.85,0.24,0.3,0.29,0.35,0.44,0.53,-113.46,69.21,189.5,-0.11,0.39,0.15,0.62,0.51,0.34,-171.56,37.23,112.83,0.51,0.36,0.65,1.66,1.51,1.1,-129.28,39.93,142.09,0.36,0.29,0.39,2.65,2.57,2.0
1.0,-62.19,62.05,163.75,0.27,0.29,0.02,0.6,0.57,0.64,-113.52,68.84,189.87,0.19,0.5,-0.04,0.65,0.57,0.51,-171.61,37.53,112.49,0.29,0.41,0.72,1.95,1.81,1.42,-129.56,40.02,141.5,0.32,0.07,0.43,2.63,2.41,2.02
1.01,-62.96,61.03,163.86,0.22,0.33,0.03,0.38,0.43,0.57,-113.81,68.18,190.52,0.15,0.3,0.02,0.69,0.44,0.55,-171.36,37.89,111.76,0.56,0.25,0.91,1.9,1.91,1.19,-130.86,40.17,141.1,0.48,0.26,0.41,2.21,2.04,1.55
1.02,-63.25,60.71,164.02,0.04,0.38,0.05,0.62,0.51,0.44,-113.9,67.95,190.38,0.05,0.57,0.1,0.61,0.43,0.53,-171.22,38.13,111.31,0.48,0.31,0.99,1.64,1.76,1.3,-131.33,39.89,140.95,0.42,0.03,0.44,2.14,1.75,1.43
1.03,-63.61,60.13,163.98,0.01,0.42,0.02,0.58,0.5,0.54,-114.35,67.29,190.82,0.24,0.57,0.14,0.45,0.19,0.39,-170.98,38.42,111.31,0.4,0.45,1.04,1.52,1.73,1.26,-131.95,40.21,140.67,0.32,0.2,0.28,1.76,1.48,1.34
1.04,-64.12,59.77,164.34,0.47,0.28,0.11,0.52,0.47,0.45,-114.45,67.09,191.12,0.2,0.36,-0.03,0.46,0.48,0.47,-170.63,38.67,111.08,0.46,0.41,1.03,1.51,1.57,1.12,-132.88,40.19,140.61,0.3,-0.03,0.36,1.43,1.3,1.4
1.05,-64.5,59.28,164.31,0.33,0.34,0.07,0.59,0.41,0.56,-114.56,66.66,191.4,0.18,0.47,0.06,0.27,0.27,0.45,-170.55,39.2,111.11,0.49,0.22,1.14,1.55,1.6,1.06,-133.61,40.2,140.46,0.46,-0.09,0.28,1.37,1.02,1.45
1.06,-65.07,58.84,164.35,0.13,0.45,0.01,0.32,0.6,0.54,-114.75,66.18,191.44,0.09,0.43,0.16,0.49,0.2,0.32,-170.1,39.35,110.89,0.31,0.37,0.79,1.25,1.6,1.2,-134.06,40.36,140.55,0.3,0.02,0.38,1.04,0.9,1.16
1.07,-65.49,58.36,164.4,0.27,0.61,0.12,0.57,0.47,0.33,-115.0,65.66,191.6,0.11,0.32,0.19,0.19,0.19,0.41,-169.74,39.85,110.78,0.13,0.43,0.89,0.99,1.46,0.87,-134.78,40.44,140.51,0.24,0.07,0.17,1.0,0.83,1.27
1.08,-66.02,57.69,164.65,0.29,0.55,0.19,0.65,0.53,0.53,-115.02,65.38,191.9,0.28,0.21,0.08,0.38,0.39,0.29,-169.27,40.2,110.58,0.45,0.19,1.01,0.93,1.72,1.0,-135.39,40.54,140.52,0.27,-0.17,0.23,0.89,0.47,0.95
1.09,-66.37,57.51,164.81,0.41,0.44,0.11,0.35,0.43,0.35,-114.86,64.86,192.25,0.17,0.21,0.04,0.47,0.32,0.42,-168.81,40.68,110.59,0.15,0.35,1.12,0.92,1.18,0.9,-135.59,40.55,140.39,0.05,0.1,0.23,1.0,0.49,0.86
1.1,-67.0,56.96,164.78,0.18,0.46,0.22,0.44,0.44,0.54,-115.19,64.41,192.32,0.08,0.39,0.08,0.36,0.44,0.17,-168.11,40.98,110.54,0.19,0.21,0.71,0.71,1.49,0.98,-135.99,40.64,140.41,0.23,0.09,0.15,0.7,0.31,1.06
1.11,-67.82,56.32,164.97,0.1,0.24,0.19,0.58,0.58,0.32,-115.66,63.65,192.64,0.04,0.24,0.07,0.1,0.47,0.36,-167.15,42.24,110.17,0.21,0.1,0.88,0.79,1.57,0.99,-136.52,40.89,140.05,0.21,0.01,0.15,0.68,0.39,0.84
1.12,-68.16,56.13,165.33,0.22,0.18,0.03,0.41,0.4,0.34,-115.65,63.5,192.71,-0.06,0.28,-0.12,0.19,0.25,0.38,-166.41,42.43,110.17,0.21,0.31,0.62,0.54,1.28,1.03,-136.42,40.85,140.15,-0.18,-0.1,0.12,0.52,0.32,0.96
1.13,-68.71,55.64,165.1,-0.03,0.3,-0.01,0.32,0.36,0.27,-115.91,63.26,192.91,0.04,0.18,-0.02,-0.02,0.5,0.52,-165.7,42.97,110.05,0.12,-0.02,0.71,0.48,1.31,0.76,-136.45,41.08,140.05,0.28,0.05,0.22,0.49,0.43,0.8
1.14,-68.72,55.37,165.67,0.09,0.21,0.02,0.21,0.27,0.21,-115.85,63.2,193.03,0.17,0.16,0.17,0.13,0.34,0.31,-165.15,43.41,110.06,0.31,0.07,0.68,0.38,1.39,0.99,-136.14,40.86,139.78,0.29,-0.02,0.2,0.78,0.47,0.64
1.15,-68.88,55.03,165.72,0.13,0.1,0.3,0.24,0.38,0.22,-115.99,63.02,192.94,-0.01,0.24,0.09,0.06,0.34,0.42,-164.59,43.93,110.19,0.39,0.09,0.87,0.23,1.35,1.08,-136.08,41.07,139.86,0.27,0.09,0.07,0.81,0.41,0.77
1.16,-68.97,54.93,166.07,0.15,0.14,0.2,0.17,0.28,0.2,-116.32,62.84,193.26,-0.01,0.02,-0.11,-0.23,0.32,0.31,-163.67,44.58,110.04,0.09,0.12,0.62,0.18,1.36,1.04,-135.91,40.98,139.87,-0.08,-0.01,0.0,0.45,0.42,0.62
1.17,-69.14,54.68,166.28,-0.1,0.06,0.16,0.11,0.31,0.15,-116.26,62.74,193.09,-0.09,0.08,0.08,-0.01,0.18,0.17,-162.99,44.96,110.2,0.15,-0.08,0.64,0.35,1.46,1.45,-135.65,40.88,139.78,0.12,-0.06,0.09,0.59,0.4,0.39
1.18,-69.28,54.42,166.45,0.03,0.19,0.15,-0.07,0.16,0.17,-116.25,62.7,193.19,0.14,0.18,0.04,0.02,0.29,0.24,-162.28,45.75,110.1,0.18,0.14,0.72,0.23,1.61,1.02,-135.38,41.14,139.61,0.22,-0.11,0.22,0.29,0.54,0.3
1.19,-69.41,54.25,166.87,-0.12,0.2,0.14,-0.04,0.1,0.05,-116.22,62.58,193.34,0.12,0.03,0.09,0.17,0.25,0.31,-161.44,46.17,110.05,0.23,0.06,0.7,0.31,1.77,1.15,-134.94,40.92,139.55,-0.15,0.17,-0.04,0.33,0.41,0.21
