0.01,129.50,59.06,148.75,8.46,2.95,3.41,0.00,0.06,0.00,36.88,17.37,32.69,0.11,0.24,0.90,0.23,0.63,0.57,0.48
0.02,114.81,77.87,179.94,9.62,0.00,1.75,0.02,0.03,0.01,45.06,5.00,23.69,0.03,0.00,0.29,0.34,0.66,0.42,0.53
0.03,114.81,77.94,179.94,9.65,0.00,1.72,0.01,0.03,0.01,46.88,4.69,24.00,0.04,0.03,0.31,0.34,0.66,0.42,0.53
0.04,114.62,77.87,179.94,9.63,0.02,1.77,0.00,0.04,0.01,46.88,4.69,24.00,0.07,0.07,0.28,0.34,0.65,0.42,0.53
0.05,114.62,77.87,179.94,9.69,0.09,1.74,0.01,0.04,0.00,46.88,4.69,24.00,0.09,0.08,0.26,0.34,0.65,0.42,0.53
0.06,114.37,77.87,179.94,9.67,0.05,1.75,0.00,0.04,0.00,45.06,5.00,24.00,0.08,0.05,0.30,0.34,0.65,0.42,0.53
0.07,114.37,77.87,179.94,9.61,0.07,1.76,0.01,0.04,0.00,45.06,5.00,24.00,0.05,0.05,0.29,0.34,0.65,0.42,0.53
0.08,114.37,77.87,179.87,9.68,0.04,1.70,0.03,0.04,0.00,45.06,5.00,24.00,0.09,0.04,0.35,0.34,0.65,0.42,0.53
0.09,114.25,77.87,179.81,9.63,0.01,1.68,0.04,0.04,0.00,45.50,5.25,23.19,0.04,0.00,0.37,0.34,0.65,0.42,0.53
0.10,114.19,77.87,179.75,9.60,0.00,1.68,0.04,0.04,0.00,45.50,5.25,23.19,0.01,0.00,0.36,0.34,0.65,0.42,0.53
0.11,113.88,77.87,179.69,9.69,0.01,1.72,0.02,0.03,0.00,45.75,4.69,24.50,0.10,0.02,0.32,0.34,0.65,0.42,0.53
0.12,113.88,77.87,179.75,9.70,0.04,1.74,0.00,0.02,0.00,45.75,4.69,24.50,0.11,0.05,0.30,0.34,0.65,0.42,0.53
0.13,113.88,77.94,179.75,9.67,0.03,1.66,0.02,0.01,0.01,45.75,4.69,24.50,0.08,0.02,0.37,0.34,0.65,0.42,0.53
0.15,113.81,78.00,179.81,9.63,0.04,1.60,0.04,0.01,0.00,46.88,5.00,24.87,0.03,0.04,0.41,0.34,0.65,0.42,0.53
0.16,113.81,78.06,179.81,9.67,0.12,1.62,0.04,0.00,0.00,46.88,5.00,24.87,0.04,0.09,0.35,0.34,0.65,0.42,0.53
0.18,113.69,78.19,179.75,9.63,0.02,1.75,0.00,0.00,0.01,45.50,4.69,23.69,0.05,0.04,0.23,0.34,0.65,0.42,0.53
0.19,113.50,78.19,179.75,9.76,0.06,1.78,0.01,0.01,0.01,45.00,5.25,24.50,0.23,0.07,0.18,0.35,0.65,0.42,0.53
0.20,113.50,78.25,179.69,9.57,0.17,1.77,0.03,0.03,0.01,45.00,5.25,24.50,0.03,0.16,0.21,0.35,0.65,0.42,0.53
0.21,113.44,78.31,179.56,9.44,0.09,1.65,0.03,0.03,0.01,45.00,5.00,24.50,0.09,0.02,0.35,0.35,0.65,0.42,0.53
0.22,113.25,78.31,179.56,9.60,0.03,1.62,0.02,0.01,0.01,45.00,5.00,24.50,0.00,0.04,0.13,0.35,0.65,0.43,0.53
0.23,113.31,78.31,179.75,9.69,0.05,1.76,0.03,0.00,0.02,45.00,5.00,24.50,0.08,0.09,0.30,0.35,0.65,0.43,0.53
0.24,113.31,78.37,179.87,9.64,0.11,1.64,0.04,0.01,0.02,45.00,5.69,24.50,0.06,0.09,0.27,0.35,0.65,0.43,0.53
0.26,113.37,78.44,179.94,9.61,0.00,1.65,0.00,0.01,0.01,45.00,5.69,24.50,0.01,0.05,0.35,0.35,0.65,0.43,0.53
0.27,113.06,78.50,179.94,9.60,0.09,1.58,0.02,0.02,0.01,45.75,4.25,24.00,0.00,0.11,0.28,0.35,0.65,0.43,0.53
0.28,113.06,78.56,179.94,9.59,0.12,1.68,0.01,0.01,0.01,45.75,4.25,24.00,0.04,0.07,0.28,0.35,0.65,0.43,0.53
0.29,113.06,78.56,179.94,9.59,0.07,1.64,0.02,0.01,0.02,44.69,6.06,23.19,0.02,0.05,0.27,0.35,0.65,0.43,0.53
0.30,113.12,78.56,179.87,9.70,0.00,1.76,0.03,0.02,0.01,44.69,6.06,23.19,0.09,0.00,0.17,0.35,0.65,0.43,0.53
0.31,113.19,78.56,179.75,9.70,0.00,1.78,0.02,0.01,0.02,46.19,5.25,23.69,0.06,0.03,0.14,0.35,0.65,0.43,0.53
0.32,113.12,78.62,179.69,9.65,0.03,1.73,0.00,0.01,0.01,46.19,5.25,23.69,0.01,0.05,0.24,0.35,0.65,0.43,0.53
0.33,113.12,78.62,179.69,9.66,0.01,1.75,0.03,0.01,0.01,46.19,5.25,23.69,0.05,0.02,0.17,0.35,0.65,0.43,0.53
0.34,113.06,78.62,179.63,9.62,0.02,1.77,0.03,0.01,0.01,45.75,5.00,23.19,0.00,0.01,0.18,0.35,0.64,0.43,0.53
0.36,113.19,78.62,179.38,9.71,0.05,1.66,0.02,0.04,0.01,45.75,5.00,23.19,0.01,0.07,0.26,0.35,0.64,0.43,0.53
0.37,113.00,78.62,179.25,9.59,0.07,1.74,0.02,0.03,0.01,45.69,5.00,24.87,0.01,0.04,0.18,0.35,0.64,0.43,0.53
0.39,113.00,78.62,178.94,9.72,0.08,1.72,0.05,0.01,0.02,46.50,5.00,23.69,0.11,0.04,0.20,0.35,0.64,0.43,0.53
0.40,113.12,78.62,178.69,9.72,0.10,1.66,0.07,0.00,0.02,46.50,5.00,23.69,0.35,0.03,0.44,0.35,0.64,0.43,0.53
0.41,113.25,78.69,178.44,10.11,0.06,1.39,0.06,0.06,0.02,46.50,5.00,23.69,0.49,0.01,0.51,0.35,0.64,0.43,0.53
0.42,113.06,78.81,178.44,10.35,0.05,1.85,0.04,0.11,0.01,45.38,5.37,24.06,0.72,0.00,0.03,0.35,0.64,0.43,0.53
0.43,112.94,78.94,178.44,9.84,0.14,3.02,0.13,0.09,0.03,45.38,5.37,24.06,0.22,0.09,1.14,0.35,0.64,0.43,0.53
0.44,112.88,78.87,178.50,9.37,0.13,2.96,0.01,0.10,0.03,45.69,6.06,23.69,0.24,0.09,1.08,0.35,0.64,0.43,0.53
0.45,112.94,78.62,178.81,9.43,0.17,2.50,0.12,0.25,0.08,45.69,6.06,23.69,0.18,0.13,0.58,0.35,0.64,0.43,0.53
0.46,113.12,78.37,179.00,9.30,0.32,2.76,0.18,0.27,0.05,45.69,6.06,23.69,0.30,0.28,0.79,0.35,0.65,0.43,0.53
0.47,113.06,78.19,179.00,8.81,0.22,2.81,0.09,0.33,0.00,45.38,5.25,23.69,0.77,0.18,0.77,0.35,0.65,0.43,0.53
0.48,113.19,77.81,178.94,8.53,0.17,2.60,0.00,0.40,0.02,45.38,5.25,23.69,1.04,0.13,0.50,0.34,0.65,0.43,0.52
0.49,113.19,77.31,178.87,8.08,0.25,2.76,0.02,0.52,0.02,44.56,5.00,25.19,1.47,0.21,0.56,0.34,0.65,0.43,0.52
0.50,112.94,76.69,178.81,7.49,0.36,2.79,0.10,0.66,0.06,44.56,5.00,25.19,2.03,0.31,0.48,0.34,0.65,0.44,0.52
0.51,113.25,75.94,178.38,7.06,0.50,2.88,0.18,0.84,0.09,44.56,5.00,25.19,2.43,0.42,0.43,0.34,0.66,0.44,0.51
0.52,113.37,74.94,177.94,6.97,0.51,2.91,0.19,0.92,0.09,44.69,4.69,24.87,2.35,0.40,0.27,0.33,0.66,0.44,0.51
0.54,114.00,72.62,177.38,7.39,0.12,2.87,0.09,1.07,0.05,44.69,4.69,24.87,2.21,0.45,0.30,0.32,0.67,0.45,0.50
0.55,113.88,71.44,177.50,6.77,0.52,2.51,0.14,1.05,0.03,43.19,5.69,26.87,2.97,0.76,0.59,0.32,0.67,0.45,0.49
0.57,112.56,68.62,178.12,6.09,0.53,3.23,0.62,1.58,0.22,41.37,5.69,29.37,2.58,0.22,0.32,0.31,0.68,0.47,0.47
0.58,111.81,66.81,178.38,6.21,0.57,3.90,0.59,1.63,0.15,41.37,5.69,29.37,2.73,0.48,0.09,0.31,0.69,0.48,0.46
0.59,111.12,65.06,178.69,5.91,0.89,4.32,0.40,1.59,0.11,41.37,5.69,29.37,3.07,0.93,0.26,0.30,0.69,0.48,0.44
0.60,111.31,63.25,178.31,5.84,0.85,3.68,0.19,1.60,0.20,40.19,5.69,32.19,2.49,0.51,0.87,0.30,0.70,0.49,0.43
0.61,112.31,61.50,177.50,6.64,0.55,3.96,0.33,1.58,0.29,40.19,5.69,32.19,1.16,0.10,0.02,0.28,0.70,0.49,0.43
0.62,112.94,59.69,176.94,7.88,0.21,4.97,0.09,1.68,0.23,37.38,5.69,35.75,0.58,0.04,0.03,0.27,0.71,0.50,0.42
0.63,113.12,57.69,176.87,8.29,0.14,4.70,0.11,1.82,0.19,37.38,5.69,35.75,0.04,0.50,0.21,0.27,0.71,0.51,0.40
0.65,112.75,53.94,177.00,8.18,0.40,5.96,0.39,1.54,0.20,34.50,6.75,37.38,0.25,0.69,0.19,0.25,0.72,0.52,0.38
0.66,111.88,52.38,177.56,7.78,0.28,5.77,0.47,1.42,0.02,34.50,6.75,37.38,0.01,0.53,0.21,0.25,0.73,0.53,0.37
0.68,111.69,48.94,177.81,8.63,0.61,5.56,0.09,1.47,0.26,30.37,6.75,40.69,1.29,0.28,1.06,0.23,0.74,0.54,0.34
0.69,111.69,47.31,177.75,8.72,0.46,5.56,0.25,1.47,0.27,27.06,6.50,42.69,1.02,0.17,0.52,0.23,0.74,0.54,0.33
0.70,111.25,45.56,177.94,7.62,0.26,6.46,0.25,1.62,0.15,27.06,6.50,42.69,0.70,0.01,0.39,0.22,0.74,0.55,0.32
0.71,107.06,43.81,177.75,7.93,0.23,6.81,0.13,1.44,0.25,27.06,6.50,42.69,2.53,0.15,0.25,0.21,0.75,0.55,0.31
0.72,106.94,42.19,177.44,9.82,0.08,6.77,0.10,1.47,0.19,25.25,6.06,45.19,3.32,0.25,0.73,0.20,0.75,0.56,0.30
0.73,106.87,40.44,177.44,9.26,0.14,6.34,0.22,1.50,0.04,25.25,6.06,45.19,1.63,0.11,1.90,0.19,0.75,0.56,0.29
0.74,106.75,38.88,177.75,6.95,0.10,5.60,0.31,1.40,0.03,25.25,6.06,45.19,0.24,0.62,1.93,0.19,0.76,0.56,0.28
0.75,106.87,37.63,178.00,6.21,0.40,5.93,0.21,0.99,0.09,20.88,8.69,46.37,0.60,0.58,1.88,0.18,0.76,0.56,0.27
0.76,106.75,36.50,178.00,7.40,0.21,6.19,0.08,1.29,0.15,20.88,8.69,46.37,1.69,0.44,1.05,0.18,0.76,0.57,0.26
0.77,106.69,35.00,178.06,7.51,0.12,7.48,0.14,1.39,0.11,18.00,7.50,48.69,2.15,0.42,0.32,0.17,0.77,0.57,0.25
0.78,106.56,33.56,178.25,7.02,0.23,8.30,0.18,1.18,0.07,18.00,7.50,48.69,1.67,0.79,0.29,0.16,0.77,0.57,0.24
0.80,106.56,32.00,178.38,6.85,0.94,7.94,0.08,0.71,0.04,14.50,6.50,48.38,1.65,0.71,0.37,0.15,0.77,0.57,0.23
0.81,106.63,31.19,178.31,7.41,0.80,8.51,0.06,0.69,0.03,14.50,6.50,48.38,2.44,0.09,0.66,0.15,0.77,0.58,0.22
0.82,107.06,30.56,178.31,7.39,0.93,9.10,0.03,0.46,0.01,14.50,8.25,49.19,2.40,1.18,0.67,0.15,0.78,0.57,0.22
0.83,107.06,30.31,178.44,6.46,1.45,8.36,0.14,0.20,0.03,14.50,8.25,49.19,1.22,1.38,0.09,0.15,0.78,0.57,0.22
0.84,107.06,30.19,178.81,6.19,0.21,8.96,0.35,0.14,0.07,14.50,8.25,49.19,1.25,0.38,0.48,0.15,0.78,0.57,0.21
0.85,107.44,29.81,179.12,6.33,0.86,10.86,0.10,0.35,0.14,12.50,7.87,48.56,1.45,0.74,2.35,0.15,0.78,0.57,0.21
0.86,107.63,29.56,179.00,5.67,1.40,9.62,0.26,0.12,0.09,12.50,7.87,48.56,0.83,1.25,1.09,0.14,0.78,0.57,0.21
0.87,107.87,29.63,178.75,4.96,0.31,7.97,0.18,0.03,0.01,11.38,6.50,49.88,0.11,0.12,0.54,0.14,0.78,0.57,0.21
0.88,107.87,29.44,178.81,5.67,1.38,9.44,0.13,0.22,0.02,11.38,6.50,49.88,0.84,1.56,0.91,0.14,0.78,0.57,0.21
0.89,107.81,29.19,179.00,6.61,1.29,10.66,0.15,0.25,0.02,11.38,6.50,49.88,1.83,1.43,2.10,0.14,0.78,0.57,0.21
0.90,108.06,29.06,179.00,6.81,1.10,11.81,0.07,0.02,0.04,10.38,7.56,48.69,2.03,0.95,3.25,0.14,0.78,0.57,0.21
0.91,108.12,29.12,178.87,6.63,2.25,10.91,0.31,0.00,0.02,10.38,7.56,48.69,1.85,2.06,2.35,0.14,0.78,0.57,0.21
0.92,108.25,29.12,178.56,6.65,2.20,10.59,0.31,0.03,0.02,11.75,7.19,49.06,1.36,0.52,1.43,0.14,0.78,0.57,0.21
0.93,108.69,29.37,178.31,5.53,0.53,9.68,0.00,0.42,0.03,11.75,7.19,49.06,0.20,1.91,0.75,0.14,0.79,0.56,0.21
0.95,108.87,30.12,178.69,5.55,0.14,8.88,0.18,0.12,0.06,11.69,7.50,49.06,1.49,0.78,1.00,0.14,0.79,0.56,0.22
0.96,108.94,29.75,178.56,6.98,1.56,10.59,0.28,0.37,0.11,11.69,7.50,49.06,2.34,1.01,2.73,0.14,0.79,0.56,0.22
0.98,109.12,29.63,177.81,6.42,0.16,10.30,0.05,0.13,0.12,12.37,8.25,49.50,1.77,1.14,2.20,0.13,0.79,0.56,0.22
0.99,108.94,29.69,177.87,6.93,0.75,10.76,0.03,0.07,0.06,12.37,8.25,49.50,2.01,0.64,1.38,0.14,0.79,0.56,0.22
1.00,109.06,29.81,177.75,6.16,0.09,9.13,0.07,0.16,0.11,11.69,7.87,49.06,0.73,0.17,0.66,0.14,0.79,0.56,0.22
1.01,108.94,29.94,177.50,6.52,0.77,9.44,0.32,0.00,0.26,11.69,7.87,49.06,1.48,0.45,1.62,0.13,0.79,0.56,0.22
1.02,108.69,29.94,177.00,6.19,0.81,10.49,0.19,0.04,0.26,11.69,7.87,49.06,1.76,0.21,2.22,0.13,0.78,0.56,0.22
1.03,108.75,29.94,176.94,7.36,0.68,10.74,0.00,0.02,0.14,12.37,7.87,48.25,2.32,0.27,1.88,0.13,0.79,0.56,0.22
1.04,108.69,30.19,176.69,6.86,0.68,9.79,0.18,0.28,0.06,12.37,7.87,48.25,1.45,0.03,0.65,0.13,0.78,0.56,0.23
1.05,108.87,30.75,176.69,5.76,0.32,7.82,0.10,0.54,0.01,11.38,8.25,47.06,0.75,0.15,0.58,0.13,0.78,0.56,0.23
1.06,108.87,31.25,176.94,6.18,0.38,8.81,0.16,0.44,0.03,11.38,8.25,47.06,1.19,0.07,0.25,0.14,0.78,0.56,0.23
1.07,108.81,31.62,176.69,7.00,1.07,9.06,0.23,0.28,0.05,11.38,8.25,47.06,1.86,0.59,0.72,0.14,0.78,0.56,0.24
1.08,109.19,32.13,176.25,7.36,0.98,8.64,0.39,0.54,0.04,12.37,9.38,47.88,2.15,0.44,0.35,0.14,0.78,0.56,0.24
1.09,109.19,33.06,176.19,6.20,0.28,7.94,0.15,0.92,0.04,12.37,9.38,47.88,0.85,0.25,0.25,0.14,0.78,0.55,0.25
1.10,109.50,34.00,176.44,6.54,0.03,7.79,0.17,0.81,0.08,13.88,9.38,47.06,1.06,0.45,0.31,0.15,0.78,0.55,0.25
1.11,109.56,34.38,176.50,7.46,0.24,7.73,0.08,0.77,0.10,13.88,9.38,47.06,1.86,0.24,0.29,0.15,0.78,0.55,0.26
1.12,109.63,35.31,176.44,6.96,0.32,7.17,0.04,1.04,0.05,13.88,9.38,47.06,1.20,0.17,0.74,0.16,0.78,0.55,0.27
1.13,109.75,36.56,176.44,7.44,0.21,7.16,0.32,1.18,0.07,15.75,8.69,48.25,1.50,0.24,0.63,0.16,0.78,0.55,0.27
1.14,109.75,37.88,176.87,7.55,0.00,7.88,0.22,1.20,0.20,15.75,8.69,48.25,1.44,0.38,0.22,0.17,0.77,0.54,0.28
1.15,109.87,39.25,177.12,7.38,0.13,7.53,0.03,1.30,0.16,15.75,8.69,48.25,0.78,0.17,1.16,0.18,0.77,0.54,0.29
1.16,110.12,40.88,176.87,7.20,0.68,5.77,0.20,1.48,0.03,19.00,8.69,47.38,0.71,0.40,1.86,0.18,0.77,0.54,0.30
1.17,110.19,42.50,176.81,7.13,0.78,5.48,0.27,1.47,0.15,19.00,8.69,47.38,1.06,0.58,0.98,0.19,0.76,0.53,0.31
1.18,110.50,44.19,177.25,8.12,0.56,6.13,0.36,1.48,0.19,21.87,8.69,45.38,1.11,0.96,0.78,0.20,0.76,0.53,0.32
1.19,114.94,45.94,177.69,7.98,0.76,6.12,0.17,1.64,0.17,21.87,8.69,45.38,1.49,0.86,1.51,0.21,0.76,0.52,0.33
1.20,114.19,47.81,178.00,8.81,0.32,5.14,0.18,1.71,0.16,21.87,8.69,45.38,1.54,0.54,1.43,0.22,0.75,0.52,0.34
1.21,113.19,49.81,178.50,8.04,0.07,5.01,0.33,1.85,0.22,24.50,7.50,43.75,0.57,0.28,2.18,0.23,0.75,0.51,0.35
1.22,112.06,51.94,179.12,7.00,0.30,3.59,0.28,1.84,0.15,24.50,7.50,43.75,0.65,0.50,2.44,0.24,0.74,0.51,0.36
1.23,111.37,53.94,179.56,7.45,0.55,3.60,0.22,1.78,0.13,28.87,6.50,42.19,0.45,0.31,1.47,0.26,0.73,0.51,0.37
1.24,110.88,55.81,179.94,8.69,0.08,4.37,0.14,1.71,0.10,28.87,6.50,42.19,0.39,0.13,0.92,0.27,0.73,0.50,0.39
1.25,110.69,58.00,179.81,8.29,0.31,4.30,0.05,2.00,0.06,28.87,6.50,42.19,0.02,0.32,0.89,0.28,0.72,0.50,0.40
1.26,110.63,60.31,179.69,7.22,0.60,2.88,0.05,2.09,0.06,32.50,4.69,39.88,1.29,0.62,1.96,0.29,0.71,0.49,0.41
1.27,110.50,62.44,179.44,7.23,0.03,2.38,0.06,1.93,0.12,32.50,4.69,39.88,0.76,0.28,1.42,0.30,0.70,0.48,0.43
1.28,110.00,64.56,178.81,8.50,0.61,3.09,0.23,1.91,0.17,36.38,4.25,35.38,0.35,0.53,1.11,0.31,0.70,0.48,0.44
1.29,109.56,66.75,178.00,8.84,0.69,3.35,0.11,1.96,0.19,36.38,4.25,35.38,0.19,0.58,0.84,0.32,0.69,0.47,0.45
1.30,109.44,68.94,177.38,9.03,0.39,2.12,0.02,1.99,0.12,36.38,4.25,35.38,0.11,0.23,1.39,0.33,0.68,0.46,0.46
1.31,109.37,71.19,177.12,8.09,0.34,2.16,0.14,2.12,0.00,39.38,2.75,33.00,1.18,0.50,0.98,0.34,0.67,0.46,0.48
1.32,109.50,73.56,177.00,6.31,0.10,1.08,0.04,2.03,0.05,39.38,2.75,33.00,3.09,0.03,1.68,0.35,0.66,0.45,0.49
1.33,108.87,75.31,175.69,7.33,1.36,1.64,0.36,1.50,0.21,42.69,2.75,28.19,2.15,1.18,0.82,0.36,0.65,0.45,0.50
1.34,108.37,76.75,173.75,7.80,0.89,2.93,0.06,1.31,0.25,42.69,2.75,28.19,1.74,0.64,0.70,0.36,0.65,0.44,0.50
1.35,108.56,78.25,172.69,6.97,0.40,1.94,0.27,1.37,0.06,42.69,2.75,28.19,2.62,0.15,0.03,0.37,0.64,0.44,0.51
1.36,108.75,78.94,172.37,7.56,0.08,1.34,0.48,1.18,0.00,45.25,2.50,24.06,2.08,0.15,0.40,0.37,0.64,0.43,0.52
1.37,109.37,80.19,172.00,8.02,0.55,2.06,0.35,0.94,0.05,45.25,2.50,24.06,1.64,0.32,0.50,0.37,0.63,0.43,0.53
1.38,109.69,81.19,170.87,8.15,0.99,2.05,0.23,0.86,0.11,46.69,2.06,21.75,1.29,1.56,0.07,0.37,0.63,0.42,0.53
1.39,109.37,81.94,168.50,8.65,2.41,1.17,0.12,0.63,0.24,46.69,2.06,21.75,0.71,2.42,0.09,0.38,0.63,0.42,0.54
1.40,109.00,82.50,165.37,9.47,2.62,1.61,0.08,0.48,0.19,46.69,2.06,21.75,0.02,1.53,0.17,0.38,0.62,0.42,0.54
1.42,109.19,83.56,177.87,9.95,1.19,0.94,0.19,0.75,0.01,47.19,3.50,20.19,1.12,0.39,0.34,0.39,0.62,0.41,0.55
1.43,109.44,84.37,177.94,7.96,0.85,0.70,0.11,0.72,0.06,47.19,3.50,20.19,1.79,0.50,0.18,0.39,0.62,0.40,0.55
1.44,109.25,84.87,178.00,7.99,1.17,0.68,0.05,0.41,0.05,48.19,2.06,19.37,0.85,1.16,0.13,0.39,0.61,0.40,0.55
1.45,109.12,85.12,178.00,9.34,1.70,0.99,0.21,0.15,0.07,48.19,2.06,19.37,0.14,1.44,0.41,0.39,0.61,0.40,0.55
1.46,108.56,85.25,178.06,9.83,1.83,1.40,0.45,0.06,0.08,48.87,2.06,17.69,0.06,1.51,0.66,0.40,0.61,0.41,0.55
1.47,108.00,85.31,178.12,9.19,1.62,0.82,0.60,0.02,0.09,48.87,2.06,17.69,0.64,0.86,0.08,0.40,0.61,0.41,0.55
1.48,107.31,85.25,178.19,9.38,0.67,0.93,0.63,0.09,0.08,48.87,2.06,17.69,0.38,0.37,0.18,0.40,0.60,0.42,0.55
1.49,106.50,85.25,178.25,9.98,0.54,1.32,0.57,0.07,0.11,48.87,2.06,17.69,0.20,0.84,0.57,0.41,0.60,0.42,0.54
1.50,106.06,85.25,178.31,9.47,0.72,0.97,0.39,0.00,0.14,48.87,2.06,17.69,0.99,1.06,0.47,0.41,0.60,0.42,0.54
1.51,105.94,85.25,178.50,8.71,0.82,0.16,0.10,0.11,0.18,48.56,2.06,17.37,1.05,1.07,0.93,0.41,0.60,0.43,0.54
1.52,106.12,85.00,178.75,8.84,1.24,0.52,0.00,0.36,0.22,48.56,2.06,17.37,0.92,1.44,0.29,0.41,0.60,0.43,0.54
1.53,106.44,84.56,179.00,9.83,1.70,1.54,0.09,0.47,0.22,48.56,2.06,17.37,0.07,1.87,0.63,0.40,0.60,0.43,0.54
1.54,106.81,84.25,179.19,10.49,1.92,0.85,0.23,0.23,0.14,48.56,2.50,18.19,0.73,2.05,0.10,0.40,0.60,0.43,0.54
1.55,107.00,84.25,179.25,10.89,1.56,0.03,0.29,0.01,0.10,48.56,2.50,18.19,1.13,1.67,0.94,0.40,0.60,0.43,0.54
1.56,107.44,84.25,179.44,10.56,0.99,0.17,0.06,0.01,0.05,48.19,3.19,18.56,0.80,1.08,0.79,0.40,0.60,0.43,0.54
1.57,107.44,84.25,179.44,10.15,0.22,0.31,0.09,0.10,0.04,48.19,3.19,18.56,0.40,0.13,1.29,0.40,0.60,0.43,0.54
1.58,107.44,84.13,179.50,10.14,0.01,0.34,0.02,0.20,0.14,48.19,3.19,18.56,0.39,0.08,1.36,0.40,0.60,0.43,0.54
1.59,107.44,83.87,179.69,10.05,0.21,0.20,0.00,0.21,0.20,48.19,3.19,19.00,0.20,0.47,0.94,0.40,0.60,0.44,0.54
1.60,107.69,83.62,179.94,9.50,0.62,0.00,0.06,0.26,0.26,48.19,3.19,19.00,0.23,0.60,1.10,0.39,0.60,0.44,0.54
1.61,107.94,83.31,179.69,9.39,0.70,0.65,0.07,0.27,0.27,48.19,3.19,19.00,0.49,1.01,1.99,0.39,0.60,0.44,0.54
1.62,108.44,83.00,175.00,9.36,1.13,0.38,0.15,0.28,0.29,48.50,3.87,19.00,0.07,0.85,1.28,0.39,0.60,0.44,0.54
1.64,109.81,82.37,169.62,9.39,0.15,0.72,0.23,0.20,0.30,48.19,4.25,19.00,0.32,0.08,1.99,0.38,0.60,0.45,0.54
1.65,110.25,82.06,167.62,9.57,0.41,0.96,0.02,0.21,0.27,48.19,4.25,19.00,0.12,0.92,1.69,0.38,0.60,0.45,0.54
1.66,110.37,81.69,166.25,10.01,0.69,0.24,0.18,0.33,0.27,48.19,4.25,19.00,0.31,1.02,1.61,0.37,0.60,0.45,0.54
1.67,110.25,81.25,165.50,9.94,0.19,0.31,0.34,0.37,0.23,47.75,5.25,19.75,0.25,0.56,1.75,0.37,0.60,0.46,0.54
1.68,110.12,80.87,164.88,9.63,0.77,0.28,0.30,0.27,0.23,47.75,5.25,19.75,0.14,0.19,1.83,0.37,0.60,0.46,0.53
1.69,109.69,80.56,164.25,9.76,0.35,0.39,0.43,0.21,0.22,47.06,5.00,20.19,0.09,0.08,1.93,0.37,0.60,0.47,0.53
1.70,109.19,80.31,163.87,8.73,0.89,1.03,0.63,0.12,0.19,47.06,5.00,20.19,0.93,0.43,2.61,0.38,0.60,0.47,0.53
1.71,108.69,80.00,163.62,9.41,1.14,1.80,0.49,0.33,0.22,47.06,5.00,20.19,0.24,0.67,3.43,0.38,0.60,0.48,0.52
1.72,108.31,79.69,163.62,11.67,0.31,0.50,0.44,0.59,0.24,46.69,5.00,22.56,2.03,0.19,1.22,0.38,0.60,0.48,0.52
1.73,108.00,79.00,163.62,11.06,0.55,1.24,0.59,0.39,0.25,46.69,5.00,22.56,1.44,0.01,0.58,0.38,0.60,0.49,0.52
1.74,107.44,78.62,163.62,8.78,2.10,0.78,0.69,0.01,0.16,46.69,6.50,23.75,0.82,1.55,2.64,0.38,0.59,0.49,0.51
1.75,106.69,78.62,163.44,9.54,2.69,1.33,0.46,0.02,0.18,46.69,6.50,23.75,0.06,2.13,3.19,0.38,0.59,0.49,0.51
1.76,106.44,78.44,163.00,11.11,0.46,1.09,0.28,0.38,0.30,46.69,6.50,23.75,1.51,0.12,0.81,0.38,0.59,0.50,0.51
1.77,106.31,77.94,162.25,11.23,0.03,1.60,0.60,0.10,0.30,46.69,5.69,22.56,1.37,0.87,0.31,0.38,0.59,0.50,0.51
1.78,105.81,77.81,161.81,9.84,0.82,2.36,0.47,0.07,0.13,46.69,5.69,22.56,0.25,0.17,0.40,0.38,0.59,0.51,0.50
1.79,105.37,77.87,161.62,10.11,1.23,1.70,0.32,0.14,0.06,46.69,5.69,22.56,0.85,0.99,0.47,0.38,0.58,0.51,0.50
1.80,104.69,78.06,162.00,10.55,2.15,1.60,0.33,0.16,0.08,46.00,5.00,22.56,0.91,1.31,0.49,0.39,0.58,0.51,0.50
1.81,104.06,78.19,162.94,10.07,1.53,2.58,0.34,0.01,0.13,46.00,5.00,22.56,0.11,0.57,0.65,0.39,0.58,0.51,0.50
1.82,103.50,78.12,164.06,9.47,0.80,2.36,0.24,0.13,0.16,46.25,5.00,23.06,0.12,0.25,0.43,0.39,0.58,0.51,0.50
1.83,103.06,78.06,165.19,9.13,0.32,1.54,0.21,0.13,0.14,46.25,5.00,23.06,0.13,1.12,0.23,0.39,0.58,0.51,0.50
1.84,102.56,77.81,166.69,9.71,0.78,2.25,0.24,0.29,0.20,46.25,5.00,23.06,0.13,1.26,0.24,0.39,0.58,0.51,0.49
1.85,102.00,77.50,168.44,10.13,0.00,2.69,0.17,0.32,0.25,46.00,4.56,23.87,0.55,0.41,0.62,0.40,0.58,0.52,0.49
1.86,101.56,77.37,169.87,9.17,0.50,2.32,0.11,0.13,0.22,46.00,4.56,23.87,0.39,0.12,0.21,0.40,0.58,0.52,0.49
1.87,101.19,77.25,171.06,9.10,0.17,2.26,0.07,0.15,0.20,46.00,3.87,23.06,0.46,0.16,0.13,0.40,0.59,0.52,0.48
1.88,100.94,77.12,172.06,9.44,0.06,2.25,0.02,0.18,0.16,46.00,3.87,23.06,0.11,0.36,0.08,0.40,0.59,0.52,0.48
1.89,100.81,76.94,172.81,8.86,0.60,1.85,0.05,0.17,0.12,46.00,3.87,23.06,0.69,0.88,0.34,0.40,0.59,0.52,0.48
1.90,100.62,76.81,173.25,9.09,0.91,1.93,0.20,0.23,0.11,45.56,3.75,23.87,0.44,1.16,0.30,0.40,0.59,0.52,0.48
1.91,100.25,76.56,174.00,9.70,0.09,2.25,0.13,0.25,0.03,45.56,3.75,23.87,0.17,0.32,0.02,0.40,0.59,0.52,0.48
1.92,100.12,76.31,174.31,9.55,0.63,2.13,0.01,0.26,0.02,45.25,2.69,24.19,0.03,0.40,0.19,0.40,0.59,0.52,0.47
1.93,100.00,76.00,174.56,9.50,0.10,2.45,0.10,0.23,0.06,45.25,2.69,24.19,0.00,0.11,0.08,0.40,0.59,0.52,0.47
1.94,99.75,75.81,175.06,9.03,0.26,2.26,0.17,0.18,0.07,45.25,2.69,24.19,0.46,0.45,0.14,0.40,0.59,0.52,0.47
1.95,99.31,75.56,175.62,9.61,0.27,2.28,0.17,0.27,0.05,45.25,2.37,25.06,0.71,0.40,0.01,0.40,0.59,0.52,0.47
1.96,99.06,75.31,176.06,10.46,0.04,2.69,0.09,0.21,0.02,45.25,2.37,25.06,0.73,0.02,0.36,0.40,0.59,0.52,0.47
1.97,98.94,75.12,176.31,9.14,0.10,2.14,0.10,0.15,0.04,45.25,2.37,25.06,0.53,0.13,0.89,0.40,0.59,0.53,0.46
1.98,98.62,75.00,176.75,9.08,0.00,1.47,0.11,0.09,0.06,44.88,2.37,25.88,0.07,0.07,0.85,0.40,0.59,0.53,0.46
1.99,98.50,74.81,177.12,9.37,0.57,2.55,0.01,0.25,0.07,44.88,2.37,25.88,0.08,0.45,0.02,0.40,0.59,0.53,0.46
2.00,98.44,74.50,177.44,9.31,0.63,2.46,0.06,0.28,0.08,44.88,2.69,27.06,0.27,0.47,0.46,0.40,0.60,0.53,0.46
2.02,98.56,74.00,178.06,9.69,0.41,1.94,0.04,0.25,0.12,44.88,2.69,27.06,0.38,0.48,0.38,0.39,0.60,0.53,0.46
2.03,98.50,73.62,178.50,9.70,0.24,2.86,0.02,0.31,0.12,43.38,2.69,25.50,0.21,0.16,0.05,0.39,0.60,0.53,0.45
2.05,98.50,72.94,179.25,8.81,0.65,2.05,0.13,0.33,0.12,44.50,2.37,26.69,0.26,0.67,1.20,0.39,0.61,0.53,0.45
2.06,98.44,72.37,179.81,9.88,0.46,1.89,0.13,0.76,0.26,44.50,2.37,26.69,1.72,0.27,0.30,0.39,0.61,0.53,0.45
2.07,98.50,71.62,179.63,10.93,0.61,3.89,0.27,0.61,0.17,44.50,2.37,26.69,0.53,0.56,0.70,0.38,0.62,0.53,0.44
2.08,98.75,71.31,179.63,8.00,0.70,3.77,0.13,0.17,0.05,43.38,2.69,27.87,1.38,0.75,0.65,0.38,0.62,0.53,0.44
2.09,99.25,71.19,179.94,8.30,0.64,3.83,0.40,0.10,0.01,43.38,2.69,27.87,0.10,0.55,0.70,0.38,0.62,0.53,0.44
2.10,99.75,71.12,179.63,8.97,0.53,3.60,0.28,0.05,0.01,43.06,2.00,28.25,0.53,0.51,0.05,0.37,0.62,0.53,0.45
2.11,99.81,71.12,179.69,8.70,0.50,2.95,0.02,0.09,0.09,43.06,2.00,28.25,0.00,0.50,0.30,0.37,0.62,0.52,0.45
2.12,99.81,71.00,179.94,9.44,0.52,3.00,0.07,0.14,0.09,43.06,2.00,28.25,0.01,0.49,0.05,0.37,0.62,0.52,0.44
2.13,100.00,70.94,179.94,9.02,0.43,3.27,0.07,0.03,0.01,42.56,3.06,27.87,0.41,0.40,0.18,0.37,0.62,0.52,0.44
2.14,100.19,70.94,179.69,9.02,0.45,3.44,0.20,0.14,0.04,42.56,3.06,27.87,0.02,0.49,0.22,0.37,0.62,0.52,0.45
2.15,100.62,70.69,179.38,9.53,0.49,3.39,0.26,0.20,0.01,43.00,2.69,27.87,0.27,0.53,0.16,0.37,0.63,0.52,0.45
2.16,100.81,70.50,179.44,9.66,0.58,3.31,0.15,0.19,0.10,43.00,2.69,27.87,0.39,0.58,0.19,0.37,0.63,0.52,0.45
2.17,100.75,70.37,179.75,9.67,0.53,3.64,0.02,0.07,0.10,43.00,2.69,27.87,0.43,0.54,0.35,0.37,0.63,0.52,0.44
2.18,100.56,70.44,179.87,8.99,0.11,4.17,0.10,0.10,0.06,42.56,3.06,29.06,0.25,0.10,0.89,0.37,0.63,0.52,0.44
2.19,100.25,70.62,179.50,8.45,0.13,4.25,0.13,0.13,0.05,42.56,3.06,29.06,0.77,0.23,0.83,0.37,0.63,0.52,0.44
2.20,100.25,70.62,179.50,8.66,0.38,3.97,0.07,0.01,0.01,43.69,2.00,29.06,0.58,0.36,0.72,0.37,0.63,0.52,0.44
2.21,100.56,70.56,179.75,8.80,0.37,3.83,0.20,0.06,0.03,43.69,2.00,29.06,1.06,0.11,0.67,0.37,0.63,0.52,0.44
2.22,101.00,70.56,179.69,7.97,0.46,4.03,0.23,0.03,0.08,43.69,2.00,29.06,1.27,0.44,0.77,0.37,0.63,0.52,0.45
2.23,101.56,70.50,179.19,8.01,0.79,4.13,0.29,0.04,0.07,43.69,2.69,29.06,1.22,0.75,0.86,0.37,0.63,0.52,0.45
2.24,102.25,70.50,178.44,8.15,0.24,4.14,0.42,0.03,0.11,43.69,2.69,29.06,1.08,0.16,0.87,0.36,0.63,0.52,0.45
2.25,103.19,70.62,177.44,7.72,0.27,3.95,0.49,0.15,0.15,43.00,2.69,29.06,1.53,0.42,0.71,0.36,0.63,0.52,0.45
2.26,103.94,70.75,176.56,7.24,0.32,3.91,0.33,0.07,0.14,43.00,2.69,29.06,2.01,0.51,0.69,0.36,0.63,0.52,0.46
2.27,104.44,70.69,175.87,7.64,0.16,3.74,0.25,0.11,0.13,43.00,2.69,29.06,1.61,0.06,0.51,0.35,0.63,0.52,0.46
2.28,104.75,70.56,175.56,7.89,0.61,3.84,0.29,0.19,0.11,43.00,3.37,27.87,1.35,0.34,0.57,0.35,0.63,0.52,0.46
2.29,105.31,70.37,174.94,8.23,0.30,3.63,0.28,0.15,0.08,43.00,3.37,27.87,0.99,0.00,0.33,0.35,0.63,0.52,0.46
2.30,105.81,70.19,174.50,9.40,0.43,3.41,0.27,0.19,0.04,43.69,3.37,27.06,0.88,0.82,0.38,0.35,0.64,0.52,0.46
2.31,106.19,69.87,174.38,10.71,0.30,3.99,0.15,0.27,0.15,43.69,3.37,27.06,2.06,0.34,0.73,0.34,0.64,0.51,0.46
2.32,106.19,69.56,174.87,11.89,0.65,4.32,0.01,0.30,0.15,43.69,3.37,27.06,2.59,0.80,1.24,0.34,0.64,0.51,0.46
2.33,106.19,69.25,175.19,11.51,1.46,4.97,0.13,0.29,0.09,42.19,5.00,28.25,2.13,1.39,1.36,0.34,0.64,0.51,0.46
2.35,108.19,68.94,173.50,10.65,0.72,2.23,0.67,0.07,0.21,42.19,5.00,28.25,1.50,0.33,1.26,0.33,0.65,0.51,0.46
2.36,109.44,68.81,172.13,10.45,0.37,1.44,0.63,0.04,0.22,42.19,4.25,29.87,1.34,0.46,2.81,0.33,0.65,0.51,0.46
2.37,110.56,68.81,171.00,10.59,0.01,0.52,0.58,0.03,0.14,42.19,4.25,29.87,1.61,0.45,3.13,0.32,0.65,0.51,0.47
2.38,111.25,68.87,170.50,10.95,0.33,0.11,0.43,0.08,0.09,41.75,5.00,29.50,1.80,0.24,3.36,0.32,0.65,0.51,0.47
2.39,111.56,69.00,170.62,10.94,1.64,0.34,0.34,0.02,0.21,41.75,5.00,29.50,1.62,1.33,3.23,0.32,0.65,0.50,0.47
2.40,111.88,68.94,170.81,10.58,1.96,0.11,0.27,0.11,0.13,41.75,5.00,29.50,1.42,1.40,3.36,0.32,0.65,0.50,0.47
2.41,111.94,68.87,170.94,10.06,0.88,0.82,0.07,0.02,0.08,41.88,6.06,29.56,0.91,0.33,2.65,0.32,0.65,0.50,0.47
2.42,111.81,68.94,171.25,9.72,0.00,0.74,0.01,0.09,0.13,41.88,6.06,29.56,0.57,0.52,2.73,0.32,0.65,0.50,0.47
2.43,111.75,69.06,171.37,9.49,0.38,0.48,0.16,0.15,0.14,41.75,5.25,29.50,0.33,0.89,2.95,0.32,0.65,0.50,0.47
2.44,111.75,69.25,171.44,9.81,0.14,0.55,0.36,0.14,0.10,41.75,5.25,29.50,0.63,0.66,2.86,0.32,0.65,0.50,0.47
2.45,112.19,69.37,171.25,9.99,0.48,0.21,0.40,0.17,0.09,41.75,5.25,29.50,0.80,0.03,3.17,0.32,0.65,0.49,0.48
2.46,112.69,69.62,171.06,9.83,0.69,0.31,0.23,0.23,0.12,42.56,6.06,28.25,0.46,0.35,2.87,0.32,0.66,0.49,0.48
2.47,112.81,69.87,171.06,9.47,0.95,0.99,0.16,0.27,0.11,42.56,6.06,28.25,0.25,0.44,2.30,0.32,0.66,0.49,0.48
2.48,112.94,70.25,171.13,9.62,0.98,1.11,0.16,0.28,0.13,42.56,6.06,28.25,0.47,0.51,2.03,0.32,0.66,0.49,0.48
2.49,112.94,70.62,171.25,9.49,1.14,1.11,0.11,0.32,0.18,42.19,6.50,29.06,0.03,0.70,2.19,0.32,0.65,0.49,0.48
2.50,112.88,70.94,171.62,9.27,1.10,1.00,0.03,0.25,0.26,42.19,6.50,29.06,0.08,0.59,1.87,0.32,0.65,0.48,0.49
2.51,112.56,71.25,172.44,9.38,0.86,1.98,0.00,0.24,0.32,43.25,6.50,27.87,0.22,0.35,0.87,0.32,0.65,0.48,0.49
2.52,112.12,71.56,173.69,9.62,0.66,2.35,0.03,0.22,0.43,43.25,6.50,27.87,0.38,0.37,0.63,0.33,0.66,0.48,0.49
2.53,111.75,71.87,175.00,9.86,0.48,2.31,0.11,0.24,0.44,43.25,6.50,27.87,0.75,0.15,0.73,0.33,0.66,0.47,0.49
2.54,111.50,72.06,176.06,10.43,0.40,2.34,0.19,0.11,0.36,44.00,5.69,27.50,1.32,0.28,0.58,0.33,0.66,0.47,0.49
2.55,111.62,72.12,176.75,10.11,0.48,2.27,0.31,0.04,0.27,44.00,5.69,27.50,0.30,0.31,0.65,0.33,0.66,0.47,0.49
2.56,111.75,72.25,177.06,9.31,0.29,2.31,0.23,0.10,0.16,44.38,5.00,27.06,0.21,0.21,0.76,0.33,0.66,0.46,0.49
2.57,111.75,72.50,177.50,9.00,0.91,1.98,0.07,0.23,0.18,44.38,5.00,27.06,0.32,1.30,1.02,0.33,0.66,0.46,0.49
2.58,111.69,72.75,178.12,9.10,1.37,1.90,0.16,0.26,0.24,44.38,5.00,27.06,0.26,1.46,0.99,0.33,0.66,0.46,0.49
2.59,111.69,73.06,178.69,9.51,1.55,1.81,0.15,0.23,0.21,44.38,5.00,26.19,0.27,1.42,1.01,0.33,0.66,0.46,0.49
2.60,111.50,73.25,179.38,9.84,1.31,1.78,0.04,0.16,0.20,44.38,5.00,26.19,0.56,1.35,1.19,0.34,0.66,0.45,0.49
2.61,110.88,73.37,179.50,9.76,1.23,1.51,0.30,0.13,0.21,44.00,5.00,25.50,0.36,1.21,1.27,0.34,0.66,0.45,0.49
2.63,109.19,73.69,177.06,9.02,0.89,1.76,0.41,0.10,0.16,44.00,5.00,25.50,0.39,0.75,0.97,0.35,0.66,0.45,0.49
2.64,108.19,73.75,176.00,9.08,1.31,2.23,0.48,0.03,0.14,44.38,2.75,24.19,0.32,1.12,0.49,0.35,0.66,0.46,0.49
2.66,106.12,73.62,173.69,9.30,1.44,2.28,0.58,0.05,0.12,44.38,2.50,24.69,0.10,1.14,0.45,0.36,0.65,0.46,0.48
2.67,104.69,73.62,171.87,9.04,1.47,2.40,0.72,0.04,0.09,44.38,2.50,24.69,0.36,1.08,0.32,0.37,0.65,0.46,0.48
2.68,103.87,73.62,170.62,9.18,1.28,1.73,0.79,0.14,0.06,44.38,2.50,24.69,0.21,0.81,0.99,0.37,0.65,0.46,0.47
2.69,102.62,73.44,169.62,9.52,1.06,1.62,0.68,0.19,0.02,45.88,2.06,25.06,0.12,0.54,1.13,0.37,0.65,0.47,0.47
2.70,101.69,73.25,169.06,10.34,0.90,1.38,0.48,0.20,0.04,45.88,2.06,25.06,0.96,0.35,1.40,0.38,0.65,0.47,0.46
2.71,101.06,73.00,168.87,10.37,0.82,1.39,0.37,0.20,0.06,45.88,2.06,25.06,0.98,0.12,1.35,0.38,0.65,0.47,0.46
2.72,100.81,72.87,169.00,10.09,0.52,1.70,0.22,0.13,0.08,45.88,1.00,25.88,0.50,0.06,1.04,0.38,0.65,0.47,0.46
2.73,100.50,72.75,169.13,9.68,0.77,1.72,0.35,0.11,0.10,45.88,1.00,25.88,0.09,0.47,1.17,0.38,0.65,0.48,0.46
2.74,100.00,72.69,169.06,9.23,1.54,1.70,0.45,0.12,0.09,44.38,0.69,26.19,0.18,1.13,1.13,0.38,0.65,0.48,0.46
2.75,99.25,72.56,168.81,9.21,1.74,1.68,0.62,0.15,0.08,44.38,0.69,26.19,0.16,1.09,1.27,0.38,0.64,0.48,0.45
2.76,98.31,72.37,168.56,9.40,1.55,1.80,0.67,0.19,0.13,44.38,0.69,26.19,0.06,0.96,1.10,0.39,0.64,0.49,0.45
2.77,97.50,72.19,168.62,9.46,1.60,2.04,0.63,0.23,0.18,44.00,0.25,25.88,0.12,1.01,0.89,0.39,0.64,0.49,0.45
2.79,96.19,71.69,169.00,9.18,1.47,2.07,0.57,0.28,0.20,44.00,0.50,25.88,0.12,0.89,0.93,0.39,0.63,0.50,0.44
2.80,94.94,71.69,167.94,8.88,1.66,1.83,0.69,0.30,0.24,44.00,0.50,25.88,0.43,1.01,1.17,0.40,0.63,0.50,0.43
2.81,94.13,71.37,168.25,8.40,1.65,1.32,0.68,0.36,0.28,44.00,0.50,25.88,0.89,1.01,1.73,0.40,0.63,0.51,0.43
2.82,93.56,71.00,168.87,8.52,1.11,1.43,0.59,0.44,0.31,44.38,0.06,27.06,0.74,0.50,1.69,0.40,0.63,0.52,0.43
2.83,93.37,70.75,169.31,9.40,0.83,1.56,0.38,0.60,0.44,44.38,0.06,27.06,0.16,0.26,1.66,0.40,0.63,0.52,0.42
2.84,93.19,70.19,170.56,10.04,0.55,1.66,0.02,0.63,0.47,43.25,0.75,27.87,0.83,0.06,1.67,0.40,0.63,0.53,0.42
2.85,93.69,69.56,172.31,9.68,0.71,1.68,0.21,0.54,0.47,43.25,0.75,27.87,0.50,0.30,1.75,0.39,0.63,0.53,0.42
2.86,94.62,69.06,174.12,9.19,0.70,2.79,0.25,0.35,0.46,43.25,0.75,27.87,0.04,0.40,0.71,0.38,0.63,0.54,0.42
2.87,95.56,68.75,175.81,9.44,0.47,2.94,0.27,0.39,0.45,42.56,0.06,29.50,0.94,0.00,0.64,0.38,0.63,0.54,0.42
2.88,96.56,68.25,177.50,10.76,0.11,2.91,0.72,0.57,0.45,42.56,0.06,29.50,2.14,0.00,0.87,0.37,0.63,0.54,0.42
2.89,98.50,67.69,179.81,10.46,0.12,2.73,0.99,0.53,0.51,42.56,0.06,29.50,0.06,0.10,0.94,0.36,0.63,0.54,0.42
2.90,100.94,67.25,177.44,7.90,0.28,3.04,0.92,0.30,0.60,42.56,1.00,29.87,1.69,0.36,0.65,0.35,0.63,0.54,0.43
2.91,102.25,66.75,175.69,8.14,1.21,2.96,0.27,0.74,0.42,42.56,1.00,29.87,0.07,1.43,0.55,0.35,0.63,0.54,0.43
2.92,103.56,65.81,174.44,9.83,2.25,3.86,0.37,0.88,0.47,41.50,3.87,29.50,1.67,1.93,0.10,0.34,0.64,0.55,0.43
2.93,105.12,64.69,172.87,10.95,2.38,3.88,0.60,0.79,0.46,41.50,3.87,29.50,1.68,1.56,0.51,0.33,0.64,0.55,0.43
2.94,106.75,63.87,171.37,9.86,1.69,3.64,0.57,0.55,0.45,41.50,3.87,29.50,0.46,0.64,0.53,0.32,0.64,0.55,0.43
2.95,108.37,63.31,169.87,9.00,1.07,4.18,0.59,0.42,0.46,40.00,5.00,32.38,0.62,0.24,0.09,0.31,0.64,0.55,0.43
2.96,110.44,62.56,168.25,9.75,1.14,4.23,0.84,0.64,0.51,40.00,5.00,32.38,1.32,0.30,0.41,0.30,0.64,0.56,0.43
2.98,115.19,61.06,164.50,9.36,1.52,3.27,0.57,0.42,0.63,39.25,7.50,33.56,0.37,0.13,1.30,0.28,0.65,0.56,0.44
2.99,116.37,60.50,163.31,8.44,1.62,3.17,0.19,0.35,0.53,39.25,7.50,33.56,0.09,0.24,1.44,0.27,0.65,0.56,0.44
3.00,117.37,59.88,162.62,8.65,2.00,2.99,0.11,0.50,0.44,38.25,9.25,33.56,0.16,0.54,1.69,0.27,0.65,0.57,0.44
3.01,118.56,59.13,161.75,8.75,1.81,3.10,0.32,0.55,0.50,38.25,9.25,33.56,0.32,0.24,1.66,0.26,0.65,0.57,0.44
3.02,120.19,58.38,160.69,8.97,1.77,3.98,0.45,0.52,0.56,37.50,10.50,35.19,0.61,0.07,0.85,0.25,0.65,0.57,0.44
3.03,121.87,57.62,159.56,9.23,1.94,4.24,0.49,0.54,0.53,37.50,10.50,35.19,0.94,0.11,0.66,0.24,0.65,0.57,0.44
3.04,123.62,56.94,158.50,9.20,2.28,3.90,0.52,0.47,0.47,37.50,10.50,35.19,0.98,0.33,1.06,0.23,0.65,0.58,0.44
3.05,124.50,56.63,158.00,8.86,2.66,4.01,0.42,0.33,0.39,36.88,12.19,35.19,0.69,0.59,0.99,0.23,0.65,0.58,0.44
3.06,125.75,56.19,157.19,8.69,2.73,4.15,0.22,0.20,0.32,36.88,12.19,35.19,0.56,0.59,0.88,0.22,0.65,0.58,0.44
3.07,126.56,55.88,156.63,8.60,2.70,4.12,0.19,0.18,0.29,34.56,14.38,35.88,0.30,0.48,0.98,0.22,0.65,0.58,0.44
3.08,127.62,55.56,156.06,8.28,2.71,4.09,0.41,0.21,0.22,34.56,14.38,35.88,0.26,0.43,0.92,0.22,0.65,0.58,0.44
3.09,128.81,55.25,155.44,8.38,2.68,4.23,0.46,0.20,0.20,34.56,14.38,35.88,0.49,0.18,0.87,0.21,0.65,0.58,0.44
3.11,131.44,55.00,153.81,8.52,2.57,4.22,0.44,0.16,0.17,34.69,15.50,34.38,0.31,0.00,0.79,0.20,0.65,0.58,0.45
3.12,132.19,55.06,153.12,8.19,2.55,4.20,0.29,0.10,0.09,34.69,15.50,34.38,0.14,0.02,0.79,0.20,0.65,0.57,0.45
3.13,132.81,55.00,152.87,8.01,2.80,4.23,0.19,0.06,0.04,34.56,16.69,36.38,0.02,0.24,0.76,0.20,0.65,0.57,0.45
3.14,133.19,54.88,152.69,7.97,2.53,4.01,0.12,0.08,0.05,34.56,16.69,36.38,0.02,0.20,0.98,0.20,0.65,0.57,0.45
3.15,133.56,54.75,152.62,8.12,2.43,4.08,0.05,0.13,0.05,34.25,17.69,36.00,0.10,0.16,0.94,0.19,0.65,0.57,0.45
3.16,133.81,54.69,152.56,8.45,2.86,4.22,0.09,0.22,0.01,34.25,17.69,36.00,0.57,0.37,0.65,0.19,0.66,0.57,0.45
3.17,134.12,54.50,152.56,8.68,3.05,4.48,0.08,0.17,0.03,34.25,17.69,36.00,0.70,0.43,0.56,0.19,0.66,0.57,0.45
3.18,134.44,54.31,152.50,8.91,2.84,4.51,0.05,0.10,0.05,33.88,17.25,35.19,0.94,0.21,0.55,0.19,0.66,0.57,0.45
3.19,134.63,54.25,152.50,8.67,2.78,4.59,0.06,0.03,0.00,33.88,17.25,35.19,0.71,0.14,0.48,0.19,0.66,0.57,0.45
3.20,134.63,54.31,152.50,8.30,2.60,4.28,0.01,0.01,0.04,32.88,16.56,35.56,0.34,0.03,0.78,0.19,0.66,0.57,0.45
