0.02,-46.267229556158114,65.24737116049295,166.44674584341658,0.1369345483805865,0.1597237664003803,0.0373926918862879,0.161455253634463,0.2071645132801761,-0.1191962889444759,-108.71629816391147,88.09208648097481,1.0377884474765189,0.0276606131384173,-0.2030692832436504,-0.262143882151317,0.1267999533983588,0.0337601780551755,0.0825109186622577,-183.4396148678601,3.9131600813965264,0.3808584688768493,-0.0105441957982399,0.0995872586220405,0.0844252935830209,0.3285736219740494,0.0567934579046804,-0.2709547548226056,-129.3324344564064,15.932420004760743,10.17527770301628,-0.0707447099477888,0.1993720855989209,-0.0249510068551085,0.091626779438059,0.0686098999069883,-0.0473242738225586
0.03,-46.33195691176216,65.29299401986238,166.36626917328812,-0.1382997220932904,-0.0603508732633868,0.0873227337438551,0.1519715943408336,0.1725044486122678,-0.0570319628182661,-108.77643483956628,87.71892466950227,1.043571150097924,0.0364609450575773,-0.0651251199342468,-0.301270230746833,-0.0053024802275313,0.1295832361417576,-0.0666045981811853,-183.33203661425375,4.442165639409278,0.2205001348477444,0.1273121098142912,0.1092146927990337,-0.0194471160777828,-0.1442897924945094,-0.0818722367188985,0.1912546437759448,-129.37744856890637,15.92728533070728,10.5688001626605,-0.1065853400580478,0.1918399146330309,0.0958492908829662,0.018233690959738,0.0650236724319209,0.3622193965751851
0.04,-46.20192191071885,65.05255763720797,166.27232448868963,-0.0599547897753077,0.003104731722093,-0.184546256890714,0.0473069159976907,-0.1270714451092058,0.1615434687701779,-109.01229972192483,87.83874980705899,0.8670668335864113,-0.0063161988068392,0.1143449928917846,0.1512633608688597,-0.1262711648098831,0.2269722447736704,0.1489983195426671,-183.65851243973995,4.159134695029465,0.3841257971835536,-0.2192540027102242,-0.0560773434237739,-0.0163449572337482,0.0379861336334456,0.1510148902935782,0.3569016203119383,-129.53456259128967,15.884974796671482,10.461995368905896,-0.0280392516457411,0.0254640134280852,0.0705112131164704,0.2765630090064704,0.164317529731152,0.1476719958577206
0.05,-46.33492990970962,65.50901936954848,166.37284974157836,0.1679071576354083,0.0087512030031495,-0.0780727733669306,-0.1527148256245069,-0.112121249745115,0.2635325005386092,-108.7208353254468,88.02039345825754,1.216484392935257,0.0570450382109689,0.1877611417552987,-0.1437421968923697,-0.0883720981015634,0.4415892616621057,-0.0330706713552313,-183.68117402247785,4.259459024739062,0.3775325768577402,-0.0005007740164945,-0.0746187515230198,-0.0817060899832992,0.0072323290078725,0.0076792830983751,0.3486571785075009,-129.4961827527715,16.17506533252638,10.48970181450476,0.1887584772514879,0.2710363493243944,-0.0704937034663163,0.2667320618449432,0.0781648814049983,0.0005752043194707
0.06,-46.21490362438248,65.41309512181202,166.5138035403602,-0.2047178071369141,-0.1109553740660007,0.1194021456253279,0.4870982389404807,0.0685388976724436,0.1703760791905032,-108.94066777033964,87.9947543259698,0.8390516140099302,0.1133863437998609,0.2529048964994511,-0.0998276269276665,0.229994426498005,0.075328252435375,0.1104360334129402,-183.55316475131025,4.09177676825551,0.4314734960275009,0.0279200221468133,-0.0638219428456335,-0.1006288390464731,0.1941318574965866,0.0372548301103552,0.0355176607688211,-129.33127991484676,15.892976349591462,10.53427907801004,0.0835508816028064,0.1286174661648361,0.1756720708858318,-0.0041276300567929,-0.1089435537350665,0.1080693552334229
0.07,-46.56430995196766,65.28616835978181,166.69869630338934,0.0582995658546613,-0.1451158240289142,0.011903640126372,0.1818287678265313,0.0997485807105666,0.2431588795018173,-108.85249799429468,87.93076732634063,0.9258775526982754,0.2621938955129995,0.1500655031517034,0.0121292953019722,-0.0976692635773296,0.0532443743428794,-0.1116139517540549,-183.53764041421329,3.9890747676308713,0.3265681396229657,0.2293430660496751,-0.1255400392706898,0.0347020134297317,0.2434331151333182,-0.2164900894105287,0.0982511320243755,-129.8823989838349,15.718755352261576,10.602004261769403,-0.0504195222762287,0.2577998981559691,0.0764936865512428,0.1476783958648933,-0.1770990252854906,-0.1946987664564389
0.08,-46.29685824673602,65.08381522213918,166.39554373519857,0.163513060290608,0.0647883869120801,-0.1443786267974451,0.1912433668733572,0.1561507622651497,-0.2024301537845621,-108.69887112998758,87.82519200977461,1.1019406980711566,-0.101146849217279,0.1348561823054501,0.1274887695764668,0.3702248661070879,0.1835713696263183,-0.1673942997491043,-183.75917205471148,4.04973830788778,0.3543862353513934,0.0120311261346554,-0.0825186140534063,-0.0368725588210187,0.1054730659158219,0.0094442506905116,-0.0990521770568601,-129.6684024516242,15.63725757580658,10.657311773531625,0.2111037261808976,0.0103983662703974,-0.0331532241925706,-0.1001475700125383,0.0934400841838638,0.0933834636044153
0.09,-46.29279198076949,65.25476147282612,166.59176486664475,-0.1437796731509517,-0.0250286870576441,0.1698016506226651,0.0777648418561723,-0.0636063997361404,0.2084970656165422,-109.0776770632856,88.24331936743816,1.2718927679320158,0.016373631882331,0.1114501018646363,0.1369026736640324,0.3509022628593843,0.1760876400700377,-0.0043878270446832,-183.6925140899845,3.973896373888993,0.2941065809548639,-0.0300133334334518,0.2247970246872964,0.3080290362170634,0.0398843892346544,0.220356887113151,0.1137353779840496,-129.83578159536853,15.403963493646827,10.607102627539572,0.0268279968918581,0.0234025055279372,0.2203032004475075,0.1679056347324815,-0.0440226248654347,-0.0752447361694721
0.1,-46.48815276725336,65.19495311591133,166.3820006580253,-0.0108293456684939,-0.276428930854865,0.062214820957007,0.2738156536841476,-0.1336758209862058,0.1108134950081813,-108.81271416824993,88.09498229812378,0.9548760633458678,0.2964109108780397,0.4829521272521563,0.2373470124486172,0.1901342946440545,-0.2811762644935392,-0.0695370648615656,-183.4522275904784,3.874763157836571,0.3787072338907393,0.2655071445127745,0.1144491902382625,0.0109649038646626,0.389833396042977,0.0908212890241813,0.0809963645533144,-129.93759315929722,15.258016741757425,10.726856827923616,-0.2903521636859094,0.1751082311448177,0.0426967990369887,0.2529074031968137,0.200935549449152,0.2404730438237165
0.11,-46.19215600928008,65.37443514183836,166.70276449330996,-0.0086309313844546,-0.1144375320674741,0.0645334569798555,0.1032980229402466,0.2117241025114075,-0.1820551246709612,-109.11284385955742,87.79661859067802,0.977660429500996,-0.0975952410340927,-0.2604306037265301,-0.1390366566785571,0.352036956226736,0.0333143434457953,0.2343812714606231,-183.72071845545776,4.114768237346473,0.166871278216708,0.0736993760659229,0.1225301612215179,0.0719542974364989,0.3739385312222589,0.1125539830702847,0.0366325291006124,-129.83798766614427,15.629591260488231,10.535059038097552,-0.3778152153598861,0.1476359380584739,-0.0236638151160178,0.2266884842993788,-0.2043896210224569,0.0478272080777075
0.12,-46.20809441292748,65.03030033998269,166.36973456506456,-0.1126558543445977,-0.0323718442160967,0.2924809467772238,-0.1848982648305164,-0.2301795313740157,0.1901368283144753,-109.09460313825288,88.04165536183108,1.034358982330545,0.1458586831405806,0.0391547799173857,-0.0062173727334196,0.1798404229122412,0.0527516849005521,-0.2020997846616738,-183.36769960225604,4.196728431125635,0.3597520679828301,0.0150770233667283,0.0620990363689681,0.1156854769990035,-0.2063569481248822,0.4468820071726943,0.0773623237714895,-129.85088650845503,15.449574746063798,10.713029156750896,0.1903901251503371,0.0014355232749776,-0.1549222556720674,0.1543545537059437,0.0256758316512418,0.0300538874574564
0.13,-46.21556820347368,64.96159791339713,166.6455174948713,0.1038708822846971,0.0592857274723336,0.1423108361334542,0.1331776548784235,-0.0951765276476494,0.2945991422474078,-109.0681271797,88.2289360389603,1.1375425941329942,0.034058703060095,0.2732515811600802,-0.2106801092086145,0.1564830609000443,0.059901281213298,0.1539225074237503,-183.49045701977465,4.319610985556102,0.3676924453606092,-0.2856387261162869,-0.0571624886414499,0.0847850903701841,-0.3896560260462722,0.4100084699605822,0.126461187810609,-129.87605400114305,15.326907964470893,10.399454272577485,0.0777406888446488,0.153426327497519,0.0317075094443622,0.2456745444218691,0.0721647602772654,-0.1150507029945175
0.14,-46.3780637903239,65.07081132813424,166.41750248045443,0.1269675463587258,0.1968944548458387,0.0644063559816639,-0.1244258795798547,0.0539921988231707,0.0228034959947648,-109.171989910962,87.98204497977154,0.8872406488094038,0.1246180146705457,-0.2889942369095872,0.1008958734874438,-0.0030805085055272,-0.0022005831156786,0.1131599905163876,-183.43267233269407,3.994241839910498,0.1973535917456163,-0.1101406860940354,0.051000815108302,0.4051900810552645,0.0337549397042518,-0.0722662334214649,0.2003112353191344,-129.78528578518956,15.38660417540279,10.575928851165187,0.0556053858726864,-0.1699032325306594,0.1114287146538478,-0.1446546613945409,0.3407963504768033,0.1184348935072458
0.15,-46.49960466007101,64.88972995637721,166.4967031754102,-0.0235715171131177,-0.0454338734926908,-0.0390377024202246,-0.0025114207975598,0.1349418747934896,-0.0160342854454011,-109.13475715607706,88.01600597097944,0.9885862211247676,0.1795411189024547,0.0619380049431779,0.0523118765736126,-0.0407679141550753,0.056467434390752,-0.0819165743156318,-183.69303639024903,4.171263618434551,0.1414355341590962,-0.0435361658352217,-0.07484344963023,-0.0878458727797363,-0.4805486564471405,0.1234950712220636,0.0375662260244122,-129.59236855051154,15.417524988297796,10.521643898125626,0.107441324639432,0.1775679591926589,0.3418380013087549,0.5643171625072705,0.2163949961541491,0.0952615842645691
0.16,-46.47892984096685,65.06195518485725,166.4956106807266,-0.0324576597753606,-0.0812655484108579,0.0453958876673292,0.0207808757248416,0.0280186451919989,0.0436097078468173,-109.29813520468976,88.02046559287349,0.8289539251533233,0.159498217465989,-0.1251193279607677,0.1666924276981219,0.0429566739015539,-0.1494701577519148,-0.0480115444385144,-183.50383194502916,4.286419815629076,0.3438009018444664,0.0993998977646437,0.0020375946982803,-0.0548657178478916,0.0039459898296366,0.2269330385568413,0.1777730578224423,-129.4926914516085,15.44165507176463,10.373755454056996,-0.017020956124203,0.2080580650621494,0.013521911078605,0.2374311277042967,0.0590289874897415,-0.0863770831725861
0.17,-46.506761059211925,65.12331137938418,166.29288168891557,-0.0396071468929075,-0.1317336763940863,-0.0296332801210008,0.1400758912215187,0.2656467688951258,0.0848702442492891,-109.33438155694849,88.02966531106665,1.0588698056118746,0.2225361155596531,-0.0184454715946441,-0.0831733080795966,0.1281761960097924,-0.1032426351299866,0.0301785585781183,-183.6445387934288,4.313486605045417,0.2318024264066139,0.2153936912617714,0.2085040907943341,0.22832490058257,0.1277400382249678,0.2349359674105183,-0.027660880062602,-129.6148471561201,15.46113099189631,10.45168900923728,-0.0230682124551137,0.0719016769731999,-0.0761370399316209,0.4606032698106839,0.0750626696823505,0.1214839754691692
0.18,-46.16050281019731,65.1329705220523,166.48189587625734,-0.1056846818967768,-0.0324883368456126,-0.1432210887460145,-0.1274540343898224,-0.0595369269323585,-0.205602438806424,-109.27013309533986,87.9261518683269,0.5575522150148661,0.1269838723154046,0.0993635342136295,0.0519837221374192,0.1915122117540549,0.0271503265692125,0.128690237588976,-183.518991497408,4.28712497887058,0.1212326865857373,0.2513098295244313,-0.4104110959580473,0.1123977856551317,0.3802518267079326,0.3326129646164313,0.1208939567357552,-129.66035188849483,15.370583123331674,10.367677322504433,0.0650678274473778,0.1274449687292011,0.2082726321892513,0.2200281419210329,-0.1854914490839889,0.0531234718331787
0.19,-46.26926663867696,65.120726406323,166.3749152301266,-0.0685363888476281,-0.2489716259518014,0.0708659714334561,0.0066257079960832,0.1457091579809206,-0.041585191237449,-109.42062498472954,87.9173914371058,0.9455363507095184,0.0799953490538725,0.0141414282721364,0.2814866534778246,0.176310377512643,-0.286446214678891,0.1188552640676765,-183.856026826583,4.38337411789095,0.2716687317878189,-0.1895435118146392,0.0423930131288609,0.2896050677414676,-0.1300670070540001,0.1183659353436364,0.1221642027806589,-129.46147296772662,15.487587480873351,10.563605074654928,-0.1281576452853024,0.0247092567337677,0.2021739488130447,0.1892170602879039,0.0310440685170701,0.0394324942049829
0.2,-46.30324061247365,65.2815947341471,166.480329618265,-0.3161496540092263,0.1650462373946334,0.065658889610889,0.152843941348976,0.1762231195442146,-0.0021674492163924,-109.152919861628,87.58873565322546,1.0869726768876362,-0.1020496202627328,0.156810966194879,0.1114346359940091,0.0442529429492822,0.2701349055172467,0.410589612929737,-183.9083557743077,4.28978217451071,0.5143747243915576,0.0997482812834197,0.0515585283892893,-0.0209548484648818,-0.0193259363833499,0.0348937526291212,0.19285962028565,-129.74835780134532,15.188286494223128,10.347490751669245,0.126101077161004,-0.0779898156596495,0.0935768322859005,0.032139336985798,-0.059481782298557,0.3072937456558905
0.21,-46.3130075580411,65.0560641814154,166.47134285020545,0.3391310370675668,-0.1366542780817064,-0.1592132541395574,-0.3138078885282014,0.0559545815401977,-0.1315082346750173,-109.3481927190134,87.79031117690752,0.8935391907919472,0.1764984164714469,0.052966230318186,-0.1334376690183895,0.3273698915531956,0.1472178641495938,-0.1062396185380955,-184.0647905580253,4.271619004890793,0.3010584834813629,-0.0762312956592626,0.1170160585297288,0.0791013037060538,0.3256244752670947,0.231207936657163,0.1380536233158547,-129.63739936914746,15.174892372837128,10.21497054653564,0.0086194622597721,0.210723277474721,0.0311698789084404,0.0450365620377358,0.1374955121840986,0.3977510685922671
0.22,-46.66758724699439,65.3020150857763,166.52011783136297,0.0269309133550883,0.1415018099179373,-0.0907913031418777,0.2885849102062504,0.1377379048065542,0.0387263651791335,-109.5201531917226,87.91500543506393,0.7784272280822494,-0.1239452164329002,-0.0825202162361994,0.1912027093674822,0.3011004510568252,0.1185588658755807,0.3207889439957969,-183.85190691749204,4.385170566688018,0.2955513630461684,0.0857745502273659,-0.0642580489529249,-0.1073802674884177,0.0118026920332582,-0.0301981208976042,0.16025400060038,-129.74294077501006,14.945371025451296,10.344901864062829,-0.0552156385717978,-0.0058681033744077,-0.0204898613274303,-0.0634138157907205,-0.0127315207722263,0.024684464139736
0.23,-46.75899834125646,65.29816596753292,166.6181319434323,0.0596424300077754,0.2068404102362652,0.2229140150259654,0.1054457797505026,0.127142235190749,-0.0739411064667533,-109.379950322272,87.74801276812849,1.005685136075903,-0.1898597528194032,0.0803616533682992,0.0832120101266584,0.0058425880426064,-0.0109477496257381,0.2481249520352078,-183.9800962359573,4.521871370838402,0.0664316352278833,0.0351717968843883,-0.0164637577185231,0.2715794687042681,-0.0720495198102793,0.0681879472023775,0.1730848959345493,-129.58120687848347,14.96450338464327,10.386933932287963,-0.0409823416376502,0.188140849551545,0.1897092083914691,-0.0120726333414368,-0.0163123329814172,0.2809032720072233
0.24,-46.4477199000549,65.13859836745748,166.36455156394413,0.1855551798198355,-0.155596546578286,0.1205586586605139,0.0356823217257374,0.2738733438527286,-0.3897863203699419,-109.40687470884158,87.6202331266177,0.9503760799086388,-0.0361801833571507,-0.0683463343592963,0.0593100328956004,-0.2383759079692079,0.2642330464091686,0.0146032686942676,-183.7487345708665,4.622602426459145,0.2868469309549802,0.0227607589151329,0.2320978498713546,0.184396867778479,0.0440127699784691,-0.2490625774169917,0.0925512540933954,-130.01432972593966,15.0957471111224,10.416506278981972,-0.1152868759278009,-0.1375279829456909,0.0279854310319918,0.0792863809444939,0.2344851031576945,0.0076616357947097
0.25,-46.81311924013121,65.08425419584594,166.63302220322822,-0.0306083138611557,0.0060542305708851,-0.1421196468518698,0.2779142052323505,-0.0231942351402846,-0.0775319540101957,-109.39634607120458,87.4733600594219,1.0014572758088158,-0.1439853802038091,0.4403144683636145,-0.0870640801971038,0.1267967436724024,0.1623042877404635,0.190874240168927,-183.80689801269057,4.250479541452276,0.2022938446100148,0.0346247342512944,0.2393204223836588,-0.0583538277343672,-0.1468942876159274,0.0153031115351861,0.2128515330871589,-129.70422634664445,15.155241871511327,10.626680226245458,0.2966406844715556,0.1441938121499901,0.0759410772668408,0.0135581584299925,0.1964549820757858,0.2636751532649326
0.26,-46.30248392744223,65.0644574335137,166.89927218553566,0.2290714107183186,-0.0147882983153141,0.0463048279916833,0.1680379112430932,0.0121314254695903,0.0278002689863804,-109.6479492342644,87.63219736398959,0.9039675693406742,0.2104023924896497,-0.0266577465034532,0.1533581734828085,0.232572993130584,0.041843388843982,0.0253028605434355,-183.44260863613644,4.622060649451877,0.2398494257393725,0.1358398842806817,0.0200444036742653,-0.1564039062235408,0.1699041966364202,0.1450712801320665,0.0651388019546008,-129.8662413700181,14.732765830680586,10.73435232362859,0.087787674264819,0.0426356887813212,-0.0662656349006883,0.1066292653109084,0.0080656092172935,-0.0408594681386352
0.27,-46.7017912367489,65.12982839826053,166.4454262256131,0.0961527655177372,0.0746905588185174,0.2719495008171856,-0.0901427056319725,0.0189737758450489,0.2120664158182738,-109.59000585817428,87.4182793073651,0.8768285590479116,0.009140171095087,0.0473774686253194,0.0345543127041179,0.0124832211182522,-0.1732981463783847,0.2314734709740046,-183.67577521427827,4.661643693660329,0.1313687459169383,0.0263839170632597,0.1310658074462427,0.1790370361330227,0.2529610740894916,0.155079633525016,-0.0631899835232364,-129.6103427347679,15.169502902861824,10.51014409353744,0.1674066900427435,0.1852823703788046,0.2651339079267635,0.0758147332577915,0.0155866874237989,0.1495284659058363
0.28,-46.60447364002656,64.99118782194958,166.86230339833568,0.1642903865204659,0.1010442594645733,-0.0306517164008723,0.1994921368670274,0.1935591111262933,-0.0084093114298209,-109.86358495227545,87.42541598152047,0.5897251615372661,-0.0322683759589397,0.0059975866031238,0.0455670337450582,0.2911894498379009,0.0357600872923784,-0.0513535084107832,-183.74466339683144,4.601572765689527,0.1751395024363777,0.194206055526343,-0.1022399203068977,-0.0881095343031168,0.1120633398531464,-0.0461806232274403,0.3241009454585036,-129.6012704424285,14.84675384326417,10.56738431357544,-0.1181546837461566,0.0539348738425779,-0.0460421010677341,0.087392028600547,-0.0322972335230886,-0.0442968604021994
0.29,-46.58772309870264,65.18530006749253,166.48310365904766,0.119399781204572,-0.1000151267377921,-0.089935455439845,-0.0958540559079612,-0.0104390863402276,0.3602392964442735,-109.30552013777628,87.33001367784085,0.7130322015168514,-0.1717532763383374,-0.0089134224764195,-0.2573274226592065,0.3748196127993168,0.0570223326069791,-0.133799575343301,-183.85789238727764,4.657850449604265,0.2530275575148418,0.0757382359848252,-0.0633805775703135,0.0781497915741569,0.2575675503756801,-0.0146805766686361,0.1040184376946014,-129.52585045795826,15.173023335361725,10.51740013290938,0.0056313693932764,0.2106800412986492,-0.1453906949460069,0.3879349577762428,-0.0847369485781371,-0.0332805120904287
0.3,-46.51624316177386,64.62129725832507,166.93186112087793,-0.1994311405324915,0.0240627356538173,-0.0178841411958435,0.1794840845760966,0.0507353621604238,0.0174885925101622,-109.435687165781,87.23836134912445,0.6076457150195502,-0.1171887623652296,-0.0404545571934826,0.1016598597359697,0.0120481892321795,0.0574784131089022,0.2985562075073555,-183.99859800058468,4.512078262343709,-0.0181576120060636,-0.0123115790559532,-0.0175223994960957,0.2221878130320883,-0.0172957918303755,-0.0121126436955509,0.3105064354721827,-129.70203961079332,14.788343443236297,10.26841813347166,-0.073851904261418,0.1152065275829348,-0.0329669568157424,0.2303907811801374,0.0512719940506929,0.2263404926982852
0.31,-46.60619687017557,65.09210312373104,166.78693580845464,0.0588039994455302,-0.0230780680065496,-0.252164966339423,-0.0367099093426561,0.0142163742434223,-0.1717144278675138,-109.52744839023056,87.44138136384868,0.648232476179325,-0.0324864878810711,-0.0243318474383461,0.131305780343611,0.0184913066847295,0.1077795293062561,0.0516579532846891,-183.9786747386631,4.473769843960083,0.2891369793240683,-0.1406831348583703,-0.0068146682349604,-0.0266849093512896,0.0709872164880392,0.0576716326648639,0.105842876611517,-129.3917904472746,14.748983752554462,10.53048228224652,-0.142708173950957,0.1715353299017031,-0.1826286576834102,0.0794822915461743,-0.0904274827008253,-0.2569864960695364
0.32,-46.52254567772618,64.94962297909865,166.8769989511805,-0.0227282181692001,0.0172217399953891,-0.2062488996259185,0.2603088524067121,0.0514956848931122,0.0245991133476533,-109.29561881538385,87.39516627936838,0.753287878832156,-0.0725893981511733,-0.0299433352306481,0.1061209845069099,-0.087477989698547,0.0834964198221536,-0.0278713387553855,-183.83639569584807,4.510187141497261,0.0930422170875582,0.1603524022858106,0.0397847694999471,-0.0029579678617961,0.0254192484160071,0.2150997659577412,0.2228060349703332,-129.39026432855923,14.74737020074373,10.608458380444214,0.0743756328855509,0.1492565717284715,0.2107725810509202,-0.0799460337494608,0.0773510379642672,-0.2057003167848286
0.33,-46.49512469764659,64.63441814541063,166.93821906800804,0.0464799907244167,0.1734678522685363,-0.0504795768740243,0.3547001193583172,0.3250385559813543,-0.0480706257803864,-109.17396777638606,87.6081351539093,0.6835344908665444,0.0250084315066458,0.3351442143611312,0.0556111400454542,-0.025341253049045,0.0909666526705875,-0.0434307721702689,-183.86056202935976,4.774424513698394,0.0692439646859662,0.0588107714873121,-0.2781533715679722,0.333353656006101,0.0443615080312045,-0.0548168695950213,0.2725544115598171,-129.44343961641707,14.928719937250964,10.294046030868968,0.0664232350677575,-0.1570961386648016,-0.0184648440729486,0.1058888801817559,0.3735053426229396,-0.0680240781923261
0.34,-46.68461924991293,65.05106498714974,166.9791888877453,-0.135463184253736,0.0678357191054873,0.0966297352950259,-0.0632440212209137,0.1768088774700253,-0.2812425029414936,-109.4301562856765,87.6730570646041,0.5953046855352979,-0.0419925861652458,-0.1180411934169648,0.0114428394766144,0.0928437080349623,0.0292689639983716,0.1487041506104096,-183.8619033807388,4.830826471104153,0.1370464846851476,-0.0478605370803209,0.115767407551748,0.3293057111517437,-0.0022301061250281,-0.0973300468120412,0.2922000270622966,-129.12927934636866,14.700974821248616,10.54942226302754,-0.1103598097818268,0.3735743354079585,0.2331212770923258,0.1588114332689139,0.1829684072423668,-0.2096314108855411
0.35,-46.50672389962594,64.8044938380601,166.9359690800262,0.0952245117508742,0.0336451168227703,0.0813360604731628,0.0089456340764826,0.1245391499098497,0.0584435972162477,-109.40556958266832,87.91085425347129,0.3488390303043037,-0.002850099733666,-0.1630576181752603,0.1634449082343275,0.0889669996361918,0.0959480652748893,0.4078546064290731,-183.94278920377275,4.597463506887302,0.0970533501861387,0.1594432680497462,0.204218807741399,0.2267953470376566,0.1605195881231639,-0.0720447128049785,-0.0794598576798435,-129.04950814926207,14.369002208189997,10.272967808313622,0.1669092784523554,0.2900853528154704,-0.2309841762484413,0.2749727556366991,-0.0303830130103657,0.0073188772702078
0.36,-46.57114685480606,64.44509050325163,167.0154225180107,0.0596455688295168,-0.0919740448742591,0.0519066235782026,-0.0723811837147098,0.19412734920524,0.0336604123497716,-109.17497942861412,87.77559068743608,0.4127903998322415,0.121276558260483,0.1688730080597378,0.0528259358872791,0.2455790455703677,-0.0297670580009446,0.2203271266557232,-183.6413819619553,4.996278569362327,0.1015570385493992,-0.1094491285796497,0.1366778834818311,0.3074528135285367,-0.1447836792101613,-0.1035675896969146,-0.0451265743921743,-129.16641293102697,14.488909435846322,10.124804289087866,0.0277741589592202,0.3406755761759742,0.2341882432006095,0.3923560406027579,-0.0772214323552724,-0.1107794890564648
0.37,-46.3670894520837,64.62471252831754,167.06498278215346,0.1614336380576291,0.0180657572163436,0.0074239555714349,-0.0625541493105492,0.1977768454010689,0.1188309755670972,-108.86991516975692,87.85699578916707,0.554753373559922,0.0885107476738912,0.0552642891573267,0.092947926369397,0.0768172229566896,0.0919861081917077,0.0686852489028522,-183.3343997009908,4.756198177591361,0.277879219039125,0.163144299220347,0.1584506742062342,0.0239421914045425,-0.0582656859342599,0.0632734510323247,0.1811300041255518,-128.89418132471934,14.5733977506605,10.291643602657448,-0.0740137126029386,0.4274293131359841,0.2072727029638782,0.1174592922615842,-0.1488287865929717,-0.2002659769805852
0.38,-46.32969919535283,64.72915913420593,167.04905265131117,-0.0882859984840999,-0.1135441561648863,-0.0506290356352784,-0.1723602448013781,-0.0640511290391509,0.0432106090279757,-108.80456319376634,87.96645844641692,0.588272413569978,0.2370869571659351,0.1553614601772248,-0.2156386804179162,0.3192372680334779,0.0884858708645827,0.1050208571174503,-183.42551208231143,5.088186969502877,0.3377052359899159,0.1919283922381238,0.1668200651887231,0.1509521973780387,0.0651720059815521,-0.0809139938389015,0.094385403204046,-128.56035000825247,14.531135746193575,9.992301865852996,-0.0877247850166377,0.1599209318498348,0.2979446307287881,0.3064034211944229,0.1658666899040995,0.0403689595658206
0.39,-46.34000378563351,64.35970859227113,167.5461859798744,0.2871487540476682,0.012519535346548,-0.1009129476038179,-0.1251070265230447,0.4826247487863994,-0.2031073794967511,-109.02733723408916,87.83844148763852,0.7618891575695831,-0.0162305295393612,0.2550819754944112,0.1434948445559793,0.1215723938689108,0.1322728762761874,0.2493624285653214,-183.54182298013453,4.969802243406807,0.1498648597002116,-0.0801283252121042,0.0061206847804066,0.0094496715260644,-0.0657743143595665,0.2188330485115183,0.2512013244070112,-128.34873039987534,14.744936302219848,10.215420189255296,0.0098418396185498,-0.0559119841040832,0.2447534842407912,0.243905517749151,0.1673495814393047,0.1546390295744879
0.4,-46.13415420867464,64.55480664144271,167.40843293780392,-0.2045006139541229,0.0638336147844858,0.0825615604787408,0.2766671441428606,0.2007788764431675,0.0357435760579029,-109.00101542301626,87.57093778208241,0.3653857324214852,-0.0267561268411953,-0.2092739186544957,0.1113103844193827,0.2342622722506886,0.2153357351034567,0.0956707589260578,-183.55684739087812,4.948988624987615,0.4173395792608656,0.2581839265910758,0.1574108542028048,-0.0505668016098071,-0.0921391123131353,-0.0302442804386867,-0.1069902157170469,-128.16429546854164,14.37837430455689,10.036720958852133,-0.2548313859715411,0.0630725719140342,0.0723664664972011,0.5117195674165508,0.2523760723713061,-0.0987319558591919
0.41,-45.929831200817375,64.56621833936968,167.54861302990355,-0.1357500076982546,-0.1384022060885707,0.1712420238368576,0.0521477743948073,0.2615530206727865,0.1021674959446142,-108.72381248954598,87.92848112412779,0.3514649708552908,0.1038939026836976,0.0845242888034109,-0.1740276373496681,-0.1121944782142746,-0.0545152832856013,0.14598402715852,-183.13001359033612,5.362525804534828,0.6601379321335349,-0.1206841154446067,0.2345798656435403,0.0279837627369814,0.2574295766637861,-0.2943898723290379,0.1775122524639179,-128.15830516579587,14.681876329445863,9.749715413916627,-0.0002054616145907,0.0012447776645788,0.1773516019609494,0.8412181789996014,0.2930576567671295,0.1296258746809424
0.42,-46.12490490619375,64.44045378449397,167.69088068197445,0.1430810025587442,0.1347098546312765,-0.0466120367329966,0.0030460179933224,0.0322370306656985,0.2031569184804943,-108.83260214295974,88.08402306464379,0.6891242872953253,-0.0665212122575241,0.1916051731627296,0.0385733971831083,-0.1282474835086507,-0.0063111456622048,0.386619376488083,-183.1404186091125,5.177618000629568,0.5782288992496629,0.1262402430017032,0.2916911856701037,-0.1657570933955007,-0.2784567319091798,0.1267585935922244,-0.0384141304773542,-128.05890219184394,15.147405100182691,9.910194293004396,0.030302428587521,0.2273517678596393,0.1526535088722754,0.7338959284956065,0.0462043915929308,0.232805440932069
0.43,-45.956943857809314,64.38701949914406,167.73292932517492,-0.0354043112717755,0.1488093768612154,0.1780797236966096,0.0607075649196038,0.2887648016081131,0.2244766095662454,-108.71544317653806,88.06393164144667,0.573355022981412,-0.0146215627122333,-0.2266795199298388,0.0325766564751668,0.0334206733601365,-0.2441134675080625,0.3896320245055001,-183.1984419378431,4.92871751524256,0.596070309606227,0.2300018355132895,0.0217820465596009,-0.0182186257248271,0.0984082191077939,0.1939825002153147,0.416259130700075,-127.82672420015652,15.483592440812274,9.875767277326576,-0.018422448068602,0.0446262273610172,0.2047338470038993,0.4590578287382785,0.3498331054816185,0.2536886916124843
0.44,-45.87121107553675,64.42780988697113,167.8762480420748,0.2967521031886211,0.0794216595126539,0.0792075932834264,0.0277022922813547,0.2336135389034974,0.1384556164456472,-108.7689421728182,87.66266576695229,0.4172478647888922,-0.0154149485716912,-0.0716085790113211,-0.2112434556318726,0.0291596274386096,0.0675395786577305,0.2630888566352404,-182.722583558991,5.097810854892304,0.8915110319608804,0.1484039155569896,-0.1121546831969527,0.1208072687382676,0.0953105887181115,-0.1554879561490324,-0.1481760056594682,-128.10224063281768,15.81104279279404,9.857954185559477,0.0843891674562829,0.375468235642209,0.3719581441661944,0.6015519766418407,-0.0232129191917184,0.070838665201828
0.45,-46.06304272454507,64.57971981410775,167.52486821971982,-0.0708085780393252,-0.0364418878439861,-0.1945413428102757,0.1346832154963868,0.0844179869353914,0.1062947343023497,-109.0872797997154,87.8879101119115,0.3840060571891626,0.1507905378683568,-0.1268204194022474,-0.0414486850062626,0.2220179315813779,-0.0826792348206919,0.2959184824673437,-182.75700689463355,4.798020039358749,0.99097699797956,0.1782394820039976,0.17206474509625,0.0945377892335529,-0.2551200888480535,0.1651087544822856,-0.0328210554862911,-128.20591703437702,15.948125253872227,10.0283589175403,-0.1128697481385843,0.3941059554621701,0.1589448267925486,0.5344663993249095,0.1842917258660259,-0.1024350788235666
0.46,-45.950450018519895,64.50167880890763,167.74311031697505,-0.1306208749819047,0.1284921588244836,0.3048603554054031,0.0134005051572049,-0.0040720936355982,0.0501008444652689,-108.69974227133002,88.34974607932357,0.6301618551260832,0.0595211635379793,0.2185972242022422,0.1202334162517528,0.1902471039840151,-0.0505181069404716,0.1100070581164892,-182.6420224355793,5.081094919763832,0.7365298996677239,0.259455321457266,0.3109041943047037,0.0619090329626581,0.2616934661192771,0.0785264862634326,0.1488567472571964,-128.46978882699904,16.494815938288472,9.925149550089998,-0.1732306519623427,0.5876554028234341,-0.0743644172246987,0.4914555220512239,0.252606620392291,0.0680849956385101
0.47,-45.77345356241846,64.34273422638189,167.8387385475626,0.35500051520471,0.1093002938656036,-0.2566699177947265,0.0608712307033355,0.248182053369602,0.3277431676980717,-108.47502331787128,88.21635979139025,0.6678813245954972,0.122016855235304,0.0521326731493815,0.4346861139202415,-0.1585515851902615,0.1017568620909426,0.1747723451024769,-182.5820391839557,5.09195391986759,0.8840607683965194,0.054416557922657,-0.1647836868862374,0.2511932080594459,-0.1185899851779128,0.2947685154695896,0.2096256368253922,-128.5814684322155,16.918239705073145,9.976704858198072,-0.246601345459687,0.564284916706876,0.2253737355561604,0.4591697385798652,0.2019218987252841,0.4658394238634075
0.48,-45.86974727045938,64.55372053429437,167.68997458773998,0.1563092317220104,-0.0186483960894128,-0.0254584960333981,0.0026258324606466,-0.0124460932459652,0.0746803852823447,-108.75095700908192,87.92385071446728,0.8672385915614418,0.1463320102581739,0.1739867277651914,0.274140784984538,0.2537947961654023,0.1900199524611667,0.0655804238554675,-182.40290340484896,4.966520067779507,0.9924302542338628,0.2026608080900276,-0.1894764448883851,0.2725204452519029,0.0503503588717058,-0.0367711271174766,0.1820119855010592,-128.75010079547485,17.207884443715244,9.910381428928376,0.3180925337136847,0.368140994964768,0.1529450942864081,0.3648910588511597,0.0913274820600064,0.4810923821359102
0.49,-45.61124293589739,64.41968582835219,167.70196632233157,0.0298989554371461,-0.0481510718635072,0.1031671420866549,-0.0605477162429604,-0.1953581739432909,0.1125078072335049,-108.7512039697812,88.09822934423394,0.8162549448297086,0.1076577179625617,0.0891087028166508,0.2539652828092366,0.3234760385625582,0.0578548939950995,0.0717888070092251,-182.4293920914145,5.050506621636159,1.0314462914612474,0.1902308713139057,-0.0845645816381907,0.3293786788791752,0.0719521012547466,-0.0133611943224557,0.3836145935134116,-128.89112440205432,17.206615721244813,9.938929570963474,0.0694553385297397,0.6936811810829181,0.1642210940885628,0.5139080770559906,-0.1131578275019437,0.4660216737805775
0.5,-45.57944753492654,64.30171886715159,167.96976843938066,0.3211531364859861,0.0446721457630905,-0.0994002744661711,0.2909534833923367,-0.0063417150159531,0.0822659149623881,-108.9272440674574,87.97871019899209,0.6653105180641322,0.036512195053693,0.1118375181642194,-0.073532879834025,0.2856913659775744,0.1783531809521273,0.2324870285179707,-181.9839882182532,5.051107844065835,0.9331459563138323,-0.0282400864901135,0.0483165773314955,0.2952871940314319,0.171205615630534,-0.0145420467677072,0.1039222572832174,-129.29957156307387,17.836310875074762,10.205780211438464,0.1815280205754934,0.5555552602696787,0.1802797373718347,0.2939420306237453,0.1646115061517238,0.1062875809499523
0.51,-45.82069358695053,64.14384346729325,167.83809250092756,0.0621368777096796,0.177177711772308,-0.1430454620555669,0.2462158079440287,0.2366837784848271,-0.1092941584321343,-109.05370451363402,88.22135711257535,0.7979268207284724,0.1052007677639124,0.0201857618554286,-0.038668507645857,0.2598670922676962,0.2383125218835167,0.1454041222033107,-182.14928152625063,4.992092356819912,0.934295596713138,0.0423957927623123,0.1448452510927401,0.1901532165678051,0.1624822967881807,0.0495433347794892,0.0475457899883409,-130.04542418075712,18.550076691106696,10.13833096018893,0.0674613627446263,0.567499874146742,0.2742809406766545,0.4292848511214957,-0.0602920817224179,0.2600658916829053
0.52,-45.502631085200086,64.25214314910193,168.03277106715237,-0.1291376109418221,0.0021008417066389,-0.1276490745241171,0.1552336254514981,0.0232676278247297,0.0397127516087162,-108.9803783302124,88.12871992660952,1.0478583924798162,-0.0204356358144239,0.1787784283541613,0.1153725960242506,0.1510548101584416,0.2831360270443779,0.1673796187227296,-182.03855718895383,5.15406925921129,0.98245728086382,-0.0167972127118418,0.1267676469176535,0.2530491771173782,0.0809552823210206,0.2684521780835696,0.2073429953703484,-130.49775065260815,19.084152118312243,10.296294894785404,0.0794264461607986,0.551735918688916,0.424681910151967,0.1757884875434512,0.2921763357089602,-0.0172553445706198
0.53,-45.64610122848533,64.14915458284031,167.7315176307235,0.1576618053695429,-0.1326249404083091,0.0429881003990723,0.1788971910612423,0.0705295446935305,0.0792291601685256,-109.30342650137922,87.94013618856036,1.245279605797628,0.0406788938472993,0.4008505008189921,-0.0750062055887129,0.1496039311732406,0.0923945307011616,-0.1702644857431919,-181.61682253898377,4.736221912479539,0.9681337699756154,0.3458358681633934,-0.0432305905697771,0.090817116806013,-0.0620166337636316,-0.0179081718665319,0.3799570153730041,-130.7253312554063,19.61382502750173,9.93911712873336,0.5138537640347927,0.5595416542630622,0.4495439960953829,0.0935767067658229,0.0382674019968097,-0.0070710011576595
0.54,-46.042337385824645,64.141443407616,167.84079357484794,-0.0572981823258768,-0.0494493362551699,0.1015923053458079,0.1004131477188474,0.1966547409957844,0.2412680556554239,-109.0080926055941,88.1089997390633,1.2375751683047,-0.0081779079254128,0.2648842512554517,-0.1695712442478319,0.2473524104085812,0.1421350983588623,0.0981943654149827,-181.38004889112105,4.654844534602536,1.333396910861936,0.0093131307926667,0.194882976894414,0.135238651835313,-0.0880025030104436,-0.0448380052599176,0.1167597355568072,-131.02898735144183,20.12765369146688,10.10409036743262,0.0841343763138569,0.5383027905628929,0.4838001803867152,0.3366353645031528,-0.1515798209572059,0.237747044620751
0.55,-45.947815596278005,63.9270772641784,167.92429887406936,-0.0493224254202903,0.2723792132894121,-0.2530192496674643,0.430241014376161,0.1894673838573656,0.0578136080957318,-108.96637065822156,88.29661845999328,1.2404441811168914,-0.0393350935798649,-0.1144752669091858,-0.1607450720881888,0.1488119424194343,0.0294808142497258,0.1114437076781598,-181.31048841158207,4.335144768639013,1.0556002011860943,-0.0324108047171469,0.3213778311498838,-0.01480540792351,0.1391823424430238,0.0509624225120742,0.1434395821696083,-131.5746404072135,20.785948485212742,10.1581587189942,0.2003202368570695,0.6140549063971663,0.3614115313692968,0.3893220448870108,0.1319615786280828,0.1660345581981206
0.56,-45.86048810972933,63.67350966850885,167.6872789957812,-0.1243246041596359,0.1152556150520748,0.1487957180159627,0.1347970301070064,0.0002795960491056,0.043976423156897,-109.00365795891952,88.33795801762969,1.047677611416912,0.0437356640616084,-0.1767500867751886,-0.0745267776845668,0.1163385727107019,-0.0632440769513546,0.2061467896122891,-181.45504232713373,3.998873086126557,1.03192400400428,0.2632162502976191,0.0418227646805739,-0.0510647245289817,0.3371209874118233,0.196163572589469,0.0243228396356907,-131.9823170201715,21.158510056579704,10.23806820269414,0.2377556055258834,0.5543363514956101,0.5850801887727405,0.3819253929635512,0.1531347534800068,-0.0287199807729575
0.57,-45.94677524760081,63.6595280466979,167.92598570553582,0.0426213342037727,0.0413387460163883,-0.0405869922502587,0.322990786591764,-0.0557969609563448,0.2383402350569433,-109.20934954299015,88.40799839095116,1.3520431274795366,0.0113152285349012,0.364813281507102,0.1085108514795347,0.2816123191118266,0.1755944195913437,0.1347592828901123,-181.5256761334677,4.132117789293549,1.058609111391471,0.0839375415150256,0.1977630055272747,0.3312276101270452,0.4861557994000821,0.0060188500811907,0.2755631629688376,-132.7644702900752,21.71906950416409,10.357800374152202,0.1641722439545503,0.7126720447474045,0.4400308020451123,0.3328848846142792,0.4065619786432943,0.0926710214052882
0.58,-45.57439267099769,63.31286994301297,167.76753264195176,-0.1695908301098203,0.1364919505070976,0.0163038015963807,0.0484981516399555,0.1066159531980211,0.0316383009612172,-109.19884694362128,88.48331419007368,1.2300432366091705,-0.2544099768736602,0.1189223885123804,-0.0152095237103921,0.1310064078974805,0.1256976174931914,-0.056813773836908,-181.55700638313797,3.84180964652966,0.8994352785445157,0.1184306056839254,0.1679168244642876,0.4033692935103624,0.3739392047840192,0.2714017249638968,-0.0419356947254308,-133.4504202510394,22.5220406484863,10.336177581559204,0.1745424809491836,0.3656102372697515,0.5779295137598022,0.3792797218851298,0.3190859135107237,-0.0730046057111863
0.59,-46.15387424554597,63.288036885640295,167.86887285387812,0.0957178509450287,0.5462080812645305,0.223396713286636,-0.0875922762719721,0.1363933434692779,0.1186434262802426,-109.21638872750404,88.50776811908324,1.2319416588476513,0.113034787612603,0.1958859823313593,0.03783942508608,0.1004973744321447,-0.2672012463613636,0.0823073171667836,-181.8922010982616,3.826141799610186,0.7209971217109425,0.2392641633463209,-0.0724641059554728,0.2736479436658819,0.2356949591878701,0.5111889530761898,0.0029274923997797,-133.72886522709987,22.83737931492734,10.817376834595736,0.0585660986154642,0.626244955137276,0.3676168607384508,-0.0754009403164737,0.1110984879018298,0.0615973673959935
0.6,-46.05148680030669,63.56424650968384,168.08262592080973,-0.0089415934794965,-0.2265313167211115,-0.0149349921218561,-0.2167497112279352,0.2283908898865037,-0.2838277109802653,-109.1516790906003,88.3983593433914,1.215697700057225,-0.0894383591163138,0.1848897607590544,0.0212591396633599,-0.0129694006110838,0.136064695991419,0.1788895335151687,-181.76735284186404,3.31518962710834,0.6126571313437591,0.213203098535745,0.2612514503790371,0.2812418224961162,0.1373459577866346,0.3516245229758114,0.3243704515354064,-133.94485297861036,22.863041844845565,10.844247717100853,0.3600110789718539,0.6447512730137124,0.6067929590271975,0.2689074288794193,-0.0283608573076821,0.1707201727749472
0.61,-46.0088674899504,63.08058012254383,167.98513452507453,0.1348103110279384,0.0524012957650766,0.234845353977913,0.1146968797016729,0.2028613094598729,-0.1361156840768027,-109.21786096324612,88.48954469523548,1.335184745337307,-0.0796538627211724,-0.0522675058121559,0.0962831927293471,-0.1795588788516874,0.0841954839970278,0.1641446531806046,-182.27575788477745,3.23232401923921,0.1812964874424891,0.4818826864495011,0.3889064805915068,0.4742512658628254,-0.0294654332479409,0.2241017021243669,-0.0631395777336191,-134.7702203488042,23.35160211714581,10.860720781330434,0.0211850694984399,0.36634470208835,0.494545406107984,0.3837445503941732,0.4170227342430977,0.2155394717949113
0.62,-46.06664530350284,63.12814341376057,168.22941017794247,-0.0951529929708139,0.081439923121662,-0.0114170420284524,0.0700000298766401,-0.2000815534465815,-0.0258357042710952,-109.37488503016742,88.43065692081088,1.2647090586788734,0.301292511185193,-0.0868827261061575,-0.2958413986905336,0.3125478338610449,0.0950704217933201,-0.0049013977740867,-182.3251940537364,2.814353969069757,0.2812932071295029,0.675293382126875,0.3395041737661482,-0.0302775956370475,0.0639298176504402,0.3757577285662008,-0.0529215991685873,-135.27503499204542,24.172994510024814,11.420075748980237,-0.0853160794476628,0.6640998896686218,0.4516577091875348,0.5513789898802889,0.1160615500873667,-0.009185999243014
0.63,-45.870582391207975,62.90088350900733,168.1813624011723,0.2527778538042668,0.2245866577143301,0.2040471714034556,-0.2526846466407115,0.1500978891582281,0.2788873567140797,-109.12464431569953,88.52210276939172,1.471915326563625,-0.1845620452771447,0.0635838238108724,0.1862465403767058,0.4536238144171208,-0.1429623074369482,0.3771626151286736,-182.2841929410334,2.4890809753628407,0.5409713419753286,0.712942027486031,0.2228308473061999,0.1857239954718838,0.0696004520871496,0.1032066935460829,-0.0048044901467012,-135.97088197319073,24.59864820309592,11.360401995761816,-0.084870564217432,0.7126487246700197,0.3933819835576527,0.4397526230107139,0.5778797476331268,0.1087185780554577
0.64,-46.039890965949525,62.80203810777529,168.20376930981476,0.0245353870547298,-0.0468911711775174,0.1261425306551335,-0.1225717075974162,-0.0085154629036175,0.29733371871442,-109.27983819613335,88.33027927402122,1.2942216617317714,0.0886313644900233,0.0386208879255123,-0.0126022175805344,0.3016276189888521,-0.1586616362664573,0.3810814352053547,-182.4762090290024,2.345466202652182,0.783785204638908,0.6505875779056997,0.3274536783231759,0.2788381962348358,0.1691194872027582,0.1992878468239989,0.0178162059925307,-136.28166092510912,24.917892234960284,11.558354804677151,0.0057035139315171,0.6566738393102839,0.4421187685452485,0.4666080112988175,0.4539551490171618,0.3803973890514957
0.65,-45.98771946131718,62.62853630247111,168.02128378472665,0.1639320418935363,-0.0049907598209377,-0.001461251950969,0.0410655469854287,-0.0320899261498142,0.1145141668787922,-109.09158584201872,88.32539376975924,1.2786501185919876,0.0074004096944383,0.3495159119367679,0.0864631631065112,0.3359109926360583,0.0733284912482347,0.3067808709620688,-182.83000903391792,2.217123466297635,0.9122587639613184,0.7589104596266245,0.290740937245022,0.0645887671404478,-0.0930721327998476,0.0318668948749637,0.0240851867888199,-136.46824911294027,25.01249065253985,11.82188637014992,-0.0558501798279824,0.5161229387672515,0.3813350724650343,0.5396543600733896,0.8175151577738484,0.4589307306411918
0.66,-46.27691577679573,62.67184563079265,168.45356745546528,0.1325423316685544,0.0028860622526795,-0.2358418139583092,-0.0906289219471431,-0.0647898946682443,-0.0042202569797283,-109.31003404402506,88.80123975604204,1.2292052376432117,-0.1101302222657454,0.0789530944536588,0.01635873768519,0.0750259754073681,0.0730357985373888,0.256530835156421,-183.0259398772292,1.760514246505322,1.1852232464855217,0.3538933991929787,-0.0835303729170426,-0.1157546105685693,0.2967067198431017,-0.1615202377762418,-0.0591938056075134,-137.01943227334672,25.1639487648442,11.989705711260742,0.0192798263469014,0.3271154758162016,0.3463838208114463,0.4379859957121871,0.6148676198803991,0.2695035023165474
0.67,-46.327016698030754,62.57489966332021,168.26288869214872,0.0346596954347046,0.1110940728047417,0.0174975999797449,-0.0061645259609002,0.2020797884318889,-0.0499973923723072,-109.09923864188596,88.5564379308686,1.3095889985715563,0.0725408938774879,-0.0263240203047725,0.1060011525972377,0.4953510313273553,-0.109888585285381,0.4483930187981934,-183.20006077988543,1.830011786530454,1.9896932049006908,0.0984841425461242,0.1123317971963697,-0.1043368260321992,-0.0258976252614575,0.1154676704936931,0.0342565801567238,-137.7899143494504,26.075338413678416,12.282117334269644,0.0096639288937066,0.3347275746220768,0.2069592733418132,0.3386892808933123,0.5932774255175124,0.3649735324123144
0.68,-46.30809705255592,62.320998241835056,168.4468829062286,0.1715540296964521,-0.0707686949983341,-0.0350561370494234,0.1694178844700921,0.3352231671689948,0.0850380339423478,-109.1970574085074,88.6894304846766,1.0882715325525023,-0.0146727884029621,-0.120688808874573,-0.0168378442779018,0.3457440717246155,0.2991685616473121,0.1427322959415664,-183.2401742282148,1.5390459054996943,2.3566573396095305,0.311362076843957,0.2548105701354736,-0.043493585593877,0.1077295863289029,0.0519013504828452,0.0642641157523852,-137.95698584108982,26.11931017386044,11.93290207483226,0.2403386887827792,0.4223139035310471,0.2470442652288065,0.2993594254192498,0.2328890045070241,0.2607288765184875
0.69,-46.32710442293533,62.209511430096576,168.45299466655004,0.0137246642903113,-0.1347685888189416,-0.2086005425304325,0.1147546368242748,0.31082713888879,0.0051520696906563,-109.33680518657415,88.46739555891621,1.2545162351808676,0.1116640651725749,0.2643891255889382,0.215438052099194,-0.0415777244950169,0.170117175711257,0.2344700883063391,-183.21192075563135,0.92638840484748,2.959883580320382,0.3978571080338283,0.2572259024724354,-0.1722870132581729,0.2323062369409751,-0.0282385588692583,0.0857106938097416,-138.0691566776562,26.50285858273474,12.622132628397935,0.2573189817656418,0.3898354916600111,0.1384881489418876,0.2584728818659196,0.4198983587856711,0.262456635369904
0.7,-46.216160974867634,62.316478515694826,168.7090472606708,-0.1031789592258448,0.2511693590954919,0.0205054842614013,0.2772881114096608,0.2275895649627869,0.0273415480203676,-109.37407524289344,88.38323432297761,1.410119220100766,0.2195413807227418,0.342159853313069,-0.1946671375696405,0.1061086243152027,0.082527737852857,0.6971525138380452,-183.51985302681376,0.8446468191869403,3.093652514573688,0.4211385137487426,0.5532729711328895,-0.0996093009919257,0.3175086447825824,-0.0092168599579897,0.1604647771030092,-138.67857341955505,27.134063410313765,12.47460911879412,-0.0236821555119829,0.4148692761846627,0.0325782107118687,0.4560657318401183,0.2164558955194976,0.273561980484633
0.71,-45.99594501583967,62.11544097597811,168.81247028784296,0.2321060034788823,0.2485197955670595,-0.0184139601735907,0.1835506847022525,-0.027618088590137,0.2191593915374856,-109.49955195810908,88.48912496699786,1.2135076050527465,0.0578464796879748,0.3289430635434315,0.092715782723563,0.2915037891576861,-0.0109138768153881,0.4718494084526538,-183.5697398308763,0.6166317859042953,3.599211704104184,0.6746518290790897,0.0444846703451934,0.208767809534671,0.1715164051250877,0.1814413840131941,-0.0012515736165989,-138.778744535947,27.3452049892416,12.752409754670694,0.1483371404211653,0.4690499404832565,0.4876617842220648,0.4265401366836873,0.5717500962215499,0.1883520928407272
0.72,-45.79288503266536,61.79166659224141,168.89104890696052,0.1610585921361603,0.0506469054023107,0.1299127720876063,0.2699743217469483,0.0881062817984692,0.1842938323011453,-109.1920626118092,87.9478394901464,1.246084749233441,0.0074546827067224,0.468319865517769,0.0115450702807917,0.3854647437514449,0.1230761408036082,0.5419719353021635,-183.94297537352932,0.550543898423711,3.606856982891508,0.0364511312258081,0.3464865998236113,0.2110391048223889,0.3257207871478668,0.1009925671984909,0.0659240120292407,-139.59585933283304,27.219064470110755,13.075079896317776,0.0470248103017541,0.1898930336304335,0.0143108614578242,0.2857797515412031,0.4319340463956597,0.5092165170969807
0.73,-46.422021713351455,61.75845264588922,168.84552119389272,-0.0175817527371315,0.0411759845655965,-0.0654018690557661,0.1841800319525363,0.0037711286193449,0.3081645961449989,-109.1394113682775,87.92410785430667,1.221648460897098,-0.0082609014861498,0.2962284112881918,-0.0244273859272318,0.3707455815050977,0.1310203666816334,0.6333658088525189,-183.96907042703023,0.5215066558182193,4.215496769269834,0.5155957903987355,-0.0707355574634828,0.106757767482407,0.2289992592355207,0.0833384696726516,0.0972283587647422,-139.23933089730855,27.360935077239308,12.977735395522368,0.0084979087097227,0.4176564722090442,0.1268474488850667,0.4387135739105041,0.2483645939267736,0.0322031635668018
0.74,-46.33613399225247,61.39744551591191,169.05586500535944,0.0468275620545123,0.333065005666043,-0.2099862104485219,0.2723412097463208,0.0865836474111027,-0.066369768663341,-109.16893116983944,87.7904028404277,1.4782215285843308,0.0810203606662084,0.4669071024399594,0.0559938049925846,0.7735663012300223,0.2071845459305182,0.3342352331173122,-184.1237913403363,0.3556557924458188,4.2790651592327205,0.4262622871646333,-0.0336221740998429,0.4087982180593804,-0.0256859349264431,0.0837293028824109,0.2280558768782961,-139.23368170620466,27.68130098214912,13.14551654853402,0.1064858424699151,0.4594912370398267,-0.0884770415504318,0.4056630112856187,0.3003526676558031,0.422381217469794
0.75,-46.28127600686985,61.85714379653418,169.02454191124102,0.0801539337235116,0.0238367687095955,0.0850395851184573,0.1864365449684421,0.0772163014318685,0.160183710403529,-109.40811310767928,87.93472708233875,1.404654106411641,0.0635037915609467,0.5605892980200258,-0.0868588815789773,0.6402041190338511,0.1326873137663237,0.4543793239200092,-184.05341677655852,0.4456919161885552,4.7265541768471975,0.4464100252899673,-0.0750210743472464,0.100210518729422,-0.0067251823206381,-0.0855087301371305,0.0989819237900076,-139.34457669573783,27.632825980645187,13.47919489444586,-0.2797067431038825,0.310488861122325,-0.0487301389030976,0.3245156566948277,0.1642817736392524,0.162090968196217
0.76,-46.15324785189211,61.23441417406472,168.92984129705442,0.0734932824215468,0.2466997869130037,0.1771959995983911,0.2234450794595434,0.2438581011565327,0.1634411070007518,-109.25593464729158,87.1032639089204,1.5866491327169134,-0.0036100334157268,0.6162486080392838,-0.10420659446325,1.2173615928386303,0.5143050090147001,0.4131199265530514,-184.29403551301527,-0.1411810107568711,5.014396165486111,0.4754637681057367,0.1602011656104141,0.2185718578888456,-0.091881448292066,0.2611002381026724,0.3809680881122941,-139.91541291390257,27.75850461371683,13.571140263620618,0.219405459677859,0.1615687697355804,-0.0322185334155398,0.4968946378340628,0.449798241998573,0.8614659498871735
0.77,-46.69181834944708,61.09785570493965,168.77033734299707,-0.0839599563702831,0.3539120790425484,-0.1040318016380617,0.5361244932859941,0.3347148954643578,0.3009210364023754,-109.01306661040326,86.47448967718748,1.7047922242480422,0.1548438047491054,0.689230737442136,0.0210820698772907,0.7996565775268583,0.2924926552420243,0.277118258881743,-184.71400456697728,0.0889553682911214,5.767967239857371,0.4414010951625304,0.1236514974640575,0.2385880238287565,0.0272156175764961,0.5762806740404877,0.5704193855476647,-139.91224849976555,28.160320063661107,13.42886279899954,-0.2365141081538583,0.1139168927950008,0.1279911610885949,0.9885354612813236,0.0168767611301608,0.6213354398734526
0.78,-46.51367925296129,60.90782878793822,169.24201619108442,-0.1047281251188887,-0.0185411479034266,0.0543138356009804,0.2391513799554812,0.3709713855594507,0.4337741126843359,-108.78037541861444,85.71563988146282,1.4499170793970213,-0.1203427480354473,0.6544811833750872,-0.0768339993226373,1.0859116073714328,0.146467820648963,0.4889376205461814,-185.1217530082118,0.1427739543973319,6.355640602223733,0.4600583205388359,0.0884539490215158,0.1977014091348378,0.2416752175076806,0.3670124751987915,0.2497804508241196,-140.01104088536528,28.203968757087846,13.556286550728162,-0.1178107293725868,0.033882290547173,-0.1139577988771833,0.7219782790993121,0.5379449733083298,0.6461721463473244
0.79,-46.42452574513271,60.77443693762133,169.0809290657391,0.047491420087153,0.3905730536370806,0.1141675055020662,0.2217864102748272,0.0332456699102869,0.2912673629809371,-109.15670484502952,84.90104351829044,1.845849050417872,-0.0309412807907609,0.7319815589862154,0.1075872954287093,1.049190256302028,-0.0802027901436197,0.302809463925832,-185.0645403444252,0.3239620386448412,6.697692400161966,0.6700261403660069,0.087270587421097,0.2272392497558382,0.1245350630703081,0.2431252087337413,0.2454240157836551,-139.96237120909453,28.17267842823566,14.168732673150062,0.1472971609434027,0.2746077124952366,0.1261396954769819,0.4011783501833194,0.3665391743960599,0.617318743502834
0.8,-46.39049357327016,60.38253342702995,169.4234726256677,-0.0132343071077693,0.285479875826533,0.0091123151990342,0.1874778954550411,-0.0259566324177406,0.4136509781918263,-109.15739822081476,84.51720025107966,1.8689791012178552,0.1120043212048336,0.7767980522605565,0.2813219108842233,1.1208497151400174,0.0554372967301487,0.0765411463461423,-185.00529087226775,0.2151286832491571,6.885874565046929,0.3359559997020068,0.0721239085689487,-0.051956031210914,0.2749116255332998,0.165296689350849,0.3736905511731217,-140.00241904267418,28.36498766383361,14.340205067767384,0.3582172008515292,0.3189393091618291,0.2550037910317788,0.6003010184510631,0.4139682661817566,0.4492189187241978
0.81,-46.26112023067692,60.06583988310297,169.56022201420052,-0.034004432432914,0.3096793111857078,0.1006173317133373,0.2509808505389789,0.0216705018386608,0.4971814548395182,-109.05685461856372,84.20517480175198,1.8879406350174184,-0.0835453510240252,0.7021146741862849,-0.2002164419823553,1.023317123073951,0.014960718863338,0.2347401227351245,-185.11627720232585,0.4284662702972333,7.277540135499284,0.5768631623720334,0.0678830479141308,-0.1740748240475452,0.2688057137050161,0.3973809138578275,0.2139145976665975,-139.8953862180544,28.535674544731137,14.339409986844212,0.3009012114971067,0.1702899879535164,0.1006553816937698,0.4935660123264447,0.2502916268922736,0.3389255914164315
0.82,-46.5962600009262,59.72281063766301,169.62349772368466,0.1100227809145292,0.2943969796282319,-0.0890774633585806,0.3275177952674796,0.0267218561619457,0.4551776666106409,-109.00686089392262,83.00493530974718,1.9132960356944573,0.0184601485527092,1.2238431710929552,0.2443838463779034,0.93460891512305,0.692652393625176,0.3463132058675131,-185.07387087995755,0.5810573754238169,7.559130275725084,0.1006153843065107,0.1694027871674135,-0.0161195794168115,0.1242762670180603,0.1164208400665936,0.2108400794270702,-140.32158572547368,28.87285309521776,14.580841131817465,0.0178006625102913,0.0782155358694152,0.2394992202025538,0.249593340704366,0.1327207876393427,0.8339789229432852
0.83,-46.5474091126748,59.795047032058406,169.4320202951871,-0.0481657710319866,0.2895433601258869,0.1382597268806648,0.7666393374699608,0.1267811566754871,0.4949900946470174,-108.45204822088029,81.76260168124854,0.7303728869539284,-0.1559411828250531,1.0446971109735137,0.1411666079338248,0.3090094136635141,0.3464861435261862,0.0571547345920177,-184.99618351784065,0.4534230855483599,7.907192959285567,0.42577547894906,0.0523433152421283,-0.2052505823201415,0.2122757361857254,0.1994087434456584,0.0661886381775205,-140.0318041615928,28.8873052584498,14.660775842429492,-0.0589491239558797,0.1544903277730537,0.2521041098960471,0.7681310758595633,1.07447571840734,1.1508807510136507
0.84,-46.71102758361727,59.63595227974955,169.4824867741037,-0.2197286617146441,0.2525222891719892,0.2888287339498604,1.31912444526814,-0.0173143530151507,0.360759873512535,-108.36143579105676,80.68182249990511,0.1296384183684665,0.2428180744643222,0.9970367376732407,0.3465344486030585,0.5242978069027657,-0.0089396571892379,0.0116350936312972,-185.1210031480145,0.7065232921480038,8.496778056474605,0.3414610969857636,0.1299522077801163,0.1777182165205781,0.1315841815504642,0.4413923429557716,0.0151472355960983,-140.02634382723207,29.33403781448161,14.719464312436536,0.0376739177065329,0.0094630870305273,0.0926273293168998,0.1196593853767744,1.7295503224157542,0.3375731596791843
0.85,-46.59953306004269,59.19094796689947,169.8983483142038,-0.1556312252100881,0.4908544157774432,-0.0747696404248152,1.3374259614239388,-0.1127856537745203,0.0104410246158607,-108.21031893544418,79.9553251155632,0.8682664593747378,-0.0536961336501049,0.9020993029543452,0.2447552822009988,-0.0642202619437957,0.0838214180952896,-0.0488540625611317,-184.514509079884,0.3238028797946162,8.70747413217727,0.4091036424330684,0.1584871718504032,0.2533845619282496,-0.007685030439928,0.5323529294956639,0.3309265916066793,-139.74499039843,29.44573531041513,14.686415869049531,0.3477913379896357,0.0061018515406904,0.570236280197985,0.4306269424343756,1.2753410496430395,0.0383058049075352
0.86,-46.74992132961971,58.857293699604114,169.91704847880877,0.1264015055503445,0.4151887572780016,-0.3014665304626148,1.254542056164419,-0.0801217290837679,0.3350871070595649,-108.22793269929024,78.70557441280215,1.5015438022460037,0.2337011743502155,0.8578006764563841,-0.1816311296702145,-0.0326916479210148,0.3439411103382226,0.1672502540626083,-184.59879262234463,0.0691320802557327,8.96553068492572,0.4182453367730214,0.1097676083061332,0.4574877363223112,0.0584545991242281,0.1431607435748521,0.3530112019409927,-138.5716355873782,30.016815437438314,14.4120549319438,0.18091498977519,0.1602796456827402,1.0313825002815713,0.0669045616368432,0.4683516820310699,0.2884746357264225
0.87,-46.85728904018698,58.0038754979166,170.06230185012353,-0.0291979349575325,0.3152735660280748,-0.1377526258018681,0.9483891896099266,0.1960511976499979,0.1393853206718287,-108.14700370989284,77.65202137525309,1.9225635503451304,-0.1639741315950931,1.1104871055880667,0.112238146346925,0.5652647001006385,0.6054893260353862,0.0307308442880022,-183.96009287327269,0.2992046753157565,9.460796412972163,-0.0288152724827503,-0.0340885009059591,0.1463144892090552,-0.1130518994582909,0.0408746289528114,0.448521333196659,-137.70137808525394,30.323036297516108,14.21700593154003,0.3921647051658598,0.3501230372028623,1.315269706663276,1.1159492560919548,1.857180545873308,1.0670614598084622
0.88,-46.982865739210126,57.63783495632405,170.2507883534661,0.295978518397251,0.742655903962179,0.2229548405672482,0.762546804643684,0.5211893117543298,0.1489629569322462,-107.9309050294816,76.58712454206784,2.3298949764513783,-0.1411609956685377,0.7781255095850824,0.3596723675651002,0.5890415868929941,0.835243858667309,0.2606121318766705,-183.684662139394,0.2065868295839767,9.442701999783148,0.1523599791693847,0.2083129870148011,0.2571138054583877,0.1689984640604246,0.1445297873407571,0.9008106938672916,-137.17978593332796,30.49706332028887,13.9272788993215,-0.0206574513215407,0.2522593813283248,0.284183724353667,-0.0894212913802767,1.0635007156634075,0.1236101767316705
0.89,-46.9270358977825,57.08240726573768,170.35578842089222,-0.1473333044292368,0.6871988376012695,0.0807060552272159,0.6297250196427939,0.4638460234243152,0.1297052306830779,-107.9993801091094,76.69839117925777,2.3437693741906567,0.1529508424755137,0.9772013648325816,-0.0319299519279843,0.4418103842151454,0.4200278713339735,0.0763565348225134,-183.451705683914,-0.1213971888110545,9.582474528173137,0.2424473389983028,0.469041933317172,0.2636191123093545,0.1988212974098793,0.0796935754058986,0.7210825308564657,-136.98051772320693,30.559286181042552,14.063688549286418,0.1722227220711155,0.1785326862031311,0.4300510617927634,0.0256382551326385,0.6261900052547267,0.2016790948195367
0.9,-47.12924704191341,56.56114294933038,170.71723257054398,0.2116440506002019,0.7887863761478818,0.0108432068437421,1.01136912392013,0.2439749211023229,0.15584984426944,-108.19706057553329,76.53675325521954,2.274802878216727,-0.0513273452114436,1.0667629830303746,-0.0294385543534353,0.45866837721488,0.0244486109052283,0.2091128790278346,-183.4449089856278,-0.1704286104042149,9.501391482762893,0.0045424684810574,-0.0293621922563694,0.3438733688088791,0.0546218219700386,0.1275428182852628,1.1564932149504104,-136.9476600581839,30.7460789681815,13.741425893045731,0.1383542883052707,-0.1586677029979898,0.4168444291799188,0.2274180248433663,0.4025906649079491,0.56120467370334
0.91,-46.76750107986842,55.78201189925184,170.97243692678998,0.1687533507723737,1.058396558465756,0.1031124774779424,0.7922466596312383,0.5074179628140602,0.6050097959373988,-107.82506366403162,75.59910527440296,2.798933186412573,-0.0994767087116821,0.8079784762347135,-0.0698638522571724,0.1106364846091013,-0.0296033554827069,0.092637753514128,-182.99258218904657,0.2319057728087643,9.597396835199946,0.008884201156641,0.449877448069971,0.2572981344562722,-0.0417480413852565,0.2804126515143794,1.1147476885265832,-136.5273633607231,31.173111929488996,14.14676217651544,0.4424382938611388,0.3000513324983551,0.5779148360461316,0.1423506041852008,-0.0291781486591077,0.485265279175869
0.92,-46.49088903111133,54.87261996545564,171.63990893479357,0.0371660471947144,0.8106267347919656,0.0212473242300154,0.3598460574781825,0.4544422691163157,0.1969094235664524,-107.67205176398116,74.1773267854863,2.363304181655651,0.1835978006455765,0.4611517553710006,0.1788955164995419,0.4289334550607661,0.182139315684331,-0.0171152498867361,-182.30009226020005,0.0393561608662579,9.650135679833252,0.3025506669432745,-0.0139880245741612,0.3497652678000107,-0.1568328695958755,0.2566464990092291,0.7487160244641302,-135.62707396107973,31.140755326267502,13.977212296452274,0.2429389381470295,0.0255219706352707,0.3152133562580885,0.7456387776465492,1.1610066510754202,0.0726658000523302
0.93,-46.09445682049598,53.84678588249045,172.23375467681234,0.3406137049936257,0.7323924520933567,-0.076999584088503,-0.0394153604716244,-0.1413446483193739,0.2956726074950891,-107.52751688056593,73.17822798199168,2.290587633332919,0.3074285655710941,0.9197139377791456,0.0424704508113612,0.1098485587428865,0.0307211909446433,0.1479080168252221,-182.1264261176473,0.2493269180664972,9.901407527126086,0.0248034117910945,0.0658535338622158,0.3411086308720918,0.0998375475928192,0.258857930020431,0.6897592737220872,-136.14990344927315,32.09185571297944,14.127843881539148,0.0473766798337467,0.2291338890111958,-0.1388595546327378,0.0632944509186088,1.098231428813083,0.6181002194179436
0.94,-45.83684806633109,53.08197952190528,172.19582147882736,0.195637578013218,0.8744780533818104,0.1376218429719925,0.2133787785213712,0.2542711450062351,0.660273327577104,-107.36000578200344,72.20108418776351,2.066198932912363,0.0313240153467343,0.852097398987093,0.1090642106162589,0.3298748416002332,0.638962034742894,0.3684337416256235,-181.49325959267367,0.4203428423481172,10.104856774943462,0.0906106021312748,0.0430798960133006,0.2491008147026177,0.2637661337574958,0.1940515541177204,0.5990079316667637,-136.53497877161925,32.15204835544094,14.117944665097108,0.0023302373302893,0.3491967039161053,0.1869535612035978,-0.0726893231285931,0.9707530465516496,0.8174886466928818
0.95,-45.76834475810794,52.47036803480989,172.634975678605,0.122049859235321,0.5365003776214409,0.0047891260822079,0.5042219122545537,0.6375768003234163,0.6050339569603532,-107.47373913970536,71.64364646705964,2.171973948673892,0.243852361464851,0.7098443464381283,0.2697375361096548,0.3860319707748018,0.5682142510437959,0.3497509602064807,-181.38797965689,0.2494772198406259,10.421659216513948,0.2901803027333131,0.0023272167472533,0.3495283808917641,0.3881856846434124,0.4019412039833572,0.3319797902592349,-136.4778607253382,32.76296562926176,14.50670711797246,0.0782938317621304,0.4498869770956571,0.0042920750742722,0.1524247196168479,1.3950042580508892,1.1043618176630805
0.96,-45.80209666731266,51.994755755960846,172.67154230595045,0.2573961700144018,0.7054971771303065,-0.0157635085492261,0.3745031196334766,0.9097373192809232,0.7503262663534755,-107.65134667199216,70.8547968405011,2.2640151408975417,0.2121988868117523,0.7551814129835824,0.2247260504357756,0.4047755463639103,0.4227109901243396,0.1193512510336501,-181.1311773412498,0.0880183009397904,10.420791469084774,0.1193531635609146,0.0926007289111811,0.329880974515209,0.5833299435462098,0.2926016160482517,0.3588651487963054,-136.38819908218656,32.82168952689727,14.360370322095394,0.130006151589518,0.4909417361063177,0.0254654369070951,0.1906515037427756,1.390578091573298,0.7507776714174571
0.97,-46.025631525378735,51.29104340681144,172.85789751964182,0.3431543535193246,0.6951713326638175,0.0962683992778625,0.2880703445088891,0.985534125170076,0.6667527195813274,-107.63634342480302,70.56404971710195,2.3620064300553105,0.3189440030267734,0.8321818355853117,0.1438002740596206,0.5224246881087735,0.1777216371625481,0.2982283610139536,-181.1793208359217,-0.0026692236686776,10.517172015540464,0.1648134430276325,-0.1215015982753599,0.2545643824755948,0.1078981251695209,0.089624328497457,0.0676080674477834,-136.4518705066619,32.71528812671179,14.285978839837508,0.0307399447873713,0.4330651248209891,0.166086001479332,0.2644995364019315,1.2788396885971025,0.042426303029412
0.98,-45.941667470536345,50.46497833004993,172.822759012185,0.0723283820575686,0.8389974418913244,0.0305281320118323,0.3079313179881729,0.4719022738355349,0.6407361804511286,-107.6809354290343,69.82680756050915,2.4249880471687777,0.1773855149992725,0.615444281401726,0.1705157406372746,-0.0337422504730001,-0.0691163584608155,0.2081958163814419,-180.71834841923132,0.0512108161282334,10.617594801558178,0.1714918511766827,0.2397749274025895,-0.0485296623118834,0.109416717865085,0.3343595955481595,0.2534537950150996,-137.07407183058103,32.84507598620844,14.87411132295022,-0.0876275469456607,0.0487986667827761,0.2982814859827905,0.1465822618657595,1.3828846385987963,0.4765601775883666
0.99,-46.31267243161663,49.8977260297029,172.95362490009285,-0.0052811493249677,0.7763367154109888,0.206360208340049,0.3271632742577304,0.2641319825534677,1.081566476197312,-107.88230001490196,69.0242548807302,1.82525415701757,-0.0785256377924536,0.7232980827685964,0.2718759600650534,0.2458453303631381,-0.0330380162956839,0.2142097457015772,-180.52597986739465,0.2720779591703688,11.209650631950256,0.0953586347789652,0.1063504901813502,0.3107093385319502,0.3840960398965702,0.3793999239854218,1.1047460992138258,-138.0452426786047,32.81813533099262,15.571883510529103,-0.083994665575279,0.060826366687978,0.4700016968239365,0.1657103813059049,1.375020442268193,0.4282087008336713
1.0,-45.91966981014867,48.97315093714487,173.0709661067911,0.0052782028979284,0.8881222958297782,0.0223589557576368,-0.0704419566320417,-0.0517121240759095,0.524069912614093,-108.25177716153236,68.41370751872704,1.8798036165784693,0.3553468692291701,0.4871925057068962,-0.1020770364268985,0.1387589389332945,0.2384702690655579,0.2915147389506474,-180.13031577409316,0.0142683998029653,11.368272348412708,-0.3944858474392523,0.0800416103126215,0.2388126760488282,0.1332134113476696,0.5704978420662742,1.2168234807653246,-138.6945471353003,32.83877310499246,15.857508245520714,0.0513715252465283,0.3208353074919547,0.4275417472889187,-0.0747776968874557,0.7992677118180821,1.007520984644589
1.01,-46.32412964495476,47.981083320700456,173.05865665048765,-0.0324720556990521,0.8354614673114059,-0.130476329749293,0.1533109126539215,0.047798966199295,0.529469854174492,-108.18229622279551,67.84364231415448,1.9279774335945303,0.2071007589752551,0.7371186369611317,-0.0846843169615706,0.4568938788381511,0.4822967211517305,0.0776197319606797,-179.5922864710299,0.3619063936840304,11.316520761398166,-0.0543837222296586,0.2906327938565584,0.5377480255629428,0.0536982672695196,0.3078267622118106,0.4146757284789187,-139.62875868404117,32.78411598780948,16.085708736999308,0.1176082271599393,0.1431629010759988,0.7397094422741565,0.0630878090119796,0.4764060307617547,0.504210991917946
1.02,-46.625400375008105,47.428209484138925,173.1833708197884,0.2128489714777804,0.553459938684468,-0.1458107377917194,0.5896706183203135,-0.0002046693599675,0.5977154741007719,-108.51427587439323,67.44649237430316,2.150582913393761,0.2784500680508386,0.6280204184325436,0.0664810329672536,0.7541793716000458,0.53332281315206,0.0685343706951634,-179.0124397049316,0.0834981303412381,11.340445253618611,-0.0885321208906552,0.1690935319111301,0.5985875169064654,0.2465545725345807,0.1482141198083366,0.0093280507918381,-140.32147255415836,32.927198693052226,16.65754393346852,0.1445060228432331,0.3337793625401168,0.6005899786289778,0.1253211427222438,0.8958569535759724,0.5537138388474628
1.03,-46.50341406288385,46.95594682857256,173.16133665135612,-0.0647304005630646,0.7103860266919573,-0.0107724521362719,0.5643591310544828,0.4059265179421209,0.2684750713569397,-108.44690130606216,66.57512341108591,1.805142921106517,0.1072302604026094,0.9347624436364232,0.2272154001571462,0.0866992994530541,0.0686797534813885,0.3638603554649863,-178.30688601063096,0.2621727901463586,11.508288051350096,0.2605525848873503,0.0374486007565648,0.511789359769935,0.4816026726189121,1.0966902640167415,-0.1790431872176897,-140.77536593848606,32.94967662806947,17.17644746458772,0.1814469688367569,0.1267799430170815,0.6053457777015012,0.3274100997581039,1.379896688823544,0.5613661026378016
1.04,-46.79957223901222,46.2378131055436,172.95040452416256,0.3736616324812106,0.6044393002997185,-0.1521839596310357,0.6050100460533632,0.1280773121864829,0.340916080113025,-108.89821180983,66.13390165722322,1.5843938209131554,0.1263286759305505,0.7504979994036501,0.4180892842593617,0.2502504965708979,0.0900721821313806,0.2937162404323026,-177.92522559332446,0.0454437260381776,11.540575190099505,0.6424849803990698,0.317492902882166,0.4480739436895342,0.3592934590688625,1.0858868478076869,0.3453366441332506,-140.6444729337655,33.04529112572301,17.32817098546223,0.2410665067445145,0.130747800312923,0.0810981734372514,0.5172609570370788,0.8637344179658557,0.5863413224013517
1.05,-46.93827104718719,45.805195461337824,173.16648897540935,0.0864820216890175,0.5191105901339902,-0.0452485396968566,0.9530552535023682,0.1629585041287658,0.1474741774786687,-108.46688404586844,65.85247862591038,1.5909880932030571,-0.1001174810493932,0.5598570675116198,0.1801059040592701,0.281781869522623,0.0229542423119827,0.3079464937006681,-177.7684885564807,0.1698986396061808,11.812400247041555,0.0999070460216494,0.2922355896896493,0.5711871519689263,0.2558176031255561,1.0287052378970414,0.6487702980867388,-141.02823940350356,32.947649831553704,17.607882088892563,0.2741875259895311,0.0999757622340829,0.1762449193269193,0.5846421924547869,1.2889440731772792,0.4007443106494009
1.06,-47.46096978200162,45.30886585465769,173.1044571170012,0.0688426783406455,0.6292678583550427,0.1492360943122771,0.6649798999737354,-0.1308053389613458,0.4366263940061154,-108.53075779729436,64.92275970808501,1.1422355047906327,-0.1525019641911327,0.2207678537424319,0.1853927612832111,0.51462222623223,0.1475622129707751,0.3922707247267927,-177.3706532528192,0.1511639639496644,12.055234168926432,0.1905532401532768,-0.2959720874632903,0.3885449557589492,0.138013602985358,1.346122311718107,0.9665172980281064,-141.16862555421326,33.34564014530957,18.132911801254235,0.010365562872177,0.2888096760595171,0.3805760589916832,0.6307586508589927,0.4098816173616042,0.3899878545970006
1.07,-48.10049283278975,44.77280006751763,173.07580843415536,0.1780374769313964,0.3673608873357923,0.1462746617343071,0.20759066779062,-0.1107868609438623,0.9061155770199276,-108.27329981870784,64.3780356164556,0.878940661459248,0.1125983517379676,0.423185364547319,0.2630310163330076,0.3385941318426881,0.1987068179128501,0.5745052677644453,-177.0235982970517,-0.1724488656098155,12.62457617111973,0.4245884962217984,-0.0351691068217371,0.2270985846931391,0.4332254919574076,0.9864463015857444,0.5056757886713921,-141.54020121471714,33.67856454593109,17.465428042085797,0.1241604544198041,0.2722311366442347,0.324126834985356,0.575149058991352,0.0958985506015467,0.2488590530846412
1.08,-48.08595576796214,44.63169742617347,173.24431529730933,-0.0741747827754541,0.3376407919226776,0.0944772016488745,0.1542110310461253,0.1717847122363649,0.4809662403274425,-108.30518361865144,63.96423189105313,0.7655469905648229,0.291994298826646,0.8076619109718076,0.075678915611635,0.9233651437335132,0.2657904349246552,-0.1047411640141146,-177.45827146586,0.0563587590232356,12.992948267618322,0.0100053622344319,0.0194003518162651,0.5485266798961936,0.4961291658139863,0.8681428448493713,0.6855608729004725,-141.6000606644052,33.733621894544726,17.619319898825076,0.3960907037445609,0.3934057236219373,0.1652971412540706,0.4207190731929865,0.198748400814915,0.4493446788966085
1.09,-48.185197181893976,44.060485705015694,173.4655844040401,-0.0436207813471085,0.3392463640310485,0.2039294490247327,0.519359341457642,0.7698680886806147,0.1682763216459235,-108.03127497605912,63.0889824181162,0.4820326560874801,0.1172670650726312,0.6158720500081668,-0.0440142684468947,0.9789113291889998,0.0490916429323422,0.0569708504523299,-178.36458535917166,0.0787970773736067,13.11806258231744,0.3838525719544481,0.1783920679786104,0.631900832248962,0.2661038265699172,0.3984522538324596,0.7947675373442614,-141.59389376678376,33.978028444425085,16.850601038987445,0.2302759007697398,0.3176784374753318,0.1372485973458802,1.3434281038428877,0.6038112085567834,0.7690310217075997
1.1,-48.162118545713945,43.32802622764535,173.38201634752605,0.0710777953610881,0.307676200165592,-0.061746654548717,0.1907308893774374,0.4148814030210739,0.457961336236437,-108.43246539042303,62.432248768280935,0.5639480765447615,-0.1770741670877805,0.3503080936152157,-0.044206847193833,0.8945669207615345,-0.1797486940859253,0.302677491358339,-178.44899993317367,0.1933967791774173,13.50061480697482,0.1119584657883213,0.105070014219358,0.6451000301616929,0.4372793219499633,0.2445644766749284,0.4031932691860864,-141.78413535073693,33.783446328647344,15.931384796884416,0.4313222430272883,-0.0822918772250671,0.0735480006168241,0.9374893307618872,0.8158105311709549,1.1088924092765142
1.11,-48.49103743452665,43.05380543725642,173.57958230635293,0.0149144065604385,0.628024005134099,0.2480842004017439,0.3549092990350699,0.3175589853485021,0.5379103290733317,-108.4298902668642,61.96729472920568,0.413399787499456,0.0715824294424037,0.3720713837120619,-0.0299636506300527,0.6014257485963587,0.3941353252731223,0.2331842362179811,-179.36876164791704,0.0946084170545247,13.664920458030233,0.0896758445563171,0.0702842812706905,0.5626205687574304,0.446980610454169,-0.07496288658058,0.0664264173159677,-142.096292698385,34.04668137259387,16.14180173708751,0.1491366857613713,0.4131606911335722,0.0761569950378076,1.086720048186448,-0.2314918014221401,0.651187932051814
1.12,-48.62093927486858,42.91949191322283,173.77858733410753,0.1233628037519109,0.5647260908564007,-0.0762268036415745,0.2908089140516062,0.4352247399737822,0.3779531567926365,-108.45715516679957,61.84815310733506,0.5934844667981594,-0.0012417736679388,0.3709371759304028,-0.075291164412177,0.7032501720444101,0.2347120277322976,0.2617454253200834,-179.54808527585163,0.3737401605701493,14.23633338748891,0.1772481314060669,0.0743203592683691,0.4078727078133345,0.466699923665973,0.2860932923712473,0.0724271984598601,-142.17266526211657,33.696352706856295,16.02903352247962,0.194303731842732,0.0823025546399443,0.0221456069940769,0.3405394447657355,0.1111057559570148,0.6359140429977181
1.13,-48.89672722433243,42.57347508183886,173.7806736267337,-0.1668212030272038,0.4670078754811307,-0.1780189880743002,0.5046379030273831,0.5401319027765256,0.150349647237357,-108.35241378307184,61.7758056831036,0.4132303721043979,0.0782679448682641,0.3280818751476529,-0.008418159360509,0.7197073086676349,0.2842890655710599,0.2287169511870444,-179.7973289570226,0.1258192854545317,14.241927888807622,0.0608715332802921,0.1697256302185761,0.3126740994576367,0.2588193128007705,0.5732976337229343,0.4789352222906859,-141.95866624971342,33.687164688286,16.158054285452543,0.0273725094164449,0.10795188341161,-0.0867395795143651,-0.0028923012834336,0.3150428848723628,0.8333097007767826
1.14,-48.94277368947952,41.806674799689496,174.12890089113623,-0.0170870580365274,0.7021589548479719,0.3059731347929993,0.1995569422991857,0.1556086184425379,0.1077458492017417,-108.14249896626109,60.788128171778986,0.1084989169804886,0.0642148267413421,0.3045872220887934,-0.0980202700651818,1.2390808758256138,-0.2119327666560686,0.1313525999724946,-180.41073329323356,0.3960499343749389,14.487361902915172,0.0971571842697116,0.180366992155169,0.390712976754984,0.6689855160973124,0.6238273835704377,0.2653997065834362,-142.19008562582914,33.46959843555139,16.13803403912381,0.0965011471216148,0.0395280762415761,0.0196738415618629,0.0528637221178759,0.43413031204585,0.9151529260529144
1.15,-49.07869668704964,41.44326925306749,174.02022643823582,0.0466972439349678,0.6063152850060496,0.2029866264741808,0.850743800329465,0.0340350316589314,0.0410001214879415,-108.16374755426747,60.52927910265932,0.3306838213013053,-0.2082769557548947,0.6954564076807732,-0.0538691792726719,1.0609274278220937,0.1153785045134629,0.577823362334407,-180.2674443508193,0.8840203133788147,14.487934552370447,0.1798937799298902,0.4333440470641093,0.159833082631954,0.860343581360045,0.5489348398217443,0.6179246574567205,-142.4220005184732,33.13531700768408,16.157791586035145,0.2451478099077544,0.3301214662908365,0.0780249296267776,0.4679796389958748,0.754741638341293,0.9895579157861656
1.16,-49.27078304292155,40.748559938318266,173.99556111923448,0.1478164474963322,0.5921767149451749,-0.0856286004167373,0.6039934145594369,-0.1765929078616077,0.196918978180956,-107.98521169032573,60.19087589836455,0.122526016677983,0.3178554449368879,0.2646239708718303,0.0779285987964457,1.02333871181005,0.4401095682883465,0.3354137890754073,-180.72968511436648,1.2560679123903529,14.720368866805972,0.0759807422674882,0.385583931931532,0.1618877777973757,0.4823198648282711,0.2118954264490397,0.2961292853316851,-142.7117378266043,32.983302667425576,16.00220104596289,0.3602098889614526,0.1153517804999774,0.0824385047398163,0.1897908931529519,0.7536027447038602,0.9799019928573895
1.17,-49.52399297645066,40.2212486514292,174.04255277065693,-0.2345170115704887,0.2896680097265388,0.3873213333283211,0.3581097505277968,0.2138400691901016,-0.1303074515437305,-108.34450120076644,59.89090030540438,0.2621964724165225,0.0747759695497013,0.3964301272527487,0.0275050080901558,0.1536392864479504,0.3828127531715538,-0.0707084115554969,-180.5072033361955,1.1934776724263625,14.98817019921375,-0.0692999614910753,-0.0289325353836893,0.3365871929414835,0.5356720413123393,-0.0380991511534159,0.2121926069193145,-143.17484198518693,32.82196674596824,15.854770409264974,0.0661547183941867,0.2062473229311893,0.5943785174411734,0.1491448016221576,0.8740970330339506,0.4137809524610565
1.18,-49.68090616477532,40.07166215295985,174.4570236025127,0.2025704312515582,0.0028520939037668,0.1780738620013286,0.2432918956401285,0.3151189222832259,0.0202499153899349,-108.59789747853333,59.67258053241401,0.293059668678466,0.4888213965114429,0.5967210833200336,-0.0078316105811338,0.1651002520037946,-0.0222839197997177,-0.0333433583078303,-179.96128812121188,1.663447232619035,14.62697167549207,0.3767536407916538,0.1399980200311137,0.6753277384646471,0.2236213785521655,0.5562912570827864,0.9510159734802996,-143.86877455301988,32.74256741572789,15.699237409784304,0.30939895765354,0.0766619000286407,0.5012772939022947,-0.0984161826263967,0.2014865878042108,0.179385981240144
1.19,-49.80849238797915,40.12136952022559,174.2892778226911,0.0934504185357862,0.3605654857130451,-0.0140220720191225,0.3157419579038241,0.4779464834737812,0.0075636531200588,-108.84298805301782,59.47634455065003,0.409665730128918,0.153413546067648,0.4271470372428445,0.140860298192508,0.4322827103065039,0.2296981420399878,-0.1918299820576514,-179.53223048558206,1.5259834608280012,14.557750055416143,0.3018991891567065,-0.2267888267474758,0.3511946597099529,-0.0045078366008767,0.2582834377255617,1.286190788231239,-144.76758850235413,32.58350367212861,16.023787897087654,0.2689773302582911,0.0772119317515531,0.6908954856271551,0.3367751070467151,0.3281006953059785,0.3331821379960483
1.2,-49.7407434506209,39.84696229759265,174.18893824757777,0.3031505563239464,0.3375230763526421,-0.1227857581087089,0.5473003600036404,0.2323602684934815,0.0930842952149842,-108.84038405472148,59.046152942323786,0.2222850324314014,-0.1219506478915618,0.3484246266312604,-0.0805568611354284,0.468632747863708,-0.1283634415368079,0.1006568108150139,-179.3246180497879,1.681823053283789,14.39076810919316,0.1137550832857881,0.0746914436925666,0.7441729507720631,0.0715542721519695,0.2733734906274214,1.4386746912761257,-145.06583628921953,32.06309620030335,16.043403433293747,0.2465561489341547,0.0770755431199501,0.8182518936761413,0.3726481327530433,0.5273369480354078,0.2569510284898464
1.21,-49.89294083567374,39.359788594438825,174.0933675066226,0.3569286458663906,0.574254263023998,-0.1398491003842608,1.047757336594944,0.0279196721910498,-0.1534825489225906,-109.11177670860434,59.00198830050874,0.6666005508922578,0.093733837841848,0.2153458942030567,0.2722930940073043,0.1660932259417628,0.1138379427480287,0.0552312214119665,-179.10517020864285,1.8497531732735757,14.2653447421274,-0.0157718492446827,0.2413579802898436,0.1862054044533897,0.1549655031904421,1.5831849117819945,1.1047087915468463,-146.21153874392235,31.655982230729634,16.614771363523133,-0.0896352982921239,0.2486285920270234,0.6236842851651642,0.4259475602932877,0.5945003961315197,1.9210684506995797
1.22,-50.233725470744446,38.85985774032359,174.40593653484643,-0.1607079705676524,0.347075326277721,0.262509045165244,1.277079340488671,0.0874765471451265,0.1926214562131743,-109.10896956078284,58.716340425069625,0.4441461340368124,0.1201842525699909,0.1553213240040161,0.3787197950035836,0.0385377118370974,0.3777915613379717,0.2779809371365474,-178.63112772362106,2.056829960896079,14.21234719360079,0.1712724605050133,0.3181118973800172,0.4002937858686248,0.3260726909462543,1.3377252623908211,0.342710787375815,-147.15857772735552,31.337458289190806,17.22367375144447,0.1902420331105067,0.1023477514206896,0.9071735937427744,0.6872708651402898,0.0748197068279221,2.0682843483361686
1.23,-50.05041454879424,38.81922049396472,174.1996224045485,0.1033095644383944,0.3940492469593665,-0.0501443125714902,1.037779754315995,0.1740797854957788,0.5218031170778813,-108.99182520258437,58.43903151570894,0.280485607678626,0.0769265516501161,0.1829948942257311,0.2242433810853977,0.1511636281199573,0.1186550038353524,0.1957127264401117,-178.95063078299606,2.550774933787996,14.217384442149546,0.0772332520395161,0.3841651502598531,0.1105307714975299,0.7523887284878226,1.0088530187271267,0.0754365241181174,-147.3454336906366,31.53675210625101,17.463294264897385,0.1390439324041829,-0.0451494650782686,0.1683975893593103,1.1736892826500638,2.0156064611856856,0.3169400904148753
1.24,-50.27672273860315,38.19662952574571,174.3519778714917,0.1561725126605095,0.0730036135835021,0.0052238902213245,0.5574441049480949,0.2274339683151025,-0.0101625380757412,-109.18053204117624,58.10897669105888,0.1945338395902293,-0.008838890785247,0.490639057557152,-0.0831841249208483,0.3892857037843932,0.1487592360896741,0.6872021033789948,-178.76148808999682,2.402249432113663,13.888786941544458,-0.164123469416767,0.2290148998718967,0.1407615053807302,0.9100627790415174,0.2541340400977191,0.7702772813836889,-147.4272947704689,31.18872837774233,18.116422535552243,0.4555305169553273,0.1091149425552921,0.4005146791880361,1.3169651324078715,1.987152953864648,0.1345509656336221
1.25,-50.195260470165664,37.99174816753387,174.33957910664677,0.1132162140321144,0.0289267212373884,0.1355336595094762,0.5847354742548502,0.2117298183240873,0.0994704091463356,-109.15094214875865,57.569774113654304,0.4060848234102662,0.1945569025318216,0.5758207970073937,-0.0640068462454472,0.3744346231676763,0.3784231704685685,0.5702412380357061,-178.779086393724,2.2999587481148085,13.837333011804974,0.2060888981929269,0.1298864765904232,-0.0641639351439078,0.8452067379718387,0.4369300619737818,0.3675776376036269,-148.228200043127,31.33719820735568,18.56469521016395,-0.0072594333182392,-0.1598686734615137,0.1711467559597441,0.177993485574086,2.473323582144673,0.1726936760747622
1.26,-50.41485308475597,38.09013301899288,174.04313173180464,0.2064227365355088,-0.0123851272109277,0.0121940207914646,0.1399404527577445,-0.2308886164559352,0.3619742613019161,-108.8017877548502,57.17398492270578,0.259464385999596,-0.0478981805045989,0.3056164802453919,-0.1052437682931444,0.4862239266921777,0.2165365712440011,0.9978966163520796,-179.14620229326604,2.328473880122807,13.769126583044692,-0.1147352138587166,-0.1289972407851211,0.2450344105204754,1.048725347416826,0.5984357807710845,0.1717535898252752,-149.13350501404517,31.01526512717142,19.04101595695202,0.4028805726946384,0.1045624299873302,0.9972950670540676,0.6112468242078624,0.7508571262768773,0.8014281117560281
1.27,-50.59569846523977,38.09727440663939,173.8815434453285,0.1602809787108549,0.1100644719119759,0.0820596085791937,0.2402855057141185,0.023951354908005,0.1101511343726432,-108.68769293498168,56.52767867067844,0.2111578642467501,0.1123309455343831,0.6118009549972422,0.1916126857847641,0.4125929882654424,0.0591204696442018,0.9124829007761766,-178.96832251262703,2.5128951350179887,13.885317923863594,0.1802662362592805,0.1910736761544163,0.1531625483981813,0.3024341877031218,0.293182622813408,0.1315541307559605,-150.43408566932797,30.481582386736413,20.38161939929672,0.8777549936920894,0.1335703362696756,1.0782378183666546,0.5118172605774977,1.1120629330669156,1.0967872164033512
1.28,-50.590193849605775,37.84033690520439,173.79245099459584,0.2949642265190679,0.2729817599769341,0.0769518862398424,0.3086186532184826,0.091370027449665,-0.0475197859270977,-108.95047411142316,56.33919554642471,0.3188204876189844,0.1583609257601735,0.6267645016961612,0.2483703183971364,0.2717265663213191,-0.0176170142028391,0.75325065596189,-179.2450706064274,2.277725928157597,13.52436730206698,0.1888615100823769,0.2519186612167966,0.2872216278064105,0.3992593646053473,0.1754659729722819,0.3050962477310203,-150.60392168585318,30.48252789476604,20.97436999163698,0.8047433143212633,0.0751817088799527,0.6934094425414444,0.4869261548074828,1.0004849418818624,0.7002153339178652
1.29,-50.42869686633848,37.71286529119432,173.89376651590524,0.440683120929218,0.1381235534529446,-0.0041483979755922,0.0833821279504165,0.029655062494821,-0.255464515196996,-109.01344025271472,56.12531962201121,0.1165772564634115,-0.0464076501166946,0.5701048749563469,0.0005226813478835,0.3608630725758572,0.1423828502252329,0.7543032367440283,-179.17349202457223,1.884789883860981,13.506837336124365,-0.0489054762632255,0.0663779514642801,0.2225333439089852,0.5442573058570035,0.0453600610002185,0.3405196779654467,-150.96775735781614,30.207771844029285,21.44077674853759,0.535683709211731,-0.1757205171142979,0.4130902418286434,0.2024264909608351,0.8058657525306541,0.1751659824174075
1.3,-50.62178217223472,37.73836877362649,174.09934051937594,0.0955159897327486,0.036099739081512,0.1474306838042811,0.2573182883360976,0.1339324445457065,0.1265493334559818,-108.7006217884114,55.33684877992262,-0.1323902276117645,0.1755307362251716,0.1182464999030278,0.1411171819566705,0.1832136436661059,0.0540658701701115,0.5104618586794688,-179.70583081545223,1.6938029171260292,13.532542308050475,0.0844868704841615,-0.0165362866855991,0.502441892545496,0.6673934476311969,0.5815228323243593,0.6742546338580491,-150.60771179133596,30.21491382256702,22.242323141692204,0.3659384119210855,-0.2702699875301098,0.1529556449443628,0.6363819982656956,0.7640939243553533,0.149307316376406
1.31,-51.08973326367298,37.35851848192561,173.73029907787742,0.0522666605374132,0.288676323802531,-0.1350415338276291,0.4242899308933912,0.4436341716875241,-0.0857231023365843,-108.55866159308748,55.35475043358413,0.0616515208940714,0.0233969698708903,0.4145195211799928,-0.1184665984147206,0.4308804540832077,0.0280236415936901,0.5605157724830585,-180.5261858513888,1.893103538559098,13.40708300628093,0.0017512641291591,-0.0753237502607013,0.581290635047597,0.3782763811268413,1.5241356674515734,0.9806576926195932,-150.55871372285753,30.1034629695524,22.445440640520168,0.4687764089831574,0.1108989864099002,0.3342723064060704,0.6781034390866085,0.8219713060220946,0.3864029853174435
1.32,-51.24241587760601,37.55135902940911,173.9137223426566,0.0007582584222523,0.2660218967074311,0.1650041991294036,0.2601242600557156,0.0652248610664959,0.0781358975011446,-108.4250805748768,54.55507295925046,-1.6626346595216557e-05,-0.0034113272758958,0.3264337437442579,0.0940875587909954,0.7847119394043357,-0.1236595602280412,0.4675464074419445,-180.81165856211763,1.6427179539969017,13.065664332517324,-0.0610096672524223,0.1463243896374307,0.5782398280570203,0.2305544754582219,1.6825390560963789,1.2083760011053193,-150.52101472308635,30.31476183962016,22.57561782466177,0.4866926724921004,0.0875085861059202,0.4634255566347953,0.3885479822775139,1.2831827739539217,0.5332975409768801
1.33,-51.20979654262123,37.05399089450968,173.83180044864588,0.021738440451363,-0.1151320205593797,-0.1787227403785662,0.0996627341647837,0.073553901527369,0.2889156020698186,-107.78834588768822,54.53964634480992,0.0766979099758024,0.150228286073048,0.3360491507951961,-0.0329788416320539,0.6482874610044406,-0.0231698323196755,0.9248618762368136,-181.6974712523234,1.6298337630117317,12.86926752526006,0.1111878723797201,0.2841563911296871,0.5988820911793977,0.4936859609984859,0.4931677600183681,1.052193752087412,-150.20228008890834,30.06254156487013,23.067812414038382,0.5323739959794149,-0.2082425625829033,0.2830945161126231,-0.056837205964839,0.2729528219360816,0.7009575239456531
1.34,-50.842053478824525,37.20851790788905,173.5708850089466,0.0170559010677628,-0.0893919515584623,-0.1462794941773141,0.0485307423545838,0.0878887804738672,0.3534756427631806,-107.71449973224505,54.264412114082354,-0.4351270186307108,0.0401813310622239,0.2578943263112846,0.029574176001332,0.3610518925736957,0.1391351073597117,0.7503602040166366,-182.10780435036136,1.6780000095890324,12.749262511947803,0.2976488455323368,0.4054569644521711,0.8557969664731547,0.5188845308895699,0.5021960805664887,0.8443611656320418,-150.08218920332249,30.5521082810481,22.926924373047004,0.4514435611242138,0.1095934998855334,0.4503387350800615,0.4119715337148144,0.3043534178038382,0.4532715577703257
1.35,-51.2174732417576,37.02718123777132,173.69265371413616,0.075003901121174,-0.1744038446976511,-0.0564676314955798,0.1548766891577475,0.1182815847057409,0.4282533453465439,-107.64343205877796,54.12875951920712,-0.6061413434945119,0.1482179105376805,0.4767463922968319,0.0417206095182291,0.5919441153855147,-0.1328835261742283,0.6783808449523142,-182.9754554008455,1.8669372844603864,12.619938406411402,0.1171936002529732,0.1461985737502787,0.8832589350721356,0.8762335271265282,0.331960890299377,1.1427489564790008,-149.92102697808673,30.575769448083,23.20161842745949,0.4559125755478652,0.2204836073542323,0.1602286354869888,0.426103069837902,0.2662614595782505,0.4805923606449342
1.36,-51.16603436845449,37.16715619838766,173.78347589158258,0.0182801816005757,-0.0056228314012746,-0.0091488297138416,0.2782147178097225,-0.0299941130208937,0.4774370612960179,-107.59627576583532,54.04888056133143,-0.67817473189861,-0.12746208802407,-0.1124456934487637,-0.0318859536023425,0.5139734060082112,0.4226449444006218,0.1739252285354512,-183.1961798242897,1.6814093448634575,12.62324838079846,0.4684604607615615,0.5456568763245385,1.310712458206225,0.8164768213333009,1.7663190877504449,0.5285999470710512,-149.117043611378,30.49462318745485,23.13038780062676,0.3708057206937743,-0.0219500947791699,0.3615995938021066,0.7285818535286407,-0.0406537644413053,0.5873929692650339
1.37,-51.13185473222153,37.02495700338567,173.44390025287632,0.1100161358324949,-0.0480291957474746,0.1383859295012054,0.2543067238513916,0.2436626128235809,0.4380244136706042,-107.3371097244064,54.13160278060081,-0.7397365596543801,-0.0100141245417288,0.1915885258520807,0.0561166149878627,0.513876097654878,-0.0842593751922319,0.3165691491419717,-185.099002552897,1.879651841773525,12.513476720527349,0.0643313666065879,0.6392943646195819,0.9303459938546416,0.9087438611537468,1.441613064694125,0.5332519321796199,-149.3715450473299,30.53207255999978,23.19099484413623,0.3955022043631229,0.0653139799961851,0.6679643149194916,0.2364523434372191,0.5579852856610286,0.4525262952868615
1.38,-50.72217475000307,37.41122417450406,173.77964919188452,0.2460471236206971,0.2739627714888457,0.2049145345397964,0.2835436642467307,0.1680652406737903,0.3817039420674208,-107.02553819227543,53.86666254136336,-0.6115590370176922,0.2738024872481658,-0.2073598976197712,-0.0289285633154168,0.612432208304112,0.0980228160269534,0.090500567284148,-185.74807553406916,1.8286936086706984,11.970644897975182,0.3471593046841176,0.4682959670973583,1.071336807397695,0.5498211265702536,1.2770641164344807,0.3965965170311242,-148.45752432874735,30.66295910263904,23.796872851439257,0.6863073419815203,0.2227630661919148,0.5766032687877951,1.150176004009152,0.2871704193126966,1.9222909882317067
1.39,-50.69729402188885,37.787353170270094,173.81493420723163,0.2516187273611644,0.4360072308181494,0.0982985939579175,0.2184243643813543,0.5864252636769819,-0.0887848310144656,-106.24581758692648,53.873359580805136,-1.14117543023426,0.3611858585819106,-0.1510176639135164,-0.1609234142366794,0.1446864761790773,0.4084293454613274,0.1675235283416729,-187.37248862303989,2.0159472668645035,11.566226535702064,0.3403899919142432,0.3219061821170478,0.6524635187226586,0.5239936002887574,1.1415584391840508,0.1166001834537317,-147.40411581853803,31.07900048192209,23.930196000740533,0.7181338035408442,0.1986663621775911,0.9396134743716286,1.004160115980215,0.7245168650982846,1.883145669969977
1.4,-50.37248396588552,38.1421593582347,174.15939345595763,-0.0032948812220609,0.0588933748521472,0.0392314306263917,0.2422110728028505,0.5765675614882793,0.1858605310495241,-105.83882731970716,54.260858163697975,-1.264857048039788,0.3927796958865733,-0.0147479969998121,0.1088824937441681,0.0399263021956864,0.0165839930946473,0.1229758083222672,-187.6529335400123,2.799410699609365,11.760944425324611,0.3500579347178787,0.1744718870801993,0.3791269163257602,0.6912375861841418,1.3931489349057804,0.1559833503121009,-146.84410652152343,31.329018587437453,24.51920442010332,0.7842844056949173,-0.0127679404715302,0.5622742678385452,0.4568398128828173,0.2559199190105435,1.0180499404767678
1.41,-50.34807013817073,37.8295688725789,173.65833209627894,0.1776019196052091,0.0923243993647645,0.0715294816084524,0.0176993772016427,-0.0829917930384697,0.2601831376465074,-105.8119084380598,54.114034712293424,-1.5019396461807326,0.0482061069772791,-0.4281979886991383,0.226747958570384,0.2680091218649485,-0.0770505542952132,0.3236176173016748,-188.21000587913952,2.9689638829739,11.675589821424444,0.1355670587141383,0.1054651184658715,0.2491297421729132,0.4621970641463057,1.708957079866182,0.1514644417915503,-146.1546932029899,31.72608755756601,24.57180712388444,0.8276617944505809,0.0540746958559662,0.7032545942095674,0.3779020285812655,0.90546609893644,1.3963380298464263
1.42,-50.165625339734255,38.40195054897063,174.0174213502561,-0.0249782184050494,0.1245187272792779,0.1307997053116443,0.1791339198836327,0.0768355074228148,0.741978596813339,-105.62865030691889,53.99138904255548,-1.3573725359069944,0.1561990171921605,-0.2810197546134021,-0.0189334591712659,0.6263506848526934,0.1707779110860764,0.0845077833345853,-187.60195593731476,3.498438767360472,11.174920568396985,0.4676800736207933,0.0173029433271195,0.4350814270541541,0.2897908200304295,0.4903842925288491,0.8008763946248791,-145.1686922356311,31.910806047759543,24.92008683281164,0.723005352489747,0.0225583913696902,0.9471842062412824,0.919169678145276,0.5858840739540274,2.101661053523726
1.43,-50.21091750872818,38.28569501743947,174.00776572881026,0.1006866108121294,0.2647426350666546,0.0397133926163604,0.5684319033678091,0.183775856377764,0.6043566949529018,-105.41619133805324,54.05590613368662,-1.5201985637468576,0.0857241934231833,0.3087835351363595,0.1200142028547243,0.7352501518040975,0.2181078459808729,0.4284590130081393,-187.0896309070189,3.517557744436329,10.90231030894142,0.5043966621427951,-0.1110739636231893,0.2954632450452242,0.3741554021745762,0.8522848306106158,0.5056404930181384,-144.21102776881267,32.54777396801427,25.838960268894468,0.9181614832624068,0.2391480552544935,0.7377258113512155,0.8498614627933072,0.3524986186610229,2.117941619524609
1.44,-49.77265659055245,38.6597321100709,174.2030818739748,0.0855660333628028,0.2477045054134485,0.117308889363397,0.3240521607765006,0.1992852879617945,0.5697426251812763,-105.52607052977211,54.16360067858495,-1.6897729947509317,0.288404007498245,0.2384446523708016,0.0799526794693407,0.4607177121837288,0.0741612030793794,0.4803725704827324,-187.2736504340228,3.607448538522877,10.651724429764224,0.3983528080745432,0.2212942658009,0.2840183422100657,0.4432794932635742,0.6624960534146742,0.6384013450262366,-143.4225043042827,32.82922122463636,25.97081885227196,0.9683476299275148,0.428250023062887,1.030378219687381,0.5122443636198157,0.2337561757780214,1.5867496575408149
1.45,-49.366815502555575,38.85398182275715,174.3273047481376,0.0391270192334849,0.3410288062654522,0.1097962721450703,0.174021795613691,0.1847459133794621,0.4978891808507264,-105.39582626166414,54.58414935207949,-1.7245068636953431,0.1800504247986997,0.0402928806560427,-0.0128047809193019,0.6497793270720078,0.1489562492540339,0.5050963266192836,-187.06149374808464,3.4037489993083754,10.19711157584721,0.3625291863235388,0.2305204688363918,0.1005609043655881,0.7749783831274568,0.8862090073770432,0.9122566700295556,-143.0469813487518,33.19176497425596,26.448136587322715,1.036905701998589,0.3106594092071228,0.8983447720177998,0.1994747472875331,0.2087960867584963,1.2241936338584007
1.46,-49.77466183636398,39.38126133360876,174.23985412837325,-0.0121661075834998,0.1033431322150419,0.3571405727821038,0.0808181876187174,0.3852124481704109,0.5183688206525138,-105.082882918608,54.74860244517112,-1.8703309958598409,0.4190501700170493,0.2916105649751215,0.1211122129149118,1.0190155563020764,0.3237207128219635,0.8700562905897757,-186.5156898381885,3.6284805371081066,9.6772316505873,0.3318035143201401,0.0469206887897654,0.3739942633218636,1.2025723549803615,1.6437666624805418,1.1248413244235422,-142.28501216937224,34.02685344747308,26.82087307474352,0.8658486914424967,0.0701815121058897,0.6940464599343519,1.2179679178100529,0.9114212304841944,1.5816854048333202
1.47,-49.27749791426092,39.435604759063054,174.6911260780425,0.4611005944591648,0.2932446735963143,0.3898587433927299,0.2510667333233202,0.6989107693117874,0.4734911043403454,-104.40255108335924,54.81442609615408,-1.8647886797152795,0.2657386340875267,0.288002722210143,0.0885534723727014,0.4506502407373962,0.2816308834250609,0.7896849453653331,-186.56315396067117,3.59309869713618,9.691698562885094,0.4389141475272728,0.0825878667756042,0.1261398452382252,0.3341985738456545,0.8813027655429739,1.3339926626784273,-141.4254089437284,34.65947309817804,27.56076969317337,1.1502429220431252,0.2440528738348259,0.881331077921277,0.5412747911257727,0.935890525273248,1.9369838599184648
1.48,-49.31781049579552,39.937805306419946,175.0001412195838,0.150682476706505,0.0980377262448891,0.0471941256957827,0.1099914341382974,-0.0449965887481049,0.0404618956225831,-104.22766075797784,55.2178784824172,-2.165943499055206,0.2058464858397608,0.2910693224621078,-0.0127282564162842,0.4674960560215481,-0.1218391887094413,0.7194457505441771,-186.81297358861264,3.7960237304746336,9.302472795964434,0.2035767050826006,0.3446874046727315,-0.0682143341263725,0.1820122093325868,0.7815068944836361,0.9652517093812294,-140.014416350737,35.5222160711713,28.160364677031136,1.2058823516238977,0.3265988044152249,0.9354339754390748,0.5547046716973648,0.5325952585349453,1.6773753544534644
1.49,-49.29249473299823,40.120672927807874,175.0011159056577,-0.0041464417494412,0.1850305951374793,0.2555861973735016,0.2161662396271312,0.2715851490308199,0.2756902187523213,-103.9981979791252,55.42598197562621,-2.553563787561529,0.0461022950635675,0.3217930704546293,-0.0947884524205394,0.8539722640001867,-0.0787491793124769,0.6318730033897323,-186.4975618392048,4.08303024915543,9.043189056145527,-0.0745146713519707,0.411833378913333,0.1347981109309264,0.0802868438901524,0.6924975643019109,0.5736079551921474,-139.66858863697266,35.772712731692216,28.94820922389052,1.342851000658867,0.4885382538578539,0.4619234827059563,0.542447296071638,0.5088058283224492,1.3604105162079283
1.5,-49.45328644586,39.97211093338365,175.12533867731406,0.2016602944270368,0.1786211854292979,-0.1615470334529662,0.3674790462427079,0.3755804002612432,-0.0526892565085544,-103.91058779333798,55.76365689348566,-2.3904484457395085,0.1372108888992352,0.2940483804097294,-0.0523119341459254,0.8901847035026527,0.0825601521562728,0.0364360348349527,-186.918711718697,4.1544018351780645,8.737024986762366,0.132751847147598,0.272696281868873,0.0967974750963792,0.3034574003043994,0.3265054055136559,0.4758824458784972,-139.14666211976763,36.2614901548963,29.37025516893681,1.092249406939834,0.5723278667248469,0.5454878583976842,0.4299416276491777,1.0221189183795298,0.8759074439578216
1.51,-49.38314049584663,40.46758752266052,174.9634363511634,0.1000316816038563,0.2053462390735621,0.1704409704503687,0.4602571829912195,0.1733335186271224,-0.0821682832129101,-103.93530339221653,56.15514931788758,-2.64788427947134,0.2480835590968482,0.3284262573024485,0.2877279331560107,0.8910845822731643,0.1019126348700849,0.2805637507042116,-187.34016481361883,4.536743813071057,8.672213139263034,0.2818635794348982,0.2881974929108992,-0.3344192648408782,0.3072336823308504,0.2759358787515832,0.442674190291332,-138.2383902317968,36.775404338115294,30.69726331634125,1.1548146130383137,0.552479809078747,0.4343195705356313,0.3433387581231701,0.5284635687003911,1.1127027553681066
1.52,-49.08025328556701,40.46828053885787,175.10553305674512,0.5426048285963104,0.439849821216951,0.0167824003388234,0.521120111548273,0.0450184542305985,0.0912251835324175,-104.13879695099574,56.74003569458596,-2.471475770602459,0.3411619105765825,0.3465040260168649,0.2666260738614848,0.7582416028884398,-0.020226023151385,0.2841843406203275,-187.27273505307085,4.926039762985575,8.133051972206248,0.3660925036976418,0.2953681841019707,0.2845547587010366,0.3525917058777714,1.1478512586833003,1.3929746638961524,-137.39412213064443,37.56992609545582,32.05727627782039,0.8772017332219431,0.7662742677179065,0.4354602737020328,0.2724050662729746,0.4839295094988525,1.8644733945837804
1.53,-48.947761253924654,40.86407665560999,175.06647094946052,0.0740398572737879,0.4581826363057715,0.1143879614822658,0.0924277686185695,0.7336188526593433,0.2047496728210762,-103.82557851319092,57.43305355528327,-2.731481033526342,0.1710464087731028,0.5191789406728006,0.1046048005062105,0.2424116891174814,0.0258734568932395,0.06882983257976,-187.1101749836305,5.357737303799314,7.700736584970904,0.4728725833192873,0.2469720275634405,-0.0427324933932903,0.1776556253457053,0.8162455786671783,1.813729740051618,-137.17257627340493,38.431965473846695,33.133266928193905,1.2610115591365292,0.7239017495806276,0.2625626898308583,0.3410871187499371,0.2706821672457019,1.630439742725576
1.54,-48.88933918559966,41.37597124349976,175.21142406873616,0.2860636048460163,0.0265836460337768,0.1636274973950414,0.0582015958668135,0.5831532278459461,0.0616494444220954,-103.80287220116722,58.0341536159019,-2.658617013485919,-0.1307508685887852,0.3034872944964059,0.1241110540940012,0.8163495076331213,0.4612853963975459,0.3195685489837394,-187.4573836450977,5.858682219173994,7.2939534514118,0.5756220602500408,0.6335580181991434,-0.1560405419301182,0.4932566559042066,0.7747755461693429,1.1794502573608234,-136.49662892880272,39.16155258962031,34.2553314611476,0.9666551884225228,0.8142136109355551,0.2281912711247907,0.6771298992245631,0.5278921973642288,1.6997304787708776
1.55,-48.58258769339252,41.595988028553485,175.23740858773624,0.2601486888264062,0.1814237834167909,-0.0046894610076682,0.9242000175652826,0.0041246332572613,0.738938006482993,-103.601616346115,58.6957838608416,-2.6046136149732915,0.3557583815946256,0.6121470729899324,-0.0275139055700055,0.4900472630959852,0.2147901329870263,0.163750459288009,-187.22585930233933,6.092151572571798,6.743456164332891,0.4954390166407261,0.5397590597568513,0.0155975425053419,0.3504281374031948,0.440591209910735,1.3649281417043193,-136.01026438772627,40.11101698413143,35.783562165028044,0.9416009172319794,0.9096139133051888,-0.014712603230172,0.0220218427690531,0.6049421357813978,1.4434375962788677
1.56,-48.29414492231482,42.32470581744139,175.17030014777524,0.2741015381106759,0.6121187218764961,0.0011549145870197,0.7138885532032679,0.1581791514735335,0.6270296566632038,-103.74452267654792,59.06964443426176,-2.864695967546606,0.2165696511209739,0.6693450283785666,0.2353686305394293,0.2471058930462147,-0.0816435973095939,0.22581510086296,-187.06177209451127,7.032253263620291,6.179101528521052,0.5008412264220409,0.3051295438058359,0.0725477794308481,0.0818973024660541,0.3299993567965149,1.2184843267094108,-135.71672756973385,40.76744650383719,37.08848883742645,0.7558006371691284,0.9052619709894666,0.3511710367029778,0.0275978235690635,0.1557391171462432,0.9051908262967836
1.57,-48.13974356970168,42.67823435661448,175.2888544740126,0.422617314333805,0.3405323862928731,0.1438719639766852,0.5792821570925656,-0.0675921721349522,0.0024597128107977,-103.52954557348411,60.03615798310928,-2.686427972241772,0.0019783892334029,0.6579742931252304,-0.2759848688869646,0.795938907260276,0.3403609895618893,0.0777547556236188,-187.68835464094687,7.632802684719509,5.684673661466865,0.4585744995255377,0.5530019165522352,-0.021055580208814,0.1866138377302714,0.3910777616188109,1.2385606088635326,-135.10626538278015,41.79115994698245,38.21302987661534,0.6013965279304273,0.6917442782596434,0.5398161956064721,0.3103940309515504,0.9577364205800792,0.7634636652744186
1.58,-47.670551170083606,43.00384329102687,175.58574265121368,-0.063131305719965,0.3582536792310536,-0.0970778286070421,0.4724508733375535,-0.0536975746773878,0.2596804707553902,-103.35397878582371,60.7815651836591,-2.9075319470889345,0.3954059015909872,0.5101875889186238,0.0341945533563194,0.5192794856839871,0.0429328720547836,0.2317976826735953,-187.85032054890377,8.456172634338774,5.5993863608977374,0.1022573916871841,0.7191846058986148,0.2437852389015931,0.3844209343892228,0.0808697529016785,0.6913957246461264,-133.40785555849294,43.12534885701999,38.7092210232149,0.8483213235201637,0.7310098110900042,1.542121125067285,0.2416706192292706,1.1271958991637476,2.5861490904102897
1.59,-47.52221907752464,43.28495505934719,175.84046208897703,0.1509884082980656,0.5700179308013703,-0.0479798066029765,0.1071177274764047,-0.0560823447447599,0.039649501288234,-103.36054294211073,61.50160469521045,-2.707855077977269,0.1920421734415281,0.6878032984300424,-0.1309598154201638,0.0977903440028835,0.0211548088123344,0.5984634899066421,-188.14666757548977,8.935023003596944,4.8736375537721015,0.4297351744892969,0.6323772075892715,0.0559769348519185,0.7605717431094753,0.1587525252611978,0.4254809557636819,-132.19560549118532,44.44937815492861,39.60549509595579,0.8341334369155009,0.9318908021295392,0.5389873395004559,0.862960683292044,2.914750046875075,0.8286442602653699
1.6,-47.57513418613195,43.72870860275636,175.65504722145096,0.095362068652201,0.6261489903174291,0.2272524497737529,0.2182232676527825,-0.0812692663230781,-0.0574308357071809,-103.16552938591626,62.252377502634126,-2.880460182393532,0.1050283292119675,0.5782320935566904,0.0691598224624539,0.0761604143180693,-0.1818471252531329,0.0588689181602357,-188.30373329780733,9.258923803167438,4.984966774556852,0.2982930044137702,0.6672023645173266,-0.2004934535390007,0.6655139616671102,0.1038886206312635,0.5377076686907031,-132.62547900026686,44.63726126638264,40.773143794937184,1.026965859923614,1.063495918028059,0.5502718562290964,0.8376566022438848,2.3260666521094606,0.7963226411072752
1.61,-47.602546138191165,44.09789616331048,175.82489174719538,0.284203299374976,0.6506801023154107,0.13849675591367,0.4227926200930667,-0.0725854855805322,0.1759506993461852,-103.2009739012014,62.51996211424895,-3.160332283510193,0.144496037109216,0.8809815119880121,0.1201118410377923,0.3340162860306335,0.0077195370315016,0.2138293236119674,-188.12615144505068,9.565260029196432,5.034863174228519,0.058494048364421,0.3820471901922448,0.1057167020252533,0.7536936293646843,0.6294964737092452,0.8715926992662147,-132.66161366045486,44.94616200101902,41.87943403282533,1.0960902549563212,1.325537944353282,0.6234901045127665,1.1202515164407476,2.0425978585970013,1.0103313025394174
1.62,-47.36403713450621,44.55979163952308,175.55143613874296,0.1994732763803135,0.2076395814484629,0.0546255493449105,0.3342157901608446,-0.402310115672904,0.2638737942561825,-103.11545132754314,63.38211053694186,-3.011229285000928,0.3825313327929882,0.5270734240747361,0.2727044335542286,0.8934012857959513,-0.159594553836588,0.4883589350984129,-188.2717399057572,10.117651845383811,4.71043976541867,0.4224260289274834,0.6393470528328629,0.0404185196586163,0.9384562725655234,0.4342982257392493,0.7127286402051706,-132.9563133739884,45.64048256340092,44.19313565749213,1.0405489690918202,1.0703549746028105,0.2917273814790542,0.866617600607872,0.4305639335831058,-0.1152034467204811
1.63,-47.31285115125674,45.29345375521394,175.64203401615094,0.2394132269442505,0.5926810832867002,0.5082723217653198,0.3714956078557963,0.1402681244042476,0.3449513472700224,-103.4426550926256,64.3583099203962,-2.8626918651837947,-0.0043281848815223,0.7829877865519148,0.1216008579717777,0.2456981493358049,0.2215576689920871,0.8309737420818629,-188.34129194765708,10.600439428514044,4.556177903512618,0.1002061599931703,0.5119802756305176,-0.0268513332698478,0.567038986261022,0.9186186226175528,1.0599227946984402,-133.31183161039462,45.76901464652619,45.20139000442402,0.9043955371323352,1.1190308651094905,0.3788559198059327,0.91152854514072,1.7708179957669496,0.1772791027827428
1.64,-47.096562805968624,45.42046371424383,175.52526458253547,0.2582172780678363,0.5620398010886979,-0.0928980363508804,0.6258939275255887,0.2354916861188741,0.4122993787254125,-103.28484721850327,64.9513093767665,-3.04423861589414,-0.3589519932963394,0.7606417262871343,0.1250419911560669,0.3178712158967835,0.3623165706092687,0.6575912609014676,-188.66683705264543,10.808299303724,3.9461772130758495,0.0439957577803068,0.4018271268745902,0.2231733104374436,0.1979227957931259,1.2255347646977934,0.9913561127104544,-132.7470551892207,46.34634334845695,46.187489263388855,0.8119244029555408,1.1440095349049626,0.2360231363708756,0.4218256174060151,1.6702995968864482,0.1576905634573845
1.65,-47.09105584003869,45.81063043653352,175.39985051189288,0.0668328969314475,0.5411264892773068,0.0125594846592426,0.7539478407965055,0.5645872665125048,0.2305695537716436,-103.3835105620348,65.37479196534301,-2.804926362258931,0.0956007683371941,0.5999447502052697,0.0741896631291889,0.2495981320234733,0.1487572399665837,0.3725862189786454,-188.57456971758575,10.928944746498509,4.27744304405997,0.3247989662786001,0.5536286035999854,0.4338008384792682,0.1480282655699431,1.1867156824285263,0.919543881864888,-132.63219793443164,47.06038106998072,47.1689498919576,0.9927677660423744,1.1110113603905118,0.4691906883016817,0.397408895749618,1.560438668833053,0.8094687666667363
1.66,-46.69467912345645,46.41395113738518,175.39436813530986,0.2781709013631254,0.5688902010471449,0.2159195935363418,0.1676403760608992,0.6365638833286565,-0.0025792255673563,-103.47616402984968,66.61693340805977,-2.7643511364742785,-0.0539159773980634,1.064605000000457,-0.0900148566627141,0.2585274802316553,0.0178820396477029,0.362739391238699,-188.98805761449364,11.49389852818176,4.067401712802046,0.3440847193731463,0.5044280662468099,1.0261092346946492,0.3224009893267671,1.7925474720848054,1.178730629406859,-132.33743193496204,48.40949064014753,48.78567104015468,1.1536772355353653,1.2642465413151116,0.4204241181964756,0.1293783632914292,1.2273005891502664,1.2555413077210411
1.67,-46.26024498661281,46.9525193693614,175.5839094130026,0.3723420559164442,0.6690309449766103,0.1151398119285698,0.2581411997438332,0.861781212154493,-0.0799854218278853,-103.58369692579826,67.68522157269936,-2.833336091364873,0.1055885993404499,0.838010914833826,0.215165897828885,0.0358602075394641,0.1060665241568181,0.0314944120925689,-189.7335528950809,11.909317576291835,4.13421430287637,0.1028090523362252,0.9072168631876556,0.6658570892457015,0.2402928311505947,0.9410527218357688,1.0728453461598648,-131.7248911812091,49.74385742762924,51.04606043243872,1.111051943739655,1.4676041822289363,0.5935859954077998,0.2021343086790323,0.1393164088808767,0.0454082328347784
1.68,-45.84073424410131,47.66520024085602,175.2850648830333,-0.0778356442696084,0.5189247029355707,0.2192288422739509,-0.0222716493858272,0.5094729492652041,0.2208831506554648,-104.15017892490036,68.79731091306131,-2.930404445361961,0.4658160768442622,1.091445681968141,-0.0045257160292343,0.0991626667164592,0.0762779005298414,0.0098488258515144,-190.910546642542,12.985519896987986,3.989909232226735,-0.0654526292746804,1.0798571981462892,0.6678427534689048,0.4252887312098355,0.1546203282498846,0.1338479219520251,-131.47610987523692,50.654808714656085,53.01018632265072,1.0458398323458402,1.406855673423264,0.4844684251713012,0.0135179281157662,0.9697652746286324,1.080268862819801
1.69,-45.44181511475901,48.22768897849348,175.6062111300734,0.2562938775586897,0.5562854513706086,0.1174156175955139,0.1373884905463482,0.2246117267936672,-0.0422089282716227,-104.322070065282,69.95044129444491,-2.865782881102799,0.0168386840517343,1.1197516735131787,0.0552601559409566,0.4520096633639194,0.2095771664771004,0.0979687671883382,-191.6548288220151,13.676945598310487,4.49281223368656,-0.0428880446406164,0.5464800035240452,0.815323986732733,0.2723097575761723,0.0085593681893121,0.3478107817363965,-131.3912854729211,51.974226034004,55.73861183167086,0.8249467742050018,1.6827204980657926,0.3191488490655664,0.4094560779061978,0.4424341723655251,0.6255742146386684
1.7,-44.9212630772199,49.24603239146394,175.7147955751123,0.4543659291064798,0.6813004994582497,0.2327899222786891,0.0996408586440615,0.1533082164775404,0.1013221753471902,-104.07427888771156,70.98933584404801,-2.705519801343585,-0.0566323613877128,1.3824302070134369,0.0143187863345826,0.9913614212066671,0.0571328003149076,-0.0472666390167945,-192.7316084460334,14.303761886981103,4.4661614423474205,0.0674990628823247,0.7226119333284826,0.426972224130789,0.7309272664978007,0.5353499774205766,0.8142565137373914,-130.87219094386282,53.02303191593772,58.47073750635128,1.3200146312633916,1.7665298592126226,0.1598855130422464,1.5506788398968951,0.0804149821614246,0.5506024720354836
1.71,-44.86859502725065,49.81728292698925,175.64130017759803,0.2360768728394938,0.8148495025603129,-0.0285163203367764,0.1101221907981356,-0.0244625534315789,0.3050910310796482,-104.340635176849,72.30468167167729,-2.8831846122146088,-0.1001651120981903,0.9420507255635212,0.0867068948016941,0.7582371344672921,0.3931367717487061,-0.1026663367960833,-193.1979188564944,14.948658418088757,4.885543518442812,0.2189133084948882,0.7389731328065391,0.8110384690533688,0.1432356216573485,-0.1643987740165361,-0.0336461482117009,-130.6651115506968,55.02263928572676,62.29871881494405,0.6701387417543943,2.2479640821125164,0.2690728796744528,1.108250120028495,0.738362940714856,0.6300741968574493
1.72,-44.3182180650312,50.50856511935135,175.49371959841798,-0.0655731705360595,0.5827481907843713,0.2945205477909172,0.2465987956886159,-0.1644439304284305,0.2544245427833671,-104.4394166294636,73.47481278449837,-2.9167326273577365,-0.1171436332100809,0.7809299739488549,0.2887687585833118,0.9640630363514976,0.1771522725934879,-0.0208606512243826,-194.5160132711244,15.990076055706998,5.487299780604648,0.2016882484816891,0.6238665494698734,0.95721103946555,0.1033666659781472,0.7589644214998825,0.5412367337579771,-130.59731287205136,56.018473418444046,66.48763097594436,0.9888050929716664,2.257006999750213,0.4060327264237977,2.7056048372452106,0.9751663535629383,1.1164300273617176
1.73,-44.40285880554325,51.422529028357,174.9769993363069,0.2217888115639566,0.5133523412953922,0.1551254159737338,0.2158606494656554,0.2168178842951926,0.4285323237860925,-104.33504297510338,74.48763246117477,-3.2303853368761395,-0.1797509343668367,1.015266197163842,0.1684708016468603,1.055806413920672,0.1852670851490558,0.0746328208623399,-195.5374792910462,16.542926135223134,6.178102092982271,0.5224542515201366,0.7933667750279811,0.8482686019857377,0.6693400328993168,1.365227110184354,0.4947661386641392,-130.29155697254265,57.61074318346148,70.59889422017777,1.3629764576209435,2.0068156958151584,0.5582709947243576,2.310241153665539,-0.0006060511454452,1.4171450248239907
1.74,-44.433663243133246,52.0383576873166,174.78754229081153,0.0113959991244636,0.7582641316479062,0.0704563249956514,0.2100684279378072,-0.0288529235954358,0.0130249470492121,-104.5874696133205,75.58309453939417,-2.775422363987184,-0.0450043206720011,0.4898526382258091,0.0909444502436023,0.8143066983588084,0.186671227810081,0.3158168227243995,-195.901874172249,17.32430782550986,7.242966530728768,0.9309487577877874,0.8855108357870566,0.467886482669296,0.4843786966588578,1.1401737104834482,0.8534944018614196,-129.49499286250486,58.27487881129504,74.71567352545821,1.846476293051848,1.3728720863032748,0.0259195597940145,1.1327042467877957,0.4653146707489419,2.099760772125539
1.75,-44.383899935005495,53.372464958785926,174.57068277889073,0.3913485410572389,1.0018409820204404,0.2004457814558031,0.1385145803514548,-0.1430837916717941,0.0930700620312124,-104.79037146834212,76.62448434005222,-2.7562427342555624,0.2125424539547313,0.7852280990398844,0.0759958184440264,0.6189636417466572,0.1961306659218733,-0.09151894968925,-196.43700019979133,18.15927643957735,8.158675582366502,1.0009491776013426,0.6124301559873216,0.5610871872334985,0.7796695853636518,0.8916002705014903,0.7352908146339888,-128.94844537802604,58.24395041507576,79.68720579238482,1.4075053530821051,1.9124051628977177,0.426742767725188,-0.0458570688585042,0.367847897641178,1.0361616965008362
