0.02,-0.3299968406946098,-0.16577174382135998,1.0429524633797917,-0.12854397165626352,-0.44668916472468423,-0.1069725777516875,-0.06558750319413251,0.3438286955870059,-1.7982725594024813,6.875133142427221,-0.439631698137802,7.06470112539681
0.03,-0.32907634705920596,-0.10775059223157815,0.9276983837415744,-0.15794037809641867,-0.6096808245894658,0.1716231075430055,-0.4426983703273471,0.6555940893099508,0.01366898446461555,10.213215194737106,-0.42271267693469394,6.616909281078499
0.04,-0.28839023286070126,-0.11375562609865861,0.9805766432193096,0.009724801290383259,-0.6432814922838287,0.43212836587516473,-0.7615609106059863,1.052485886120538,2.182659260340759,13.18737077916498,-0.208439094502648,6.005453538307136
0.05,-0.4416718869458485,-0.15291523013637184,0.7838766734170823,-0.03192794455332519,-0.7302283733756716,0.7869107981977136,-1.0077559646037944,1.325455522312659,4.476763180921481,15.821635917715545,0.020684019239439615,4.902035444894953
0.06,-0.35411834432085854,-0.15217107518843107,0.8457977703107246,-0.10616393945779123,-0.9186033948362791,1.1547627270709353,-1.304761437322799,1.5296843325014913,6.731002031153406,17.749961625292254,0.46804979612156783,3.207939057218166
0.07,-0.36610574002143054,-0.1372189433568562,0.6952378963598576,0.0052982994653508345,-0.9655261948184852,1.4584191781565488,-1.558689549348821,1.8123728824338896,9.12182059082118,19.02968331645106,1.0851413371081104,1.1985111337758612
0.08,-0.35394248548971324,-0.20946989671104452,0.7325433696330192,0.038893150778379744,-0.9487689748787703,1.769643283931819,-1.7882197709760346,2.0930247565438305,11.681219404133333,19.633450092536375,1.845819307384824,-1.5343074658196587
0.09,-0.4147620019950754,-0.07530336560359499,0.7545576864559623,0.04411975461684428,-1.0523439148145892,2.1454278071446518,-1.7677425467574577,2.1164799170467097,14.069441320031714,19.266116757375762,2.6531119010676636,-4.687013486177678
0.1,-0.40608330916012847,-0.10381356410407187,0.7766536383631601,0.054029687150891396,-0.9903824333045776,2.3294391857481522,-1.9798179476502087,2.3425824722505038,16.35876796680666,18.228143086761463,3.70055425730507,-8.103241767210356
0.11,-0.3651942404427041,-0.10023380691009696,0.6224764988059297,0.08350133580186436,-0.9264261398578845,2.7694937947391396,-1.9769705001987594,2.4198270168574227,9.60913591511939,8.335128971280241,2.4527968240678852,-6.268929476191986
0.12,-0.468354285043705,-0.05072275631671077,0.6250460848322094,0.06803255720029965,-0.49624574216253187,3.2680342146989214,-1.9052992253806946,2.2106022939910974,22.6154441609471,4.677683797554327,8.12307999076162,-24.787461033699582
0.13,-0.45815813388043386,0.05554688279613129,0.6390072386581761,0.20145716254842816,-0.12383715040857356,3.3681140216419516,-1.6565280804849665,1.8773243693565809,22.66302500568352,-6.853281509697081,9.939372500086415,-32.47367361839156
0.14,-0.47175784087338274,0.06837533753200738,0.5930988663270214,0.12138076651068183,-0.06428954693588584,3.323509250973829,-1.602880107289664,1.7563066242726302,22.064765763747015,-9.344707616889073,10.126219112135141,-33.39257701363962
0.15,-0.463576091103745,0.10261462879176426,0.5334934767418303,0.1320940574488371,0.04987122878001337,3.2389422481272803,-1.5235630938465177,1.64892334593323,21.378431445687784,-11.83150971203152,10.314146191546929,-34.29421580567858
0.16,-0.40281615204082305,0.09100699584508451,0.5321674124835186,0.18927495603687614,0.14929129871029737,3.163580317516122,-1.3833339135050904,1.3022819691213054,20.10041166084987,-16.968033637276612,10.542018464685475,-35.92620913112512
0.17,-0.41443257752610135,0.07478439881163708,0.5172363914137711,0.20481500720310752,0.4288711119158565,2.939590525168364,-1.0615257659338706,0.9236621521209549,16.944344285663806,-25.386087602388024,10.810950996422626,-37.84906409863628
0.18,-0.5024763183819766,0.10409792163438303,0.5491118253444205,0.28900380432321365,0.5579769393791352,2.8582498652631654,-0.9661355392749646,0.7205914331916075,15.404225016552225,-29.59629332988099,10.882303390312332,-38.87839334424941
0.19,-0.5377540076698942,0.2743142517479198,0.5817671023220607,0.2689283978526727,1.078233234128484,1.3789458318962886,-0.10712412447443341,-0.9274170635657742,-0.9312368114242126,-26.419598558841074,4.220028435455555,-16.775465951133963
0.2,-0.4678853139516601,0.17814576854250724,0.5482819793573305,0.14684044648414457,1.160297496072012,0.8042020586722728,-0.06558374114780122,-1.2302291498092142,-8.480358244975296,-56.28246948446653,6.801829884899847,-27.983973022098084
0.21,-0.522581415046333,0.2511005515112285,0.6000385249782688,0.18678838865815,1.1330811069740632,0.25546274085916004,0.21898749028476397,-1.5060855638926112,-15.962733390677814,-59.93441893322724,4.805399555055344,-21.377938654040474
0.22,-0.44776105888317114,0.27137881782172835,0.5669338001025881,0.2577072269571979,0.892288806987909,-0.7803015107468001,0.24656672817393246,-1.7972148877437009,-28.300890102041254,-61.70628102095351,1.1526840584968152,-7.170530800195535
0.23,-0.4158373494667272,0.34056510705257653,0.5416696423879984,0.32474654126849134,0.6409570353927097,-1.86389625470465,0.2668101396733657,-2.1095892595196775,-40.67304175882281,-63.449652308507645,-2.4972223986444084,7.078970348388243
0.24,-0.46356336609560755,0.20964229667712977,0.7322072274373834,0.16306705335334462,-0.26763443581520174,-3.361467017933878,0.1861085497838838,-1.9431710056217089,-57.48143494891319,-58.99393228798921,-8.138527967089846,31.285874384845457
0.25,-0.5028143624531514,0.32729758403384734,0.5656241158027794,0.2010194185482514,-0.7121064044712111,-3.9194927334682053,-0.009828158575441413,-1.7641757817392503,-65.50862219574293,-54.785595635006686,-11.025928182955608,44.44879767840003
0.26,-0.48489764322706,0.17647294488633758,0.5898892142330144,0.011538410474816178,-1.3675774964614662,-4.67619708283824,-0.021116252912483313,-1.3431376313645766,-72.64590031362306,-49.323616374766786,-13.694224086966667,57.63703872972281
0.27,-0.5031031652178254,0.1896864591496226,0.5035820781628906,0.060909188897459554,-1.760242418440182,-4.965485840259689,-0.12549100541295238,-1.0738077897976355,-75.78623920578084,-46.02381844420404,-14.882633739166714,64.1823879553293
0.28,-0.4982791200252896,0.11450628107142403,0.5234988435000664,0.17784391900835303,-2.535890013061232,-5.504348483268191,-0.4095209060581536,-0.4042364061103211,-59.2838691722571,-32.18403552907016,-12.084503169198559,53.21831806413538
0.29,-0.48481550704633447,0.13794120641804233,0.4925386010601148,0.16089397277872175,-3.0588369117627683,-5.792824631883868,-0.4397951822056705,0.028404508279466133,-39.83823954208973,-21.563789528720523,-8.137360502802863,35.68015277374259
0.3,-0.49456924368465516,-0.08762831849816691,0.5149621552249251,0.1954840240210927,-3.8572222861643546,-6.1943237674823965,-0.6966388576488303,0.7377877787776421,-0.6670280623529046,-0.2548800948046105,-0.16532828488504303,0.7039316772480926
0.31,-0.5153587966789661,-0.034348102803658145,0.5012598688143031,0.21786618068430003,-4.828326281938128,-6.547494557545616,-0.9418147951600603,1.7390940855994654,-45.89734352081815,-5.04254753179499,-11.190098904482955,56.76547898834066
0.32,-0.5002122638681059,-0.1397890482501672,0.5833226191016551,0.18691087836266626,-5.345519376122635,-6.628019477220011,-1.07267353557023,2.2205988881777463,-68.39605309136203,-7.4531008780124,-16.72710512255437,84.7756231417002
0.33,-0.5505582585098592,-0.15429462950117395,0.5791186583528414,0.09693224516625103,-5.872320510253231,-6.876598311017518,-1.159899996459032,2.698827405080762,-91.01125847269867,-9.7884579033263,-22.156901026049873,112.78546529200277
0.34,-0.6198804368171186,-0.24547919886005218,0.4982749533646089,0.23014266720098348,-7.289627943556592,-6.987299802315531,-1.5748402017581566,4.421376581130832,-88.2325360629431,2.8504324476560363,-22.200927076862005,119.97027028962371
0.35,-0.8544182313273817,-0.6619972123015166,0.4095181348066809,0.3356258277530513,-10.496490843990808,-6.567150643553247,-2.5362579545361057,8.553390354792716,-64.10598794265108,25.679421395185088,-17.374470099084835,110.35788878810254
0.36,-1.413406524177564,-0.8901454060601034,0.37880474381976076,0.6608590974961751,-12.204417066916443,-5.169934852658533,-3.1305270322454297,12.063644425000284,-5.655727398131049,26.351890337472373,-4.175256192720773,39.0677695096117
0.37,-1.5009487087765796,-0.8765086682626461,0.31942344447224086,0.8655881468637951,-12.254452935651281,-4.885451092296375,-3.132927642939716,12.3258737704841,6.616124566892256,10.648178391452273,-0.03773393468699001,5.775649108287893
0.38,-1.5722191614336491,-0.8745429913830571,0.3059362037558871,0.8951406921226416,-12.297182533490073,-4.839848719184233,-3.1155842811097365,12.260373407660216,13.143505193681595,20.607725074255328,0.010303770174108325,10.823468174873659
0.39,-1.6988514954853813,-0.9320187183318528,0.33673888867415286,0.9836009618579442,-12.130937574698379,-4.453236143120402,-3.195271129926684,12.377593765618938,33.17988274820389,12.442092599956126,4.346821749673472,-21.547437451140983
0.4,-1.7079211423138605,-1.1123860518124367,0.15321815418013385,1.117268500724023,-11.585675496521256,-4.439010404957062,-3.188016269652581,12.053126102831257,54.237536934250926,1.8142913861726002,8.55435378256796,-57.5821340941818
0.41,-1.8000492960844083,-1.086134248414786,0.2030715868461589,1.2090715145244089,-11.139242986800154,-4.342122136171002,-3.1238184168622447,11.585704594039179,65.1574224930849,-5.34963808984586,10.56731942957396,-78.00456943555791
0.42,-2.0891836611409498,-1.1393393608881175,0.3142096460338082,1.31908789019252,-9.909984328513174,-4.33772169194565,-2.937292671479872,10.07037338980405,97.77335141345108,-27.05664339488695,16.576202374823843,-139.317805742821
0.43,-2.123557998545325,-1.173150427601021,0.2513399592207314,1.404064593606838,-9.20728858551678,-4.483016402525411,-2.82623265550614,9.154919896435276,108.62971107957549,-36.395195840128935,18.234374679899144,-162.1227788192955
0.44,-2.133816832815281,-1.2274488720411234,0.18498389815884297,1.5060147173333815,-8.504099235300494,-4.65597337410659,-2.703073137071484,8.212970913926391,119.47657685547296,-45.767723637682884,19.895157655043434,-184.92173527179472
0.45,-2.4825189063230146,-1.378416425535882,0.04954190906284399,1.5405497968301223,-1.5041740671046517,-7.646725798680959,-1.6884621033666487,-3.101357784905384,199.1960589284901,-131.4594407321103,28.50340721425085,-373.32142881988483
0.46,-2.481560309417377,-1.4252314600503855,0.08700801138193262,1.5115515271531592,0.8930945368754734,-9.157812031217734,-1.3522992060376204,-7.420449503676843,213.97876959902467,-154.8371750995254,28.25084830596686,-418.3049861440402
0.47,-2.4513714125560266,-1.503943917127929,0.0486540344886068,1.4574095331950732,3.220469180524649,-10.69259574346586,-0.9791366561434331,-11.8029245235968,229.05261418477096,-178.22933390603959,28.107255241210634,-463.41972964119213
0.48,-2.4194137402476312,-1.537116359800385,0.035880599667771476,1.353785171675736,4.588411598348826,-11.666722966764684,-0.90473845267548,-14.325073040917955,0.5397600522270796,-0.2966558987605994,-0.010691148367396859,-0.8969394138317266
0.49,-2.4098652593232384,-1.6552310072515994,0.06436268060173238,1.3368569890332316,5.864264678103999,-12.560553581450407,-0.7034530066236552,-16.873967478773224,240.42919344179225,-200.91463585251026,26.723268911228807,-504.35551479169436
0.5,-2.306882908833832,-1.7603458180345366,-0.05235839497767229,1.137130641146101,8.465062712390358,-14.857137745522046,-0.39892427501069255,-22.282889165057487,249.09504937407016,-222.18843990556456,24.557028651464925,-541.7749252854487
0.51,-2.0606627851116293,-1.8965895857819839,-0.03687924805250274,0.6326601799974652,12.549056698568878,-18.492149116405038,-0.016524986435570245,-31.102530449196564,256.099034774696,-250.26973183314755,19.72065830562436,-588.45287231322
0.52,-1.9372758825610052,-2.0369724809427945,-0.0030857281299362677,0.48394353254519784,13.946763224891367,-19.809629300925554,0.12863762016460856,-34.18984046827297,257.4599300417737,-258.91582771159636,17.8952032264839,-602.2913099517531
0.53,-1.855861096039155,-2.262398902546732,0.012583964635201492,0.10684600825771508,16.5183613127028,-22.568299878861026,0.31956235535185257,-40.678897782085954,256.75941011210847,-273.34505626645563,13.606740907204887,-623.8790040097134
0.54,-1.320858436787498,-2.7998674814993096,0.0358202491293015,-1.0868456357245726,22.33910882679828,-29.361068007160483,0.7237764029399725,-55.45728497883291,243.37967108790914,-292.70081233416573,2.3732793063514017,-647.2066061230374
0.55,-1.2115595724279986,-3.0222927964596193,0.0032998816159438603,-1.377253208704366,23.525182666744303,-30.84913930618381,0.8579382259041205,-58.76978000108218,238.11430329873156,-294.3329196390865,-0.26487818775934896,-647.5937252525027
0.56,-1.1627471087641177,-3.1778991080447696,-0.028158813864071017,-1.52880558127623,24.0450704936338,-31.697441418279464,0.8417129151399162,-60.41157668765406,235.4671324048999,-295.1892455222686,-1.5911388008434677,-647.6867165936866
0.57,0.15858496495817256,-4.66602267203554,0.07063552496752767,-4.521603881933068,31.63186614063321,-43.70632888758589,0.7545562462269474,-85.69376555115497,164.52132118007887,-264.33404340448493,-21.071791535730483,-572.6484711005406
0.58,1.149639733415118,-6.196409492189715,0.09395940933444291,-7.534945310562819,34.574469413880415,-50.7919979557986,-0.02248483335251474,-100.60339530881058,85.95760729622525,-192.11097182299898,-28.31692244970163,-433.9482167586909
0.59,1.452311839876506,-6.750566518932159,0.11936419661378275,-8.587139957963132,35.17610602543693,-52.795900871313705,-0.19933356033478203,-104.85816658157972,57.704027820571476,-162.69977945875053,-29.484338040282697,-378.8776580101347
0.6,1.647839960084501,-6.974086391721443,0.10155530500781235,-9.092467688480097,35.162060204336484,-53.59934342956676,-0.35150312706967085,-106.45023772847858,42.7330347466349,-145.41891732041586,-29.039374897503798,-346.9927172731607
0.61,2.2683852840416026,-7.895064600713896,0.17270508327656278,-10.731799143131528,35.13572677138304,-55.276465224479665,-0.8415212837817242,-110.53973024205408,-2.217402943352497,-90.83914763054082,-26.667151377767382,-246.93624790110812
0.62,2.9497506145632393,-9.003531607618502,0.10463393190894665,-13.061775794097766,34.04725313294754,-56.13713085544029,-1.46172680805673,-113.37008096235499,-61.9512378268502,-10.656451469519316,-18.804658775261476,-99.87209633564824
0.63,2.9026238570547456,-9.188397551462481,0.07759966822663845,-13.314656160060352,33.894226485446545,-56.138037679864276,-1.5087448531850576,-113.46946931496672,-69.1294279323186,-0.2542651997267475,-17.438486057797743,-80.72335767300613
0.64,2.9606550569090166,-9.267330757221416,0.096889098608406,-13.453263625321416,33.713114471667716,-56.15887842169633,-1.5215911241405093,-113.50067324675463,-72.70509922269639,4.941408074316361,-16.71119117267525,-71.14220332135626
0.65,3.0264701814359474,-9.334021457133824,0.09641100510923378,-13.622588130690893,33.53656667255214,-56.125983415433865,-1.5170532559147423,-113.56630287099816,-76.28585675894446,10.143508092096974,-15.976396025236852,-61.554302463995505
0.66,3.2070328592183053,-9.61075463207138,0.0420626687195531,-14.279022954414932,33.11781812164422,-55.95685814650478,-1.6751754134695482,-113.55568997435918,-90.68397593650585,31.022993294969762,-13.136766745263358,-23.201374942757553
0.67,4.079799905099344,-11.246273545175969,0.025621720814101787,-17.718733183845963,28.822240741133186,-52.61076421041964,-2.1178463133712455,-109.65414190584748,-166.7862223222072,153.5221704227105,9.882557041960867,206.8390292998304
0.68,4.372322476232975,-11.808645404004771,0.11105261667166014,-18.723827693984887,27.167285120105753,-50.59871390997871,-2.163884484870628,-106.59700736441162,-187.51775230296235,191.13518423343277,18.890680883730003,279.8968927585039
0.69,4.3590808602427416,-11.95007720337535,0.012165733273536034,-18.961688418303215,26.62525138368989,-50.04849081118038,-2.177721761406183,-105.72394224477672,-192.01087966365046,199.73549801666624,21.204622268235976,297.3020492484155
0.7,4.381094982724754,-11.993811098732143,0.03205480215374755,-19.204539063412646,26.11101835195732,-49.51136968400554,-2.1776277719488766,-104.86168059542261,-196.42991297550844,208.42354733420822,23.468201610553386,314.77143587591155
0.71,5.43701614247533,-14.307561319487927,-0.1382065417524643,-24.112135046875455,14.319431041350338,-32.530958637230164,-0.6016461092707155,-76.28204420538228,-240.081799971839,338.07849404427924,66.38576985244192,613.8717658624571
0.72,5.634946681695147,-14.739661340929425,-0.07756471111370854,-25.323460983279105,10.183197238309281,-25.274789937922588,0.6441798976250415,-62.81956828195785,-223.5616243864773,344.5994250900705,71.05053808983965,663.3910484385283
0.73,5.789453614869577,-14.997650967154199,-0.14416762180245946,-26.029759134429682,7.80931314897573,-21.180389976669762,1.2975436182970248,-55.05262901009754,-159.23108503642425,257.8940020043032,53.90967646409262,511.5019431375428
0.74,5.793377890208045,-14.965907377474773,-0.10284779401377295,-26.13909353968291,7.585542743636689,-20.7215627494943,1.3749546024823098,-54.19906105569382,-106.20984437207602,172.1021699199536,35.95628211667134,341.2941182802686
0.75,5.85214111904713,-15.041803976669868,-0.08030059604909773,-26.192107747274914,7.342248323735387,-20.207566262841635,1.5228725909542287,-53.278426836188416,-53.229820392966936,86.27849712264653,17.99992425262095,171.09067553056985
0.76,5.816944376487372,-14.987844413412608,-0.11188166821038906,-26.242285383995842,7.19133048700346,-19.813979821228227,1.595557488725308,-52.41624284379712,-0.1564437277636444,0.4795799496589582,0.13136036586272906,0.9100802514716698
0.77,5.755243026589045,-15.151169084699198,-0.08126574843719704,-26.56673238241619,6.202945126906319,-18.141207970756515,1.9331841388017272,-48.957490485548185,-194.91562544905477,334.6692838482473,69.0706899007772,687.2741147899465
0.78,6.030775702192655,-15.535879850144651,-0.13939667622779842,-27.770520252744863,0.8318319175792711,-5.777949258410476,4.477600610183515,-22.287490282896467,-91.7422289160569,252.82070201878142,32.876734984746044,625.3824117254234
0.79,6.047842464338487,-15.549203328671085,-0.04606560020212944,-27.910579750268255,0.0534312210195376,-3.265961563273917,4.917834405605334,-16.420118106719517,-59.51276317364953,223.30077636963827,17.80040516400066,590.9989605273785
0.8,6.0988029095946,-15.548640600366394,0.02465037841710397,-28.022846414740094,-0.4960401800089122,0.5575847820403064,5.331962717750651,-5.772849333228217,8.835111022374088,158.57463333748427,-18.13281346808456,504.146144654936
0.81,6.077298801403023,-15.463061108748688,0.09313508855129618,-28.031632787012484,-0.33382388526116263,1.8157701229043335,5.295129937767755,-1.2616023229901163,43.596314439127134,124.67668489491516,-38.08983197774645,453.3185432718013
0.82,6.146446038686977,-15.532360116295887,0.15992262896473153,-27.994409787905678,0.10375631681676711,2.970697081470085,5.12505130163021,2.644413633769235,77.8157238989451,90.83249129045304,-58.86615638836502,398.91513038823337
0.83,6.127249962405375,-15.454323942319059,0.10616381474340922,-27.821326228486573,2.0791842191066534,3.690746536138897,4.1013809407690065,8.621950063985443,0.4536860090595017,0.022610559302906973,-0.3265590579561277,0.7816870535433262
0.84,6.1212771617510695,-15.344203456508279,0.3374409568825143,-27.774386026980224,3.328095962754049,3.899920551825759,3.386479912459142,11.06587122415221,169.94721842225675,-1.7078527201865943,-119.23668482674609,224.15985845062463
0.85,6.173533939741416,-15.320452227634506,0.27064687346771876,-27.70903536595565,3.668123116733158,3.8297613031852755,3.1013581999745385,11.448816512496984,176.07048080948857,-8.024953686377076,-123.53065436153562,209.5694063209421
0.86,6.180299512824744,-15.308021837659773,0.2199042752028293,-27.65078299888047,4.063388552241507,3.766244775887147,2.8226162257373706,11.859918676027068,182.22835706409734,-14.332141638457466,-127.8389721251519,194.9439897904679
0.87,6.154904963778522,-15.22731609962667,0.23615091574480265,-27.547064449905978,4.862964535746014,3.686306007264155,2.3014832532336853,12.736941253403462,194.32209410992377,-27.249467708130794,-136.4722836813862,165.66355197297625
0.88,6.675056052994045,-15.192389384819187,0.21824227919855474,-26.943561683811097,15.353773023443118,-0.8630173109777695,-5.031577761672479,13.060467857416102,240.97392203488351,-90.61265773727763,-169.48539430502288,-80.75695492586645
0.89,6.745663195680854,-15.147295162381146,0.24091551487361987,-26.89775196533972,15.900253034070555,-1.1496548183924187,-5.4547350541945985,12.781667938989989,238.5623164461622,-90.10818749557265,-167.3515766369041,-89.23674134749652
0.9,6.716028310311862,-15.190718235872943,0.30561961745644617,-26.83157044775577,16.52448991519452,-1.4031083560512447,-5.820843468582622,12.507240230484197,236.26266410428022,-89.57556901623431,-165.2820523995853,-97.5922165375526
0.91,6.990655928931939,-15.245855864553777,0.27515505568398246,-26.70102504343294,19.73003618322366,-3.074786176731636,-8.301230776745662,10.358235032892475,211.91358713937825,-79.7357940339552,-143.08774392247108,-137.46505467126406
0.92,7.212348853513944,-15.268754467108842,0.24972597956500084,-26.594145146519622,21.819407329600363,-4.141080191233319,-9.88520539235805,8.829880360047193,192.156174765279,-70.91514587515896,-125.18484842628729,-160.41486192401453
0.93,7.3278876377068904,-15.307784250418436,0.178692268396143,-26.548958257756272,23.68326698092117,-5.087616045411852,-11.039800565908818,7.085606167111663,162.4180417355683,-55.81066327404813,-97.40829589546318,-171.84409647330415
0.94,7.5773936591048,-15.367550211611956,-0.008139606849319395,-26.481989072036946,25.260968685634264,-5.781010123307823,-12.172987875495515,5.223864898241181,126.07679593690543,-37.34624956392568,-63.08310439623688,-175.15910821532876
0.95,7.7872333565402165,-15.438559762181088,0.01160890696451804,-26.49643139971444,26.457934525139862,-6.355366902633423,-12.79286534734804,3.5808542881568464,83.94327294572304,-16.242728072960986,-22.2012671292082,-170.3651227079717
0.96,7.892675607322215,-15.497188739464113,-0.09935084711776518,-26.45064916762372,26.88233533335461,-6.552857520979827,-12.973362160193124,2.7935558284622126,60.231740631457775,-4.677203344983791,1.4100985952604308,-163.88212418724862
0.97,8.067760824767062,-15.551563498055149,-0.12544378381997473,-26.394730023227616,27.217279088379122,-6.698563875419547,-13.066249432961728,1.961918357487482,36.53017874206185,6.861932243754522,24.759099058406562,-157.38751055552865
0.98,9.4880189644923,-15.820637581105176,-0.6379259992227934,-26.525442003249985,21.28262994991149,-3.270150056411885,-2.499792788946106,-1.1558193361177944,-301.95492002327546,128.23736039854592,401.0560714313635,69.6024399409509
0.99,9.770348996485382,-15.998373436932642,-0.6745547559136155,-26.51079595935741,18.294882391428438,-2.0592492168177734,1.7121896521493092,-0.005673561935908676,-355.61764714023167,136.1833178676964,470.7324668747721,125.85823006952674
1.0,9.855189966155223,-15.905527221093426,-0.6411000012747509,-26.50704212243855,16.530968122353798,-1.3949086738147827,4.248997427571699,0.8780924114609143,-379.96292168129474,137.07205141540436,504.8833706501621,155.37242959167983
1.01,9.901036630495259,-15.889138994575617,-0.6888430484252073,-26.541044545041075,14.82731260567148,-0.7303680181623081,6.7843007228200305,1.6416289196039329,-404.3396752802488,137.99064371106542,539.0816238900733,184.87576972327736
1.02,10.074633671421452,-15.957130933088115,-0.6048027032327071,-26.411666072694906,10.499528291929103,0.6444081525648304,12.979150966202928,4.298464348679272,-443.07708742893465,129.2031997285179,603.1771704241107,245.57502570862508
1.03,10.250717950042825,-16.012626028499792,-0.2802483784549728,-26.19521220019575,1.41248964267053,3.2579541804882344,26.40230824390917,10.35828554145108,-507.7051453271729,99.9714355088557,724.3740194970147,366.44459033729146
1.04,10.275002054464462,-16.001025634804638,-0.04979122702747135,-26.087428519676603,-3.8334980200435465,4.358510646903009,34.33565501176672,14.46969916462405,-523.0796427429755,71.48050577826608,775.0651400618685,424.5120007823091
1.05,10.202205929563618,-16.018331810271324,0.6696876779860806,-25.776613449618154,-11.730566296945119,5.236718567529991,47.12985604714099,21.82231603843604,-523.0580230412597,12.529521492932187,835.7710496131022,504.31631255998815
1.06,10.146511391222488,-16.007537047670176,0.7354865753081995,-25.69253071206044,-13.054060386061186,5.296109655794035,49.29266315091973,23.060149280460912,-520.9814229850718,1.4000120786846664,844.4911633900043,516.8477505253857
1.07,10.096553372689835,-15.968283057488023,0.8146206400241881,-25.63466992410849,-14.389603545091669,5.370133584231791,51.473784599080815,24.350392084065852,-518.8891593353131,-9.75122872667271,853.2430312898123,529.3737191818108
1.08,9.992710115233693,-15.989741878691722,1.4282646551008324,-25.396878812855274,-19.597227122853944,5.188363270936932,60.66962926660525,29.957623129233927,-497.29669869625235,-62.0410312680518,878.525784044766,573.8955643559583
1.09,9.968269569605146,-15.923556092304217,1.6246579762993965,-25.25114939391256,-21.553953326584022,5.046360739968564,64.27956870076449,32.30496895412998,-484.07583445237367,-84.23996662026123,884.2316943252029,588.0118912294156
1.1,9.89800259592504,-15.938054744723791,1.727569946850906,-25.142887398205822,-22.138852674290963,5.019497055189044,65.49863045300559,33.0356358055628,-479.71114972007524,-91.65344080528064,886.0710849606454,592.7338091430937
1.11,9.836611487596876,-15.967091941067737,2.0387943445463126,-25.10282952115393,-24.718262492635375,4.604821103324057,70.30964913410354,36.10983833315946,-462.0692839648505,-121.18886088164484,893.7013715397059,611.5330514632045
1.12,9.009164711269376,-15.951273759740229,4.645767020533201,-23.58608614757712,-36.93541409422053,-1.232319395692253,98.96100013312775,56.08702294133908,-273.9744280063673,-330.25429421177495,873.3194896384769,675.3894356952691
1.13,7.002775376587374,-16.58443477977623,10.939348285313368,-19.926563809109158,-39.6126952711996,-26.425906207344084,139.69830021869927,88.89587499281242,276.2347495555221,-697.9818658744118,620.8930594319228,583.799064605135
1.14,6.761418139062572,-16.655954894113076,11.668438404178284,-19.415320854295683,-37.98302984816137,-30.094725967035192,142.72715439908737,91.63639387305297,343.0049228977583,-728.2263551566767,581.6948658060679,559.3541513579282
1.15,5.999199312984203,-17.61354519177097,15.160846439211085,-17.190824374806237,-26.684143625537313,-48.09256137353974,153.32053722619068,102.74591519602212,649.0420866701147,-837.6668241673666,387.2733266840945,424.15955073820265
1.16,5.753272285879783,-17.908906645584572,16.501635203166217,-16.41475730232811,-21.60363831091106,-54.507398957214434,156.00422240155032,105.90694841483271,751.7016954409067,-865.2663079971327,317.60922347735055,371.9522219926876
1.17,5.713882823444723,-18.15207724353612,17.266050392576236,-15.853075233287017,-17.808729605059025,-58.9557570875829,157.42303550187188,107.767695516487,819.71028147329,-879.5411773135369,269.66247736817706,334.4127100859437
1.18,5.480200540017694,-18.756162730026407,18.926801218287157,-14.77495305012088,-8.66772422516089,-68.0760779724067,159.08863222191442,110.54801856903914,951.5333881505356,-894.0144454600996,170.72287152266554,252.8189474043067
1.19,5.467131934345838,-19.0759686148368,19.726626875547343,-14.221877246425384,-3.4046412410799824,-72.72416466515126,159.36011381985728,111.51387790395644,1014.1794693711695,-893.5833737890423,120.3632562284509,209.31036395353908
1.2,5.419225200117378,-19.483931238927315,20.60537828513955,-13.64834452231146,1.9442269931196754,-77.35703409833654,159.6933687123809,112.48859857392742,1076.80607493411,-893.0791844964351,70.11223044635605,165.64935000930467
1.21,5.695295789172092,-21.098887754594923,24.05050250229082,-11.30594021126799,26.99245743689499,-95.4530777482317,157.1863859009522,113.62542339225986,1298.2036424826558,-840.7801185690669,-130.6315791524136,-20.00371354850521
1.22,6.473792291663601,-23.1310033389183,27.189060548381235,-9.03103567121465,56.35373097811222,-111.6912020884485,150.42863849846367,110.75734730277982,1465.7953417497915,-716.6083140823982,-321.8535945723647,-210.99638089702933
1.23,7.060179785266714,-24.424836142386003,28.65078159914545,-7.884985311216285,72.21831065431728,-118.748633366542,145.43710470133396,107.87650905729723,1524.7483951239124,-627.2202827896009,-410.9474113134202,-304.5100794762832
1.24,11.348412196166331,-29.570281882670095,33.90892886770257,-3.9166212807590304,139.04181171302156,-134.68147866739847,117.89479746576008,87.12295648714289,1564.8068874908954,-101.2533922548835,-704.2595422710649,-630.3593864948027
1.25,12.950898984287175,-30.936180494423397,34.97619350772406,-3.1290746095100257,155.50362476142288,-134.68964115880254,109.50992835772493,79.92400881050497,1523.3598785590532,65.64128805747998,-759.0988749661834,-692.8674721211466
1.26,14.185110294294532,-32.03156675534397,35.652461089658594,-2.5545483579130974,167.26744539567144,-133.46093798390478,102.89679749586959,74.25039257854458,1476.987441658704,198.66258001356027,-794.4855416568316,-732.2068889822324
1.27,14.398830861853922,-32.17460213592148,35.74082359461179,-2.4445824546972,169.24155728084384,-133.22672515193446,101.82322931352479,73.28454315737164,1469.2421813858452,220.81707564577704,-800.3328030765956,-738.776280908675
1.28,14.604141545941975,-32.3454489096359,35.84301074577911,-2.3348667280269098,171.2350066264572,-132.98939091537653,100.69583401908757,72.33080975293426,1461.5307053304493,243.01968418201125,-806.1895225249104,-745.3565006513396
1.29,15.566539541588664,-33.14857567427813,36.31316509860127,-1.9568831086619953,178.6633911317543,-131.0619078012766,96.19112471667488,68.15016725329444,1420.852700604724,335.66484862759285,-825.9531912736488,-766.0052065166803
1.3,18.69410113342446,-35.057955464169105,37.52003233686215,-1.1576783100816166,200.01720959003566,-123.53800009804698,82.31739719518839,55.65769519987985,1280.7255519695357,619.1951371817872,-877.7245483831897,-816.8228990492249
1.31,25.37228554811221,-38.524420375117174,39.10040030066693,0.13424293197479445,233.33681018731926,-93.94431492205021,54.05910338944225,29.131532286073945,889.6451589518645,1195.7467765695462,-933.5791942297019,-833.0036520954246
1.32,28.054291535973217,-39.37391203271008,39.35467890421539,0.2056000375239699,241.2956561528014,-80.1869678362627,44.76707530417217,20.734848594239203,735.8674899939264,1379.3324331879323,-940.6100947143279,-813.6471794425742
1.33,33.216841345246515,-40.567405166281134,39.856206892985114,0.39502861038118847,251.47234054328428,-46.89325540926669,26.62083143473378,4.580690293589518,408.459798956019,1715.5377488389431,-941.7267167122012,-739.6353386055221
1.34,35.896150748483954,-40.91081710886389,39.901954135019636,0.4029271169582727,253.79341775004823,-27.8940565434383,17.98690283281828,-2.7196725416454615,240.41677886168614,1862.5729754526835,-937.2883919524124,-686.4054893214483
1.35,37.259202574492974,-40.938103468052695,39.979407049251435,0.2764174398892422,253.59444776335383,-17.34932261867405,13.625028282868465,-5.767583384965081,157.8514608080671,1922.211004224041,-933.1008323714879,-652.9498142848314
1.36,38.60972794996931,-40.92597838965024,39.887101166057384,0.2636642796367772,253.39346040030094,-6.83836871479948,9.350860623664568,-9.039040298096369,75.23043355486773,1981.9234446711243,-929.0413811246958,-619.4183347506568
1.37,41.19260293868578,-40.96815253231065,39.9531954674858,0.021364532357965954,252.86376336139628,14.178095885721293,0.838376517598491,-15.122038158856435,-89.94264167756569,2101.4280606120637,-920.8611017483161,-552.5720126505522
1.38,42.52697941901842,-40.79515653924534,39.86880185169187,-0.09837573086075821,251.27180869146622,25.54682039381282,-3.243825401283599,-17.705722511853597,-168.44173086937178,2145.125997189924,-915.5059985436276,-513.5123986295987
1.39,43.79517308274495,-40.610768246195214,39.859832562199855,-0.2795007703993187,249.73239901587957,36.89214527743693,-7.3642254194063375,-20.18845939775439,-246.89977017347888,2188.8611693151893,-910.2013857341321,-474.36936460644904
1.4,51.117857201488405,-38.06986814862155,39.13703454603161,-1.152419538071422,230.98220602939637,107.77323584310408,-31.087210729504644,-29.637014708479803,-654.7154972613347,2304.791229057954,-873.0787851231713,-212.9488445691931
1.41,53.43805874524473,-36.712234861908016,38.80876119406912,-1.524314269572464,222.06176217848665,131.4906040093596,-38.76799399628097,-30.730066459830887,-762.9297538040137,2291.396790813635,-859.3555785911782,-122.1918036811503
1.42,59.34777349978038,-31.389229395092208,37.37788125243401,-2.4932448929557043,190.7930162645562,198.98680084810817,-61.72350157360474,-28.582578110833083,-984.5665902851049,2093.5385995055913,-813.5224976267706,138.79041365038154
1.43,62.758745240560515,-26.525184973736863,36.19706734827392,-3.0701174861805396,168.02885719621,238.21083879984087,-76.73860552336339,-22.829391488638784,-1041.3188901372334,1838.7469117308833,-775.6941269241499,287.623855700302
1.44,64.82370343642339,-22.47690955448997,34.96156626669849,-3.3573100433092296,151.26254963058366,262.3835833477696,-87.78920742397548,-16.50375643003902,-1030.6654788113274,1585.1362744084454,-739.6438878163544,375.26071144209374
1.45,65.5198992261271,-21.182068548992945,34.53666192482171,-3.475021676862492,145.71376352023913,270.4534766818384,-91.43542751549673,-14.316772750193614,-1027.0706830242839,1500.5758864042393,-727.5912205273672,404.51986443485356
1.46,68.85183122445841,-13.076713248666803,32.00455707993829,-3.47083214380283,118.56812505832112,301.10712828772404,-110.8857796216287,0.10896000047008506,-446.54090994636994,439.6867900740932,-313.70173722205686,252.7809714708087
1.47,68.7856333490026,-12.911905500321812,31.964691364941157,-3.4790823519478518,118.2247529315896,301.334222435633,-111.12418098367365,0.210594708851488,-502.22179743090265,494.5156166918641,-352.86819709451197,284.31716156125833
1.48,68.78374004235009,-12.892111770596935,31.937683311250584,-3.461232523870484,118.09341322863209,301.4750075719226,-111.22648478608906,0.32033277761632145,-530.0890495004356,521.9279839850244,-372.4739664976753,300.07499881816756
1.49,68.78465252431549,-12.85364519764966,31.92737636976826,-3.5109891329510066,117.93731604329425,301.6370242055219,-111.3250359035933,0.46219327221616635,-557.9283580326176,549.3519138894015,-392.074151287976,315.85356009761153
1.5,68.86365812793927,-12.63632425505474,31.84512975916139,-3.555538072053434,117.30214264179189,302.1215133410349,-111.68830151372937,0.7421209260769936,-669.4641704899408,659.1845424103217,-470.39993712145974,379.027756251523
1.51,68.87540246849994,-12.353662143618749,31.827429606920226,-3.543853188165709,116.736532813429,302.68115396616207,-112.20076574724138,1.0742435294853354,-780.9811359720446,768.9536595949008,-548.7300450439858,442.1672554428142
1.52,68.96426041897037,-12.168879815329738,31.790376201558214,-3.4350997108469334,116.27343276748816,303.2692663718256,-112.65866573258914,1.4475334108091928,-892.485750590424,878.7263835025078,-627.070433720081,505.2682007021459
1.53,70.91110161274543,-5.91786239004705,29.403857114915272,-3.2404509531592383,100.80401899943476,313.35359589909814,-125.26912670431706,12.867668491792205,-747.2938388346636,420.98056539795436,-535.9421627019877,517.8668745907462
1.54,75.56315492508739,12.45127596200579,20.674200328966883,-1.2175199667037924,78.76184448187188,287.8709919477551,-149.5351080876599,39.935930154122694,-235.76174497925626,-892.2994572111725,-137.2018286165421,321.0124182947126
1.55,76.42440329628235,15.286309054435074,19.099261806771583,-0.7972603610943712,78.36010093215114,276.4565807107157,-150.69954228896339,42.588016454011914,-161.66280749599045,-1073.785352694336,-55.875852102954966,262.92873615969694
1.56,77.21560371588723,17.851085542463423,17.612353255855236,-0.29941202974916,78.55223973025761,263.35529124008383,-151.02353944884172,44.434598393377904,-95.32087859636334,-1238.679164760242,28.14515503170574,200.67885336557248
1.57,79.79968165534183,24.727913659847943,12.852329672811234,1.1353352575623927,81.79527613868144,216.58319748624552,-145.93790761840305,45.74695077158785,45.36598543713834,-1619.557287507282,284.4109554867362,3.4286372403823475
1.58,80.29368483145497,25.72439354720931,12.064064822189241,1.353046779023663,82.55541248942018,207.87538296856607,-144.0972400171631,45.28155171355166,58.02007454951222,-1662.631020416449,325.86599099542894,-28.947181622980526
1.59,80.69094121232881,26.661157536408503,11.290328052109155,1.6765378407206504,83.296730250348,199.04883172269405,-142.22612640790223,44.786135890054396,70.66432535986249,-1705.7240821440307,367.4500252241313,-61.43714112264885
1.6,81.64588325012942,28.453941071136644,9.784229086715996,2.0382853896211524,84.91892830927242,180.93807988160822,-137.5435239516056,43.25749699629339,84.80183019037304,-1770.9195891838438,447.43250840313465,-123.78787836730092
1.61,82.65782861270242,30.025777573536928,8.44565957958716,2.5231800096184047,86.16777416230666,162.55359205413126,-131.90538278419857,40.875015179266015,87.9834361934127,-1814.9769143632461,523.0356289439718,-182.2964704282483
1.62,83.4312358826473,31.3610277857131,7.321978065292082,2.802447785511202,87.1786371439438,147.585937004306,-126.79369528257287,38.617426969028855,82.06837996821974,-1834.2767863262986,580.0104974657032,-226.13388926028156
1.63,83.65107480597322,31.614742684159406,7.101201742916451,2.925716903099099,87.33232431207443,144.10182470262538,-125.6805132669282,38.130000906800475,80.7361118023242,-1838.7244664070524,593.1513596980874,-236.156123197522
1.64,86.50427818157569,34.56216923514241,3.6934685833819576,3.8236852950367752,88.35623197040113,89.50033848324902,-102.22869272420512,26.926447297478358,4.0237294371783,-1795.9192876531858,759.9484135335025,-361.08103593685155
1.65,87.46316991132034,35.35189334735819,2.725636546612956,3.9794143359645284,87.53696320897915,72.19690871329051,-93.56722204379716,22.5980389780323,-36.068036380789806,-1747.772353825476,798.2143544299663,-388.56748119256855
1.66,89.33969659306412,36.105656682816026,1.2461509704732494,4.284036393066345,84.25234243469552,39.9118928943282,-75.06050247437678,13.59138784377207,-130.18555591839524,-1609.9234343232617,845.1467295889751,-420.5598211794288
1.67,90.14027993991864,36.366462817462214,0.6237139407357752,4.319184283800656,81.66226902992906,25.078782258999823,-65.87916731828092,9.111090118152825,-181.43813293224633,-1523.7957738577911,853.2172074858017,-425.1241325363927
1.68,90.92170896938592,36.52864452521677,0.18994598438410254,4.332204406881994,78.37160201911682,11.190105839800683,-56.67504148137328,4.590259703122934,-233.34159613241673,-1428.7039017961135,851.0580408521993,-422.3463040032217
1.69,91.63929679083601,36.45169442830269,-0.221147546393687,4.246325465854437,74.41341914807637,-0.9648338419354282,-47.76612714344663,0.45203820725159455,-283.78325050836753,-1324.1300134384935,833.9920324898143,-409.4706315964478
1.7,92.38504332161425,36.36038892845708,-0.5962843585205411,4.1791039335882285,70.47983945210903,-13.177832828649017,-38.87171704082262,-3.652323561278145,-334.2225018842135,-1219.5696855739093,816.9008508947649,-396.60826670070196
1.71,92.74084360213287,36.233918627966936,-0.6636731024386479,4.212022360390111,68.08785509314338,-18.53856391122637,-34.842090552687964,-5.520345723127155,-357.4707128383608,-1164.2480680497597,801.3815911656611,-385.7447011586272
1.72,93.53916629433377,35.72878900289237,-0.987951396415882,4.056190379879422,60.49584932783949,-33.27420700546645,-22.924205710714716,-10.728882395996822,-423.0857254881046,-996.9723470007675,746.4898778634582,-348.1948798289701
1.73,94.03958564347398,35.32744907111429,-1.0225598075439177,3.8400551589806233,55.05909469861635,-41.65690249321024,-15.787460132732333,-13.890463391907595,-460.4614762544077,-885.0227388887721,699.5418837581034,-317.2694485187574
1.74,95.48098562976028,32.924653749618585,-0.8295187170874148,2.9107560989342254,30.432713476269956,-65.64365833626032,6.6290597844915755,-21.933384232210685,-549.4695585520798,-443.669143089292,441.66815421492464,-161.1078140312335
1.75,95.48569648959212,32.768999111057475,-0.8253496277159668,2.7757297368617633,29.014577124907305,-66.46920019498565,7.441812060219297,-22.05501653332617,-550.8919872180313,-420.76435074957567,424.8277006905015,-151.69610185518263
1.76,95.53236371084267,32.593743229714754,-0.77240518206093,2.7613908188106193,27.644790267788494,-67.35130758734391,8.365833273812392,-22.38361634462733,-552.1530237736624,-397.88265285460255,407.9110090470433,-142.135326320111
1.77,95.56901792069475,32.4637021740919,-0.7027902726104052,2.7356792080936616,26.16586811969459,-68.2419546179859,9.188261959654593,-22.609373881165464,-553.5352155208798,-374.9561814625941,390.9405121617163,-132.66181436612507
1.78,95.65747571666729,32.12411412859348,-0.6862497974877015,2.6406635811967254,23.328136630743387,-69.59169376220015,10.559057400575181,-22.89658209683068,-552.8177932440208,-332.54415373136834,357.02330008719287,-114.2540026594747
1.79,95.7820643310964,28.27231740834058,0.13491814451566708,1.5332095237888892,-3.2691783290008947,-75.70126791535553,15.482097348220655,-21.49174342795057,-462.66496390280474,20.492371624065125,15.910947044738881,48.28052222858886
1.8,95.63832800396855,27.910358786555026,0.08174676668144916,1.406113662811125,-5.032547635537747,-75.54270931263984,15.0148329817318,-20.981041827258423,-447.6444854993484,40.089065312177816,-8.180834699446187,57.0587906212171
1.81,95.65510618250254,27.512368131315572,0.19367688231750643,1.2128665911050718,-7.000469492455487,-75.38556359930132,14.604976082475686,-20.44641367175419,-432.7531027269406,59.65934026446035,-32.37488607908891,65.90485155411496
1.82,95.62779153387636,26.715254119012833,0.28228871278892964,1.1414630895931122,-10.234249210629212,-74.72896003921191,13.195795698835644,-19.608577647355684,-400.3756578029122,91.65342308964752,-74.58435855699072,79.3990131403536
1.83,95.37358307404344,25.340583105668056,0.41528672900356867,0.7892311402160604,-15.76666165205333,-72.86377906233297,9.87999992533228,-17.495836891668276,-331.8690729766516,135.79265019194017,-139.81828962163632,93.83011620309803
1.84,95.03988398872323,23.85028127402842,0.3838942374835314,0.534256483255635,-19.971868884703106,-70.70969720572015,6.142937044279788,-15.504749646310986,-262.86491722886507,157.1362367238291,-178.35790311204872,92.60111410451881
1.85,94.8557984789121,23.23325584764088,0.40665272294784344,0.4464993278178439,-21.77270622342428,-69.47991599108097,4.084733051454534,-14.808925283218498,-229.5609866105473,160.6892926146784,-187.97698565999085,87.04591089961248
1.86,94.62064341379396,22.511481647292854,0.42224651135794755,0.2870056250970884,-23.309819719137334,-68.24359778708701,2.264427192441239,-14.226720515589511,-197.74823153913044,160.3681654372914,-191.52020430880023,78.74275595670093
1.87,94.49830063101169,21.903692371236826,0.4023332583962341,0.21467635839811203,-24.45813182983592,-67.0651907973395,0.5184476187650219,-13.854510664095724,-169.1536327195876,155.06622919121745,-186.95855325886964,67.11407750766072
1.88,94.34781450256838,21.49808580230712,0.3996426670189356,0.09770859961289027,-25.04095868091164,-66.53770260964627,-0.31284184741010684,-13.639531429032523,-154.76141206565555,152.45847818773422,-184.7788645252161,61.158572523432
1.89,94.25781960090607,21.124826911316266,0.3813631248670359,0.08881787585223487,-25.5830797499424,-65.96235241936577,-1.1886835641791516,-13.419007329433047,-140.32052734814764,149.79934548956004,-182.50645252705786,55.31064039734436
1.9,94.18446936632056,21.003743486696138,0.3964415771545606,0.028844285090798005,-25.838226166035895,-65.66343739838716,-1.5796521893471644,-13.406767901785248,-134.0172635620984,147.54897950322143,-179.61260734055577,51.88519058784109
1.91,94.10206289958796,20.84783693412347,0.3927392602084912,-0.006399446023883523,-26.062378610285595,-65.37643621518852,-1.9654318293660151,-13.334159067903684,-127.69739503067493,145.2842926202747,-176.7274117127531,48.419246028081254
1.92,93.8470794868846,19.988975850343405,0.28150268895697217,-0.2105698438918494,-27.194472826507216,-63.86278609222503,-3.5574575117114304,-13.295604399252216,-97.79428648426591,132.64605893329733,-159.63723460934426,30.67393869775752
1.93,93.81501620010896,19.799402440656422,0.38604971337665245,-0.27967300003317014,-27.408789868025895,-63.5596328355915,-3.7943802750930957,-13.319430707459592,-92.03097324285606,129.93970078004222,-155.9566645276163,27.053755178076067
1.94,92.73451043183184,17.21329113990608,0.04705166014925953,-0.7457983748072476,-29.909676557166566,-60.20495147293352,-6.31271691983654,-14.918174710978402,-0.22649103715729563,0.7063552052538723,-0.6477171059012361,-0.22415841790007962
1.95,91.55585869934764,14.878010300977234,-0.07138698196093954,-1.4491599415733998,-31.62320327744008,-57.49944698225197,-5.390817546449192,-17.789847286371263,17.019146574267825,23.59182238999768,13.448263274936346,-60.94549483619142
1.96,90.97893758877228,13.618921375099221,-0.18685550680518348,-1.930555546568623,-32.09042096727149,-56.78498473261504,-4.202483041215861,-19.207307416354883,31.700884063973234,1.3305141247252306,46.47119178497498,-63.726498388408814
1.97,90.50987290903,13.072174294986015,-0.15512785219304887,-2.1428753447732256,-32.28184530281588,-56.48561237369509,-3.4508259099515057,-19.78182057330742,38.43150623837831,-8.16793557259744,59.17206824989376,-61.64888430614338
1.98,90.06983923146022,12.497921062286602,-0.1904713210133655,-2.258587417852938,-32.21743537285492,-56.29541718262284,-2.608463097292321,-20.42644834666584,45.08676178167623,-16.330297401024605,69.22708307023332,-57.15601708502477
1.99,89.86236856550828,12.027689067240026,-0.1919740230318794,-2.7243037641669625,-31.927310834445137,-56.19112884008307,-1.8186360749349562,-20.785672245657082,51.5636522551289,-23.21877341924348,76.54759163308985,-50.618024422488816
2.0,89.77332516845526,11.826525680683327,-0.16313847882470742,-2.720375010349478,-31.875942669110653,-56.174579261212735,-1.6128491372946365,-20.8752942437538,53.17792906783294,-24.570816466483908,77.63480351842261,-48.50206374510731
2.01,89.69366203037227,11.724635400152716,-0.16171285779569622,-2.70120421908331,-31.842048958647204,-56.18062245525635,-1.4354796177053113,-20.982008235685385,54.85762801515191,-25.907498725395065,78.72785712835814,-46.42068219150683
2.02,89.62338981086617,11.621280996954672,-0.10985668236778472,-2.839522119010693,-31.6977364725082,-56.22820881572749,-1.2470301990590282,-20.972803089142367,48.49039722079857,-23.049710528494295,69.28250174190279,-40.117414344895046
2.03,89.55714735892363,11.430124786817583,-0.17618982276566408,-2.854239473138047,-31.667420989935255,-56.12616992626086,-1.1253939587024637,-21.02524711701395,42.13869400072899,-20.14137876572771,59.85622642628756,-33.83498873207941
2.04,89.07458428210704,10.795361840045063,-0.1576839344919042,-3.0242132271877407,-31.206089005350822,-56.18730314870428,-0.2378109214919522,-21.24649117311692,0.4997628744047303,-0.36821960573738166,0.7704816720946466,-0.24185495339313
2.05,88.85203434824273,10.335718083549894,-0.12166998398302134,-3.2260896277378484,-30.63958526486544,-56.24565371130092,0.4238267545961664,-21.388580988694862,71.62140677950138,-34.8823283711498,82.17391875384233,-20.445073171633386
2.06,88.4726692042407,9.898449262219682,-0.127370195174368,-3.4765635293529016,-30.04491234483155,-56.369514449895846,0.9621454570654608,-21.227709938331667,78.4250714365411,-35.36487904119204,79.33968853586349,-7.835269715897028
2.07,88.06168283193092,9.276381355609322,-0.15368788661394236,-3.7485064459982746,-29.084027351366828,-56.6767330137418,1.5059458155203922,-21.014455391810035,85.10546209534039,-34.06354056490076,74.31973034317531,5.733031319061891
2.08,87.43146425887068,7.889349520100939,-0.05139252545594623,-4.214922748971709,-25.964551820366527,-57.20832761794034,2.109149675274974,-19.355739713945386,98.4139339560421,-17.084188432575353,52.47043811241843,40.405821031596574
2.09,86.17735979389636,4.93193012362189,0.026958909689655752,-5.078496033548147,-18.263885601836627,-57.85708533128679,2.354270659409176,-14.364072261332542,117.08925513758562,41.58355459240519,0.9756150901363162,108.35186740250539
2.1,86.10525928234075,4.501201254907954,0.05947843291345407,-5.1267263798935465,-17.2171788060878,-57.6226777522507,2.0924002870416274,-13.41108931602925,58.47643602782971,29.396524268265424,-3.8862853297404336,58.868813426823344
2.11,86.08329677037794,4.410963158484973,0.010812502460554093,-5.187261002857416,-17.009953401607625,-57.610204499667006,2.068708042999232,-13.239123794585748,87.33364872310452,43.94710220623557,-5.7586367410672405,87.96216355224962
2.12,86.09479409217253,4.382698759423341,-0.027242746323869502,-5.234824462296642,-16.76466127292307,-57.581930063339726,2.023268465573601,-13.063345104213628,116.18806103234954,58.49190342977638,-7.613373640837316,117.04711294023568
2.13,85.72297953084278,2.630383196303879,0.007375892112501215,-5.434797586185668,-12.691247768757483,-55.69512136766989,1.0860628307168654,-9.212999626347552,105.16458037106895,115.03581634090601,-27.672715179345015,133.6409594718233
2.14,85.70853832458984,2.3289307143467455,0.005460875982737803,-5.557736109719659,-12.082003950745928,-55.18726965031253,0.9362467838505317,-8.523431440893564,102.01945809163931,125.02556604444818,-29.845422643560124,135.0141077198381
2.15,85.69521195984058,2.2827949469686386,0.024073844220902127,-5.571199284141857,-11.858854461102993,-54.88082100541734,0.8079596509250578,-8.270542624861198,100.48587260359767,130.0869638901805,-30.909104261010377,135.65854136271744
2.16,85.67542406346774,2.05136895920181,0.033852158717957916,-5.499230971047717,-11.521735003642267,-54.68796887916417,0.6997827952066451,-7.9383821845530855,98.83349978377737,135.12430964362713,-31.97430241929369,136.25395375635372
2.17,85.6470733258601,1.5973178113155535,0.07671096560141498,-5.600286583628876,-10.466183162731612,-53.323655745572296,0.4615725079597304,-6.678256414966031,91.21296981524341,155.07049403826554,-34.90392247278886,137.0903476119736
2.18,85.3700821807802,0.006200428734150495,0.08261885782324174,-5.698403986856339,-8.243442768464686,-48.082125914549074,-0.3664440315017755,-2.973076215480401,62.36580962972823,211.8547928081902,-36.66122577530639,131.6421255449462
2.19,85.32031740824081,-0.5422755914387524,0.07195394895182812,-5.6860695540476005,-7.774135274292092,-45.86199038060401,-0.6426038284625307,-1.7969912920840394,51.385145659306716,228.54850227487904,-34.950315179618045,127.25665679804193
2.2,85.20998594229387,-1.1282950944139445,0.019128452752771953,-5.711076662481215,-7.422986528668819,-43.35224973544563,-0.7558203160373103,-0.7810003821989591,40.08911455148474,243.62003306458678,-32.5713354063334,121.89691724716842
2.21,85.17678703620088,-1.9884302643802072,0.000807914930610029,-5.738145322711051,-7.273985419834154,-37.904171440813585,-0.9893503155475005,1.3305934440411102,17.621662664412977,267.3764912060198,-25.468194663351756,108.67257010003306
2.22,85.12773565768725,-2.17720171293905,0.0317307903725056,-5.755207429389119,-7.398709817253233,-36.309219736645794,-1.0448344742373623,1.7741128764140623,12.300282630688079,271.4677503740889,-23.367380436971718,104.92917503526238
2.23,84.98867886869655,-2.2608639580123984,0.05308843982501063,-5.686640915315861,-7.515492047280936,-34.78385507993175,-1.0650138445414274,2.177751676509996,6.988235145732887,275.54463591650136,-21.30151647810958,101.15708318287965
2.24,84.98496342379536,-2.5290646477690646,-0.024094198936514457,-5.758816009347074,-7.524999738754673,-33.30027906313367,-1.0280125854390894,2.5858688449474423,1.881700356070095,278.33040647190904,-19.016671185050576,97.08663063296389
2.25,84.73679132958685,-3.086250845799733,-0.00856064425887451,-5.689542687262618,-8.225876869941178,-28.542945460032804,-0.9959709147723516,3.859222439622106,-12.483080857960607,283.6191677385007,-12.248080765829034,84.79368995680093
2.26,84.59478339500309,-3.418595621487422,-0.04306836408152118,-5.615715139622944,-9.23881789201305,-22.36032679572079,-0.9377207696457922,5.028172644790097,-25.414361273060152,274.15561674186165,-3.7128569774756284,67.74432400185734
2.27,83.94447755141672,-4.089014187912657,-0.03253510618094209,-5.257614231268006,-12.072890319978463,-8.00008178533753,-0.22148701651948324,7.4023287319674855,-43.736738166633025,221.7135858582275,13.061865056545727,27.03374152607378
2.28,83.94215945769503,-4.069619917359109,0.022013881680749567,-5.316689364014588,-12.245835359781578,-6.799446090316455,-0.2842922400073869,7.616541878885314,-0.13139046287555847,0.9769874849759095,0.06461590539059105,0.0468748386719858
2.29,83.8596415773124,-4.072115190791159,-0.051107234656001206,-5.306845434602803,-12.297643717217964,-6.311014725056607,-0.3455185404099755,7.616146964747521,-21.545346744820403,102.14120888522535,7.5076025763458984,9.943349930413682
2.3,83.74815452159439,-4.074624196082471,-0.04141876690808073,-5.186212626135096,-12.946968159079066,-3.812081386811174,-0.05185113206891245,7.9612991808794025,-40.65614288595746,182.95506457115772,15.937134512968502,13.173768980466116
2.31,83.65927455183318,-3.9614929216304042,-0.01782329429609765,-5.039293570803809,-13.33268781389159,-2.1695278486109744,0.07550265147654793,8.235241000021645,-37.48724948087606,161.51328161602342,16.57968654298649,7.002536041033582
2.32,83.54087486874225,-3.940840171749298,-0.023286562365818476,-5.015588587339407,-13.438058254304625,-1.4839924182585418,0.07107472666485698,8.229064409579514,-35.39870620197737,150.33320017696187,16.659629498697118,4.204954858451754
2.33,83.424910788577,-3.9226621583488255,-0.06687682472521891,-4.994086444099594,-13.535929361050577,-0.7974403294169436,0.08277668140653598,8.221410120723732,-33.3143535758331,139.1312858911425,16.70411861512627,1.369107260361339
2.34,83.09680041669488,-3.7679591292160213,-0.05743977814233798,-4.704453327799817,-13.862458503726858,1.450616678363012,0.33898067492819495,8.206822535539805,-16.284063333726884,70.40358226352708,14.359172856309469,-12.685900462112798
2.35,82.77963807529157,-3.703927325005571,-0.08420161100362587,-4.5094891497033815,-13.691521565893531,1.612375055519974,0.48200469109987043,7.885935226827547,-2.9750519245654,26.774607298127197,11.344413990370947,-19.51353668890835
2.36,82.72369030954954,-3.7690232643168073,0.05256975820451419,-4.4171507658579845,-13.638296111568469,1.3760345862901489,0.539071527760253,7.782069956574332,0.31141270863080667,16.491406376820944,10.394537573919893,-20.930943674740984
2.37,82.62257952986197,-3.710693824798472,0.03750946253468724,-4.375008596063792,-13.54548863784983,1.2335133370156284,0.4018948440993149,7.6872893255827375,3.8719736396492013,6.475948357324587,9.477954654564181,-22.20068093064332
2.38,82.56207192951449,-3.6667598203670595,0.06028220083587371,-4.36410802592281,-13.309625031051826,0.983187497599216,0.4261098894975555,7.571430794463379,7.073387106607624,-2.926086438692925,8.612100014648727,-23.32019928831385
2.39,82.47335232924664,-3.5658390046836477,0.03567214402685091,-4.400979830394403,-13.152480320776414,0.714279958073473,0.4607057528806986,7.358732912555034,10.349348017132725,-12.295306641445235,7.597527573501712,-24.535092880703672
2.4,82.21028172122166,-3.6936237811881467,-0.04985310067759736,-4.1548830607185705,-12.437883166430112,-0.8746900554053303,0.35055471415609535,6.778250125170535,22.70309630099082,-45.07755437696128,3.552981175978959,-27.84984281515421
2.41,82.11269635429576,-3.7630659144344047,0.029978607486208224,-4.045868844896919,-11.954091476339288,-2.027211461199192,0.36283961684369603,6.4870404129743005,28.30629770711928,-58.74905408677538,1.6632852649135692,-28.93861258792942
2.42,82.08302799689436,-3.9602482933304195,0.05725516384066522,-4.048588887483781,-11.398166693277078,-3.0941437032052326,0.34616540543141927,6.121486370805512,33.32372643917685,-70.64421483317,-0.07281935895441195,-29.804764164979172
2.43,81.77123014106543,-4.0808981695969315,-0.03747778115368011,-3.925951302516733,-10.14381928213846,-5.713644574387651,0.2601086761069043,5.125940161799614,42.97084483034434,-91.51841610419736,-3.789807485939303,-30.647474102477638
2.44,81.7600276615818,-4.094334769871812,0.06855301606634798,-3.8781935565718717,-10.093062294733558,-5.86239436863529,0.1466683404939024,5.13119127174916,43.42782423472028,-92.32485126243651,-3.990519517862118,-30.676465154710055
2.45,81.58445969459835,-4.28158783517676,-0.04359159862531688,-3.8652474303310154,-9.247148460545512,-7.474133633736909,0.17839813903008445,4.529572344472538,47.72399970417197,-100.63955171598175,-5.714494615204069,-30.644244617432566
2.46,81.49497266786395,-4.456107699113876,0.028417872760220723,-3.841067051470515,-8.715737482494907,-8.658780216783121,0.006873476374258582,4.200883432301003,49.9698771297186,-104.3412119621494,-6.848732583350278,-30.392493005666626
2.47,81.13633162012232,-5.207925511608082,-0.10132212862295165,-3.6720071092008224,-6.620239112918058,-12.561875314770088,-0.12492911446137689,2.7402779968657565,54.687602087163086,-108.2514496193484,-9.54139622644695,-28.423883150201515
