0.02,-0.05563335691142106,-0.05459151035082621,0.5813982551343644,-0.5030863934964102,-0.34319840729669615,0.5736876058625078,-0.39158588595678906,0.794710120008961,-18.43525866573636,-11.160744280213741,-3.008217608117995,27.449002955348504
0.03,0.25269921140154294,0.19806502032962509,0.6000568553415305,-0.2875130691225829,-3.1538444908423005,-0.3766691034055507,-0.7904046183002341,3.6474383005196733,-24.50472156018119,-21.82272478732294,3.442133901244226,27.54665920028014
0.04,-0.12214189611550369,0.3400917069296712,0.49007883559515725,-0.08157070816798638,-5.600748347589004,-1.2170771121466628,-0.6172985555376262,6.595604563267891,-28.96895323482346,-31.92645946953082,10.282910373337234,26.358999009753127
0.05,-0.1842633745177221,0.15414431736604864,0.28680933034521316,-0.167685143368806,-8.016256763689366,-2.2969515293201526,-0.8647513537019821,9.873616032578212,-32.293800572982214,-41.06715171799099,16.90181160928073,23.054670074677627
0.06,-0.19608205209906593,0.2579203133403991,0.4160091885137106,0.10780663486763672,-10.293634976811914,-3.17059447131824,-0.9454244180791095,12.220791737023973,-32.837332043147015,-49.18567569880802,23.983823191277747,15.782373169052281
0.07,-0.19479060294139278,0.22934585352405462,0.305398139747997,0.3246625735457293,-12.22626016427303,-3.800298173047905,-0.7869246059234525,14.397134411895886,-30.782086401954224,-55.60938517843002,31.20799302848873,4.3601805676225025
0.08,-0.5809319732574267,0.2251536450197793,0.14703272729183783,0.3652891849432745,-14.109227566079099,-5.0590357105819495,-0.5741548088338826,16.7441584107576,-24.071972498638782,-60.13902095942365,38.662276293507766,-12.00935059877032
0.09,-0.49427796505851523,0.13624793122044543,0.35132148063826685,0.7931154560952554,-15.868900517078202,-5.95538401784344,-0.8192225400533865,18.179166977885313,-13.161575186773991,-61.98676021403415,45.946830411166985,-33.60886667942048
0.1,-0.9329140468661621,0.3515181805198282,0.28242212084349183,0.6421767396900773,-16.962154842273133,-7.114176319958716,0.0324402048573474,19.09457752291776,2.420073676300661,-61.3630894764991,53.02411660796491,-61.30100602164598
0.11,-0.8807408258333782,0.12652998395786047,0.12151413448969679,0.8684265539065875,-17.835517996301643,-7.8963542220557885,0.31098119719492423,19.419601207344254,22.628357054373982,-58.396843680275325,60.70013692145565,-95.21284803312183
0.12,-1.109891459289284,0.17743538036184775,0.23777962629766028,1.4576693834915615,-18.098047723362505,-8.41270762416617,0.623188137364622,19.178126481441407,48.11875923762613,-51.696337484813824,68.03240638120386,-135.86970777371707
0.13,-1.1491273225748275,-0.04946288514362082,0.20334332908463032,1.249394535296283,-17.87066333644857,-9.006913091418797,1.6322879933314367,17.851570396639406,78.23469668818156,-42.867892008366844,75.0437451252789,-182.92109860729082
0.14,-1.6070831804923418,-0.257223437769963,0.2157985956642003,1.503610210835786,-16.868933642726464,-9.685758151480787,2.3215548309166727,16.40601790406531,113.33514114731666,-30.436150583896254,81.52829151804687,-235.09559890062008
0.15,-1.982062413473294,-0.11670178065097797,0.2980364857629856,1.6935679499537313,-15.804388747629842,-9.856902147864526,3.2990936025039743,13.589329173043735,152.66457756669652,-15.889883311023272,87.81831133864125,-293.70730837144185
0.16,-1.8775069421169106,-0.06910041664311674,0.2327364432249046,1.6121451117129484,-14.574215835461452,-10.14708098462357,3.680451410581893,11.776809666596602,174.46163663508204,-6.965665343421741,90.55022177274677,-324.5495146201457
0.17,-1.6680460562898338,-0.28968004874332,0.2899778753383941,1.6254469318805258,-13.310687196757874,-10.363354992384242,4.246326084652425,10.051581924807921,196.04599097073992,1.8637895442188561,93.65750900867369,-355.961979827318
0.18,-2.1402768467386415,-0.4495091849402008,0.11719380385963249,1.7496704753098116,-11.137217025276875,-10.001998809321991,5.10217039086837,5.438391604512231,242.43344870771486,22.072870001663453,98.13517206852747,-422.9124898205408
0.19,-2.0456437584111398,-0.4736455151441501,0.018451737486411046,2.043575280261734,-7.60604932400605,-9.576418359549637,6.254690657236259,-0.31779425745303935,291.7236175521909,44.09843067207885,102.39824145792858,-492.8116434401295
0.2,-2.0959321294127498,-0.758428206939202,0.4222955989732621,2.01763109948751,1.094852890198672,-8.359905755911527,8.618921212508697,-13.058244917822742,395.3509148388109,93.65136125244318,107.11614223851123,-636.3008001492581
0.21,-2.1169092698741596,-0.7683395993788064,0.7440812959405196,1.5418991982126657,6.30730128564844,-6.854848649239744,10.017775122404254,-21.294480882473785,447.8203405383154,119.80100221755079,107.54047707916389,-708.4293197805285
0.22,-2.2744710196809823,-1.126328195630806,0.8880723073381163,1.3235749010974325,11.69231645425312,-5.438660959395604,10.919009225783572,-30.04942901351319,499.7045864807274,146.9965897241903,107.1336099499447,-778.7075925533317
0.23,-1.7381563441638608,-0.8418789288817864,0.8919635212428729,1.2391767065495964,18.126278646422612,-3.7389898868096685,12.265884483152993,-39.61188668711791,550.2819038878287,173.7808236598377,105.12171537280575,-845.8880535476801
0.24,-1.8925109128335795,-0.8617613644994258,0.8695153102168572,0.6538616810660535,25.00582664126713,-1.8669982777201195,13.808438761407356,-49.76311802169477,597.9805836413904,200.46994963842397,101.40720766396316,-909.4113139440958
0.25,-1.4459334757336668,-1.1713244847919355,1.0406049168902214,-0.13500114111953326,32.09922290745697,0.956911572663701,14.604790691730896,-60.199532900090375,643.1243316674091,225.67561751299058,96.43032596782125,-967.6080352921977
0.26,-0.9049468705338133,-1.2951068014453613,1.2046987881241062,-0.5995259758047222,39.36777281266408,3.267958836476843,15.645838929365397,-71.11922953396997,684.069524626724,249.51903249389045,89.70924987045206,-1020.0665605486737
0.27,-0.3316631863465735,-1.1758683113292148,1.6867872364951553,-1.4943252454687295,47.14846661698622,6.197043412528385,16.426641567332954,-82.79393330667445,721.0119185118278,271.79054352268633,81.63572527322991,-1065.5843091822646
0.28,-0.0015867397714463653,-0.7281849456171415,2.0671642133074517,-2.568032861988011,55.43707124175997,9.646732134025008,17.046544257436217,-94.22386470378524,752.4656734687604,291.3092507649164,72.02039564256326,-1102.9264619598762
0.29,0.6355528759378156,-0.9450442045598035,1.9139475025467176,-3.7230808700264335,63.54220799016257,13.120091102333566,17.9311741685993,-106.0914423688997,778.5456091245062,308.56227695499547,61.33345176275592,-1132.2468926582544
0.3,1.457096198961636,-0.8721011146675789,2.1957725574074862,-4.635910047683637,71.8966793180296,16.671686203025917,18.14460785201665,-118.21510766168986,798.9160596106085,322.27913904180446,48.507731447540834,-1152.8993034031087
0.31,1.7031761614586536,-0.6636738938351541,2.376223434151575,-5.376591182464972,75.96061250207087,18.58683601911137,18.203541030491532,-124.06844186442841,806.2937352413439,327.58386104748587,41.26239999570607,-1158.1978890053279
0.32,2.335617704482732,-0.5375466697491696,2.3625630170978993,-5.850558256939341,80.11162846603096,20.242600365137047,18.408062380724758,-129.95276183605313,813.2037881336921,333.0440848876145,34.46517862050307,-1163.8144275084042
0.33,3.272010018501283,-0.12076915592055149,2.429888544637848,-7.550411119648429,88.53953231763758,23.77569299377027,18.43509066244535,-142.0397755661179,821.0776244878735,339.8823320050927,19.664524501399537,-1165.574781647318
0.34,4.2485027585942365,0.1839683716934897,2.8208093714967015,-9.162599499397986,96.76614531552762,27.486673807735183,18.368675494964446,-153.19892559738784,822.9498634630955,343.6555836024775,3.6506541947413935,-1158.375871185129
0.35,5.2719924095066455,0.1818970696568923,2.739251441111295,-10.803115541667902,104.92590124478036,31.096110099040207,18.208072124059743,-164.9105033392362,817.7394133511253,343.06438288672047,-12.64932220560084,-1141.6343013550363
0.36,6.584086033523402,0.48750441529544236,3.05071108179654,-12.85314220999012,112.69820316352887,34.67620857414145,17.94454523213217,-175.8775035365116,807.1047314068999,339.47972926097856,-30.162610054615147,-1115.9582333154026
0.37,7.908031360960529,1.2391121992434841,3.3772518164373304,-14.499465812466779,120.51739785708179,38.212590307981024,17.061721133642056,-186.45522080400582,789.9370653657741,331.53127052927323,-47.730332994365675,-1081.476293112027
0.38,10.31953954344109,2.0459304891612393,3.492176338947332,-18.734405377865393,134.52301932310831,44.4489268191953,15.68097981495135,-205.8074197739339,738.4833857273316,304.9142557133541,-82.74062494346752,-988.2430218751995
0.39,12.074199296252427,2.672124528844977,3.7431232409249158,-21.09219063987179,141.35614227946462,47.56302641735153,14.614151864973607,-214.6057051903596,704.2468098899232,286.81051893026597,-100.2011828712762,-930.2179357807391
0.4,13.570229885820396,3.209264438968906,3.777774113563748,-23.285608568274338,147.33144606818195,50.2119490893332,13.57385687721834,-222.5707699056888,665.2406501058156,265.40098415535687,-116.54984604794835,-865.7440304666422
0.41,14.87070851270967,3.702611103022703,3.8374255526229573,-25.276739411132144,153.01242792184962,52.383276386679654,12.075392895662613,-229.90401475581518,621.7283758807772,241.21120693108057,-132.1901492290707,-795.3885195479452
0.42,16.648819816192443,4.296427251880616,3.849476397310351,-27.741801601851247,158.3834936230899,54.31593928711088,10.855645685495366,-236.52000465228005,573.631722368909,214.6813232920348,-146.30702555388555,-719.9772924481649
0.43,18.39504741857222,4.954790082356805,4.0299952432489246,-30.402979659032695,162.85447855036065,55.845618758625164,9.404738239139148,-242.57270929595498,522.1439981404837,186.04395910937905,-158.9751260361439,-639.6421009845791
0.44,19.707525983449035,5.387235036642797,4.026614151289309,-32.87948750079941,167.0890646481466,57.27231389810288,7.635325099682781,-247.52920398133534,466.73897506096796,155.54516381630637,-170.23663957686995,-555.7180581639552
0.45,21.681136081846308,5.97735136741308,4.0168414390188865,-34.92144788111449,170.98918048973226,58.21975550057915,5.826667670353775,-251.53153212045174,407.87467039552985,123.40129075199366,-179.35578472590973,-468.4208098764181
0.46,22.275577367510287,6.184627591156082,3.9403922407347243,-36.22298896821188,172.61548576187315,58.50852464700169,5.149221048394486,-253.56477280264954,376.88546481622234,106.65618910312674,-182.5494614422692,-423.2877909844954
0.47,23.19177454590147,6.343338134153177,4.001053999332729,-37.46481194163241,174.03285470346134,58.878360265291406,4.141600061851916,-255.43926420446778,346.21216554715994,89.9722866195516,-186.01628741887754,-378.6101757078401
0.48,24.90106507208813,7.228031757108086,4.205399799369666,-40.173530515109675,176.51117935673105,58.769424182762926,2.4943573339555174,-257.68205177293413,281.865554123067,56.077281449206275,-190.39076248186825,-286.43080447455384
0.49,26.327205482674653,7.887022493335789,4.08868169527134,-42.878690564686835,178.440558242518,58.998978457366036,0.6999137822528155,-259.6482337894069,215.3914162761884,21.531707315859677,-191.7946051325845,-192.92172109028388
0.5,28.364285336934824,8.130346232217326,4.128946275988467,-45.2420187129171,180.10505900243464,58.52900537184505,-1.0250922350124965,-260.50379587050014,146.8408105921239,-13.513184711296482,-190.86828883046067,-98.37502562451462
0.51,30.014126512760882,9.049945795709856,4.102966084847169,-47.87027381875455,180.91051361023085,57.75244991250205,-2.998602343112876,-260.25909756884766,76.59027589266024,-47.903473690541794,-186.84596031318392,-3.3414461808359803
0.52,31.886805889685466,9.495989124405192,4.005523594594083,-50.38625072695897,180.72238789736164,56.51710561672875,-4.527136285522036,-259.436065140771,4.732127705369743,-81.96137254279014,-179.71410711429414,91.97579497853617
0.53,33.52322478738825,10.259706383385979,4.0225499043927915,-53.104536120121296,180.34674813788405,55.42613890834938,-6.150686367112246,-257.6869006875022,-67.9673428984895,-115.44597482551991,-169.58932016367865,186.8595948261356
0.54,35.21479447447681,10.599853864750099,3.8915991433990715,-55.52749853090754,179.28423522560647,53.820485133039206,-7.728441441326429,-254.90671524865775,-141.2417769106193,-147.8309660854728,-156.59808178149345,280.76801943753713
0.55,37.16672719482966,11.007171882801124,3.9859538012905906,-57.84128413032613,177.31669324530452,51.894447476743615,-9.359147982480394,-251.6361964137122,-215.383449365503,-179.18760107963297,-140.2452679485476,373.7662144879357
0.56,40.47996038715512,11.859429867979323,3.6666565532206907,-62.561403300121206,171.53137000649548,47.54319607678495,-11.483687982733818,-241.83158049825062,-363.17483157089606,-237.96589122726814,-99.45994542890425,555.0200926693373
0.57,42.35546321334022,12.249758250678846,3.6679175831367945,-64.99258540565674,167.29012921220826,45.100883438168175,-12.215163060794952,-235.92685462745075,-436.27822122976676,-264.8556141871084,-75.08379882274203,642.5056391711972
0.58,43.46417405552929,12.426748156136185,3.6253042046485664,-67.4637700036296,162.96233695995247,42.31688266023275,-12.836440262402691,-229.10162998360343,-507.8642313024692,-289.4597482781996,-48.73300122257862,727.4629904795926
0.59,45.51307536316917,13.156839636339516,3.591628842054161,-69.6862903099162,157.4195965586365,39.63296491871061,-13.579190194770451,-221.17584424587002,-578.1742953922255,-312.4203421048184,-20.14474044277441,809.4271877318117
0.6,47.016918144428374,13.313451703667562,3.218994312768466,-71.9851724418937,151.43953174642672,36.522959599754664,-13.633636753420573,-212.55844660745288,-646.0931241482389,-332.8699408095699,9.978061392633172,888.2453205356521
0.61,47.694695913960786,13.57003988132709,3.2818982645382837,-72.81386866156667,147.9058410320857,35.04952339529353,-13.671668771836462,-207.95279716502378,-678.9749641619184,-341.8297191031192,25.722369072119506,925.4482322271188
0.62,48.43467707639431,13.766953338316217,3.229282485250272,-73.7884240499965,144.53569820205806,33.46965146850285,-13.289624370313815,-203.35365354042594,-711.4103423479746,-351.3182560037937,41.5337339295065,962.8119825350377
0.63,49.95974935359054,13.969327357138889,3.5247783521587905,-75.61298604802123,137.44088279015588,30.103079544010125,-12.693315881708424,-193.40974196357712,-773.1880615357279,-366.54785749877345,73.21495774374804,1033.324128025033
0.64,51.23578091310754,14.353636473350576,2.7247201525570754,-77.64272785464578,129.26639405121608,26.760311134234524,-12.125907689958003,-182.66812717546475,-831.4319084911618,-379.89877263885563,106.01033392436179,1099.6487945077981
0.65,52.441291504245925,14.315911924282902,3.1103422437875987,-79.52645294762132,120.30287421224507,23.020686887859757,-10.876409185715183,-170.91450304276094,-884.8874864763782,-390.3375372475419,138.34888252140058,1160.7572676356533
0.66,53.59008560248714,14.586927751399204,2.757453844446665,-81.39900558593463,111.20856781783085,19.4925203377587,-9.463512543732618,-158.92427428101576,-933.1787060941928,-397.8225125890514,170.0361794971048,1216.1710774564142
0.67,54.47896051763793,14.87154635545351,2.4294263342948184,-82.50902422075677,101.55663220100669,15.644223287747797,-7.472609489846163,-146.55959344283102,-975.4156891276594,-402.4386768030573,200.36660153534882,1265.0857880418687
0.68,55.45945714409608,14.958152950359798,2.7905442054779215,-84.21750173954544,91.08090797461448,11.802343628451059,-5.44632102175255,-133.5466964334748,-1011.7899105188088,-404.40231121830425,229.718056100348,1307.6067539035612
0.69,56.500083450495275,15.253390330722613,2.4576528214417204,-85.2561575631247,80.78105046423835,7.888544390376789,-3.0914227315263565,-120.14169469465534,-1041.0286327605627,-403.16923692085993,256.4572146165736,1343.570192718209
0.7,57.497017814276056,15.337519704919181,2.505926186794136,-86.17071924715866,70.41933633565752,4.100709306299556,-0.15200923230398286,-106.34880249757597,-1063.2654782010547,-398.5194702929965,280.7592288876246,1371.8591298828273
0.71,57.69171015691964,15.226198659949072,2.6961665113636375,-87.39885908256592,59.182645668919584,-0.002918161640008146,2.8085928602964234,-92.3734051428261,-1076.7314219983473,-391.52549033914175,302.4913133411752,1392.0753176942599
0.72,58.296991570766785,15.3593584163528,2.3101692982323785,-88.30987489420234,48.09950150172055,-3.6884851573013826,6.166066746071712,-78.28968879241606,-1082.7313304517297,-381.0474331527906,320.62459100859826,1404.2280829342378
0.73,58.94453369229181,15.322744707418988,2.459911711635158,-88.58881074077037,37.40326839701897,-7.613581640946748,9.595326539287415,-64.12789474922018,-1080.040768815651,-368.7410078694081,335.12919165381686,1407.1823828833578
0.74,59.0632316843943,14.975669978388032,2.7047487602055895,-89.44397137003052,15.197009462831986,-14.730425542979582,16.984255562134486,-36.059928617721184,-1047.939396327782,-334.8966088693257,353.2858522485001,1386.9864871980437
0.75,59.225323036818615,14.976619915163282,3.3264373374728096,-89.72818686550842,4.787757345946875,-18.34049776276041,20.992336699705955,-22.290722707514995,-1018.9957078742615,-314.72928183512676,355.9921475709119,1362.4505021963503
0.76,59.087879032878064,14.740949356906848,3.1044451665567285,-89.91618337506706,-0.15615685381971553,-20.039743170434246,22.74892231908597,-15.383137253714823,-1000.0549545622055,-303.5442623838505,355.3883002232313,1345.8988149931558
0.77,58.81198158443774,14.904241449524356,3.0813596094516407,-89.90269301719019,-5.058012639237751,-21.741432373036723,24.877175389914367,-8.849366609126221,-980.9762276671014,-292.5233094905918,354.81228537401046,1329.503346224059
0.78,58.64380541845026,14.553478943431104,3.4443498209563224,-89.67488556727388,-14.629136031289702,-24.94905257876913,28.561098765439656,4.482630137529949,-934.6834275100995,-269.15235194544215,349.5615640379088,1286.290280147528
0.79,58.42775336111609,14.00971128901971,3.7883408760907145,-89.47104806469588,-23.777620637366905,-28.082871973035065,32.01301154721943,16.599149501856147,-880.2917193097869,-243.82298540482364,340.57721823354103,1234.642918062248
0.8,58.0675858397148,14.037261032368464,4.271843312568144,-89.16561804037741,-32.06775094379865,-30.591582702977885,35.77711127626668,28.621056621338155,-818.1365636345423,-218.2654172570224,327.46683129746407,1173.8809333688612
0.81,57.89698236728934,13.557520149899812,4.614015062250098,-88.88454434983682,-39.63740601692978,-32.58740636504408,38.95638249938929,39.73245184943575,-749.0608208315456,-191.6592851864284,311.54807894505564,1104.8986269379025
0.82,57.3682678791262,13.14237428489169,5.108414632536658,-88.30647301313736,-46.55594891136609,-34.679108136630084,42.45135678692754,50.310230353058074,-673.4877425102628,-165.33189903261942,292.3259651062464,1027.9002198170429
0.83,56.54361883189896,12.62945770272414,5.443729458092437,-87.7594089685646,-52.70113627646609,-36.433838371412854,45.71283467526525,59.77357231347629,-592.564633443351,-139.62521455161516,270.71027533276487,943.1913621226139
0.84,56.39385874271552,12.59030559481278,6.170588598652638,-86.98335458557911,-57.976416967719715,-37.866928233479456,48.34505681586503,68.65349624957041,-506.82249617942284,-114.59565178677863,247.05188880435182,852.1604066331213
0.85,55.69272150093375,11.901274204530218,6.523460441800682,-85.94738484751835,-61.59585692448865,-38.859628221685696,50.71256943215697,75.87432451223994,-417.72677200623224,-90.85915464431355,221.70528657676846,754.9992091610064
0.86,54.9018719449216,11.733938357517886,7.0919293987501435,-85.34025859361309,-65.06700416367592,-39.57161663977166,52.5742419897595,83.36076023444984,-326.1220265052991,-69.49467665374182,195.4577972746377,653.0691236850603
0.87,54.35202693974978,11.078418778908366,7.508140888289849,-84.40473073734378,-67.39671734850789,-40.447508765063475,54.33970439052721,88.30930917377758,-232.8383450644595,-49.60458138040439,168.37196904378473,546.7055806114078
0.88,53.55256840130284,10.452756045896768,8.41251378699582,-83.60224283283682,-68.88201996668809,-40.47362282381449,55.83827151154977,93.18588157220832,-139.6561772665765,-31.96132054620455,141.4496131508759,437.9337165815973
0.89,52.85029261300632,10.130382877903413,9.04128738048607,-82.70641694010605,-69.44811068266377,-40.62962768685203,56.72672826324557,96.4536168561614,-46.5349710256966,-17.24727486371039,114.92995229506805,326.7166860085849
0.9,52.31358773187721,9.648600601076513,9.89604782337845,-81.97039217287742,-68.84561766793871,-40.299942511976106,57.47089268565843,98.90977974042067,43.78781658162177,-5.567101697471432,90.01356453311593,214.64572877782592
0.91,51.71262091408638,9.489726835140319,10.00407074261296,-81.39417291735475,-68.02974105527036,-40.075077836444486,57.52456306202034,99.35392564729985,87.41240541249563,-1.1467101118537306,78.11231006672317,158.90915662500348
0.92,51.62508013925881,9.411742091672082,10.239425226765213,-80.79268072732967,-67.50247381138031,-40.294479589059556,57.884152623649,100.03155837817123,130.7807398061154,3.3755197825081176,66.20708457244194,102.97416081011471
0.93,50.38764894822862,8.368491809145326,11.31630237048292,-78.84869999038202,-62.27316458637734,-38.91702371328972,58.09337311416449,98.95811939773571,292.3667324127587,12.05266574337352,24.858150509824586,-115.32348768258235
0.94,49.63209757740229,8.154577415841379,11.848573596992665,-77.69149443771126,-58.88367425273301,-38.280055923896796,57.45211925665486,96.71623243883506,363.77718923460935,11.95601671300394,8.472429114172359,-219.4641863685891
0.95,49.23544545656158,7.5095670495318885,12.623183797129125,-76.90661952106939,-54.23142844519833,-37.41444880610539,57.32687989577492,93.84191227479063,428.5327572648046,9.561177420168956,-5.577818605018238,-319.46261242657357
0.96,48.53410919544535,7.200327296597484,12.94934847838409,-75.79130451722023,-49.16247109034698,-37.065981215861385,56.8703746490156,89.48888197601211,485.15184419035893,4.71210017366047,-16.204522546304556,-413.33789831094595
0.97,48.279216854261875,6.900194427789458,13.601109318373888,-75.2887511452536,-44.084947389362654,-36.76279884917876,56.418813195003075,84.42571459495926,533.6412563496642,-1.8044815530854672,-24.29140726799033,-501.58594437075004
0.98,47.73409309488295,6.507148668971708,14.21848438814623,-74.36409168665263,-38.51919496104809,-36.272973447456984,55.43000881262216,78.61947961308006,572.525631961154,-9.61927088948992,-29.332530528553857,-582.1744488366116
0.99,47.67669732933608,6.284367998881628,14.823124706337117,-73.9246030210349,-32.49167424457334,-36.21472588881819,55.008415142950874,71.79748203202466,602.262045233919,-18.28840374652646,-31.350096482491523,-655.0684213769426
1.0,47.43529178005973,5.967823492532754,15.275149035925745,-72.72503442984517,-26.38768373320868,-35.93662915899812,54.20341636916388,64.42753901448567,623.0226544318812,-26.81493556367154,-30.34471206668482,-719.448457149306
1.01,47.08425968905622,5.418695004375762,15.668617693574244,-72.34414872249118,-19.48597194324592,-36.10393818340911,53.840135141389695,56.4463156496246,633.7785345539677,-34.90805653110779,-27.203896264993322,-775.3823906153146
1.02,47.28822153291924,5.428169337600808,16.058328044636628,-71.67931243695782,-13.26917150513856,-36.323871114193715,53.39957851855567,48.02840249303999,635.195189965664,-42.17583996448529,-21.76244023959109,-821.9192071446874
1.03,46.86147949268405,5.006576379961989,16.6032007396141,-71.38869537981952,-6.655022463289193,-36.48373638782254,53.20805984017994,38.71212652419227,627.5319962743347,-47.61218096487477,-14.65237636265756,-859.4966067454548
1.04,46.791059389794505,4.613700147726746,17.12509104643708,-71.04124714035369,-0.6588912175533931,-37.30983447863397,53.14635380198585,29.398867267319893,611.1996909234377,-50.274890405545946,-5.811189296319299,-887.6729729928579
1.05,46.741799150491914,4.390151231885593,17.676637514618083,-70.56995110910044,5.406317617116872,-37.60518515298368,53.26388277584781,20.029907872176242,586.5966923070248,-49.734465713661066,3.676551626787572,-906.6394516333928
1.06,47.01584374321903,4.316396646664055,17.963244672671642,-70.52333460347201,8.39240923431471,-38.03306289079049,53.174201797537705,15.157987945876064,570.6226750823926,-47.99622688043235,8.574687743414103,-911.9212941712655
1.07,47.11757549346853,4.316240396333277,18.285877847870832,-70.46910313562742,11.438531145304982,-38.2315308285515,53.27159368251974,10.446283308311829,554.6777892196151,-46.34747562824763,13.475662296864542,-917.2767255987898
1.08,47.32538093660672,3.583903598144851,18.604289776455353,-70.54646165744143,16.626100588237758,-39.32759831627627,53.65086645884618,1.0087005335795889,516.615093112503,-37.84776686306309,23.802140340476598,-918.6284594056991
1.09,47.29285651148689,3.4682836829055046,19.199659706310424,-70.75945430288797,21.94478025090448,-39.863992640604735,54.472962897567314,-8.690623964854703,472.51420076156325,-25.99808467679776,33.43360507067054,-912.4677766282551
1.1,47.251181737144606,2.901696648446215,19.795714998188906,-70.89366987473042,26.38009214043782,-40.473226555180766,55.13507770056979,-18.291218650081305,424.0210765885665,-9.091958782291666,42.41669321974253,-898.9405041806436
1.11,48.17515393793766,2.1223089041493024,20.771787453119405,-71.50659403665273,33.87798757838083,-40.88835760321194,56.778514397918826,-36.11605281073818,317.78097275718005,39.562137253647926,55.74397366350638,-851.1431079479495
1.12,48.654644720321656,1.8674183711566394,21.579887433005197,-71.95098323333568,36.775839919120905,-40.7525207143407,57.607655374562626,-44.30983286040262,262.8030845431231,71.04399196446636,59.84207287227397,-818.3053706982498
1.13,48.92389224054352,1.4630365041152167,21.996585828578198,-72.38505377364906,39.214394007769535,-40.23412901149177,58.47493224925167,-52.537029202788844,207.52457645166066,107.15807124573686,62.162158500210026,-780.5319717295991
1.14,49.1613737791211,0.9856508523150094,22.576258870494463,-73.07715277426256,41.14619412756083,-39.374623689796756,59.549437113065345,-59.841226721539385,153.64965876367893,147.2677860785909,62.03411214954561,-738.4376097789198
1.15,49.729862166693906,0.5430734520683322,23.192105798158458,-73.74494654181291,42.374019283381415,-37.83267164531755,60.302128915736105,-66.87178519941233,102.35508673597887,190.91738505574935,59.416536282297464,-692.4964348434747
1.16,49.84369699210464,0.0808268260484471,23.915757805017815,-74.62341096167816,42.76916700530624,-35.92410926067938,61.36703360806466,-72.78987761074862,54.162979109146384,237.3435558392514,54.83079698365589,-643.6575206479388
1.17,50.75633793363872,-0.33089727078250625,24.510527741216535,-75.2710395669944,42.9469380554792,-33.418388671182974,62.08266181677734,-78.42983439278692,9.81186047352885,286.16542532739976,47.844626983603796,-592.5771776037477
1.18,51.20736004211138,-0.8412150156045238,25.099606879380097,-76.29286585080006,42.45694837373093,-30.330946446229103,62.847000389699765,-83.44166716326812,-29.307958386002383,336.2052777835994,39.04942549319721,-539.0771270063875
1.19,51.78036617970793,-0.9975385271521143,26.208815369863668,-77.60830877510676,41.68204802518404,-26.57201054941501,63.21454645647622,-87.71663781446664,-62.915427532310666,386.75584399654394,28.283012844820668,-483.64366755782373
1.2,52.381785280732466,-1.4784057954664471,26.597914083345803,-78.48443365813469,40.651184514602754,-22.365104968045312,63.372096297283626,-91.19888496200167,-90.21586075421477,436.3046092675564,15.925185693354628,-427.08076993089577
1.21,52.35381990673343,-1.4275296746532042,26.760669915993528,-78.90360273056618,39.90303874525578,-19.869121870632487,63.515847532425994,-92.61313765221622,-100.76216445401703,460.2661457947984,9.409515390887133,-397.8813741645381
1.22,52.57719032312071,-1.608081036935667,27.238689265181478,-79.22664581250264,38.934810367947456,-17.15137065859671,63.655135778059524,-94.07206174170248,-111.28427190157791,484.2015222522727,2.7934309275022087,-369.1120967597119
1.23,52.89000683161611,-1.8694634604028184,27.838885249747698,-80.54232804644542,37.58028312629044,-12.014425067247798,63.39207562045706,-96.61609839184483,-126.27621794596723,529.2029992117804,-12.042020335908688,-309.3742383739485
1.24,53.203175137826946,-1.8242776230363542,28.504716606696768,-81.6911252044135,35.66648829192983,-5.824616832497428,63.19814117041996,-98.0980038301753,-135.28661703225765,569.9983226455545,-26.817966482524792,-248.37359373638574
1.25,53.6456918604397,-1.9351299021682495,29.283992514876054,-82.5368722490562,33.671190464133154,0.4864853452797452,62.59103515612322,-99.40171800850926,-138.03994816459706,606.2609050933248,-41.86990421274082,-186.1431385168543
1.26,54.05360132211441,-1.9730102371565228,30.169304893248874,-83.5096420216654,31.65701632630669,6.944601984421875,61.76207063741148,-99.77667828963266,-135.6324098534263,636.418127904859,-56.31250068473275,-121.5768338711564
1.27,54.6575538028354,-1.6092916005340792,30.423893818277897,-84.55545174660416,29.720686410016874,13.874033320440796,61.245760451048376,-99.56970471223664,-128.42471073401768,659.5142274884804,-70.06642088980216,-55.29158082769374
1.28,54.7202348367976,-1.4093980004996924,30.987315475511974,-85.42941740764296,27.388709814925257,21.262676249929928,60.252490515159884,-99.05403031246396,-117.39802397870015,674.8109833184662,-82.86176017778718,13.518536338011858
1.29,55.24524666994658,-0.6320410307505193,32.40696036119417,-87.45643994699626,24.17103013325082,35.62646267375489,57.62124314284542,-95.74406345249905,-87.80100108014271,679.8884906641192,-102.71499397799447,159.8390914293611
1.3,55.55111579482538,-0.310082110490339,33.00923869462911,-87.98698978471351,23.292752431936304,42.94099639769466,56.192534626485916,-92.94038672234218,-71.50618879705266,668.2545516731153,-109.94696195235926,237.69754417871326
1.31,55.56839478530771,0.1893463254458087,33.06211248367204,-89.02096016141472,22.19420295343499,49.60865501214462,54.5674662892281,-89.81742068577267,-56.08556626741675,646.8907652375525,-114.72698636507172,319.698411371794
1.32,55.88409188091134,0.9615966165858535,33.70434543631504,-89.47474688867189,21.153887060159878,56.20943331729462,53.27159508599973,-86.09243148328673,-43.04801920793737,615.7027732705711,-116.64211248636911,405.4384084320855
1.33,56.11522157440207,1.6178836757458532,34.172425512195304,-89.96482219916761,20.7239223574014,62.01223200394998,51.876183553506955,-81.16837008494014,-32.574313432386816,574.9582233845352,-116.38947205801894,495.18299582038435
1.34,56.236439388803824,2.3679929900794674,34.88575622068072,-90.87548348463095,20.02999056185104,67.82416869681262,50.28650983883397,-75.87496711350306,-27.095538623884767,524.8078878241819,-113.54693298066861,588.863698810112
1.35,56.14556173931737,2.9205351197248017,35.046488845702896,-91.37495733678001,19.992567964020527,72.46239088920176,49.10438720170906,-69.24554588434394,-27.493635195078394,465.7270793159856,-108.06894686612692,686.4104587154658
1.36,56.28021780376325,3.3655715551465013,35.60715154187501,-91.55376453654603,19.710411223302483,74.32165928819857,48.50936519734243,-66.05520391983475,-30.97739281714604,431.6293440724835,-103.90095044922595,736.7592040542248
1.37,56.24857362398016,4.146537745018368,35.81767789189117,-91.90698028003446,19.550650849488505,76.26054551155521,47.90150146684893,-62.50775898799751,-34.3423385543678,397.9632674843358,-100.15873873822653,787.2082388808683
1.38,56.20178654914685,4.542536651357495,36.28323906722313,-92.4115375707023,19.4555892555231,79.77412748910442,46.82124654529182,-54.43018311839526,-49.02328964186274,322.45412424809604,-89.93949196490865,891.349309573583
1.39,56.24844708235805,5.4814705039690494,36.65902516543347,-92.60033538630493,19.035208890573106,82.17778119806691,46.24169096068777,-45.626213579779304,-72.30016792112576,240.41266542218577,-78.15299617325769,997.0977908184166
1.4,56.517732684441256,6.509477952663399,37.08237258192815,-93.19613331813495,18.51973691457182,83.56162235032606,45.18517862618512,-35.333543636463865,-104.22142267832206,152.6232272352103,-64.36129615248961,1104.3794007191193
1.41,56.61563510248733,7.582666891535867,37.476769925759434,-93.66911825999068,18.166810424204304,84.24259698557235,44.7201261456662,-24.356627492866767,-145.45375123761232,60.38505443450035,-49.768800588504426,1211.7972644952868
1.42,56.65953200733879,8.109797594417588,37.753843690843716,-93.60906372992122,16.736040225166395,83.86488699913946,44.3031998738408,-11.906383208379475,-195.42907169366845,-35.28559903721996,-34.235323327904474,1318.1476286230054
1.43,56.807835445178505,8.832154908846558,38.882387646071244,-93.65718356449736,15.06461364429678,82.36279427986852,43.884728585519305,0.7755566751829683,-254.32038742845504,-132.83440413376422,-18.22100410076924,1421.9997597696288
1.44,57.29105936032277,9.704091689274959,38.92456743224419,-93.3949901625411,13.117065196800738,80.19222195741395,44.23417156224542,15.292767081784154,-321.158822694156,-230.7287580289244,-2.125130969389744,1522.0193649653863
1.45,56.77720604939904,10.264754249477287,39.53303770945194,-93.28180901862488,9.791964308286884,76.6013732214316,44.2497823251852,30.499031143927244,-395.7775044826187,-327.718868446429,13.356524944570653,1616.08361508778
1.46,57.359291736320515,10.925422231891776,39.6963109781509,-92.7433783028747,6.249529794847409,71.95594694841262,44.7609690642467,46.93289555876047,-476.70320344287035,-422.2510986781204,27.970454457816892,1702.883998519549
1.47,56.92710567420593,12.377511627740208,40.696254703154054,-91.42036398504365,-4.091311808446658,60.43728802321093,46.030830604722524,82.58623953969104,-651.4156899195422,-598.5627669029368,52.44803469617947,1847.6410825450614
1.48,56.99586406736756,12.694723042247412,41.38351353527759,-91.00222070344324,-10.8303790831327,53.57186622873688,46.99263789874515,101.5844107983312,-741.6587686497581,-678.1427507430479,61.68178216290919,1901.886560136816
1.49,56.995387155718674,13.085471780246575,41.535613756787995,-89.86311037961873,-18.176528930880995,46.225433419004574,48.049620086128904,120.94768691827971,-831.7631027441016,-750.0146459352602,68.44479014679749,1941.7570594728375
1.5,56.79482939959392,13.551995184743971,41.95071338296132,-88.5278613660637,-26.85547703477962,38.01076372523853,49.05962808991885,141.3579580781699,-918.9028228898025,-812.6368405000259,72.60867142878368,1966.1680955989373
1.51,56.68695048665066,13.61865516344018,42.213823047988846,-87.74170091509862,-31.58717707837327,33.50645900717034,49.775708047761306,151.49880119857275,-960.3653818349893,-839.5148152760315,73.15317788188646,1969.73540191149
1.52,56.59215643874054,13.991549581611022,42.604911925371326,-87.13534326933747,-36.66119274803127,29.373356295955286,50.13362958175757,161.4254556426292,-1001.9628297355205,-866.0703855563287,73.78523559518534,1973.3372454703022
1.53,56.1116852053835,13.991466766251378,42.830847222639825,-85.43667128848867,-47.325741631024314,20.07577186120199,51.20714001979912,181.66858647035696,-1077.5355683537864,-908.4684887159683,71.73918561658954,1961.973178307319
1.54,55.71117144712748,14.440326622539798,43.62612837488764,-83.52538581841613,-58.76813789711169,10.614714611853346,51.7582849314667,201.75195113191666,-1143.8674729774534,-940.0777518553201,66.74477727887425,1932.279545078891
1.55,55.22678934539148,14.256503990897897,44.16731201257374,-81.1455150944467,-70.63470340899902,0.6941229347203691,53.035362101422876,222.07330163972853,-1199.167729873928,-960.020273973616,58.524883154863474,1882.5869862859568
1.56,54.28549197516148,13.978774576978761,44.37596697938872,-78.84751339968142,-83.63658901634867,-8.861145333329265,53.53710909011572,240.7297413133599,-1240.8666084471536,-967.7567552020244,46.92762531720343,1813.0901653998217
1.57,53.57789488108659,13.784453361393387,45.06587784920768,-76.31104585869352,-97.00363633789512,-18.434269220552615,53.99788625184608,259.10148862385154,-1267.9357036770125,-963.1208794444484,32.2028275589502,1723.845275809438
1.58,52.54928633211509,13.562735096346392,45.46124170757967,-73.49280709257674,-110.58766505531689,-28.149549716608593,54.37792671057664,276.42160737192853,-1277.9594479243694,-946.6092606946459,14.735801692282353,1614.8849231425702
1.59,51.53364325986788,13.360857589336748,46.22302858975149,-70.53126248179603,-124.04537115826012,-37.34006292720738,54.64283812090067,292.52449595843495,-1269.6371648077113,-917.696125655941,-5.814732904451969,1487.1105533319203
1.6,50.10672015725295,12.758737181789456,46.71657213254115,-67.27213370871733,-137.5824101691937,-45.956386486930725,54.54243324395135,306.84928859605645,-1242.3491034098372,-877.8316012679809,-28.25644542607166,1341.8503157705386
1.61,48.6311565011145,12.214570051374267,47.24918196943687,-63.81920933414512,-150.40343718441048,-54.54683344217751,53.49130253489977,319.2714054423808,-1194.8455895004581,-826.7899379543511,-53.79938266397971,1179.6165297157797
1.62,47.011201993625,11.925274752568907,47.945890545201586,-60.654260328813656,-162.89526844170848,-62.026364965638194,53.17047478876703,330.29963002308,-1127.5276068508765,-765.254755424389,-81.04280502025152,1002.612993202473
1.63,45.29303012954937,11.323661518475278,48.45187247476506,-57.15175877334824,-174.2926093497579,-69.32812819187842,51.76300197193492,339.14460526900564,-1039.2743990824204,-694.8840467166291,-110.32279038366156,813.4551355376844
1.64,43.2930781585458,10.693292851583362,48.82731446781952,-53.449630725140835,-184.50697440878935,-75.49298799350886,50.103071894968195,346.0717925945222,-931.5699607766948,-615.8465598629708,-140.973443962687,613.5204325369657
1.65,39.08797539694065,8.896416391840996,49.88488846698297,-46.22055606143995,-201.26307021581138,-85.5821346638274,45.81306484634012,352.40511969408044,-659.5345821313008,-437.2894199044199,-205.77172066266743,191.9752443257867
1.66,38.07901876773765,8.481531527668619,50.17031542186542,-44.375844657774664,-203.98708748512166,-87.6289352782484,44.51748583650698,352.38989020110114,-578.6791891699289,-389.27404459020454,-222.7991745495979,83.73307172241145
1.67,37.30029423579525,7.784053448270583,50.472320862527916,-42.73882126438777,-206.93659836466685,-89.37707723305313,43.11387729767772,352.2613883876466,-497.9509299838076,-340.8743379496869,-239.55478144410503,-24.604577584686552
1.68,35.04690057754687,6.875500886492715,50.875304261427644,-38.56551003800484,-210.81615039084778,-91.90996546362524,39.84655431507414,349.3733052506613,-321.8007994489376,-240.8668421532524,-273.50844690012116,-240.8549012254356
1.69,32.94985072284417,6.153063394041174,51.03580669772752,-35.536692098817724,-212.47203117599278,-93.31445139205042,36.23133377445175,344.39256143552444,-132.72272995905888,-138.99125573379573,-308.32062567689434,-454.2468203829752
1.7,30.295344050256734,4.967626201247707,51.55384800037844,-31.75661434619348,-212.09072864499186,-93.78193716308205,32.46246159671934,337.180710863065,65.95301865838138,-36.3661867088557,-342.5941271184303,-662.0225663455954
1.71,28.168826821596063,4.000533351315952,52.09976146032856,-28.437329306566532,-209.49839841329623,-93.02867062218266,28.234111262325403,328.04663095480925,272.2346574985738,65.55091287509455,-376.90420507802264,-861.5852468302429
1.72,26.23012743309512,3.0416819480767066,52.24226229100157,-25.400595512427294,-204.8178862069861,-91.8007964913743,23.67098668442991,316.72847711335527,483.37320885142,164.81596814139922,-411.1281754303733,-1050.2437576414532
1.73,23.844062273772835,2.2612535740633453,52.34614400056521,-22.456811888236935,-197.21793487919655,-89.0475433355222,18.98016512903476,303.5198852953565,695.6533072303298,260.6800409160955,-445.5316173708266,-1225.174892823098
1.74,21.940507983902084,1.3811289311456036,52.48806115329952,-19.83208793900649,-187.94306960086095,-85.33271952184374,14.096342077529084,288.8160475671973,906.6186545979668,351.95022083925335,-478.9158700895548,-1385.1476521992136
1.75,19.942697209550563,0.4015536181603653,52.96248564686841,-16.945406810190512,-176.56328574437856,-81.08352746541972,8.529880681431042,272.8912775404698,1113.615695092107,437.75288254183454,-511.74524913445396,-1527.371695072293
1.76,18.455843284710067,-0.32074249251477893,52.587110655540464,-14.587048843758707,-162.62746923176564,-75.40260411036016,3.249984811270032,255.21005260127995,1312.9316838443788,516.8691484187615,-544.2390223301533,-1650.9994951597575
1.77,16.907986227745074,-1.1906049096976552,52.5978717789732,-12.169510897980885,-146.73778714508563,-69.4151351494739,-3.1287713862193915,236.7313749320645,1501.7637629142741,588.0765885799789,-576.0709599769625,-1754.440804330075
1.78,15.496911846401911,-1.4706173304393733,52.366286030656426,-10.023029041613562,-128.91916573487867,-62.42669175517816,-9.196825851334102,217.71415005725387,1677.8592877382646,651.3945569186225,-606.9753035146891,-1836.2310682893592
1.79,14.401065097901773,-2.3837593869514384,51.96407830005076,-8.431101484492826,-109.75103892443167,-55.132476535506825,-15.247211802875984,197.85276416576517,1838.5474789293676,706.1034008784764,-636.8498478527459,-1896.7763075970647
1.8,13.595944926390843,-2.7411295876823347,51.83186530392542,-6.473950791459418,-88.85882800819604,-47.238384202699315,-21.492516762175214,177.98870446271007,1981.2155127404747,751.9603801667128,-665.5457996295532,-1935.4566363306717
1.81,13.354458977139286,-3.1289539920774154,51.82678866467233,-5.7004398377795615,-77.85371131482322,-43.28519211129626,-25.213589020850062,167.68004745181574,2042.6454188068462,769.928946339737,-679.305185908923,-1943.6508974390456
1.82,12.752044293321243,-3.171842654173363,51.787026277465486,-5.003735872364041,-67.18130598625123,-39.230909524959905,-28.48143636057654,157.68780959928748,2104.3166089035362,787.9311463844224,-692.9958163540346,-1952.0590736144013
1.83,12.513209594453848,-3.339673052409104,50.99870504705024,-3.6013548753049838,-44.37633526517541,-30.59840192919588,-35.14892859808168,137.8590386096089,2205.8164812643945,815.5838664814552,-718.9927926936706,-1947.1304199059364
1.84,12.814593262982088,-3.8904586314126894,49.99486285110184,-1.571795722843376,3.2336686558806704,-12.91596784309977,-49.54463227841062,99.66908525528169,2340.224279761035,843.0717456007535,-764.9670499616609,-1877.8922281673467
1.85,13.13629166053462,-3.972237823609466,49.45213929985894,-0.8695251697591718,27.50872068588485,-4.175245516733945,-56.605404507656914,81.52451392393475,2371.1548890889567,844.8303138771605,-784.0965040800734,-1815.3957328630868
1.86,13.421876097507976,-3.9100978979864,48.54112957630841,-0.13560928679665987,51.70847216939841,4.4780824049065,-63.9208211027823,64.11172023075738,2377.8740592557383,838.5010906165313,-800.5955492923189,-1736.7338152805128
1.87,14.259248796244522,-3.581105709949832,47.892051115998036,0.33611701609536343,75.27448617601269,12.99188319204792,-71.39650133232756,48.10218882100209,2360.3260740960345,825.0539266763343,-813.2841019007792,-1643.0062669559209
1.88,15.67522754179266,-3.392126447822602,47.29975052194148,0.6597510045902085,98.55181152276312,21.48189357074306,-78.90912805406447,32.98388147783182,2319.5075383728717,805.8197358548077,-822.7035580347934,-1537.5728442301065
1.89,16.987092395710775,-3.30009262799289,46.41552013451566,0.7477670547349836,121.22078194590645,29.21119131219359,-86.85922185298175,19.359385887423443,2256.5195115042093,781.0817704398784,-827.4202331656796,-1421.5920257700266
1.9,18.32296964002691,-2.692440824165298,45.35469316066978,0.7672355396278042,142.63074694269758,36.70622080465435,-94.63369052387795,6.833859171873985,2172.089868809059,752.1026536374693,-827.2659818859462,-1296.9541783702393
1.91,20.037829986462974,-2.126017941669942,44.348980311347724,0.8288772537764462,163.07002053343672,43.68860451700753,-102.27631235719737,-4.279273749467271,2068.0945280898636,719.7371587694272,-821.782949981462,-1166.575072611639
1.92,22.01017764342883,-1.5695140122148723,43.578007779168296,0.44396896648839035,182.3143973035978,50.95475836813998,-110.45629834321377,-13.93667497054605,1946.4953863207743,684.8334739220929,-810.5311458886558,-1032.270116972923
1.93,24.123288891896525,-0.8063692897398194,42.26644968034488,0.30378357223304675,200.5015671002167,57.13911212270909,-117.75662275141298,-22.672042051112143,1809.747049414976,648.3980382370073,-793.0300269835936,-896.505176333015
1.94,26.446627456380195,-0.16550632365659296,41.25510530059065,0.060355913176935644,216.31135514514605,62.68282459396398,-125.7025470969581,-29.322005674980176,1659.3778988553238,610.9637846053539,-768.5497347532818,-760.7661168268232
1.95,28.37960783050438,0.4754769467289874,39.896482332521614,-0.005013483210812547,230.50754206871315,68.3382942767548,-133.21065271979342,-34.855541810875664,1498.9039951045386,574.2637068140787,-737.426790255872,-627.507652564692
1.96,29.782539492452024,0.860633174696058,39.32549135046617,-0.34985262596499195,237.02608541211433,70.49216688663793,-136.84999158419737,-37.31595141259362,1414.4890153604947,556.17271532841,-718.4101162775804,-562.9464839421408
1.97,31.078137623609862,1.3558882693604979,38.51202318434288,-0.7907682909668368,243.77707232419002,73.0922950563691,-140.25742621767245,-39.67144621120957,1330.093432910621,538.5279275620975,-699.171888188555,-498.15860846714054
1.98,33.40374456994372,2.255616623086692,37.198053622303405,-0.9102059007454191,254.8399282415777,77.4700434715542,-147.13951165742557,-42.533495502920196,1156.564757242401,504.2336636732057,-653.6560487055788,-374.6954511744813
1.99,36.04321162797434,2.942239263157173,35.840355516927666,-0.9086469776484645,264.27393248643006,81.75767620036709,-153.52288697406672,-44.63453128679574,980.2665106288246,471.94859382323386,-600.8981354346172,-258.12889997536723
2.0,38.399295268722774,3.848893388157409,34.116970943422636,-2.006284775791998,272.1533152762824,85.8328935897865,-159.40072294791608,-45.85538691247488,804.3326633923818,442.36370502247973,-540.8184376865587,-149.85109334485136
2.01,41.54740851506368,4.668948515882221,32.8995862369633,-1.9922160661181494,278.2925682403951,89.49006383250286,-164.99735186949817,-46.1993069326506,631.1261874442225,415.87331732353954,-474.18080426542457,-50.406796153619794
2.02,47.007731504812156,6.344536138849628,29.430599244744304,-3.1365185346409303,285.847342231207,95.91868908707903,-173.6108042806465,-44.18992393835534,302.5446765922232,372.1121801547875,-321.84668094557463,117.42185043272143
2.03,49.53198398849323,7.1430692658446295,27.57303501504013,-3.2092528212400757,287.46036030641164,99.139662081168,-176.50533054055728,-41.8829504334936,152.17724333068116,354.5419288064479,-237.14693526537852,185.95188311327874
2.04,52.31436527565789,8.382863125108708,25.72838737864879,-4.013839642742606,287.5730081097421,102.35600607186707,-178.95054283182662,-40.08949807246763,13.286666636594969,340.15396108631137,-148.1307091313885,243.45608146987416
2.05,55.09104115272207,9.536950781835174,23.8976608898458,-4.035876841624673,286.8740312598437,105.35078783182723,-180.12319221118923,-36.96165481056416,-111.74583130169138,328.39442064474383,-55.79938319697522,290.6285058233675
2.06,58.19363997439195,10.593402049131956,21.948567070543724,-4.486119630984323,284.63343584474006,108.13226904426728,-180.41079007412205,-33.49347461185053,-222.21543380320776,318.5958911592985,39.39467288238131,327.6386647842569
2.07,60.96301918869266,11.146986024567619,20.415923172513114,-4.945581040710155,281.7822232693506,111.38420894324472,-179.6194298056578,-30.43376328611924,-316.9420285014387,310.33485376443167,135.56303218763043,355.20010498993537
2.08,63.58255407442816,12.473374304259334,18.32849686402042,-5.055065050720825,278.0787767320103,114.5055293407601,-177.82756125258922,-26.757653153748002,-394.990308147033,303.54378931145834,231.74949192796885,374.03387488821886
2.09,66.3561225775952,13.612379111167208,16.523635873764803,-5.37790912908563,273.510434360101,117.41404011632333,-175.0591198954912,-23.311122527078002,-456.15387181485164,297.0356480571004,326.88514343783874,383.9055811269628
2.1,69.28545753384905,14.707712431739884,14.809608865880609,-5.4720401433079315,268.81154907374827,120.77372237126606,-171.04112929710215,-19.881815045779682,-499.81199858378585,290.7515863078591,419.8331882428983,386.9576868182398
2.11,70.3711111656875,15.212692780024325,13.75066999069604,-5.610951260648574,266.1529510185585,122.25417178476744,-168.59311322780667,-18.00232359316422,-513.2080707512491,287.1611041068083,464.22681464505797,384.94597241477436
2.12,71.66546476142518,15.773883755164531,12.91608277829541,-5.585413177013525,263.3338938548173,123.6399066803154,-166.01572283734149,-16.224717472664103,-526.5784916827134,283.72987946614427,508.7177426423103,383.28974479436965
2.13,74.3926043763408,17.187871791533922,11.244615438899901,-5.6746091754839325,257.9414345054169,126.69073214847957,-159.86923408225562,-12.901325556606782,-536.9039614438219,275.54556665916715,593.2956131498037,374.66868280504536
2.14,77.02721133820063,18.460830202199308,9.695146122369751,-5.753621848087241,252.51461878647322,129.9253612505763,-153.0265219216906,-9.43540198551827,-531.9595332648092,265.7996231757473,671.5138962640265,360.9461975759237
2.15,79.1816487077391,19.759117999168446,8.217080034851403,-6.067622331247862,247.1294192345163,133.2309040905717,-144.8041478886217,-6.577123870124851,-512.7081948256089,253.11609536539927,742.5186255140542,343.8361176888513
2.16,82.2998240020192,20.828950538506312,6.615966697088044,-6.134515163010433,241.68767491026756,135.79272081277247,-136.45428851750685,-3.441184786026064,-480.456301864639,238.51784720256907,805.759889239229,324.14949744619366
2.17,84.6083845672572,22.556579882831734,5.254350261071911,-5.879686723153672,237.00079202283635,138.45132364162097,-127.12135368389107,-0.677712543435344,-436.698276330059,220.3900799437239,859.6291967276431,302.9229335775318
2.18,87.05450969788313,23.86655748197717,4.1709862157306095,-5.842152214966972,232.64471270672533,140.78066636088016,-117.19340840197229,1.6490642186633047,-384.00119296661467,198.98712323090464,904.1477878944228,280.93915328922594
2.19,89.46032686245033,25.57438150475216,3.0035724599301936,-6.166336170189565,228.8394993729919,143.6498392346642,-106.86242526739797,4.079653037179659,-324.01754172964536,173.91740298287573,938.5914311621486,258.75517963136485
2.2,93.90402673580074,28.51289254520785,1.2643938928026464,-5.62672171923107,222.7936528327339,146.73019670150518,-85.91075186984938,8.10348026044593,-191.01827800747236,113.19463518999761,975.3243887370929,216.5903464812712
2.21,96.1983326130183,29.79723282488131,0.3295654316465503,-5.952549911557346,220.73179041008348,147.73150241958655,-75.32019400326121,9.907197935384783,-122.48701620202948,77.73567990355463,977.7630053033756,197.49357735676168
2.22,98.44936851593121,31.547873539949688,-0.28450251177222374,-5.8227085054929075,219.67536987568204,148.5226100318497,-64.80591121081778,11.756044068999772,-56.13621472993422,39.393575156102465,969.9683832321076,179.77903827429085
2.23,100.62390200563597,33.04417239070941,-0.6011956233535108,-5.639823305726972,218.94692485879446,148.46831999619687,-54.58572960530664,13.442433394689699,6.565205390186712,-2.258679238196372,951.70622503082,164.40210395684258
2.24,102.62258713384796,34.639622692341774,-0.8888472426702617,-5.134472780002875,219.03849406184284,148.18432370585657,-44.637816778045455,14.842110626150811,62.779079767924316,-45.576908865933504,924.9151546176877,151.25664663234608
2.25,104.99542424190139,35.94058041342678,-1.5689673807953377,-5.144148487321831,220.0728386954955,147.74051737070107,-35.22851881181771,16.27754881292966,110.9848894804022,-90.8382124546395,889.0671707508606,139.79904334294548
2.26,105.87479962901799,36.74144644075036,-1.5279248570327755,-5.224092497748316,220.48038990050216,146.8605128879614,-30.913344001227646,16.959001237283758,129.89937554636057,-114.42142826149173,866.8298524359165,135.3843018752394
2.27,106.66962364098201,37.370154915974375,-1.710156382562647,-5.0247668013023405,221.22099996799807,146.06041860785623,-26.462804939772443,17.377763843569237,149.01086546982071,-137.5411382261074,844.9772854606732,130.54459926929786
2.28,108.85137852103931,38.9459598219484,-1.727192281146337,-4.89165828409977,222.95314914128048,143.90822040542216,-18.602953543998836,18.852071003049186,175.82273957659044,-185.22413789129394,794.5961052917738,123.27040321891602
2.29,111.31309926685175,40.78906388250349,-1.4275438060577401,-4.665380596409851,225.01933149579997,141.41726193045466,-11.109822948267551,20.050692255066576,189.83914296078328,-232.75408534758841,738.3170336205451,117.09815557568855
2.3,113.4496789737471,41.46490523769184,-1.5549769143645586,-4.564170619321639,227.34246303181547,138.26452119492913,-4.371679843158181,21.441051023034568,190.221800154949,-279.86816741848577,677.6571118063135,112.49039929010345
2.31,115.55869766244491,43.35729076862863,-1.3760462438701033,-4.372218781184568,230.36977234596205,134.75433810197583,1.6170236387088759,22.645598711183993,176.8799635144138,-325.06383504041895,613.1948959202696,108.8676618992189
2.32,117.77305895021291,44.34982181441955,-1.3141497365118322,-4.101509240236164,232.74951930196397,130.62925297095506,6.396413042551695,23.828628163242236,149.20528615109868,-368.9725970850804,546.7637810270049,105.42618831387811
2.33,119.83748759424559,46.0212284999868,-1.4085592493752335,-4.059827161452405,234.93752535707654,126.15349183880618,10.30746061472656,25.09169766026793,107.43948997828616,-410.53043860219867,479.0969205961902,102.30538564811887
2.34,122.00286011589571,47.028300378858724,-0.8862819800429997,-3.674110429557554,236.6672837355715,120.87185280722255,13.886028079612943,25.827884181813207,52.06101613631558,-448.84975617805407,411.0261666921401,98.54001051578237
2.35,124.65030004589133,48.25734170803266,-0.8993477176935979,-3.069984929292713,237.92816140099518,115.66576608636211,16.592688348475807,27.487442469534894,-15.977524751417238,-483.69182195993966,344.1272454717692,94.2838905609929
2.36,126.57553814843007,49.33761374615197,-0.4108803463210844,-2.9459535038179507,238.637225321716,110.15795107452911,18.406058204377373,28.325840491477162,-94.77503538883417,-514.5132642388193,278.7973613245252,88.48575193481115
2.37,128.87226361508954,50.42542699194221,-0.3064017245115546,-2.529598175841827,238.22214983850702,104.2686755568325,19.714689669483725,29.216556341035496,-183.50466779570286,-541.2562906548394,216.59070046590975,81.39750361556256
2.38,133.82357492580562,52.108571871822534,0.08028400182080424,-2.024384742979319,234.5973780465535,92.70852580814459,20.574335129991557,30.8764426546819,-382.2482277092251,-580.6855520933221,102.35496662618041,61.25377525220269
2.39,136.1179419554515,52.90857677167634,0.45970163030011335,-1.955314810276845,230.95068499032078,86.36788501098971,20.299577031929026,31.790103999640046,-487.5282443292818,-592.9245343997923,51.27420730232836,47.95526716832375
2.4,138.33569929139412,53.414414115222264,0.3850137084847093,-1.5482662914970324,226.31403494188902,79.81846211789211,19.430524294541286,32.04873923852379,-593.6472340918745,-600.5507758816614,4.665023111393971,32.423678473952506
2.41,139.48471279354627,53.798146464975915,0.34781208534144126,-1.4191917270460244,222.99892530845847,76.84290025456876,18.806410392594646,32.183436106268644,-646.0405312651823,-601.5673652372751,-15.827195032132487,23.425812463571564
2.42,140.57046145258786,54.3938740455854,0.3641817378525136,-0.9316636059196974,220.1083320781726,73.76455143950591,18.265562572145164,32.4491933258128,-698.1086621172178,-602.9444952916278,-36.52601179184395,13.993497454275833
2.43,142.94534326320587,55.09440674430793,0.5820648645062173,-0.9551940840434248,212.300062733774,67.68729930912356,17.054479311804112,32.465662087687996,-797.8966126990392,-601.1819719025432,-73.60075883346121,-6.421141114915422
2.44,145.27364899463237,55.737995136641274,0.8093545474914033,-0.30097134648852447,203.76057090147714,61.923743264637295,15.416443144705301,32.04532161037808,-891.3330339588078,-594.223705802887,-105.61697970859159,-29.07979977731155
2.45,147.48784016388637,56.0704280675435,0.5327370005699643,-0.0402156094608786,194.0399340209632,56.52442635214409,14.34669456521832,31.643782356036528,-975.312223440531,-583.3256693886291,-133.56819831219812,-54.03047553110336
2.46,149.31936315566168,56.53172728153137,0.768802246816257,0.12608520835657339,182.95930890481347,51.08836960436616,12.646875543873085,31.250999289357665,-1048.1886445667988,-568.1901998801219,-156.3798705738001,-81.05207589738167
2.47,151.40260408692123,56.926142012543394,0.9130285491461279,0.831557861980871,171.18899622481737,45.81244303615329,11.187527841436362,29.942478011711703,-1107.6664949419724,-549.450361386006,-175.8997268040167,-109.77728558806743
2.48,152.96303647385034,57.361784333864655,0.8567600394433897,0.6413016226503709,158.18607898207335,40.651862702977006,9.508098416520152,28.477842010316238,-1152.4098813955388,-527.2496995278241,-191.76523262997716,-139.7347870187336
2.49,154.9451135847428,57.536741747334695,1.0194355764182705,1.2316342480152562,144.76005868460223,36.40306267167386,7.999163661476062,26.611073120160672,-1180.7174141916846,-502.201812784999,-204.07617698325384,-170.3879137610617
2.5,156.40458351650412,58.10635742286729,0.8769828147591765,1.3135342208514387,131.21489984987537,31.834274425644267,6.714198474883024,24.86393810563137,-1192.2716162341944,-474.71611301268115,-213.59795278281044,-201.26257743638863
2.51,157.7279245399403,58.38965263165519,0.9564676444846164,1.5351988355522819,117.25663896530322,27.51249344302788,5.218860828096199,22.593252728156802,-1186.025070603932,-444.72771730487847,-220.80672881177676,-232.5824728984547
2.52,159.21274351807259,58.35894057407209,0.7946176591353632,1.7732480877520866,103.32329894805851,24.269890489292578,4.011458476005255,19.36525224888251,-1162.4408940783408,-413.3726775653754,-225.29994441612078,-263.5809267611643
2.53,159.9941952897507,59.03388586097823,0.6658500207769574,1.895863588073836,89.94835857046718,20.420615780285598,2.461932335972352,16.350031902794452,-1122.2811343852923,-380.51511491525065,-228.01404094450277,-293.22941006514225
2.54,160.68410514967744,59.12560678975148,0.712937915686606,2.0081141764643915,77.05996135452884,17.15201641051159,1.3781922304496441,13.29434091382267,-1065.7305887553855,-346.5277602659956,-229.02268718579185,-321.51356889403365
2.55,161.36846795203115,59.34867507050026,1.0148119258676493,1.9459398774579046,64.96851893003753,14.29649129004635,0.10054890353480656,9.587877624834515,-994.8236808540433,-311.51472058293984,-228.2650784288291,-347.86917748187005
2.56,161.8237893858765,59.2336891384942,0.8427975584728271,2.0907876143609405,54.28596593971767,11.8832241652007,-1.3246376780673728,5.596770491634748,-905.1683521119661,-276.57335353524275,-224.63094352417357,-370.17860876173467
2.57,162.1921403076486,59.55677518973697,0.6448082711415164,2.316341658512678,43.72988005751954,9.621026629746842,-2.6353340101999576,1.6576580046098954,-815.6657969233025,-241.581192988419,-221.1278163373326,-392.82963856384794
2.58,161.98983195963893,59.64414999700287,0.688688579529638,2.456300140243602,35.292639457919286,7.200377201723168,-4.1787334314685305,-2.6802400645927347,-712.107775444697,-206.55734818124253,-214.93400944539422,-410.46223475424057
2.59,162.38368924275574,59.89234654205567,0.863220965932419,2.1852520228588004,28.179334607867773,5.893104589638017,-5.4272005465458735,-6.833337019188278,-602.8534212673028,-172.43134620368554,-206.8008855683864,-424.9595018251466
2.6,162.39963007371918,59.696462521137256,0.5724671748745599,2.1064742447666513,22.644784868485832,4.324095300879551,-6.778089203953225,-11.444568619215085,-490.23138590953323,-138.82875649490117,-196.55704172643308,-435.32092421182483
2.61,162.14425166612514,60.08173789819562,0.6843908951219657,1.9989683898157709,18.817450450510094,2.948019000900406,-8.360822086328245,-15.513840657336424,-376.8197673924375,-106.383982550858,-183.86730597032843,-441.795331696078
2.62,161.9735363960099,60.13867209813129,0.5859237883178567,1.6814855272518552,16.272437348396654,2.263355061384472,-10.11890763848879,-20.257709825533443,-266.43859628984615,-74.9456201843636,-168.5629236515558,-443.8564862185914
2.63,161.70748256583352,60.19065817404481,0.7041220524459026,1.4200083292385608,15.466830798194394,1.4279435758065537,-11.808139278603212,-24.9320755071684,-161.27760784304976,-44.94493620949341,-150.31660247584983,-441.5260135175324
2.64,161.66673645606366,60.199429487201485,0.6373728729861434,0.8660145895388077,15.635418639782461,0.9231461955722845,-13.305979711979724,-29.247425206338374,-63.88224978062488,-16.45624656494576,-129.00800637545717,-435.25337807574704
2.65,161.5116165885506,60.00582048359621,0.8256056501063173,0.9623604228046613,17.722908263507524,0.7237677199790302,-14.706042705985299,-33.483716802314504,22.991513123569074,10.396564271055672,-104.35536251587284,-424.28025013126035
2.66,161.2177731040933,60.00009108315874,0.3674994864632267,0.48913488190367554,21.034423076268755,0.7330354992506185,-16.42770271702307,-37.45216898103649,97.5800602201497,35.542687436148746,-76.64839608722484,-409.0896951183119
2.67,161.46995494025202,60.10949279046707,0.5988326247232378,-0.04085417847098255,24.795677182924717,1.1527841741598088,-17.26518811010276,-41.86289202075492,158.22420313132332,58.32564429533335,-45.60681173905472,-389.8575986495173
2.68,161.91575069250192,60.09983026659329,0.4580238884738918,-0.4568828827415428,29.38446259181695,1.656351729936064,-18.681172250229565,-45.23655886269177,202.69612095333568,79.72829872352659,-10.82139449589483,-366.91912974235225
2.69,161.8024774123001,59.85418422159379,0.05970035361382596,-1.0838534438460434,34.53179763973849,2.4050903927906466,-19.370135268664637,-48.73805747081198,231.21186435118923,98.72252465791269,27.29603462857549,-340.1323234930997
2.7,162.34298793196209,60.08738300960472,0.362468003638056,-1.344511818690137,39.45289206175626,3.1103388268504064,-19.80358245293962,-51.56059387982555,242.75721661101593,115.19185022686696,67.85924876531072,-310.54383779451365
2.71,162.5339499192948,60.26325684541551,-0.06473892546812082,-1.7368744417334328,42.20789137126224,3.88060529550129,-19.810792572987467,-53.03111118472747,240.14444263590494,122.39971036896956,89.47080262989665,-294.3021607232227
2.72,162.67629449093252,60.08654251543425,-0.059908016989968366,-2.101443103204542,44.86671935022489,4.5336994807091235,-19.677015838355743,-54.48328404436655,237.51164945544906,129.68005131702813,111.4084412078788,-277.8533736715831
2.73,163.3605423399667,60.2709102958743,-0.2847176570961488,-2.63155364189937,49.653970775856486,5.670006553332742,-19.339058782380484,-56.76474723833386,215.84338864300855,141.85643358087694,156.49332793227933,-242.7722392565009
2.74,163.81740417511367,59.97776681612299,-0.5067095547583329,-3.1413010720909362,53.48925409930804,6.984830448071813,-18.051499688381455,-58.84134591927472,178.71722276949959,151.26016336246673,203.65262852376225,-205.99319512691162
2.75,165.64703459775802,60.2201903692924,-0.8614309801425534,-4.634062347205534,59.13401031082314,10.297605006703055,-14.759014700842407,-61.68823631377636,63.887512155726206,162.8928876576737,298.90897349875576,-128.3818988593599
2.76,166.49696681044512,60.35930994592468,-0.9068168217431742,-4.951100968040159,59.882954530216985,12.050632520210684,-11.358621266972703,-62.5926956831107,-9.592943945029068,164.71165372276718,345.8993538289766,-88.37510808324728
2.77,167.55242704867533,60.46978442124319,-1.0603673705490908,-5.692889001473085,59.53675178771944,13.600694024995422,-7.796065976042502,-62.83709136252645,-91.37771083920973,164.25677627497723,390.98279867950805,-48.49590186956554
2.78,168.54088249564347,60.608656977711796,-1.1908282667642738,-6.291819572978045,57.792769605090655,15.553815842703242,-3.8301340623680833,-63.15222467356133,-178.29254134807343,161.20095885725814,433.4857196761985,-8.852311400811892
2.79,169.4973273888268,60.70048220882067,-1.2706421864736184,-6.860399328258362,54.587136278513476,17.351360251197693,0.9607626527954785,-62.851528884622105,-267.74635948158914,156.23715540142143,472.72069248846066,29.620588882048544
2.8,170.0857039947361,60.84993477961996,-1.6483642536217382,-7.664258202273437,50.00496904817904,19.14069596051475,6.480925100692371,-62.021200218685614,-357.3172491723631,148.07121179477952,507.94578688788516,66.75417781173381
2.81,171.09502900450425,61.09195578282093,-1.645063111688147,-8.516644660434835,43.69121995653634,20.988242118778864,12.152617870877714,-60.8446743726073,-443.7324683846136,138.25057998149643,537.3617320061245,101.98419345783358
2.82,171.85209187671117,61.399865075118036,-1.33072028654813,-8.555914460469324,36.323324448924716,22.43795349619259,18.443015158397426,-59.618579881124354,-525.7485290177267,126.73647461377554,561.6711239458598,135.27939670791568
2.83,172.20981330289231,61.55157551851856,-1.259088241212601,-9.583034280441675,28.02536980832294,23.911286762039442,25.419046913848526,-57.72734426567584,-599.5447915348772,112.9858218915617,579.1343102962526,165.5595686687207
2.84,172.5057347275562,61.79147116424826,-1.0307510810991882,-9.786982862849367,18.468134515182825,25.20365761786294,32.31440292214701,-55.83844821772675,-663.6933976718465,97.91055708403512,589.7332726926438,193.7153810306574
2.85,172.7702986880826,61.99612637218738,-0.6480683130932304,-10.63747673349306,8.68028278207324,26.253338888331214,39.418570198878676,-53.72467109226231,-716.0006569680542,81.36376396175429,592.8328932975825,218.6406790543355
2.86,172.753846039212,62.034617991832285,-0.6830981354452761,-10.691512518031164,3.266536232716398,26.57931384263413,43.172884319063236,-52.579112086571534,-735.7307158078794,72.78807337846268,590.588549005183,229.36313236846846
2.87,172.81693726940455,62.43065819592131,-0.7946987739323352,-11.248138157497946,-2.1255898767883057,27.125577841957064,46.56775374404585,-51.26525207851808,-755.4921118811294,63.99441625992979,588.4998105755532,240.17199646450146
2.88,172.76459065787407,62.74543746493415,-0.004881860280488974,-11.372903525292777,-13.019740608253993,27.527385356036735,53.41463938313335,-48.638641752389354,-781.1067737782078,45.94828098526882,576.5324903008312,258.8949509548137
2.89,172.21491910253897,62.99099247576439,0.4366781570426778,-11.810216740474498,-23.586964096512585,28.225720710363408,60.45281358477588,-45.78499496223535,-791.3538735335089,27.24577426864059,556.961309875071,273.62293019113713
2.9,171.9505420100595,63.356498924131785,1.3668746397915779,-12.201066640494751,-34.215740087195485,28.282935178269796,66.97446577606947,-42.92506548106066,-787.0889414521906,8.356848597240834,530.3055421163424,285.4146185573594
2.91,171.4669554348559,63.504944021038156,1.9360627345628223,-12.951056149011409,-44.141284632145315,28.14772328963119,72.77590799626488,-40.129834118519604,-767.7325053475919,-10.193851417562286,497.212084611755,293.6117249070795
2.92,170.31657016774048,64.07393963927846,2.938131006027876,-12.970757674953633,-53.15590539119315,28.003769898472832,78.24554507445718,-37.07529820799864,-733.9266377260583,-28.62293326480685,457.22437739801455,298.54710167945376
2.93,168.1196039250698,64.57563296892744,4.761559100518747,-13.722632636709049,-68.23679306772699,26.63832775749664,87.0573810171791,-31.21343650894786,-626.3313041731885,-62.55782342913081,361.75515112515995,298.9160038023749
2.94,167.19796117120572,64.94773041634015,5.896683471743,-13.824580062477951,-73.80833613845793,25.435178381016485,90.53991281136707,-28.16116449213962,-556.1016724789288,-77.89828767312387,307.8617697278841,295.1485078727703
2.95,165.87528026704015,65.64723532977375,7.229389075761716,-14.22752196952405,-77.92764015347771,24.522623540240026,92.524348785029,-24.936620567965992,-476.23342275975153,-92.15872568049933,250.90590465408943,288.72564219600906
2.96,164.40571521255197,65.27683874565095,8.04744414132519,-14.632991320056654,-80.6027634017305,23.23227315580457,94.05537751434466,-22.148214038607215,-388.7556161728109,-104.9037489213751,191.7447844534977,279.94348982512736
2.97,163.62459361871748,65.45944003127786,9.175053846311261,-14.711108122843202,-82.00116132003286,21.316951707904863,94.89558314511729,-19.751391350445264,-295.8720710102364,-115.80404120867966,131.82397579665653,268.9460276440054
2.98,162.7853950033806,65.93338660254096,10.418838450608831,-15.130547218611378,-81.15257721755822,19.66156026603493,94.54996357963057,-16.921809445416567,-199.3530257584149,-125.66821694041188,71.68815501302491,256.9213962638166
2.99,161.52618212538135,65.93269700731624,11.251886888807466,-15.17818055778537,-79.93552617898305,17.780155579599082,93.55553753762307,-14.665784594893239,-101.20387960997392,-133.26337496147357,12.254258082148183,243.33839121479755
3.0,160.50084852173728,66.16416209578489,12.560037445363301,-15.214713659803396,-76.72766744298787,16.55198034297287,91.77707415488172,-12.145781036512648,-2.9095889806613897,-139.11048154102173,-45.76615259188042,228.41099182847753
3.01,159.87351789515856,66.21911536911023,12.997662885329099,-15.165369677752222,-74.71672584356213,15.408260299439842,90.61383685189134,-11.095417717764425,44.95944047228762,-141.5647514957275,-73.54015103505301,220.90408131538814
3.02,159.43639208298495,66.2963975199257,13.490243499216227,-15.436760898452574,-72.71564792995666,14.266664924750804,89.02674555167162,-10.005821086259884,93.12662610497762,-143.76766589538593,-101.33020463544062,213.13054514297497
3.03,158.7684560497848,66.32617288989665,14.62903003893984,-15.378841330592248,-67.85327809917108,12.781953550085714,85.94696761902433,-7.938206851300728,186.21343707926326,-146.81219821207267,-153.75469127110784,197.59271524444313
3.04,158.18221666775395,66.1305570810536,15.277728473886935,-15.10305780438775,-61.8137873253769,11.028436285120572,82.45668124536235,-5.953730536838726,274.22004099247715,-148.37521460467957,-202.74628626961882,181.70994034424623
3.05,157.78646122348556,66.41563988353498,16.36045158893469,-15.61011131946622,-55.33170045343528,9.258595245721583,78.45086501162908,-4.569315260645952,357.26923080589074,-148.82208333994825,-248.02842624784012,166.41080284044423
3.06,157.3550612597172,66.45976543441945,17.07514213315195,-15.241915332685315,-48.15081371193133,7.725312024135517,74.32922376428472,-2.734331090457883,433.3556148994727,-148.14523968118291,-288.9527693345232,151.2329832699449
3.07,157.46908027882736,66.48042861069126,17.611002997264805,-15.376029372395946,-40.95041956868633,6.124042336830352,69.93981938279381,-1.6112344023249319,502.4648567941777,-146.69933541901293,-325.62626804550683,136.73818906491667
3.08,157.48100205782865,66.51970742800317,18.456188138424995,-15.24195151478926,-33.82063806482864,4.823583164536649,65.58098291702495,-0.30257843597007805,564.2343791967484,-144.57356960172078,-358.00333661169867,123.16733704689025
3.09,157.50670895224926,66.60370512127285,18.67197614863818,-15.590608147742852,-26.62119062795712,3.450803888453994,61.1389901970606,0.7755382640694396,618.7076676016933,-142.0055833248243,-386.4514964536153,110.55084084865207
3.1,157.77212876668673,66.5197048544411,19.20983095084001,-15.522964141873995,-19.887696519088664,2.2721067077602863,56.96684469928631,1.8896664419788758,665.2757283273651,-138.89024075472182,-410.64775749334353,99.24071934598523
3.11,158.15372334911004,66.54022452791071,19.8184202373771,-15.07309985632191,-8.119514340719078,0.5394091621995553,49.3652560712968,3.0867892483472414,738.7388452601691,-132.40320287654012,-447.33942299599636,79.50716209956101
