0.01,-110.23,76.99,166.94,0.22,0.57,-0.14,1.02,0.27,0.9,-99.4,82.7,103.18,0.33,0.16,0.28,-0.09,0.23,0.11,-152.87,1.64,4.92,0.17,0.06,0.05,0.21,0.36,0.16,-128.33,9.28,8.0,-0.18,-0.02,-0.01,0.04,0.16,0.19
0.02,-109.77,76.07,167.1,0.35,0.7,-0.08,0.9,0.06,0.82,-99.45,82.59,104.73,0.24,0.08,0.04,0.25,0.35,0.07,-152.7,1.91,5.05,-0.08,0.25,-0.09,0.02,0.18,0.01,-128.13,9.05,7.9,-0.21,-0.05,0.02,-0.03,0.1,0.02
0.03,-108.77,74.5,168.18,0.13,0.82,0.12,0.98,0.42,0.54,-99.48,82.29,106.83,0.31,0.22,-0.01,0.52,0.52,0.14,-152.71,1.65,5.16,-0.02,-0.05,-0.02,0.18,0.25,-0.09,-128.35,9.09,7.88,-0.01,-0.2,0.09,0.08,0.38,-0.04
0.04,-108.67,73.71,168.9,0.13,1.08,0.03,0.95,0.54,0.44,-99.8,81.95,108.96,0.27,0.25,0.06,0.15,0.25,0.04,-152.64,1.91,5.01,0.15,-0.04,0.03,0.04,0.36,0.11,-128.23,9.09,7.73,-0.1,0.08,-0.03,-0.03,0.14,-0.2
0.05,-108.25,72.44,169.74,0.27,0.84,0.09,1.78,0.25,0.24,-99.98,81.95,111.57,0.18,0.47,0.18,0.17,0.46,0.0,-152.7,2.0,5.07,-0.06,0.22,0.06,0.52,0.18,0.25,-128.23,9.07,8.03,0.14,0.01,0.19,-0.03,0.02,0.25
0.06,-108.17,71.27,170.56,0.2,1.19,0.04,1.64,0.22,0.31,-99.98,81.69,115.54,0.09,0.51,0.04,0.99,0.13,0.43,-152.64,1.87,5.0,0.1,0.01,0.07,0.6,0.67,0.71,-128.35,9.12,7.96,-0.04,0.03,-0.07,0.16,0.16,0.14
0.07,-107.86,69.86,171.35,0.14,1.33,-0.06,1.48,-0.06,0.44,-99.95,81.23,120.11,-0.07,0.72,0.08,0.71,0.23,0.22,-152.56,1.77,4.71,0.19,0.06,-0.03,0.44,0.7,0.61,-128.46,9.14,8.02,-0.01,0.1,0.18,-0.06,0.01,0.1
0.08,-107.53,68.32,171.72,0.22,1.31,0.17,2.03,-0.02,0.41,-99.58,80.59,124.28,0.31,0.72,0.09,1.5,0.22,-0.08,-152.54,2.0,4.81,0.35,0.09,0.3,0.61,0.95,0.49,-128.33,9.17,7.88,-0.02,0.07,-0.1,-0.06,0.35,0.03
0.09,-107.22,66.64,172.2,0.27,1.58,0.04,2.18,0.4,0.38,-99.58,80.28,128.84,0.02,0.69,0.17,1.9,0.21,0.07,-152.26,2.14,4.41,0.29,0.13,0.2,0.53,0.71,0.39,-128.42,8.93,8.03,-0.07,0.05,0.16,-0.12,0.13,0.1
0.1,-106.6,65.0,172.56,0.28,1.78,0.03,1.92,0.39,0.24,-99.23,80.05,131.13,-0.03,0.96,0.03,2.08,0.4,0.08,-151.96,2.0,4.5,0.22,0.03,-0.0,0.92,0.86,-0.05,-128.16,8.92,7.82,0.06,-0.0,0.29,-0.07,0.15,0.14
0.11,-106.15,62.99,173.01,0.28,1.75,0.1,1.55,0.56,0.12,-99.01,78.13,131.06,-0.11,1.33,-0.07,1.62,0.24,0.12,-151.79,1.97,4.05,0.39,0.16,0.1,0.91,0.87,0.54,-128.22,8.95,7.9,0.04,0.14,0.04,0.16,0.02,0.18
0.12,-105.62,62.1,173.38,-0.08,1.69,0.04,0.92,0.42,0.22,-99.02,77.0,135.76,0.13,1.28,0.09,2.31,0.46,0.17,-151.46,2.15,3.57,0.34,-0.0,0.31,0.91,1.47,1.93,-128.24,8.89,8.03,-0.11,0.04,-0.1,0.17,0.16,0.33
0.13,-105.89,59.85,173.95,0.08,1.62,0.15,0.28,0.09,0.3,-98.76,75.57,139.73,-0.03,1.54,0.13,2.78,0.5,0.51,-151.31,2.24,3.31,0.29,0.06,0.38,0.85,1.87,1.99,-128.13,8.92,7.77,0.02,0.34,-0.11,0.49,0.11,0.24
0.14,-106.26,58.27,174.83,0.1,1.54,0.17,0.77,0.41,0.23,-98.73,74.25,143.48,0.1,1.73,0.22,2.39,0.24,0.56,-149.85,1.86,2.72,0.31,-0.05,0.63,0.68,1.16,2.42,-128.08,8.75,7.84,0.07,0.1,-0.06,0.74,0.33,0.78
0.15,-106.31,56.29,175.45,0.2,1.56,0.17,0.64,0.23,0.11,-98.79,72.29,146.79,-0.06,1.88,0.2,2.52,0.32,0.82,-149.28,1.81,2.36,0.21,0.09,0.76,0.74,0.81,2.24,-127.99,8.72,7.79,0.06,0.08,0.27,0.92,0.34,0.48
0.16,-106.36,55.64,175.5,0.12,1.46,-0.06,0.63,0.21,0.55,-98.64,71.36,148.14,0.1,1.97,-0.06,2.84,0.4,0.81,-148.99,2.0,2.27,0.34,0.21,0.48,0.56,0.8,2.35,-127.87,8.7,7.77,0.07,0.02,0.14,1.08,0.18,0.47
0.17,-106.46,54.68,175.91,0.09,1.25,0.08,0.17,0.15,0.77,-98.76,70.42,149.7,0.11,2.08,0.22,3.44,0.64,0.44,-148.78,2.03,2.06,0.36,0.15,0.42,0.6,0.58,2.27,-127.97,8.68,7.73,0.02,-0.14,0.25,1.03,0.2,0.33
0.18,-106.78,53.19,176.49,-0.07,1.39,0.22,1.04,0.39,2.26,-98.61,68.27,152.23,0.13,1.87,0.14,3.76,0.92,0.89,-148.0,2.25,1.91,0.38,0.03,0.29,0.77,0.52,2.46,-127.53,8.66,7.83,0.0,0.03,0.05,1.04,0.43,0.25
0.19,-106.92,51.43,176.7,0.27,1.57,0.42,0.63,0.13,1.8,-98.65,65.97,154.02,0.32,2.21,0.17,2.81,0.83,0.96,-147.89,2.33,1.41,0.36,0.01,0.16,0.72,0.8,2.71,-127.68,8.65,7.8,0.09,0.01,0.14,1.32,0.18,0.45
0.2,-106.01,50.02,176.63,0.14,1.85,0.18,1.92,0.83,0.14,-98.8,63.59,156.16,0.31,2.63,0.01,2.03,0.61,0.4,-147.2,2.39,0.92,0.43,0.25,0.38,0.8,0.8,3.34,-127.65,8.58,7.84,-0.0,-0.19,-0.07,1.18,0.28,1.85
0.21,-105.37,48.23,176.4,0.31,1.63,-0.05,1.35,0.8,0.79,-98.8,61.08,157.75,0.34,2.5,-0.11,2.84,0.03,0.21,-146.6,2.36,0.53,0.45,0.25,0.66,0.91,0.66,3.97,-127.58,8.63,7.89,-0.01,0.14,-0.03,1.3,0.25,1.89
0.22,-104.96,46.55,176.6,0.22,1.32,0.28,0.38,-0.04,2.02,-98.96,58.41,159.0,0.4,2.27,0.07,2.63,0.34,0.15,-145.19,2.6,0.5,0.62,0.14,0.62,0.69,0.6,4.28,-127.33,8.52,7.64,0.16,0.16,0.27,1.11,0.59,2.26
0.23,-104.46,45.07,176.65,0.18,1.5,0.02,0.3,0.09,2.21,-98.96,55.53,160.29,0.26,2.86,0.19,1.7,0.25,0.96,-144.51,2.76,0.67,0.46,-0.0,0.58,0.56,0.28,4.14,-126.95,8.63,7.56,0.32,0.11,0.45,0.75,0.55,2.24
0.24,-104.41,43.26,176.44,0.09,1.7,0.04,0.02,0.13,1.13,-98.92,52.26,161.22,0.35,2.8,0.11,0.5,0.81,0.25,-143.61,2.77,1.23,0.33,-0.14,0.63,0.36,0.35,3.7,-126.78,8.51,7.36,0.25,0.21,0.48,0.96,0.37,2.3
0.25,-104.28,40.92,176.34,0.28,2.24,-0.04,0.31,0.25,1.14,-98.99,49.65,162.38,0.35,2.47,0.14,0.98,0.55,0.52,-142.84,3.0,1.52,0.18,0.4,0.68,0.21,0.6,3.01,-126.1,8.55,7.0,0.38,0.03,0.67,0.31,0.27,2.62
0.26,-104.45,38.4,176.97,0.11,2.01,0.26,1.3,0.68,0.99,-99.1,46.79,162.76,0.08,2.46,-0.0,1.27,0.07,0.32,-142.03,3.27,1.68,0.12,0.23,0.85,0.25,0.83,2.24,-125.53,8.33,6.74,0.55,0.13,0.55,0.43,0.36,2.38
0.27,-104.19,36.56,177.21,0.17,1.95,0.23,2.52,0.41,0.21,-98.88,44.16,163.22,-0.02,2.38,-0.0,0.15,0.51,0.42,-141.06,3.23,1.85,0.07,0.09,0.83,0.48,0.34,2.29,-124.84,8.54,6.3,0.18,0.08,0.36,0.27,-0.01,2.58
0.28,-104.53,34.65,177.15,0.17,2.02,0.15,3.16,0.05,0.25,-98.68,42.89,163.71,-0.11,2.63,0.18,0.72,-0.17,0.52,-139.97,3.23,2.07,0.12,-0.03,0.91,0.48,0.18,1.95,-124.53,8.42,5.78,0.27,0.1,0.21,0.25,-0.03,2.59
0.29,-104.6,32.57,177.21,0.16,1.71,0.16,1.2,0.48,1.06,-98.33,40.14,163.92,0.17,2.45,0.23,0.43,0.0,0.94,-138.83,3.36,1.95,0.16,0.09,0.93,0.81,0.13,0.91,-124.55,8.47,5.84,0.29,-0.06,0.23,0.2,0.15,3.01
0.3,-104.79,31.11,177.37,0.12,1.05,0.02,0.66,0.68,0.27,-97.77,35.36,164.25,0.17,2.11,0.4,0.96,0.09,0.76,-138.21,2.98,2.01,0.03,0.19,0.59,0.78,0.15,0.58,-124.26,8.31,5.42,0.24,0.12,0.1,0.26,0.15,3.93
0.31,-104.98,29.8,177.21,-0.14,1.24,-0.04,1.66,0.63,0.86,-97.6,32.83,164.29,0.03,2.19,0.12,0.26,0.47,1.18,-137.33,2.69,1.48,0.13,0.16,0.53,0.75,0.14,0.78,-123.56,8.24,4.81,0.21,0.13,0.31,0.06,0.18,4.48
0.32,-104.91,29.0,177.44,0.15,1.4,-0.0,2.1,0.42,0.51,-97.23,30.44,164.83,0.09,2.04,0.08,0.25,0.75,0.88,-137.02,2.76,1.64,0.23,0.1,0.69,0.69,0.19,0.23,-123.52,8.09,4.76,0.02,-0.01,0.21,-0.02,-0.04,4.45
0.33,-104.99,27.92,177.32,0.32,1.6,-0.2,2.56,0.4,0.43,-97.21,28.16,165.09,0.15,2.24,-0.03,0.79,0.46,0.77,-136.6,2.67,1.21,0.31,0.37,0.79,0.86,0.17,0.24,-123.36,8.15,4.6,0.29,0.16,0.4,0.2,0.06,4.11
0.34,-105.09,27.14,177.71,0.4,1.62,0.19,2.03,0.25,0.34,-97.19,25.85,165.28,0.06,1.93,-0.08,1.05,0.5,2.32,-134.87,2.2,0.69,0.3,-0.0,0.63,1.04,0.15,0.3,-122.1,7.98,3.97,0.23,0.19,0.77,0.27,0.03,3.25
0.35,-105.57,25.46,177.87,-0.0,1.22,0.2,2.42,0.04,0.29,-97.04,23.64,165.52,0.16,1.85,0.16,1.37,-0.04,1.47,-134.43,2.36,0.25,0.34,0.15,0.74,0.51,0.24,0.85,-121.34,7.9,3.43,0.15,0.26,0.62,0.17,0.58,2.72
0.36,-105.52,24.18,178.09,0.42,1.15,0.1,2.27,0.57,1.45,-97.12,21.5,165.69,-0.01,1.88,0.05,1.27,0.39,0.65,-133.53,1.87,0.32,0.52,0.49,0.6,0.73,1.03,1.77,-120.63,7.56,3.31,0.33,0.24,0.79,0.06,0.38,1.88
0.37,-105.58,22.86,177.77,0.16,1.36,0.12,1.59,1.34,1.33,-96.91,19.48,165.92,0.14,2.01,0.05,1.51,0.2,1.38,-132.69,1.49,0.92,0.57,0.26,0.88,1.09,0.25,2.42,-119.42,7.19,2.65,0.37,0.34,0.76,0.12,0.29,1.77
0.38,-105.69,21.83,177.84,-0.03,0.95,0.03,1.37,0.93,0.97,-97.28,17.64,166.24,0.39,1.9,0.03,0.93,0.73,2.99,-131.41,1.2,1.7,0.58,0.35,0.95,0.72,1.01,2.73,-118.75,7.07,2.43,0.18,0.25,1.0,0.05,-0.06,1.52
0.39,-105.52,20.61,177.92,0.19,0.96,0.08,1.56,0.45,1.15,-97.13,15.89,166.5,0.12,1.33,0.04,1.15,0.19,2.15,-130.52,0.59,2.33,0.68,0.43,0.43,1.34,0.32,3.08,-118.34,6.76,2.08,0.16,0.21,0.22,-0.01,1.11,0.35
0.4,-105.97,19.61,177.83,0.25,1.07,0.07,1.49,0.51,1.07,-96.8,14.15,166.68,0.17,1.44,0.04,1.5,0.24,1.96,-130.15,0.3,3.07,0.93,0.14,0.47,1.5,-0.01,2.95,-118.11,6.84,1.56,0.26,0.21,0.35,0.1,0.98,0.52
0.41,-105.8,18.53,177.46,0.1,0.86,0.11,1.42,0.15,0.53,-97.03,12.41,166.92,0.03,1.4,-0.05,1.23,0.72,2.73,-129.48,0.43,3.83,0.78,0.17,0.8,1.06,0.81,3.92,-117.16,6.94,1.42,0.22,0.14,0.13,0.11,0.66,0.21
0.42,-105.87,17.69,177.68,0.2,0.57,-0.01,1.01,0.22,0.56,-96.91,10.83,167.24,0.19,1.39,0.04,0.92,0.35,2.39,-128.67,0.38,4.58,0.49,0.22,0.62,0.92,0.56,4.36,-116.6,7.07,1.34,-0.15,0.12,0.26,-0.06,0.79,0.75
0.43,-106.07,17.0,177.62,0.14,0.57,0.05,0.56,0.53,0.26,-97.05,9.55,167.54,0.3,1.33,0.07,1.14,0.15,1.66,-128.35,0.53,5.32,0.65,0.27,0.34,1.07,0.53,3.71,-116.31,7.24,1.35,0.15,0.32,0.33,0.54,0.69,0.56
0.44,-105.86,16.48,178.02,0.09,0.33,0.04,0.27,0.26,0.06,-96.75,8.23,167.68,0.01,0.96,-0.13,0.16,0.71,2.56,-128.16,0.8,6.0,0.56,0.24,0.32,0.96,0.79,3.06,-115.9,7.4,1.48,0.15,0.32,0.3,0.37,0.76,0.41
0.45,-106.03,15.93,177.9,0.17,0.48,-0.02,1.03,1.07,0.4,-96.81,7.34,167.98,0.27,1.0,-0.03,0.13,0.53,2.4,-127.98,1.0,6.49,0.39,0.07,0.11,0.88,0.91,2.65,-115.62,7.91,1.38,0.19,0.22,0.4,0.29,0.96,1.1
0.46,-105.71,15.33,178.02,-0.03,0.45,0.31,1.36,0.73,1.05,-96.74,6.51,168.17,0.06,0.75,0.09,0.25,0.57,1.89,-127.53,1.29,6.9,0.3,0.05,0.16,0.99,0.88,2.49,-115.1,7.93,1.71,0.26,0.17,0.47,0.16,0.57,2.37
0.47,-105.92,15.11,178.24,0.11,0.01,0.11,1.07,0.23,0.24,-96.57,5.92,168.3,-0.04,0.32,0.06,0.84,0.24,0.4,-127.52,1.5,7.13,0.2,0.19,0.02,0.89,0.19,2.67,-114.55,8.58,1.52,0.05,0.24,0.55,0.18,0.51,2.62
0.48,-106.32,15.22,177.98,0.0,0.06,-0.03,0.57,0.38,0.2,-96.52,5.61,168.35,0.31,0.35,-0.13,0.77,0.54,0.67,-127.68,1.6,7.29,0.36,0.06,-0.09,0.9,0.75,2.53,-114.41,8.5,1.62,0.08,0.12,0.62,0.33,0.71,2.68
0.49,-106.14,15.36,178.11,0.2,0.15,0.01,0.18,0.56,0.17,-96.49,5.6,168.3,0.12,0.51,0.28,0.46,0.53,0.9,-127.72,1.48,7.67,0.38,0.13,0.09,0.72,1.07,2.31,-114.09,8.86,1.4,0.07,0.3,0.49,0.47,0.6,2.79
0.5,-105.97,15.55,177.9,0.05,0.02,0.1,0.32,0.41,0.51,-96.28,5.11,168.73,0.34,0.11,-0.08,0.31,0.78,1.78,-127.8,1.57,7.73,0.11,0.18,0.12,0.36,1.24,2.06,-113.49,8.84,1.6,0.36,0.07,0.17,0.32,0.05,3.32
0.51,-106.37,15.54,177.91,-0.01,0.05,-0.09,0.57,0.75,0.41,-96.26,5.13,168.54,0.09,0.12,0.24,0.66,0.77,1.83,-128.1,1.86,7.74,0.11,0.35,0.43,0.12,1.0,1.96,-113.74,8.99,1.82,0.22,0.29,0.15,0.8,-0.04,3.77
0.52,-106.33,15.33,177.94,0.06,0.26,0.11,0.97,0.58,0.79,-96.16,4.95,168.74,0.18,0.08,0.11,0.11,-0.07,1.04,-128.48,2.05,8.05,0.04,0.19,0.65,0.32,0.87,2.23,-113.6,9.42,1.9,0.25,0.17,0.41,0.7,0.05,4.02
0.53,-106.63,15.28,177.82,0.03,0.18,-0.08,1.37,0.28,1.42,-96.04,4.72,168.65,0.07,0.11,0.02,0.54,0.68,0.39,-129.34,2.33,8.22,0.11,0.4,0.58,0.33,0.5,1.81,-113.28,9.62,2.17,0.39,0.19,0.25,0.38,1.02,4.14
0.54,-106.84,15.28,177.87,0.16,-0.07,-0.06,1.97,0.4,0.15,-95.97,4.45,168.53,0.0,0.13,0.26,0.94,0.34,0.1,-129.58,2.74,8.01,0.18,0.48,0.48,1.01,1.05,1.5,-113.12,9.94,2.16,0.44,0.32,0.08,0.72,0.49,3.32
0.55,-106.81,15.47,177.98,-0.04,0.43,0.1,1.61,0.31,0.19,-96.12,4.77,168.67,-0.1,0.18,0.2,0.45,0.7,0.76,-129.92,3.12,8.24,0.15,0.81,0.55,1.53,0.64,1.86,-113.25,10.22,2.66,0.26,0.36,0.48,1.01,0.41,2.95
0.56,-106.93,15.94,178.19,0.28,0.61,0.06,1.52,1.47,1.36,-96.02,5.06,168.68,-0.13,0.37,0.2,0.52,0.82,2.11,-130.88,3.78,8.52,-0.07,0.28,0.34,0.79,0.1,0.9,-113.66,10.41,3.21,0.55,0.24,0.23,1.35,0.7,2.48
0.57,-107.65,17.09,177.78,0.04,0.5,0.26,1.99,0.81,0.16,-96.2,5.56,168.86,0.12,0.41,0.2,0.16,-0.11,1.14,-131.37,3.81,8.5,-0.08,0.11,0.03,2.51,2.61,0.8,-113.75,10.73,3.92,0.25,0.26,0.03,1.2,1.64,2.78
0.58,-107.57,18.0,177.56,0.23,0.97,0.16,1.32,0.9,1.23,-96.21,5.9,168.39,0.25,0.21,-0.09,-0.23,0.66,1.22,-131.28,3.9,8.59,0.11,0.12,0.24,1.89,0.72,2.09,-113.63,11.02,4.16,0.2,0.34,0.05,0.92,1.61,2.58
0.59,-107.37,19.69,177.23,-0.06,0.78,0.1,1.84,0.03,0.23,-96.18,5.9,168.51,0.2,0.1,0.04,1.41,0.37,2.18,-130.88,3.75,8.25,0.15,0.18,0.32,0.69,3.88,5.39,-114.05,11.11,4.3,0.01,0.14,0.25,0.2,2.17,2.29
0.6,-107.58,20.86,177.22,0.03,1.02,0.22,1.73,-0.07,0.79,-96.15,6.32,168.5,0.21,0.25,0.08,1.35,0.75,2.69,-131.2,3.48,8.17,0.24,0.24,1.08,1.22,5.43,5.99,-114.93,11.39,4.63,0.04,0.09,0.28,0.14,0.44,1.94
0.61,-108.01,22.28,176.84,0.53,1.29,-0.04,1.55,0.06,1.2,-96.13,7.48,168.95,0.15,0.72,-0.08,0.7,0.11,1.9,-132.64,3.63,8.09,0.51,0.32,1.27,0.65,2.27,4.8,-115.54,11.32,4.98,-0.03,0.05,0.19,1.53,0.53,2.41
0.62,-108.0,23.79,176.26,0.15,1.21,0.07,1.19,0.22,0.74,-95.99,8.18,169.02,-0.13,0.72,0.1,1.09,0.16,1.52,-134.32,3.92,7.75,0.78,0.33,1.19,0.67,1.24,3.58,-116.63,11.31,5.01,-0.04,0.24,0.15,1.33,1.39,1.4
0.63,-108.38,25.19,176.28,0.33,1.45,0.3,0.76,0.82,0.79,-96.29,9.69,169.12,-0.1,0.88,0.02,0.74,0.08,2.16,-134.97,4.16,5.74,0.98,0.28,0.26,0.56,1.37,2.99,-116.6,11.57,4.81,0.31,0.03,0.63,-0.06,1.84,1.14
0.64,-108.6,26.12,176.24,-0.11,1.65,0.04,0.83,0.45,0.81,-96.46,10.43,169.13,0.19,0.89,0.14,0.59,0.37,2.11,-134.54,4.09,4.95,0.98,0.4,0.87,0.64,1.09,3.0,-116.97,11.58,4.52,0.21,0.06,0.47,0.22,2.73,1.3
0.65,-108.82,26.91,176.23,0.07,1.61,0.1,0.25,0.12,0.28,-96.28,10.9,169.21,0.04,0.97,-0.06,0.68,0.57,1.83,-134.17,3.98,4.51,1.15,0.39,0.89,1.3,1.21,2.82,-117.2,11.49,4.5,0.1,0.29,0.5,0.31,3.85,1.5
0.66,-108.71,28.54,175.93,0.45,1.53,0.08,0.91,0.47,0.39,-96.35,11.94,169.05,0.39,0.91,0.31,0.23,0.69,1.94,-132.98,3.7,3.31,1.08,0.27,0.87,0.84,0.4,2.69,-117.64,11.47,4.88,0.25,0.14,0.04,1.26,2.72,2.19
0.67,-109.12,31.67,175.35,-0.11,1.63,0.24,1.99,0.4,0.44,-96.26,13.01,168.95,0.08,1.04,-0.04,0.69,0.53,1.48,-132.11,3.13,1.76,1.3,0.41,0.76,0.17,1.48,3.42,-117.09,11.34,4.99,0.27,0.14,0.25,0.15,1.3,4.87
0.68,-109.17,33.69,174.73,0.33,1.9,0.11,0.31,0.1,0.89,-96.19,14.42,169.01,-0.03,1.25,-0.04,1.28,0.15,0.32,-132.03,2.86,0.41,1.2,0.49,0.74,-0.1,2.67,3.77,-116.51,11.91,5.62,0.34,0.8,0.51,0.22,4.83,5.19
0.69,-109.38,38.71,173.85,0.08,1.72,-0.06,1.41,0.05,1.25,-96.49,15.92,168.5,0.23,1.43,0.21,1.12,0.37,0.6,-132.4,2.86,0.24,1.02,0.29,0.64,0.14,2.25,2.91,-116.22,12.63,5.71,0.45,0.54,0.22,0.65,5.05,5.08
0.7,-109.59,39.91,173.43,0.07,2.19,0.1,0.78,0.28,0.48,-96.49,17.29,168.58,0.13,1.51,0.07,0.51,-0.02,1.48,-133.18,3.14,1.34,1.08,0.38,0.69,0.21,1.25,1.99,-116.59,13.24,6.44,0.58,0.46,0.45,1.93,1.93,4.78
0.71,-109.69,42.11,173.13,0.39,1.85,-0.17,1.36,0.48,0.59,-96.35,18.51,168.51,0.11,1.62,-0.14,-0.06,0.13,1.63,-133.8,3.11,2.29,0.63,0.23,0.61,0.3,1.17,1.63,-117.1,13.47,6.99,0.56,0.36,0.13,0.05,0.37,3.42
0.72,-109.52,44.19,172.64,0.35,1.87,0.12,1.67,0.63,1.22,-96.52,20.33,168.14,0.43,1.6,0.05,-0.01,0.1,0.46,-134.44,3.5,3.35,0.91,0.19,0.42,0.2,0.68,1.3,-117.02,13.78,7.28,0.29,0.29,0.03,1.24,1.22,3.47
0.73,-109.53,46.68,171.61,0.54,2.43,-0.14,0.86,0.35,1.11,-96.62,23.73,167.79,0.38,1.7,-0.01,0.86,0.17,0.07,-134.62,3.81,4.45,0.81,0.34,0.24,0.47,0.07,1.0,-116.15,14.74,7.88,0.66,0.15,0.86,0.25,1.28,3.51
0.74,-109.55,49.43,171.06,0.22,2.36,-0.07,0.46,0.19,1.49,-96.48,25.51,167.32,0.35,1.72,-0.04,0.81,0.28,0.5,-135.26,4.17,5.47,0.99,0.18,0.25,0.08,0.73,1.67,-114.77,15.16,8.23,0.56,0.29,1.26,0.57,0.31,4.09
0.75,-109.77,51.85,170.49,0.2,2.51,0.22,0.69,0.16,1.09,-96.71,27.77,167.28,0.2,1.95,0.07,0.64,0.46,-0.05,-135.08,4.24,6.4,0.73,0.15,0.25,0.48,0.38,0.17,-113.49,15.75,8.81,0.78,0.52,1.18,1.51,1.35,4.11
0.76,-110.58,54.3,169.9,0.14,2.46,0.19,0.09,0.85,0.8,-96.56,29.89,166.69,0.12,1.94,0.1,0.34,0.36,0.54,-135.49,4.31,7.38,0.96,0.22,0.26,0.31,0.38,0.64,-112.58,16.68,9.1,0.62,0.64,0.85,1.4,1.17,3.24
0.77,-110.94,57.05,169.44,0.24,2.17,0.2,0.4,1.3,1.38,-96.56,32.17,166.59,0.3,2.13,0.03,0.34,0.01,0.62,-135.71,4.98,8.17,0.72,0.46,0.39,0.82,0.04,0.74,-112.11,17.19,9.94,0.78,0.74,0.28,1.06,2.1,2.26
0.78,-111.02,59.67,168.73,0.42,2.25,0.11,0.35,0.54,1.97,-96.37,34.33,166.2,0.38,2.22,-0.01,0.19,0.5,0.32,-136.17,5.4,8.55,0.37,0.39,0.47,0.91,0.67,0.11,-111.99,17.93,10.72,0.91,0.73,0.53,0.75,1.5,1.82
0.79,-111.27,62.0,167.69,0.24,2.08,0.13,0.78,0.22,0.87,-96.57,36.71,165.75,0.38,1.91,0.07,0.91,0.39,1.24,-137.02,6.28,8.95,0.24,0.73,0.79,0.59,1.19,0.48,-111.09,18.9,11.55,0.85,0.86,0.55,0.58,0.26,1.72
0.8,-111.29,63.34,166.99,0.46,2.18,0.15,1.04,0.47,0.87,-96.48,37.77,165.62,0.24,2.05,0.0,0.75,0.38,1.16,-137.2,6.54,9.12,0.27,1.02,0.71,0.35,0.92,0.5,-110.85,19.47,11.97,0.77,0.72,0.68,0.83,0.22,1.6
0.81,-111.02,64.36,166.48,0.44,1.86,0.08,1.3,0.15,0.87,-96.55,38.86,165.24,0.1,1.92,-0.11,0.67,0.77,0.96,-137.45,6.92,9.37,0.2,0.81,0.9,0.39,0.79,0.57,-110.14,20.12,12.33,0.87,0.98,0.64,0.66,0.26,1.36
0.82,-111.28,66.56,165.53,0.09,1.82,0.15,1.71,0.24,0.82,-96.58,41.41,164.68,0.17,2.35,0.08,0.23,0.34,0.3,-138.12,8.04,9.4,0.25,0.98,0.85,-0.02,0.93,0.17,-109.52,21.24,13.19,0.93,0.91,0.77,0.28,0.16,1.1
0.83,-111.64,68.82,164.75,-0.05,1.82,0.33,1.49,0.04,0.43,-96.56,44.3,164.31,0.19,2.49,-0.04,0.77,0.3,0.16,-138.76,9.32,9.66,0.35,0.99,0.61,0.69,0.96,0.47,-108.86,22.35,13.93,0.68,0.79,0.46,0.05,1.16,1.37
0.84,-112.18,70.86,164.08,0.14,1.58,0.22,0.72,0.34,0.15,-96.52,46.95,164.2,0.47,2.45,0.14,1.21,0.32,0.68,-139.39,10.32,9.97,0.08,0.63,0.9,1.13,1.1,0.36,-107.34,24.94,15.84,1.1,0.95,0.71,1.04,1.0,0.42
0.85,-112.96,72.35,163.73,0.1,1.31,0.21,0.8,0.82,0.2,-95.79,49.69,164.3,0.47,2.49,0.11,1.33,0.22,0.59,-140.16,11.17,9.98,0.11,0.63,0.59,0.9,1.04,0.65,-106.53,26.41,17.19,0.87,1.62,0.53,0.93,1.06,0.43
0.86,-113.39,73.69,162.8,0.02,1.36,0.06,1.37,0.79,0.05,-96.01,52.27,164.25,0.33,2.47,0.16,1.34,0.17,0.59,-141.06,12.33,9.7,0.07,0.97,0.63,1.28,0.3,1.93,-106.05,27.92,17.82,0.9,1.39,0.52,0.49,0.34,1.14
0.87,-113.69,75.34,161.52,0.18,0.97,-0.03,1.15,0.31,0.01,-96.0,55.23,164.2,0.24,2.48,0.18,1.54,0.25,0.85,-142.65,14.96,8.87,0.38,1.24,1.06,0.89,0.63,2.54,-105.74,29.86,19.04,0.8,1.76,0.21,0.09,0.26,0.27
0.88,-113.97,76.39,160.24,0.04,1.0,0.13,0.91,0.68,0.07,-96.09,57.81,164.18,0.22,2.54,0.25,1.81,0.09,0.62,-143.98,16.44,7.91,0.47,1.24,1.32,1.55,1.35,2.28,-104.94,31.58,20.15,0.87,1.59,0.75,0.34,0.53,0.79
0.89,-114.47,77.38,159.33,0.05,1.1,-0.17,1.38,1.07,0.2,-96.4,60.46,164.25,0.31,2.34,0.15,2.33,0.36,0.59,-145.25,17.71,6.89,0.48,0.83,1.26,2.11,1.86,2.77,-104.16,33.53,20.82,0.8,1.5,0.53,-0.03,0.26,0.39
0.9,-114.67,78.73,158.1,-0.01,0.97,0.13,0.28,1.3,0.24,-96.3,61.8,164.28,0.24,2.33,0.06,2.34,0.09,0.5,-146.42,19.11,5.63,0.97,1.19,1.43,1.83,2.09,2.7,-103.17,35.47,21.66,0.62,1.78,0.58,-0.01,1.62,0.54
0.91,-114.63,79.3,157.49,0.13,0.59,0.05,0.5,0.99,0.1,-96.35,64.44,164.3,0.18,2.19,0.14,2.02,0.09,0.81,-147.93,20.35,4.26,1.06,1.08,1.48,1.53,1.81,3.07,-102.91,37.41,22.74,0.6,1.82,0.21,-0.04,1.52,0.64
0.92,-115.19,80.16,156.95,-0.03,0.7,0.1,0.59,0.16,0.1,-96.47,68.92,164.34,0.29,1.89,-0.06,1.54,0.89,0.22,-149.43,21.82,1.76,1.4,1.26,1.88,1.29,1.84,3.37,-102.4,39.79,23.9,0.92,1.93,0.6,0.31,1.67,0.82
0.93,-115.49,80.66,156.12,0.11,0.68,0.24,1.46,0.06,0.27,-96.66,70.85,164.34,0.03,1.95,0.02,1.68,1.08,0.43,-151.12,23.01,0.79,1.65,1.12,1.82,1.45,1.97,2.8,-101.87,44.6,26.83,1.06,2.18,0.59,1.34,0.12,1.07
0.94,-115.45,81.16,155.5,0.18,0.47,0.11,1.13,0.11,0.18,-96.58,72.98,164.28,0.31,1.64,-0.03,1.53,0.66,0.56,-152.69,24.08,3.61,1.78,1.26,1.74,0.89,1.98,2.43,-100.85,47.16,28.35,0.94,2.5,0.61,1.59,0.33,1.1
0.95,-115.39,81.36,155.55,-0.01,0.1,-0.02,0.45,0.2,0.14,-96.46,74.6,164.26,0.31,1.74,-0.0,1.3,0.84,0.45,-154.36,25.18,6.43,1.49,1.12,1.97,1.6,2.76,2.48,-100.19,50.15,30.11,1.01,2.64,0.73,1.49,0.17,1.71
0.96,-114.97,81.25,155.31,0.14,0.05,0.1,0.21,0.63,0.11,-96.33,75.5,164.0,0.28,1.7,-0.05,1.29,0.67,0.19,-155.08,25.54,8.49,2.0,1.16,1.62,1.45,3.08,2.41,-100.29,51.45,31.6,0.91,2.9,0.49,1.05,0.81,1.71
0.97,-115.04,81.44,155.43,0.27,-0.12,0.11,0.24,0.92,-0.03,-96.6,76.25,164.14,0.17,1.47,-0.14,0.98,0.56,0.27,-155.86,26.07,9.92,1.95,1.04,1.56,1.22,2.97,2.3,-99.96,53.03,32.71,0.94,2.81,0.47,0.99,1.4,1.81
0.98,-114.81,81.43,154.62,0.34,-0.03,0.05,0.89,1.33,0.19,-96.32,77.91,164.31,0.17,1.36,-0.01,0.85,0.16,0.28,-157.12,27.0,13.49,2.53,1.02,1.59,0.23,3.78,0.9,-99.53,56.12,35.67,0.95,3.18,0.56,1.03,1.52,1.23
0.99,-113.88,81.51,153.78,0.6,-0.13,0.09,0.7,0.94,0.42,-95.92,79.27,164.18,0.29,1.18,0.16,0.78,-0.03,0.16,-158.63,27.48,17.65,2.56,1.15,1.8,0.17,1.32,0.05,-98.93,59.37,39.83,1.32,3.23,0.66,1.89,0.31,1.74
1.0,-113.25,81.44,153.33,0.25,0.28,-0.04,0.04,0.27,0.16,-95.9,80.58,164.33,0.19,1.16,-0.1,1.25,0.48,0.21,-159.54,28.17,21.72,2.8,1.39,1.56,0.17,1.42,0.39,-98.31,62.72,39.7,1.16,3.68,0.49,3.12,1.44,2.36
1.01,-112.92,81.3,153.77,0.25,0.21,0.13,0.62,0.75,0.01,-95.54,81.69,164.32,0.47,1.36,0.05,1.29,0.6,0.22,-160.96,28.88,26.05,3.04,1.43,1.49,0.6,2.64,0.24,-98.22,65.43,46.48,1.07,3.59,0.16,3.16,0.77,1.94
1.02,-112.72,81.11,154.63,0.17,0.16,0.22,0.77,0.75,0.6,-95.48,83.4,164.54,0.32,1.11,0.12,0.88,-0.01,0.53,-161.74,29.73,30.86,2.99,1.49,1.16,0.71,3.05,0.09,-98.01,67.79,54.56,1.3,3.41,0.3,2.46,0.46,1.76
1.03,-112.66,81.32,155.05,0.47,0.08,0.03,0.17,1.19,0.69,-95.11,83.96,164.55,0.45,0.88,0.0,0.45,0.02,0.7,-162.06,30.46,35.08,3.01,1.38,1.06,1.55,3.36,0.39,-97.56,69.36,65.05,1.01,3.41,0.11,0.53,0.35,1.62
1.04,-112.02,81.33,154.15,0.64,0.05,0.06,-0.03,0.74,0.72,-94.31,84.43,164.66,0.36,0.91,0.03,1.1,-0.12,0.21,-162.0,31.01,39.54,3.15,1.31,0.66,1.94,1.17,2.16,-97.17,70.96,77.37,1.03,3.77,0.42,0.55,0.22,2.38
1.05,-111.12,81.15,153.55,0.6,0.01,-0.02,0.14,0.05,0.56,-94.04,84.67,164.87,0.54,0.85,0.26,1.07,0.31,0.25,-162.29,31.96,43.91,2.93,1.55,0.48,1.74,0.75,2.19,-97.36,71.13,90.64,1.21,4.01,-0.0,1.12,0.14,0.82
1.06,-110.74,81.55,153.79,0.26,-0.07,-0.01,0.29,0.09,0.19,-93.94,84.66,165.08,0.37,0.21,-0.06,0.54,0.23,-0.0,-162.31,32.85,48.21,3.1,1.6,0.41,1.65,0.67,1.17,-97.24,70.14,103.52,1.29,3.4,0.02,1.13,0.29,1.68
1.07,-110.71,81.45,154.38,0.36,0.04,0.04,0.21,0.63,0.27,-93.5,84.58,165.2,0.38,0.38,-0.02,0.36,0.88,0.86,-162.29,33.93,52.47,2.72,1.58,0.25,1.17,-0.01,1.78,-96.99,68.97,114.77,1.25,3.23,0.48,0.53,0.65,2.06
1.08,-110.56,81.43,155.1,0.08,-0.13,0.18,0.06,0.67,0.41,-93.61,84.37,164.95,0.29,0.47,-0.03,0.75,0.28,0.51,-160.62,37.05,52.36,2.72,1.83,0.58,0.6,0.61,1.56,-96.4,67.23,124.1,1.07,3.19,0.44,0.67,0.21,1.63
1.09,-110.49,81.56,156.0,0.23,0.07,0.16,0.05,0.89,0.53,-93.59,84.37,165.12,0.06,0.59,0.03,0.32,0.58,0.76,-159.53,38.9,56.14,2.39,2.37,1.11,0.73,0.35,1.81,-96.27,65.15,131.58,0.99,3.09,0.48,0.81,0.21,1.36
1.1,-110.81,81.54,157.18,0.1,0.05,0.32,0.1,1.37,-0.17,-93.35,84.23,165.27,0.01,0.57,0.23,0.02,0.51,0.08,-157.93,41.25,59.88,2.26,1.7,1.23,2.06,0.58,1.46,-95.56,63.07,137.94,0.85,2.78,0.84,0.27,0.57,0.8
1.11,-111.1,81.41,158.68,0.18,0.02,0.24,0.31,1.48,0.69,-93.56,83.87,165.15,0.04,0.77,0.04,0.45,0.77,1.28,-156.71,42.8,63.95,2.41,1.79,0.69,0.2,0.35,1.77,-94.69,61.14,143.05,0.83,2.35,0.73,0.51,0.81,0.86
1.12,-111.39,81.4,159.4,0.31,0.09,0.09,0.55,1.5,1.2,-93.46,83.78,165.5,-0.01,0.57,0.04,0.6,0.77,0.87,-156.78,43.06,64.83,2.34,1.7,0.96,0.94,0.92,1.87,-94.58,59.66,145.72,0.9,2.5,0.52,0.35,0.65,1.18
1.13,-111.62,81.53,160.38,0.24,0.21,0.37,0.85,1.39,1.31,-93.54,83.6,165.33,0.15,0.62,0.04,0.79,0.95,0.31,-156.57,43.5,66.07,2.35,2.01,1.27,1.69,1.63,1.95,-94.06,58.33,148.45,0.74,1.76,0.65,0.04,0.35,1.32
1.14,-111.89,81.2,162.18,0.14,0.21,0.17,0.11,1.05,1.54,-93.31,83.18,165.23,0.03,0.29,0.06,0.73,1.61,0.6,-155.17,45.25,70.35,2.31,1.79,0.72,1.76,0.3,1.87,-92.72,56.67,152.01,0.44,1.65,0.57,0.34,2.61,0.4
1.15,-111.95,80.83,163.66,0.03,0.34,0.04,1.08,0.73,2.13,-93.56,83.23,165.16,0.36,0.07,0.01,0.24,1.67,0.71,-153.7,46.48,74.63,2.44,1.8,0.6,1.48,0.32,0.77,-92.51,55.43,154.29,0.18,1.37,0.27,0.18,1.63,0.88
1.16,-112.11,80.39,165.33,0.27,0.34,0.17,1.29,0.12,1.51,-93.67,82.98,165.14,0.22,0.47,-0.04,0.23,1.59,0.58,-153.45,46.69,79.66,2.47,2.01,0.14,0.52,2.55,0.73,-92.24,54.28,155.83,0.26,1.07,0.6,0.01,2.23,1.87
1.17,-112.28,79.91,167.2,0.16,0.44,0.36,0.55,0.08,0.84,-93.8,82.57,165.21,0.39,0.18,0.25,0.77,2.03,0.79,-152.34,47.77,83.87,1.92,1.73,1.06,1.26,0.48,0.07,-91.81,53.49,157.68,0.5,0.92,0.71,1.17,0.12,0.56
1.18,-112.3,79.99,168.31,0.15,0.15,0.23,0.55,1.21,0.55,-94.03,82.99,165.14,0.29,-0.05,-0.13,0.8,1.67,1.55,-150.02,48.72,92.7,2.11,1.52,0.9,0.88,0.29,0.94,-90.62,52.62,159.41,0.05,0.72,0.47,1.07,1.32,0.06
1.19,-112.88,79.73,170.97,0.16,0.05,0.33,1.04,1.34,1.17,-94.64,83.0,165.35,0.2,-0.12,0.0,0.56,0.42,1.12,-148.31,49.56,96.98,1.95,1.27,1.08,0.43,0.84,0.18,-90.26,51.96,160.7,0.16,0.83,0.43,1.2,0.02,1.7
1.2,-113.56,79.72,173.09,0.11,-0.0,0.31,0.76,0.96,2.44,-94.94,82.8,165.14,0.26,-0.01,-0.06,0.26,0.19,0.2,-146.64,50.58,101.04,1.94,1.37,0.98,0.51,2.37,0.84,-90.64,51.28,161.66,0.12,0.7,0.83,1.35,2.96,0.89
1.21,-113.45,79.25,174.99,0.63,0.38,0.09,0.01,0.44,2.01,-95.32,82.78,165.17,0.3,0.11,0.11,0.72,0.07,0.13,-144.96,50.73,104.82,1.61,1.23,0.84,0.73,2.12,0.26,-91.03,50.79,162.31,0.71,0.38,0.58,0.92,1.83,0.04
1.22,-112.45,78.71,174.75,0.65,0.48,0.1,0.58,0.02,2.21,-95.52,83.14,165.31,0.15,0.36,0.16,0.99,0.3,1.19,-143.61,50.98,108.52,1.38,1.09,0.71,0.94,1.67,0.16,-92.93,50.38,163.04,0.3,0.58,0.58,0.76,0.33,1.8
1.23,-111.76,78.37,174.34,0.35,0.12,-0.08,0.85,0.37,2.29,-95.82,83.76,165.48,-0.1,0.28,-0.02,0.88,0.93,0.71,-142.53,50.99,111.29,1.21,1.24,0.63,1.52,1.61,0.77,-93.13,49.94,163.27,0.17,0.3,0.63,0.79,1.47,1.22
1.24,-111.4,78.19,174.47,0.21,0.03,0.06,0.49,0.37,2.21,-96.04,83.77,165.61,0.14,0.1,0.18,0.73,0.66,0.89,-141.07,51.56,114.28,1.03,0.74,0.86,1.71,2.14,0.84,-94.34,50.13,163.05,0.93,0.25,0.16,1.48,1.96,0.09
1.25,-110.69,78.16,173.87,0.54,0.06,-0.05,0.19,0.48,2.08,-96.3,83.85,165.76,-0.09,0.24,0.03,0.67,0.68,1.65,-138.28,52.44,118.62,0.57,0.36,0.84,3.21,1.28,0.53,-96.39,49.64,161.97,1.13,0.14,-0.17,1.44,2.47,1.39
1.26,-109.64,78.35,172.76,0.41,0.0,0.09,0.33,0.68,1.98,-96.33,84.04,165.9,-0.06,0.15,0.1,0.61,0.87,0.61,-137.57,52.97,120.52,0.45,0.49,0.97,2.59,2.2,0.07,-98.28,49.66,161.15,0.75,0.01,0.23,1.69,2.44,1.67
1.27,-109.29,78.53,172.42,0.32,-0.02,0.01,0.82,0.15,1.51,-96.52,84.16,165.9,0.22,-0.2,0.1,0.15,0.75,0.51,-135.54,53.48,123.2,0.33,0.28,0.07,2.55,2.43,0.37,-99.39,49.74,161.19,0.72,0.13,0.74,1.5,4.27,1.45
1.28,-109.28,78.62,172.57,0.34,0.17,0.11,0.68,0.19,1.48,-96.35,83.92,165.92,-0.05,0.04,-0.19,0.45,0.88,0.78,-135.61,53.31,123.47,0.38,0.42,0.09,2.15,2.28,0.4,-100.17,49.73,161.27,0.93,-0.04,0.53,1.86,4.31,1.25
1.29,-109.01,78.59,172.31,0.46,0.15,0.13,0.81,0.23,1.53,-96.42,84.24,165.97,-0.1,0.02,-0.18,0.31,0.87,1.23,-135.7,53.31,124.11,0.16,0.34,0.2,2.02,2.49,0.34,-100.74,49.93,160.92,0.82,0.01,0.3,1.65,4.35,1.02
1.3,-108.63,78.73,172.49,0.43,0.05,0.34,0.78,0.18,1.45,-96.38,84.32,165.89,0.23,-0.05,0.04,0.39,0.03,0.54,-135.57,53.06,124.85,0.43,0.39,0.37,1.08,2.29,0.57,-102.83,50.07,159.97,0.7,-0.01,0.11,3.19,0.72,1.16
1.31,-108.34,78.71,173.78,0.31,0.04,0.34,0.1,0.46,0.85,-96.28,84.25,166.12,0.31,-0.01,0.0,0.19,0.13,0.89,-135.68,52.72,124.86,0.48,0.08,0.39,1.74,1.45,1.05,-104.2,50.46,159.17,0.71,0.07,0.26,2.97,2.57,1.46
1.32,-108.21,78.31,176.17,0.26,0.12,0.38,0.03,0.86,0.32,-95.99,84.15,166.19,0.36,0.04,0.02,0.36,0.74,1.95,-136.03,52.32,125.26,0.34,0.1,-0.15,1.78,1.52,1.08,-105.12,50.75,159.44,0.56,-0.07,0.39,3.79,2.49,1.7
1.33,-108.36,77.78,177.75,0.04,0.19,0.19,1.1,0.13,0.06,-96.04,84.26,165.83,0.11,0.06,0.37,1.46,0.28,2.27,-135.85,52.23,125.35,0.26,0.14,0.15,0.36,1.25,0.64,-105.72,50.96,159.18,0.4,0.09,0.29,3.28,1.94,0.67
1.34,-108.43,77.94,178.6,0.06,0.17,0.19,1.42,0.21,-0.12,-95.57,83.98,166.0,0.33,-0.01,0.01,1.01,1.09,0.29,-136.22,51.94,125.64,0.24,0.1,0.04,0.72,0.23,0.88,-106.93,51.25,159.17,0.32,0.18,0.23,3.28,1.46,0.32
1.35,-108.05,77.49,178.77,0.36,0.3,0.07,0.52,0.63,0.12,-94.95,83.81,165.83,0.25,0.18,0.13,0.28,0.37,1.0,-136.1,51.65,125.97,0.08,0.08,0.05,0.31,0.33,0.7,-107.27,51.31,159.23,0.39,-0.08,0.17,2.46,1.49,0.01
1.36,-107.28,77.32,178.64,0.36,0.26,0.27,0.33,0.11,0.42,-94.73,83.69,165.79,0.01,0.12,0.01,0.22,0.34,-0.07,-136.07,51.57,126.06,0.26,0.11,0.3,0.47,0.77,1.15,-107.51,51.81,159.1,0.3,0.1,0.4,2.18,1.34,0.26
1.37,-106.93,77.2,178.25,0.49,0.14,-0.01,0.39,0.35,0.47,-94.38,83.72,165.87,0.33,0.12,0.0,0.12,0.07,1.42,-136.78,51.21,125.71,0.24,0.08,0.17,0.63,0.39,1.2,-107.57,52.18,159.06,0.06,0.45,0.1,2.82,1.4,0.13
1.38,-107.02,76.88,177.7,0.17,0.28,-0.1,-0.01,0.12,0.39,-94.14,83.79,165.88,0.43,-0.09,0.14,0.23,0.54,1.02,-136.44,51.37,125.65,0.25,0.2,0.14,0.33,0.83,0.58,-108.76,52.14,158.57,-0.02,0.1,0.22,2.29,1.85,0.3
1.39,-106.49,76.63,176.81,0.05,0.27,0.16,0.52,0.09,0.44,-93.83,83.91,166.01,0.28,-0.01,0.11,0.28,0.19,0.57,-136.7,51.53,125.59,0.14,0.37,0.18,1.01,0.51,0.09,-108.9,52.2,158.4,0.15,0.26,0.21,1.01,1.2,0.66
1.4,-106.56,76.69,176.29,0.08,0.13,0.2,1.19,0.1,0.14,-93.65,83.92,166.22,0.3,0.23,0.16,0.53,0.04,0.72,-136.65,51.45,125.44,0.21,0.13,0.14,0.7,0.39,0.41,-109.08,52.32,157.99,-0.04,0.11,0.01,0.96,0.05,0.68
1.41,-106.36,76.17,175.43,-0.09,0.23,-0.1,-0.03,1.03,0.12,-93.61,84.16,166.19,0.09,-0.06,0.16,0.28,0.52,0.68,-136.32,51.59,124.95,0.14,0.14,0.3,0.15,0.53,0.24,-109.52,52.57,157.85,-0.03,0.25,0.05,0.94,0.65,0.15
1.42,-106.0,75.98,174.84,0.19,0.21,0.21,0.1,1.28,0.29,-93.4,84.15,166.25,0.04,0.15,0.02,0.36,0.43,0.95,-136.79,51.4,124.65,-0.02,0.14,0.34,0.27,0.09,0.49,-109.6,52.94,157.18,0.11,0.09,0.2,0.21,0.22,1.12
1.43,-105.8,75.8,173.96,0.32,0.25,0.17,0.1,0.33,0.22,-93.08,84.23,166.56,0.27,0.25,0.14,0.67,0.66,0.68,-137.43,51.37,123.96,0.12,0.1,0.58,0.25,0.21,0.22,-109.36,53.41,157.31,0.21,0.19,0.26,1.19,0.2,0.36
1.44,-105.76,75.76,173.69,-0.02,0.16,0.21,0.37,0.13,0.09,-93.3,84.35,166.62,0.19,0.27,0.28,0.57,0.54,0.43,-137.54,51.29,123.92,-0.12,0.09,0.34,0.15,0.38,0.38,-108.91,53.53,157.23,0.26,0.19,0.08,1.11,0.53,-0.01
1.45,-105.34,75.68,173.58,0.13,0.31,0.25,0.33,0.06,0.03,-93.29,84.59,166.58,0.16,0.24,0.1,0.01,0.56,0.52,-137.63,51.17,123.69,0.07,0.17,0.16,0.17,0.53,0.55,-108.69,53.37,157.39,0.3,0.31,0.23,0.84,0.69,0.01
1.46,-105.31,75.43,173.09,0.0,0.12,0.21,0.01,0.14,0.11,-93.64,84.83,166.84,0.18,0.34,0.13,0.19,0.39,0.78,-137.32,51.51,123.3,0.1,0.32,-0.08,0.28,1.18,0.12,-108.89,53.35,156.85,0.21,0.29,0.6,0.68,0.69,0.45
1.47,-105.53,75.05,172.87,0.19,0.27,0.01,-0.0,0.27,0.27,-93.56,85.08,166.8,0.12,0.26,-0.13,0.67,0.35,0.56,-137.3,51.91,123.1,-0.03,0.21,0.35,0.3,1.11,0.62,-108.96,53.54,156.28,0.31,0.12,0.18,0.98,0.7,0.11
1.48,-105.33,75.03,172.54,0.05,0.06,0.29,0.42,0.4,0.13,-93.37,85.22,166.76,0.18,0.29,0.1,0.24,0.46,1.28,-136.96,52.33,123.01,0.04,0.21,0.23,0.28,0.21,-0.07,-109.4,53.56,156.23,0.09,0.07,-0.12,0.19,0.33,0.24
1.49,-105.27,74.61,172.34,-0.07,0.15,0.29,0.18,0.44,0.52,-93.66,85.53,166.41,0.1,0.22,0.01,0.11,0.59,1.08,-136.18,53.09,122.43,0.13,0.44,0.15,0.54,0.17,1.34,-109.1,53.87,156.07,-0.03,0.29,0.37,0.28,0.27,0.03
1.5,-105.1,74.4,171.93,-0.1,0.03,0.12,0.22,0.07,0.46,-93.51,85.65,166.75,-0.03,0.12,0.12,0.34,0.38,0.81,-136.1,53.52,122.26,-0.06,0.52,0.12,0.19,-0.0,1.11,-108.4,54.46,156.81,0.02,0.29,0.47,0.37,0.2,0.16
1.51,-104.63,74.17,171.37,0.04,0.16,0.16,0.26,0.19,0.32,-93.47,85.67,166.52,0.05,0.11,0.02,-0.06,0.73,1.39,-135.75,53.69,122.13,0.12,0.39,0.06,0.02,0.21,1.2,-108.2,54.96,157.33,0.19,0.26,0.44,0.41,-0.05,0.37
1.52,-104.11,74.03,170.86,0.07,0.44,0.16,0.18,0.43,0.25,-93.38,85.9,166.55,0.02,0.2,0.06,0.12,0.42,0.44,-135.77,53.86,121.85,0.06,0.12,0.26,0.25,0.45,1.18,-107.75,55.33,157.36,0.1,0.18,0.15,0.29,0.63,0.37
1.53,-103.86,73.72,170.27,0.06,0.09,0.22,0.54,-0.1,0.36,-93.12,86.02,166.49,0.25,0.32,0.2,-0.04,0.08,0.49,-135.73,54.28,121.91,-0.13,0.07,0.3,0.11,1.29,0.62,-108.24,55.72,157.82,-0.09,0.37,0.23,0.34,0.97,0.08
1.54,-103.58,73.52,169.99,0.15,0.23,0.07,0.18,0.19,0.18,-93.03,86.23,166.47,0.08,0.51,0.01,-0.05,0.07,0.68,-135.4,54.36,121.88,0.2,0.31,0.18,0.46,0.51,1.07,-107.85,56.32,157.95,0.01,0.43,0.45,0.23,0.14,1.31
1.55,-103.44,73.45,169.66,0.22,0.18,0.11,0.45,0.03,-0.01,-93.1,86.1,166.2,-0.02,0.43,-0.1,0.35,-0.06,1.2,-135.36,54.86,121.72,0.15,0.31,0.1,0.03,0.64,0.94,-107.45,56.7,158.27,0.33,0.44,0.47,0.06,1.07,1.56
1.56,-103.3,73.2,169.33,0.06,0.05,-0.01,0.27,0.12,-0.01,-92.71,86.35,166.3,0.16,0.3,-0.05,0.73,0.08,-0.04,-135.15,55.3,121.66,0.02,-0.01,0.44,-0.03,0.77,1.4,-107.84,57.3,158.31,0.42,0.38,0.22,-0.15,0.64,0.99
1.57,-102.96,73.12,169.15,0.13,0.19,-0.02,0.31,0.28,0.52,-92.75,86.13,166.26,0.02,0.33,-0.0,-0.06,0.79,1.43,-135.18,55.51,121.94,-0.34,0.19,0.4,0.17,1.07,1.66,-107.69,57.49,158.66,0.15,0.22,0.14,0.44,1.13,1.46
1.58,-103.02,73.01,169.01,0.35,0.22,0.11,0.21,-0.02,0.34,-92.72,86.16,166.15,0.01,0.09,0.17,0.17,0.62,1.16,-134.5,55.66,122.04,0.12,-0.05,0.22,0.09,0.22,1.24,-107.82,58.0,158.76,0.25,0.23,0.35,0.69,0.06,0.96
1.59,-103.06,72.76,168.29,-0.15,0.05,-0.02,0.32,0.21,0.46,-92.74,85.97,166.06,0.04,0.08,-0.07,0.0,0.24,1.24,-133.94,56.08,122.58,-0.01,-0.07,-0.02,0.68,0.38,0.88,-107.51,58.34,158.86,0.17,0.06,0.09,0.53,0.33,1.3
1.6,-102.92,72.78,168.37,-0.16,-0.04,-0.04,0.46,0.33,0.39,-92.55,85.93,166.24,0.09,0.07,-0.06,0.2,0.31,0.87,-133.83,56.18,122.7,0.02,0.04,0.19,0.22,0.35,0.86,-107.4,58.3,159.11,0.21,0.23,0.08,0.28,0.76,0.94
1.61,-102.8,72.61,168.28,-0.09,0.01,0.2,0.5,0.08,0.18,-92.48,85.92,166.15,0.11,0.32,-0.13,-0.2,0.25,0.14,-133.88,56.42,122.77,0.01,0.2,0.43,-0.04,0.5,0.91,-106.98,58.46,159.17,-0.17,0.23,0.0,0.3,1.01,0.64
1.62,-102.85,72.43,167.91,0.14,0.19,-0.05,0.09,0.51,0.12,-92.6,85.88,166.36,0.11,0.09,0.13,0.35,0.45,0.18,-133.89,56.95,122.93,-0.06,-0.0,0.56,0.13,0.94,0.33,-107.25,58.42,159.45,-0.1,0.21,0.37,1.23,0.53,1.54
1.63,-102.72,72.34,168.13,0.3,0.11,-0.0,0.04,0.33,0.49,-92.61,85.76,166.22,0.01,0.21,0.14,0.35,0.26,0.38,-133.02,57.09,123.11,0.3,0.02,0.45,0.18,1.8,0.47,-106.92,58.87,159.65,-0.25,0.17,0.26,0.1,1.58,0.88
1.64,-103.21,72.28,168.2,0.41,-0.06,0.04,0.13,0.36,0.05,-92.59,85.51,165.85,0.02,0.1,0.06,0.09,0.64,0.84,-132.15,57.73,123.85,0.38,0.18,0.55,0.56,0.66,1.24,-106.75,59.21,159.64,-0.06,0.15,-0.1,0.1,1.95,0.65
1.65,-103.42,72.32,168.19,-0.05,0.21,0.1,0.19,0.18,0.42,-92.44,85.53,166.12,-0.14,0.2,0.01,0.18,0.09,0.44,-131.7,58.18,124.28,0.0,0.33,0.13,0.7,1.02,0.93,-106.95,59.57,159.71,0.03,0.05,0.36,0.51,0.4,0.93
1.66,-103.36,72.16,168.19,0.22,0.1,0.04,0.4,0.44,-0.0,-92.35,85.36,165.97,-0.13,0.05,-0.02,0.49,0.34,0.3,-131.29,58.39,124.24,0.02,0.01,0.15,0.5,0.58,0.81,-107.31,59.73,160.14,-0.15,0.13,0.16,0.42,-0.04,0.64
1.67,-102.89,72.32,167.76,0.2,0.13,0.08,0.62,0.19,0.07,-92.26,85.45,165.9,0.03,0.06,0.07,0.28,0.29,1.28,-131.2,58.48,124.35,0.1,0.22,0.07,0.14,0.79,1.31,-107.0,60.04,160.3,0.05,0.44,0.13,0.2,0.84,1.01
1.68,-102.81,71.89,167.99,0.18,0.13,0.03,0.44,0.28,-0.08,-92.14,85.08,165.82,0.02,0.09,0.1,-0.03,0.3,0.33,-130.48,59.13,124.53,0.01,0.26,0.4,0.25,1.57,1.2,-106.8,60.39,160.45,0.13,0.15,0.33,0.43,0.26,0.67
1.69,-103.17,72.23,168.15,-0.04,-0.03,0.25,0.42,0.61,0.4,-92.18,85.02,165.58,-0.05,-0.02,0.1,0.25,0.2,0.48,-129.79,59.64,125.11,0.13,0.19,0.85,0.37,-0.09,1.43,-106.76,60.72,161.14,-0.03,0.26,0.56,0.45,0.89,0.15
1.7,-103.56,72.3,168.91,0.06,-0.12,0.36,0.32,0.29,-0.04,-92.11,84.94,165.69,-0.02,0.11,-0.04,0.18,0.61,1.06,-128.84,60.47,125.75,0.0,-0.0,0.49,0.11,0.21,1.85,-106.94,61.23,161.13,0.21,0.38,0.17,0.46,0.61,1.28
1.71,-103.42,72.16,168.98,0.06,-0.04,0.13,0.3,0.14,-0.01,-91.85,84.9,165.55,0.04,0.17,0.09,0.22,0.5,1.51,-128.24,60.91,126.49,0.22,0.11,0.58,-0.09,0.16,2.35,-107.66,61.49,161.21,0.24,0.17,0.04,0.44,0.51,1.51
1.72,-103.07,72.15,169.15,0.14,0.13,-0.1,-0.12,0.09,0.02,-91.94,84.93,165.44,0.13,0.02,-0.06,0.19,0.17,1.12,-128.02,61.25,127.02,0.11,0.08,0.34,0.47,0.07,1.96,-108.11,61.45,160.81,0.3,0.14,0.1,-0.01,0.16,1.32
1.73,-103.03,72.2,168.94,-0.03,0.0,-0.11,0.13,0.08,0.16,-91.74,84.79,165.24,0.24,-0.03,-0.17,0.12,-0.06,0.41,-127.72,61.7,127.74,0.08,-0.08,0.35,0.49,0.4,1.77,-108.8,61.7,160.0,0.06,-0.01,0.06,0.26,0.74,1.17
1.74,-103.29,72.31,169.03,-0.04,-0.03,0.16,0.59,0.07,0.09,-91.7,84.89,165.52,-0.1,0.17,0.03,0.08,0.25,1.16,-128.02,61.75,127.62,0.29,0.25,0.34,0.09,0.51,1.58,-108.91,61.76,159.99,0.27,0.09,0.4,0.35,0.68,1.57
1.75,-103.23,72.52,168.8,-0.09,0.12,0.02,0.31,0.6,0.17,-91.38,84.82,165.48,0.31,0.35,-0.07,0.15,0.08,0.91,-128.08,62.07,127.78,0.53,-0.02,0.29,0.13,0.55,1.61,-108.8,62.17,160.92,0.04,0.11,0.55,0.3,0.33,1.96
1.76,-103.43,72.45,169.32,0.23,0.21,0.24,0.03,0.66,0.24,-91.59,85.18,165.31,0.02,0.36,0.12,0.27,0.07,0.75,-128.29,62.18,127.71,0.45,-0.01,0.27,0.06,0.56,2.1,-108.81,62.07,161.4,0.19,0.1,0.5,0.65,0.22,1.95
1.77,-103.49,72.87,169.41,0.33,0.24,0.09,0.37,0.77,0.24,-91.61,85.32,165.57,-0.02,0.34,0.18,0.37,-0.13,0.84,-128.46,62.35,127.42,0.22,0.11,0.18,0.28,0.87,1.94,-108.69,62.4,161.64,0.22,0.02,0.36,0.83,0.43,2.2
1.78,-103.85,72.93,169.96,0.22,0.16,0.25,0.52,0.55,0.64,-91.74,85.17,165.4,0.09,0.35,0.06,0.58,0.58,1.31,-128.57,62.73,127.1,0.36,0.05,0.09,1.75,0.16,2.35,-106.28,61.42,170.24,0.03,0.31,-0.08,2.34,0.23,2.6
