0.02,-0.6956386403386414,71.80636828962017,168.06166566881203,0.0834263022050966,0.1183021576352761,0.0464728939702726,-170.69053618411598,82.74422134994933,39.12029231951047,-0.005662144167864,0.03890455127177,0.0393018583567282,-187.696445067538,0.4444687549711726,8.433054480721609,0.0470997424224912,0.1532232923558748,0.0450738223353254,-150.10862437814387,18.397213976971813,18.007185160683967,0.3881612429840544,0.6154527008407243,0.157169602512117
0.03,-0.7534997030425227,71.80158734427737,167.90362601850225,0.051333890566605,0.096468468803977,0.0518391157156557,-170.6982084199676,82.73937048411969,39.19944492493971,0.0030727406384821,0.0783899659061954,0.0131772408584782,-187.63284926868565,0.3779321613568641,8.44089884832009,0.0680550792754005,0.1664266931824472,0.0282953195297039,-149.43320721579423,18.86338928404042,17.94174858389287,0.2569660223253791,0.5740892057484265,0.1698052783729501
0.04,-0.8036131225645428,71.80048076061031,167.7559338142261,0.0717554023697426,0.0816841238579067,0.0752820315668109,-170.67623793343782,82.74646423235815,39.43837974485948,-0.0091336349629481,0.047605151645274,0.0400848482256963,-187.62551604678245,0.3654543850921614,8.444983979296252,0.0878855445199355,0.1198913084596003,-0.0004090342685887,-148.8079586574349,19.31254748041873,17.868025024517728,0.0637644298473666,0.5244550282560404,0.2241235269906329
0.05,-0.8221780965829556,71.86940598147571,167.4424062753777,0.072899364927766,0.0838531249013281,0.0755770201846228,-170.71024633498976,82.74605492731641,39.57539967599329,0.0114899431634217,0.1095421177911313,0.0201337823401061,-187.62205220811657,0.3573584866133207,8.44760700267778,0.0602555939748584,0.1757276873719886,0.0026909994979458,-148.49275551152937,19.496997468875048,17.8040965719573,0.0517120170297119,0.4634477895225204,0.3041973554678855
0.06,-0.8136299514546165,71.8182230675538,167.30091952570567,0.0279262859994757,0.1256330049830449,0.0410051541909962,-170.759445675906,82.75692774784679,39.69045680166472,0.0046805803231546,0.0609155926951065,0.0274015456758772,-187.61359819892468,0.3732296358027402,8.495842498268399,0.0535465641521002,0.1655927316282358,0.0174917179907008,-147.86641696780245,19.812751884918704,17.69061308207081,0.2239443797489595,0.1724582359985683,0.5845008988320862
0.07,-0.7536804379993296,71.82229185362766,167.56291322569697,0.0479473528871184,0.0909607959450113,0.0359511111077567,-170.73685506706593,82.7469719779517,39.77105357259655,-0.0044918325085396,0.0763805081463465,-0.0021728269271514,-187.6940002941739,0.3561129113294159,8.511882828535493,0.1040379655147963,0.1214800110049754,-0.0024217632340857,-147.30078864468672,20.193685171078865,17.44714850866272,0.4944552086796667,0.1538537544590011,0.5031860401753369
0.08,-0.6843813261320305,71.81235259262174,167.69992740330864,0.0610674846244978,0.1332304414025696,0.0799116479364502,-170.7713333167798,82.77190163546953,40.0147446732522,-0.010422438076999,0.0871672802306161,0.1635309526766065,-187.6851987957555,0.359270210285116,8.504531821491371,0.1114623626685321,0.1221710833161158,0.0100618688813083,-146.81401493389987,20.48880895333461,17.256086611125795,0.7824879257630281,0.1106227681671214,0.7289073871214045
0.09,-0.6163746447033932,71.75241653773323,167.87577215276605,0.0933182129205778,0.137595852884453,0.0731982794377998,-170.82484874085063,82.74618743617721,40.18284517459893,0.0085182912717441,0.0653147372143543,0.2439499374268515,-187.6890412179735,0.2935760342135509,8.47395866761229,0.1082102633657647,0.1189366679757615,-0.0083598886192949,-146.44703626679103,20.70960652309284,17.124386346827325,0.931570843612714,0.2306054053863483,1.2215460568074905
0.1,-0.6816326979726479,71.72937497122543,167.7032101269964,0.0761982389886589,0.0825960188224451,0.0574544033007793,-170.80772305790325,82.7563507168125,40.00719225312344,0.1101131242565192,-0.0012825080663522,0.0450882787540283,-187.6787307176513,0.2934996076247192,8.562891213639032,0.0735391863547683,0.1645690711610846,-0.000240380707598,-146.12102366036666,20.89510332775717,17.06423114569583,0.9874026000178976,0.3720590544799181,2.242464594593172
0.11,-0.728793712728654,71.76129061186283,167.6906704333472,0.0749055514729908,0.0812342767146528,0.1284176011744197,-170.80708318559792,82.75200958893976,39.95774718594869,0.0969789536281536,0.0655622828049323,0.2524897820850435,-187.755446458677,0.298715846351712,8.56374234970898,0.0534987030119552,0.1188925413658244,0.0183488196579419,-145.81922460107054,20.99253715496226,16.937604312503222,0.9923167963453102,0.646275423022431,2.908912995319729
0.12,-0.7658291201996728,71.74030497387433,167.67806266695695,0.1053824218658338,0.0788010012361283,0.1937067519065982,-170.79973847188631,82.74899918493213,40.35849773682296,0.0538374171283082,0.0551767887627233,0.0987650582067254,-187.75586830307373,0.3088672975338335,8.546638866201057,0.0695020990009137,0.1330629378747016,0.0130483092539975,-145.35870409955726,20.995514618597134,16.821315234926818,1.0690381323884663,0.7082694742374693,3.317207228024364
0.13,-0.8043112124421373,71.76870355553773,167.43604259517602,0.3617994004787182,0.0932856224678359,0.3598716386967251,-170.8696105182663,82.74634863128865,40.50654036993515,0.0310282281076902,0.0935852950456564,0.2738437133084588,-187.7499513188749,0.3113024584815293,8.574126731818343,0.088528500276291,0.1413609002812786,0.002604882035272,-144.80491705007714,21.00413621624041,16.682872865423775,1.2446867655220362,0.8519512137043115,3.701312673269551
0.14,-0.8355950755897241,71.66153751483526,167.53818934118524,0.1883970334521991,0.1483909827012862,0.4129612787884008,-170.93763876732493,82.6903526660654,40.06455144897379,0.1097514973415364,0.0448936684458156,0.1763527881265614,-187.80359531229348,0.3014152352914849,8.620919278224381,0.0411188559292957,0.1306297121276895,0.0188548170046215,-144.11985803549905,21.01242619539219,16.501871746719228,1.3520658653213502,0.8100634702079629,3.99417724298938
0.15,-0.8776446332436961,71.61307251162145,167.55348294659882,0.0958899933681477,0.169928318220578,0.4257096398632182,-170.95658329109045,82.68549041374271,39.96981168557868,0.0580513790260311,0.0911555918800105,0.1683264069647702,-187.8051296788738,0.3161875115192828,8.656474581071636,0.0510323237706152,0.1072712969987149,0.0096214644847846,-143.66737104112988,20.95927094516872,16.408033042588148,1.2416851671790785,0.8887972775189298,4.127601821158603
0.16,-0.8905991474247552,71.56464369766577,167.63712453445913,0.0246393346157373,0.199058311883322,0.4567790423438999,-170.94865455875927,82.69091813862205,39.87655295360034,0.0239561697145688,0.1318158076212105,0.1638091151383727,-187.81817279342584,0.3017944096704773,8.621785884401792,0.0328850224736155,0.1378795803687742,-0.0036353123872215,-143.18021845541168,20.939355567716817,16.291220281983,1.150467523140927,0.9749008842589248,4.261703345150362
0.17,-1.0027123972968444,71.56796223069442,167.4894334572221,0.0386051881619956,0.2597260016143196,0.4979647661185397,-170.93999604602428,82.6752976011298,39.93300617355736,0.0914913606489894,0.1313539511568585,0.10023954671186,-187.8072063003925,0.3836313078292035,8.624552814826435,0.0886135192480762,0.0829925204545548,-0.0051767112202066,-142.05779165683666,20.95740834132223,15.931249329052031,1.1621636108835969,0.9133614853067584,4.321073569523229
0.18,-1.0554884606530497,71.56913372334988,167.32254992103628,0.4129779179715347,0.3735928914440392,0.6482365975449759,-171.002168942955,82.69174568256071,39.74719790695078,0.3000027465947721,0.1264259041854847,0.2150156034897375,-187.8038948200928,0.3634654456494937,8.639238218918411,0.1000545685151282,0.0843080293894805,0.0103809958339654,-140.8624270986298,20.99426772240481,15.623349760977408,1.327672151603214,0.9892478929889564,4.676507527754501
0.19,-0.8789183396498472,71.69445278029906,167.44769491416645,0.3930580479190806,0.4364756107568897,0.6892123403695037,-170.99818053341392,82.68142970651446,39.758868226771625,0.013807212429097,0.1118500021130057,0.3066041157908108,-187.8255392847294,0.3644785396236821,8.638112829323582,0.1000134640657661,0.0811509029202531,0.0020368976938023,-139.7441977214061,20.99546207389338,15.308212400480093,1.2560485386153526,0.6818940453713009,4.125091861733137
0.2,-0.9357979164853746,71.61403337908945,167.43938833284804,0.549297662595394,0.6062126436803111,0.8938321046618343,-171.0593950771406,82.71753988036482,39.80612583317885,0.029861912402584,0.0264081488680593,0.3508149578479236,-187.82095674201992,0.3690039119295428,8.618563572924804,0.0921834180510147,0.1193450580062316,0.0248997629942925,-138.62144148025024,20.997587859906577,15.019448350560411,1.2014322289851815,0.4480382503660964,3.6341833526730505
0.21,-0.938810942222546,71.56892897334552,167.43754900207458,0.411088170143974,0.5767290790545988,0.8947703237887589,-171.14010073645156,82.8023056121358,39.87803380368015,0.1354934310281382,0.1054383643708021,0.3583873156260335,-187.8250915770326,0.3607542117920102,8.634731668248348,0.055787583874716,0.1703204366999433,0.0119464430069532,-137.61395121966018,20.99909725868685,14.689840598000725,1.382293948312997,0.4331553005052709,2.971504301841397
0.22,-1.3008739371057625,71.1210242179038,167.0575422681369,0.2647844234255661,0.5715326713502049,0.7417146700196835,-171.18674880095838,83.00509510005683,39.93820375716789,0.1099002046716573,0.0458940940592752,0.2747192283209687,-187.8083475944456,0.3808512183345933,8.640132028457392,0.0411879987786751,0.1602237941879921,0.0256097395207093,-136.88163141963406,21.096789859480573,14.382117538083104,1.459014477505506,0.5203716815347483,2.550775725709502
0.23,-1.806562156401608,70.6160197671795,166.35711830667185,0.2494257255308019,0.3956777328640773,0.6836788346197024,-171.19251936552175,83.1829174898384,39.9514604211188,0.1774051441400595,0.0068226709110595,0.1888097819990201,-187.8456348378368,0.3789225488421044,8.614420363620207,0.0191753369288426,0.1309697891258003,0.0214528581382038,-136.51076789052587,21.192551135337165,14.243915295253553,1.3886939515756478,0.5571966477808253,3.0129745468666966
0.24,-2.178916296372467,70.26683189080292,166.06617105354763,0.3941858087583113,0.1585865994601066,0.7028400066990447,-171.2470050037179,83.43064028576593,39.88012489372836,0.1985909078482519,0.1775872824880827,0.4474524655889759,-187.8868251689576,0.3689430273733856,8.623049504847225,0.0171356872200198,0.1376602158893148,0.0324845471083002,-136.01409706312486,21.30902153533665,14.055510966470491,0.8468144305322514,0.4772123474624401,3.344293278387721
0.25,-2.6162969833369725,69.73328794574154,166.0136176678982,0.277463990871909,0.2497025867984086,0.7047432405479931,-171.37764717849933,83.7521027508779,39.87935721325495,0.193457709775152,0.1306707016306347,0.2827049805287121,-187.89681310122745,0.377214536306664,8.55583948374995,0.0553510621895654,0.1215512088273664,0.0427074613267567,-135.62654738903765,21.430788167067792,14.003187278730351,0.7163597634389459,0.4240650660070438,2.247715457076487
0.26,-3.083198751615943,69.25246748271177,165.9512034631703,0.1806019308504654,0.3090639815591098,0.685197054211299,-171.45430127394312,84.05321940717118,39.80607033392516,0.1651515576471185,0.1750870967381942,0.1927013655195355,-187.88995878374476,0.3696674803163686,8.559378573197733,0.0044899970094875,0.189373245534351,-0.0094438241235893,-135.1904623334884,21.61268448251152,13.922720210643334,0.469757055987045,0.1241437775166305,1.5148718740621534
0.27,-3.4347515474045194,68.93718776341572,165.87169175270398,0.0388737183065028,0.5686212205618928,0.8377928922743413,-171.49045011041062,84.50803089068896,39.75167657614591,0.3256396563195937,0.1417364216566054,0.5049598293252872,-187.8158297194753,0.364752975613388,8.552387395658476,0.0006609855042705,0.1300434782335356,-0.0170150208891332,-134.500134000526,21.954779245191467,13.693027052854548,0.5622489395037175,0.2319099896744796,1.09960041695281
0.28,-3.870604479955409,68.68315523177856,165.86363040349943,0.217050493895089,0.5336897511513975,0.8177056095281539,-171.6129565941273,84.93996197355298,39.61880263184891,0.5148889972914453,0.143274791670603,0.4728266447590595,-187.80883414789395,0.364286860913465,8.55811066083174,0.0610043176689211,0.0690078803085763,0.0128117970963574,-133.73324734237397,22.45176588777625,13.560487469396856,0.7265974137714702,0.4676007476075595,0.9565048305604396
0.29,-4.196444512186394,68.45209701567006,165.87889176436042,0.9060758816897851,0.4080703092570207,1.1236732518727792,-171.7489280388101,85.30158300505838,39.63742788000581,0.3912313339924893,0.128781024249292,0.4440056846811986,-187.7955224057842,0.3072723352202208,8.498069075976977,0.1931137465842811,0.0876421327647741,0.0561116455280788,-133.16976989957382,22.8788460240709,13.496923913899325,0.7457343022121209,0.3955013861480753,0.1765339216096824
0.3,-4.388618616835636,68.26198972663677,165.78215159375094,0.9565298262261478,0.3828719581359948,1.1691080031083476,-171.81606164071536,85.4999034365665,39.59945260416726,0.3515832753387503,0.1767861929627817,0.4974932109771918,-187.7798187169031,0.3009797911327737,8.503670025278804,0.1618076787298869,0.1104538676847908,0.0399466564807193,-133.0467854004452,23.04905874208701,13.52470691476581,0.6747011941677419,0.1988346571131809,0.4725452818286418
0.31,-4.617933309214676,68.11851797682871,165.69386033438872,1.0723037417808077,0.3907029548591809,1.205560455724168,-171.86426892026964,85.71091887764388,39.58418557969575,0.3079689418085306,0.2373288655635555,0.5502553175934854,-187.77367368983812,0.3109508978447655,8.50842453698692,0.1058567791837946,0.1557517578978213,0.021640814522437,-132.9030331661389,23.247568296612563,13.55649334421514,0.5653361496684463,0.001447025289956,0.7655405995985133
0.32,-5.064324524323507,67.6196333606458,165.62952397941805,1.4585106420609515,0.2484082688760776,1.4161126614161308,-172.07296379056868,85.96398483618408,39.50874529365223,0.4210938490319212,0.2520092031172785,0.6109474273266938,-187.7391059889224,0.3055969571574939,8.507651546472458,0.0551407786624443,0.1532104293290039,0.0225884064479675,-132.68792900218963,23.552810298782976,13.691442113044538,0.5469559818121645,0.1065340616908452,1.126519248289246
0.33,-5.569526631570049,66.84695198617116,165.60884555799902,1.7716345900670811,0.071495248996105,1.1458129020871404,-172.31165736706626,86.00906291809957,39.51765261146894,0.7074514424712702,0.1021552133744958,0.4766656442525355,-187.757652016674,0.2983255547273674,8.451414904306453,0.0261068221858083,0.1064493370071189,0.0250103735644246,-132.64417316828604,23.881058004123805,13.88016849401078,0.5663076433438842,0.1350412639246289,0.9212617817661708
0.34,-6.203418803431806,66.05005188085823,165.2440347078155,2.564760754950167,0.2865826661743639,0.7978926503362959,-172.48804706087768,85.82527110564747,39.56746588216693,0.794567592002546,0.0576895801352636,0.4385996834054681,-187.7783813296769,0.3339971720274099,8.44128264751446,0.0279662132201104,0.0785244624314164,0.0210503090732139,-132.56170867248036,24.13329755830455,14.12545701138652,0.6763372826774948,0.3960812558487817,1.4633129463735346
0.35,-6.797597214356962,64.81989371740143,165.06193326034952,3.303098851586713,0.6334263997889538,0.5789266726026489,-172.75315352485222,85.17124494934363,39.6520506772928,1.223150493245749,0.2773167856548425,0.4206492779443258,-187.801927979933,0.3120010807891435,8.437163029145609,0.0711944434877298,0.078637967090125,-0.0083568423228829,-132.49553339538355,24.30625228691376,14.437609896420144,0.3459707699022055,0.1414524123974707,2.8637568873883725
0.36,-7.815017816049986,63.00457137539603,164.8098670025581,3.760602534013595,0.6466366089479182,0.3851796090541076,-172.87147860793468,84.12730962441454,39.63053763229554,1.515212127736972,0.2803446658252291,0.3641916409283813,-187.8143832300072,0.302975558262601,8.439815368246679,0.0355643869671263,0.0926858418661878,0.0312933212107613,-132.2776907204004,24.64640595990543,14.596431866415896,0.2710330963122235,0.3587044996832748,2.2309258535791248
0.37,-8.374868355760826,61.92684725297463,164.88139051304628,3.747003178786712,0.4553737174598457,0.012597813785695,-172.96547910831129,82.97799807689425,39.643758698547245,1.848088845789257,0.2592754937039481,0.3793259163838688,-187.8107673263882,0.3266339735542713,8.431218462342041,0.043871745195989,0.0277616183448755,0.114459759456326,-132.0742862452027,24.98247177831236,14.744173909787213,0.1976107430832953,0.5832142978205078,1.56798353112086
0.38,-9.882906220858368,59.30503954147883,164.87806772419316,2.982374726463453,0.5249499056677717,0.8296711450446969,-173.06594425526993,81.81048353091339,39.63103282206328,2.193093454128304,0.2166192582968392,0.3936351973692157,-187.82045353259088,0.3051445569599078,8.424680967002267,0.0136790250035296,0.0523459795079615,0.0612722827156672,-132.04746297305437,25.307619383022224,15.062122985953437,0.1638561000454222,0.2135845104859918,1.6972623163739469
0.39,-11.81151349897426,56.18750462734939,164.87977221507757,2.2470402250848585,0.4927785706637887,1.6357357555527356,-173.19167531960844,79.93237799714629,39.64688543042278,2.448089197118569,0.0471272407993874,0.4433946147455188,-187.7505208072361,0.3109568194566773,8.375777289462684,0.0541334483277505,0.0277875863370896,0.0612756126460054,-132.00422953646225,25.55464321294209,15.389339706786677,-0.0055345199605481,0.8550671349663465,1.7882365747025168
0.4,-13.745924398100904,53.13506083910284,165.13143506267343,1.4615273951591057,0.2341439194728642,2.604651705730391,-173.100355026471,77.74588480781529,42.90761654304588,2.9581792705662946,0.0402173458558453,0.7359520720669382,-187.7490233071985,0.2427836417451207,8.395922244634972,0.1034778023178314,0.0252742858491633,0.1105213593288616,-131.79349823882782,25.760576417192997,15.37008202750895,0.1860820800244876,1.051091108139848,3.335424681913175
0.41,-15.553722902466673,50.42931390969255,165.32159231151624,0.5444212410139159,0.4743268497093942,2.174692899284709,-173.07147304899945,75.54031713709715,46.22525800279225,3.427373155983388,0.0708795069453301,0.9958703531179004,-187.7453290111316,0.2469216266385895,8.398184723457925,0.0379776993338252,-0.0176274301157775,0.1024890631052387,-131.3036326177327,25.94106131183949,15.254776948855527,0.4617177159612404,0.0879447495446547,4.0302438590041225
0.42,-16.434545451985578,48.44868159012252,165.8110273714902,0.8398542831098287,0.8867918650845713,0.8286769116888022,-172.7528559589605,73.24474503792868,48.15261433826192,3.940417268362875,0.156786654611523,1.5629586669687106,-187.6860335899689,0.1842507754383483,8.320138759468309,0.1570246783510434,0.0724339549011208,0.0593581549895862,-130.6325440406492,26.30409886239861,14.940576742453672,0.3333986434531468,0.8104088358382598,2.766386539776
0.43,-16.756388122772698,46.76084810116927,166.37226156724654,1.2382032943668024,0.8467665598595768,1.2669969550792164,-172.24955444529493,70.69506504814908,49.56421793661838,4.064650660696434,0.3182872014264059,1.5912621450061306,-187.6244867316427,0.1458431559958136,8.32665280348299,0.2816216461490224,0.0569508428551486,0.0528951432981009,-129.85931700209366,26.729586460019984,14.6847737529937,0.1072441940549526,0.5460361797161917,2.689750800379619
0.44,-3.928809475790221,44.18537700962061,167.17117897965466,0.6657815041791223,1.1191647790580237,2.2170189833002345,-171.67189640156963,68.00788360963445,50.45708416631255,3.446710988586083,0.491699024211595,1.5188845110739102,-187.5465821616909,0.0714612880180761,8.311842331654978,0.3655514164432081,0.1502013859046612,0.0978587436466129,-129.44695160683082,27.04354744300535,14.68754249315226,0.4929458842384406,0.3799123039109374,2.964102855804151
0.45,2.471200094966724,42.89505815756578,167.53749065700845,0.3702471495231454,1.2750085169294736,2.691439038027766,-171.3770823984622,66.70862570131808,50.70327257842926,3.146153023742418,0.5449521616177856,1.1067798973252403,-187.5154415422405,0.0829979497156646,8.305172889373447,0.384072635541534,0.193953139298057,0.1041690537625414,-129.09096910274982,27.178993277134268,14.664725612204167,0.3369555920410453,0.556041858289601,3.1850560973693782
0.46,8.877599497689088,41.6476368268818,167.95319024168546,0.083257919042611,1.4140671804243994,3.1682873588725347,-171.0559107104044,65.45014411391936,50.94833090209325,2.799983173788456,0.647767885681913,0.6360195531824882,-187.5140090027331,0.0605275518569731,8.297571509111352,0.4241526993396751,0.2630838899869201,0.1197832982770775,-128.7309261968762,27.34044568713683,14.615700790937169,0.2051654651180977,0.7206541566626494,3.371470323692519
0.47,9.122562576418805,39.24654507120802,168.5534173543763,0.5483843969467727,1.3796041993433763,3.414339656484931,-170.6189662053995,62.93032881030555,51.19975072864993,2.7239300726432307,0.526159410137289,1.2245792340559336,-187.34102435103253,0.2519315927041898,8.290927175411161,0.3049751851622824,0.3422408027548057,0.1162929106525601,-127.99879969082438,27.542540948336185,14.344730619626002,0.4143814893307086,0.8209106218352643,3.319297170259148
0.48,9.187754751990996,37.13921297375888,169.44304971540762,1.0536332548418386,0.2008703501603389,2.861063026623857,-170.3767491297018,60.56123067983993,51.65344429202211,3.32159902364728,0.0221539146728692,0.5255165675243062,-187.18451369611256,0.4853661284489244,8.24550574176282,0.281618748917654,0.1971434105155206,0.1701532243492392,-127.24900224243574,27.809832950600057,14.061460977164556,0.6135639452039867,0.9021770026789588,3.2404266433980817
0.49,9.125404255322485,42.13349279166437,169.50191686197542,6.947132829366227,0.7598840654710567,8.260552419697362,-169.70729504337868,58.084607124893445,51.88573250483544,2.7453632570273374,0.491635406182102,0.516961687368575,-186.87620287002116,0.7474980767863227,8.196334946802507,0.356016662635083,0.229364004060691,0.1593973652046775,-126.54565031505528,28.052825829544823,14.135471603600152,0.4437125949392844,0.5519988455154948,3.041370176009049
0.5,9.130608015648487,49.01545550199842,171.01621216750257,2.53030836893496,0.941705693177762,-0.0053508131418561,-169.00677955438013,55.62162510694511,52.1305333487372,2.1521657922254653,0.9895785821021688,0.4853853460852523,-186.63281431797503,1.0528303974337616,8.18656192695799,0.4189641612361625,0.2941344314254848,0.1781312171457093,-126.50462624306172,28.305802335398138,14.363449972247956,0.1622337188894817,0.5877295443610003,2.855153292927516
0.51,13.189269639157075,52.49433823051354,172.7439814644877,0.102394204882686,1.3270686945635557,1.983908544653251,-167.74997594581754,53.31537955140027,52.18246448759337,1.7898768203008213,0.645359858528394,0.7205603223548629,-186.37687107877136,1.4444037714386224,8.197680151223997,0.4409149038711973,0.3897074264484241,0.1380017387589365,-126.26920305361207,28.436612281348182,14.742702865156618,0.0952246176474559,0.0679515204915133,3.3093921906261894
0.52,16.133017020216787,54.98967342212385,174.5698155116407,2.195766043358739,2.542241023795288,0.7730220118681521,-166.694415898783,51.24295603425778,52.32055275938315,1.5058528420236827,0.346798848900995,1.4124822760131523,-186.19323182186568,1.8573617802607865,8.241532930319593,0.3184276461195615,0.9002654025244008,0.03581958132263,-126.1876682235281,28.50942013961096,15.31198613993134,0.0095703183602803,0.3061355292327888,2.8184202933746363
0.53,17.667880894328437,58.09487019831491,175.61626191210397,1.8350258170946956,1.9403149811119504,0.6785635265057071,-165.82505295806456,49.12940533014056,52.53139352222822,0.7979459737334568,0.4249855797151495,1.3006546544475373,-185.8762255984289,2.2793229704982747,8.247178622100376,0.2004863586077525,0.9850846511456416,0.0511135091004558,-126.44651681775775,28.55975164353977,16.114198934957656,0.1337787280989728,0.1197786677486725,2.40506074323139
0.54,19.211663628572808,61.20609834564372,176.69737696041923,1.469512469835607,1.3883197703372847,0.5947946995110659,-165.31508941772933,46.87497753484677,52.827384180211176,0.2029370966887022,0.4051878363392163,2.017560826854755,-185.55298325194087,2.6788142125987755,8.245744030668392,0.0590667008004079,1.0982673237517189,0.0599855372054825,-126.61836626194123,28.54180192601568,17.30920690037148,0.3362167633256426,0.7470232151477989,2.929167838089313
0.55,20.549340821788125,62.9798022174278,178.2993366058879,2.2820841687484466,1.0426671595414283,1.714087722321863,-164.8667437396467,44.94534156522528,53.06494537007079,0.0738091385680287,0.061297641908685,2.2376024295982644,-185.0543349879786,3.064998935453323,8.258334947309741,0.1048663425542662,1.0772634322070898,0.0701084553912904,-127.19816948464133,28.512410969331263,18.51207024408878,0.4396347628891102,0.7057193334647618,3.109839565828313
0.56,22.99877210482933,66.49956705710683,178.55213403065378,2.015583496443574,0.0105044563257374,0.5459285488645955,-164.87147304436206,43.3082097401287,53.13037456225134,0.3792256299571677,1.0403791401144329,1.6660455684578008,-184.49552422019835,3.4299277078304726,8.383586363309012,0.0924440674090393,0.8775317597865779,0.0313238597996176,-127.30706394046216,28.5625180957997,19.36049776535629,0.4551332630115569,0.7493668328450436,1.5599705123140215
0.57,25.204941773329185,67.54916228349974,175.56432269558266,0.809263903428355,0.8086463825584677,1.1245380720236131,-164.6880210628754,41.811022594036935,53.0630735887663,0.5883543263022417,0.4402862816599171,0.9022483006403637,-183.8855479984992,3.8170611720816505,8.555537306906775,0.1097138292358182,0.8116944665829139,0.0469878536079078,-127.41283860300754,28.526188734966883,19.931548716211267,0.5814816270878044,0.7964520611233342,1.518355829429353
0.58,27.0578453004246,68.68924241930821,172.56908162571136,0.6920161735212789,0.7414399270568468,1.6215952473794335,-164.4432717803868,40.38409168030807,53.07892137154657,0.5619599014906546,0.1916994729840061,0.6056496538316192,-183.3272270319547,4.175021417152942,8.75334627917152,0.0509078077303142,0.5991980655047384,0.080626142638051,-127.49145939315186,28.500126029514853,20.454493183754412,0.6999308542833966,0.8627989440625771,1.466072014707354
0.59,28.63375576320769,69.5390348431024,169.2219949649063,2.6546807462092072,1.036768920613094,0.1198852374983101,-164.45182909217124,39.00459416841877,53.07251691492655,0.7105507058930614,0.3928285851996862,0.8876414481829931,-183.30941533601992,10.491468454398929,8.758760878995533,0.0651541134000592,0.4914770052544228,0.1844283484349047,-127.70142846067525,28.125057538421107,21.01005273847492,0.0340863051012757,0.7326427615358266,2.1369574989429334
0.6,29.13045781832384,69.87290632470842,167.92708140966698,2.677429316913985,2.077512863387946,0.3011638350757989,-164.4383030932591,38.3308321516758,53.08681747254872,0.7887450603521162,0.4848387045876788,1.0345158600280806,-183.3171640485021,13.650083895573118,8.75265366502741,0.0251794706723076,0.4209448953853901,0.2250016201941474,-127.78143742081424,27.98390530733176,21.145254497754035,0.0384210715696236,0.6273036643735845,1.8454586066907115
0.61,29.606239211493328,70.19131122942329,166.5564196328281,2.7129060887869976,3.118564868449777,0.4509198637875178,-164.44093345694344,37.645192010165246,53.077377936998126,0.8463786919990031,0.5899173092299554,1.1673686657600886,-183.3078286807598,16.819080696019686,8.760339614834203,0.0275009898542667,0.3392960557025114,0.2763665238782348,-127.94028856771544,27.887370020873785,21.31437136817255,0.0253772549164827,0.5059049283269982,1.576582311010638
0.62,30.10199712742305,70.44441278201377,165.1188926723687,2.197532586568796,2.312611806781941,1.2946086897927915,-164.56297780082255,36.193875015745206,53.13731350207767,0.9597411087721204,0.1594188128426591,0.0273515663901431,-183.24764924645493,16.803648596805072,8.88978744699008,0.100634768660724,0.0578366234287037,0.261043614618577,-127.49668177169724,27.930863330038715,21.29601719832474,0.3778974082486969,0.1968208213706206,0.0584639883702331
0.63,30.68614336267077,70.2465389493045,164.3093486364083,5.241770050956724,3.1035709118610417,1.8349756858564956,-164.7021192640235,34.68902282163069,53.20602396064591,0.6607029719139293,1.7165187257068737,1.0253241766795678,-183.180658081611,16.875979139908264,8.93234571374374,0.74351069593095,0.5873378005913846,0.863717673546931,-127.25582691596296,27.81147007262758,21.364582097479087,0.3167830829054602,0.8154572954297558,0.1217074545225583
0.64,31.69467757783279,70.56812024131216,162.4445898699008,2.629327240137065,4.675822494757684,1.5466624549432804,-164.50740624226523,32.99978764231387,53.013035274631655,0.6667767909141105,1.6252118926187646,0.5973968797322917,-183.2433891512264,16.934085380969435,8.884736146388363,0.4994587167341305,0.8868499561341522,1.286606203214257,-127.12715032472155,27.62678300842502,21.571220551604764,0.6123896037924417,1.354165139484945,0.8182727623159104
0.65,33.37036087988513,71.20570196311797,158.62753174171786,2.394989735663552,0.8230586412064803,0.7417508111450005,-164.39313367899126,31.952324954105435,52.96028524928753,2.3019360648932654,0.0420127561767889,1.8875482289418015,-183.263060287405,16.939126674708167,8.608457459648882,0.1391485934997314,0.4158502699846459,0.7542883377111156,-126.94865739822175,27.570267010997565,21.563436605558817,1.0861651569383144,1.0324454162970325,1.113725415320201
0.66,34.31546198357497,70.3641503203049,157.66974609746234,2.066604912731574,3.7286613964103337,0.5889069270090187,-164.27766145141732,29.700250142021485,52.89357666028422,2.520626170450435,2.646285738274632,2.293397108756846,-183.41527286572116,16.877334635837293,8.11216362674676,0.7562967842905142,0.1622986107938909,0.5394866270375338,-126.37807665676806,27.747535598417443,21.29689798136613,0.6689791422802116,0.1570516599904264,0.1509361144155426
0.67,34.3229735640752,69.7710820631067,158.10953679446905,3.8766205244744816,2.026725967339436,0.8855619179297448,-164.44603633665065,27.691739075386312,52.99278679883868,0.2050996091097622,3.3010370040061505,2.8189855694964314,-183.74778439405625,16.987031873626332,8.214660437134144,0.992850456726412,0.1472925659144348,1.1339049387014748,-126.24543630106426,27.759643417348727,21.29336763297833,0.116019113981035,0.0403724672000253,0.5249595472064952
0.68,34.30404396819039,69.18477279485718,158.56000816135057,5.704702924504094,0.3268471705291491,1.2234013260430134,-164.63443672349663,26.075731562123984,53.07069339973458,0.1121483024747224,0.6829787739793106,6.508269262495029,-184.11550791795707,17.391332540285507,8.310528231393485,0.844421859753314,1.1125984340520367,0.5060482448208008,-126.69197621492508,27.08449162985889,21.825430154321072,0.2864263749718816,1.2276755318971146,0.7252730797346074
0.69,34.56068465339913,70.06550440113655,157.0042215892532,1.618143059743616,3.1334097759884387,2.2307777127350947,-164.5719733191946,24.703098791153945,53.52541138931862,3.9517179440182537,2.6601459145884534,1.11948065719004,-184.37903458580428,17.74413782586455,9.07111069563906,0.503324687135229,2.0657677696710235,0.7319636921343481,-127.12862754686712,26.4400615234346,22.36165992778308,0.4289672711643819,2.430290466852065,0.9203185435470156
0.7,34.876889943296234,70.19467793492102,156.1876074510195,2.9141438242414166,1.862612364818874,1.7370807180493932,-164.47553027801925,23.02102453171508,53.83285937858837,2.899863605900947,2.189527753160708,3.739770564180924,-183.8834721135858,17.998025960201446,9.67930782756504,1.6190757616868112,0.464179114274042,0.8864906143872192,-126.62594000550834,26.06519715550909,22.424531488161392,0.7125799000957117,1.4595743587250505,0.1370452666649484
0.71,35.19619206098234,70.37054976297117,155.3575414862729,4.186303357306455,0.6053940015350611,1.2201291442099589,-164.35947520704454,21.365763308470104,54.13903253552612,1.7895852664480263,1.7353033312417845,6.359434110319086,-182.94195036232196,17.99871065611151,9.866420240765772,0.371990288798621,2.049642804546211,1.4654726436969885,-125.88004657198206,25.7367644675635,21.9917471405856,0.5791338898610199,0.8867963544929423,1.1050382237306258
0.72,35.14098171970903,71.04427153981392,154.43122654285108,0.5545268077962685,2.09987044801675,1.8243213720371785,-164.17453443534717,21.47737978863973,54.459468895980805,1.982956031928084,0.1950823333509636,3.23723141006949,-182.06365289238988,17.95164000469788,10.052482303050088,0.6149031421559219,2.1129595448349843,2.397996698018725,-125.1172000197094,25.45566471254709,21.57366663257013,0.4381521617786753,0.331147847721372,2.0481331525095765
0.73,35.30760654174721,71.9425281019048,152.70203385046025,2.237277610000538,1.908210709142624,1.0506194778100333,-163.9677958858651,20.520153522175065,54.64785818437727,4.550597602363671,1.2419587305244233,1.71415381276253,-181.763647845311,17.9419390700123,10.257720556705664,1.4648561810588303,2.862564350894736,1.3976006990416177,-124.60187255214085,25.23271159632504,20.990422550257183,0.4106960231116672,0.9145949098129492,3.0264203602239528
0.74,35.397441660909294,72.04223407326994,152.8279670990176,0.8273389794652933,0.4931168385660123,1.799828892521559,-163.7498065231001,19.557737199821226,54.8259041208667,7.097944784737381,2.3333876408092857,0.1861211898142479,-181.93471116768023,18.070903442717697,10.442888428440892,0.4625647647038751,0.8711840230390614,0.6860919070566025,-124.04711688372832,25.17918029679043,20.43887866957177,0.9303780285951948,1.149973327246294,0.9348774799925617
0.75,35.40622299307411,71.9848500331708,152.9850047503806,2.3599475088595043,0.4389737299775776,1.156577688308906,-163.80707306118387,18.54457149886857,55.0469338492007,3.718331406110522,1.3117787345048162,1.6540654725524493,-182.04500878785456,18.151401248394368,10.42070520957238,0.6171484299405701,0.4872214979235358,1.292481409560328,-123.88823662783987,25.061626685971696,20.35429555725608,0.875094371402424,1.3502336928147065,1.5468513638677426
0.76,35.43298500324768,71.94492690119641,153.2026754061432,3.8369558288562353,0.4031237317198056,0.5384775626970854,-163.8836381798436,17.543277745203252,55.26248338055433,0.3752754236200839,0.3379084510657461,3.1158437798541714,-182.1355241949846,18.24663391793625,10.43674812190154,0.7847934305933634,0.0866837498318367,1.9111681144956023,-123.69965412473027,24.930619706679504,20.259569499041174,0.8165539989920534,1.5603048742322272,2.183615571510516
0.77,35.48488757970517,72.13601775559398,152.8684033881871,2.3983725846437824,0.0174655396521631,0.2393414974320209,-163.56693928411087,18.18608772416132,55.45157656544081,2.9984735304497243,0.6996204710445606,3.0493698715223085,-181.93230337332184,18.23306919727606,10.072982027158057,0.5929830310672558,0.6862742784929089,2.714895382263002,-123.5629830768968,24.43333285863026,20.316628075236643,0.295725667413372,0.6598610283645308,2.6621311165449413
0.78,35.54574639904523,72.55042503627037,152.0410017590223,0.0564041712038046,0.0856473049637505,0.1458594147296836,-163.2072733255695,18.069066855127485,55.37891403505033,1.679970969173132,1.2755231462994077,0.7255051563468586,-181.68097696216068,18.249807367190424,9.74892653180144,0.3126597136267476,1.0945030155632351,3.085843180092953,-123.61762375847412,24.176618240076888,20.354947315091906,0.2425049451702926,0.9575263261362909,3.5538076423272087
0.79,35.42918915844964,72.68487448761915,152.24837529701958,0.8294107643976839,0.5091734972317897,0.9308548931264036,-163.31602203126226,16.544996157470553,55.77191998653602,5.295031968034072,0.8118532870786445,0.3876664233929301,-181.6654661523059,18.130365298348263,9.505002993678742,1.1592088436135728,1.3073809899576465,3.4108120627864165,-123.1860405981269,24.13958945901008,20.18477133718658,1.1983502271490256,0.2181720070533709,4.053903081095676
0.8,35.32095337860164,72.68024934813855,152.63359706380135,2.1680454910453237,0.9175001810191558,0.3608009510216433,-163.38246634820322,16.126922394514022,56.09600344662884,1.108827949505592,0.7137658502036547,3.740130548988741,-181.948381361414,18.13140383693553,9.308119227372254,0.9558689467865192,0.2478952423533483,3.2944499405508267,-123.22013407157532,24.023476099264737,20.55696684997933,1.465332710945746,0.5640849515723235,3.637322839783301
0.81,35.197382807943896,72.82872299768808,152.64222795252982,1.2868496912277356,0.7113105951936897,0.3017814063143587,-163.3868225693288,16.56860951244382,56.24654076650374,3.567448094154753,0.0599982812427632,5.068024591083382,-182.15993272540487,18.2423689159375,9.193211948324173,0.7305149603674667,0.1392216639485098,3.531804748924529,-123.24468794394694,23.927157991129587,20.93452163526424,1.6894721845002914,0.8626837416241818,3.2344706452222804
0.82,35.005867894802,73.06085831473521,152.37820543193212,0.5572321658949402,0.205840499851818,0.449197128380839,-163.24464136888423,17.371345974156053,56.388129083610366,1.9630787044246785,0.3827994081764788,1.7540908152641568,-182.3616814466985,18.376507258137888,9.069182893996338,0.507153467882013,0.0526805083235751,3.759182643849672,-123.45003647327592,23.799242753052944,21.507020889320096,1.2453852726901966,2.006911176843462,3.200806123383132
0.83,35.007384570432585,73.12687797785244,152.37620939352362,0.1505748740786157,0.0078317653422227,0.5983356754773944,-163.18288719126937,16.799500230054083,56.46115512256896,4.381594555233707,0.1296857035596829,0.4655197664625659,-182.51713911629568,18.442901010955342,8.892347039787877,0.5253930267914059,0.4557423555658858,3.188486021390912,-123.2840821200608,23.96501250908865,21.803713618592955,0.8109155003875089,1.4162880651708434,3.2756593389407307
0.84,34.92175575486907,72.98282180326632,152.6174047320063,1.0585186371820043,0.6124687456857127,0.4353968740027417,-163.38797525927032,15.81281822200194,56.576615447191024,0.118829553414887,0.5444925271352086,2.9577073076766154,-182.618545589446,18.579716647939797,8.678261641093835,0.3672047378849425,0.5194549967376285,2.9731457033225834,-123.14233181067353,24.11288347488661,22.13893242562501,0.382739524079676,0.8108659991865229,3.3902582682190854
0.85,34.81302879889012,73.04813744920472,152.81380613412898,0.7336809862999754,0.773594022945237,0.5779579608055316,-163.49369517789535,16.449147313763838,56.76742259468234,2.0802098954685384,0.5994449969587547,3.754893362604225,-182.6764685197626,18.60520668771301,8.443418905035545,0.4104970307853058,1.1376618187052718,2.9452659662988765,-123.06968532533772,24.25389414799312,22.495853613740717,0.2441883357660666,0.4654952483156911,2.680128829745817
0.86,34.75069544239741,73.12055774709567,152.75651433880338,0.2417755192252694,0.2845110638413247,0.1268894821631916,-163.503360638352,17.439745723184977,56.76253080938735,1.2918081102173302,0.5447753355115271,0.367925126985811,-182.81459360377232,18.61514012079794,8.194707275150424,0.5679027306558602,1.402212982953928,2.5920972630709187,-123.1219843334099,24.29837738741153,22.997482724516743,0.1409329391160018,0.3220088467312828,2.7379884557622405
0.87,34.689734369860595,73.31887980787124,152.4420378762929,0.0577903487423702,0.2394646464040682,0.0117892890910319,-163.43704881516368,17.071115779563954,56.51002812273073,3.2664758276515644,0.194068985662519,1.3057113468407495,-182.93545278923455,18.671794969858155,7.859392236467684,0.4787891155246752,1.3265980602794214,2.271378209627498,-123.13135208275202,24.373962750455757,23.39080525836624,0.2967081251351814,0.352322649363151,2.9437955017821245
0.88,34.65826269052475,73.19263956419988,152.4102235265698,0.6601178293388985,0.1504105100581596,0.0927797841922377,-163.57104755459807,16.56526935962278,56.372226341779545,0.548203816372372,0.124507324109589,0.8164130390711457,-183.13347589433943,18.811375146444124,7.568116274796556,0.5847945115475881,1.516569760116821,2.259665378740834,-123.07941628390888,24.353974308282776,23.74090031430359,0.2718175216249372,0.5548985211156218,2.982269543610251
0.89,34.61838894494145,73.05915841605157,152.37768225670325,1.2645089029952992,0.1016285889053614,0.197773432649996,-163.69026670877642,17.314697814118333,56.37898535646773,1.894439742863548,0.3668909747247747,1.0658522081508166,-183.4141540012669,18.952657520264264,8.018030612045754,0.5671003966316938,0.9604702622258358,1.9496476476278708,-122.93671830353692,24.45188069482688,24.06122941988478,0.2818886759066299,0.0906803603152651,2.9803488672973746
0.9,34.57904674437411,72.99073543257917,152.38473411721975,1.295929463414943,0.4414145507520103,0.1408690204372023,-163.71031807296671,17.802859855319287,56.3561829186797,1.1768108594940616,0.6636022168213135,0.73987004322235,-183.54922892692267,19.03820795225481,8.256356229517431,0.5516544466966076,0.6817409269947344,1.7920722390935937,-122.87404172153065,24.43822001042668,24.23562419695712,0.174085408246171,0.1610228386715352,2.922278653100593
0.91,34.50849788311962,72.95230521581136,152.39123497184968,1.2376862011472378,0.8056913443897841,0.1092213949320712,-163.74944919273895,18.316142439137,56.32107245915042,0.4724340330957893,0.94457773348119,0.4097040118997724,-183.69477655873376,19.107485873751767,8.488228542186645,0.5488114880062549,0.4023109893417141,1.6383552958464114,-122.82710276923773,24.44378540700012,24.42644628905211,0.092129195644694,0.2358715803839097,2.8680640884651574
0.92,34.436834980842825,72.82318001392608,152.24484519148254,1.5864208359355831,0.9240269755983288,0.0378925673491473,-163.82278169167145,18.18575696959551,56.20073444039498,1.2035331406543368,0.1602567200539893,0.911498410392132,-183.86274897058436,19.19965563872264,8.99309675940193,0.1726685948298326,1.418985496011358,1.5141121613248478,-122.65892742039102,24.57119723116375,24.81506256759186,0.3401339471726232,0.2127278326685007,2.4233739472729767
0.93,34.37135523368062,72.55855806806181,152.43221009820118,2.280509953353427,0.1417149262896662,0.9452291064553048,-163.97437709370016,18.249007025272327,56.1951157619962,0.5927673899627036,0.090769903884005,1.0435281122700062,-184.3151013588678,19.309322449495195,9.489343804582436,0.2463852239820355,1.0223625112139278,1.3378291789626844,-122.49940107430528,24.685972263149413,25.20205543163225,0.5525571874354368,0.2131811553531828,1.9084417321441185
0.94,34.12341685441396,72.44392652615434,153.11712977724062,2.213905176963744,0.4710396759219006,0.3043144992049232,-164.13842833149053,18.32243088127201,56.19998194982665,-0.0142870815948281,0.021792115301165,1.1690336537034858,-184.74179610411755,19.452460177464364,10.003073784407256,0.3064360144393868,0.6263140692603699,1.1231204984924217,-122.45067866316188,24.833639246967863,25.61497659237061,0.5877732238446325,0.2242460232939796,1.7701752537524515
0.95,33.89417561115135,72.24908073259502,153.76708561199126,2.3629955309180275,0.8355023959964069,0.4090200323271537,-164.19357112217006,18.93198308748246,56.19614604104397,0.2381284938766563,0.0449069229041761,1.290689417480292,-185.00758442658,19.49313795936457,10.31287142373869,0.4774553052884209,0.1981128247933667,0.4762905111383156,-122.36970129895334,24.865902129169807,26.18279657575471,0.4764659900559124,0.4354619591251538,1.3797809485173975
0.96,33.93993933441711,71.87037841206251,154.25365858592454,2.5426885014066425,0.4638085335085856,1.1015592945392796,-164.26137524195036,18.94353101911381,56.250224394877584,0.4702838516930319,0.5244794141839763,1.480330818126779,-185.43224236415756,19.61659414582769,10.942682414375788,0.309967451685156,0.3095405373192187,0.6904748284581699,-122.30999812189924,24.934561478974736,26.79272167891293,0.0086384704723003,0.6604553222511199,0.7702353089636637
0.97,33.94764193823092,71.31329070493356,154.73422034796008,3.0519550160906173,0.1318035126638682,0.8954305047446488,-164.3120624331088,18.754081042453315,56.09038602152439,1.180326251199033,1.2731078037552548,2.3753646184450155,-185.86129907345924,19.74186788710113,11.50791089268944,0.0742028168870659,0.7891128961464909,1.0981779265689575,-122.17968635141722,24.99292119559576,27.438921933723503,0.3536588682629277,0.9286768274323396,0.7886424903392271
0.98,33.74417758808502,70.61627440915935,156.01250311727156,3.176342086916748,0.1659494747904573,0.8655981538914403,-164.43975083862463,19.003893198153715,55.95011949301905,0.6069509192062302,0.0718496391419296,3.25133064210434,-186.46168683626,20.01060664713448,12.002391909528956,0.3672513704286487,0.3930661949981719,0.103512865814619,-122.0603266039497,25.25886610716296,28.11564008915173,0.1291275291920964,0.04912591568037,1.325591411578693
0.99,33.554854356118895,69.77669734217407,157.51120915429965,2.9641433841635028,0.317370629203151,0.6048536404513426,-164.58261720659982,19.37229492509,55.78249293795071,0.9472546838601263,0.3032314968250329,3.2693913615584087,-187.1742592739573,20.307239525220425,12.4522708149973,0.8336421595037637,0.5645825112542426,0.022417516191136,-121.94857551075172,25.31141508273071,28.499794840945043,0.4263990067463201,0.8670013022383477,0.9112976537632784
1.0,33.3830725503747,68.944377758602,159.01945698504807,2.7492885160357563,0.4279753871693338,0.3407641041908206,-164.7713903492738,19.436321137445358,55.56761158192326,2.0799189928312445,0.5013982347930257,2.7795053778457586,-187.93844551207405,20.550012802450308,12.913363441369176,0.220949278018037,0.2815447215503852,0.2026444814068471,-122.00833984770722,25.489703268735195,29.359744490227826,0.2146093190949581,0.0594891290776069,1.0188836704167683
1.01,33.30991099926078,68.31565030673569,159.72988013601295,2.171718697739042,0.2173245620541227,0.4479091357379073,-164.99879200115146,19.30434258245184,55.43966924718694,1.7526510101432788,0.9695152763847644,4.20882637851333,-188.75395999677755,20.99479601268002,13.310693425108056,0.5803287831523299,0.0436011792098195,0.267390683748796,-122.06695971683584,25.82623567828727,30.302079989975446,0.3448254404607059,0.4643164504411217,0.0160270350729316
1.02,32.775820164767524,67.02771263210795,162.2346172771268,2.435929127009712,0.170881823443574,1.0580088339200115,-165.08208366622944,19.809195569689685,55.251632955955735,1.3863794864989147,0.7232407069185086,4.038240741426002,-189.67573031837185,21.491565058376192,13.636447519842712,1.012396913080678,0.2853628392030076,0.6658681893907762,-121.91234013774964,26.30636279096608,31.18043777992351,0.5481392058838344,0.3652453896102085,0.0796662937672472
1.03,32.236344669709055,65.75372237946,164.7522993609047,2.679515266766261,0.1254174347874072,1.6650402608267965,-165.06794783876612,20.158603754763806,55.08511979494151,1.1397836135249784,0.4041965734000629,3.443938282929679,-190.4720845634052,22.070685235494704,13.996970322832476,1.230750719151869,0.3055045173618458,0.3349918985109246,-121.74119430288091,26.809994150055584,32.06072192719766,0.7733443272659454,0.254369347474097,0.1322465731992552
1.04,31.61547307922172,64.81094901643903,166.71651219159995,1.134253590729473,1.1705728613528776,0.2099450884348033,-165.06966229234487,20.50561431630004,54.93855461980641,0.892497600598663,0.1063554432048615,2.858818927300989,-191.3706934041218,22.51933696027122,14.31671778537487,0.787717591352387,0.3388205614031017,0.1321918950254817,-121.6052615035569,27.35644708893073,33.0037535096564,0.1426672588189401,0.761919027414274,0.4871473492567167
1.05,31.31393359895564,64.43752358018318,167.59012619010076,1.0049776420266427,1.0691627689004697,0.1195733105989071,-165.08263044344568,20.54623339955211,54.94555040426024,1.4305777011115246,0.2484525956403579,2.2673811974127247,-191.80109345708928,22.76936524402813,14.4521495785861,0.9704984991368816,0.5456420913182596,0.5646928362840142,-121.62319612608592,28.0562075275939,34.081194939173216,0.2699349032052141,0.6136094586523853,0.4177791684385978
1.06,31.00384191372454,64.06221113627784,168.43896775494426,0.8782790533047445,0.9436045027864844,0.0182329184259677,-165.0814568420855,20.61822771880808,54.93081418672299,1.947765038081693,0.4179143358389187,1.673665636608065,-192.2598084245992,22.995067606226574,14.57096388571267,1.109889695231881,0.7781142665794533,1.0183358994534946,-121.65274969578992,28.733345216067068,35.14732480614285,0.3729692510092891,0.4599169895998995,0.3491309913450711
1.07,29.811465091625568,63.25971872010222,170.56004666455922,0.1736053079062409,0.3415491421536378,0.3470466580955471,-165.10180441590913,21.01455324656433,54.8232678534488,1.1677346915256157,0.2377596885623042,1.677000026012576,-193.30879360199327,23.49618475475062,14.759813559539086,1.2526316700426752,0.3633132419483521,1.4669303889917378,-121.69950117280956,30.104399618278222,37.31588135059877,0.6243963189282165,0.1609712671662253,0.1895513662253179
1.08,28.43324645605752,62.68813107978491,172.6945243369474,0.179313475961462,0.5269197425615935,0.8659937065070719,-165.12796477569262,21.44655984896823,54.70740987024004,0.420564314384467,0.0933128401990179,1.659699747790192,-194.44678163981385,24.01940697297968,14.936992082622105,0.7152541470250416,0.705355244962098,1.1549146482588462,-121.67674750761444,30.933749013150475,38.55767422921181,0.3101209946971175,0.2511772551946271,0.25517731694914
1.09,27.310563993645683,62.00389865946405,174.61424178612975,0.0152567004058104,0.7170459846668349,0.8611860111204265,-165.07484782656036,21.82807537664986,54.658381135667646,0.58943065324844,0.5600822047546369,1.283024852391663,-195.8117984185112,24.63565346386722,15.05268645492114,1.140906323715699,0.1044249659534991,0.8516371270069305,-121.56531518835578,31.443131863001213,39.19272894248058,1.1082334438927737,0.854258643330845,0.518445110301325
1.1,26.513271040763456,61.23541856137151,176.07623613382913,0.3680372906543583,0.4282471532514443,0.9139540828636226,-164.9971977398019,21.93778117798649,54.58357046508719,1.8525399269548168,0.9193376682675638,0.5272296996235404,-197.1055438059481,25.321117092957323,15.076582700561213,1.166491487136593,0.1336682158796786,1.2686192794257036,-121.4330122957954,32.439873992092295,40.47237176582294,1.4074825010816274,0.5081989049183326,0.6089422843829011
1.11,25.705852207844973,60.50426879587691,177.5688617088983,0.7167331931695688,0.1575479603839416,0.941711820251611,-165.0689120834396,22.253951426647685,54.46563320831084,1.5774532192848345,0.4142460582249226,1.004606624688223,-198.50040690214092,25.992009172478816,15.077518509996452,0.8972790694769462,0.1163442930942416,1.6294309235873523,-121.56088019882846,33.258587433618395,42.1926655931681,0.710025516816391,0.0915071349285287,0.3860338204019474
1.12,25.44198756451413,58.863526939864784,178.55477828388862,0.8208776711675837,0.1741226021738033,1.092542140877794,-165.20047493582206,22.86796904088765,54.32073443480768,0.5033330684751599,0.5333580190714525,0.574234908246459,-199.825983542531,26.73842095303064,15.037153259800258,1.331237899005748,0.079008889670429,1.247473614879383,-121.54565898137724,34.129909345733886,43.93515081408599,0.6782039087011978,0.3445017635099875,0.2106340978922905
1.13,24.179999391191103,56.938406726804274,178.28972049978435,0.5950768351419996,0.3153038260870583,1.7025648228638186,-165.26281649320774,23.557905712446487,54.26610733315741,0.6374272817390587,0.1306830235022795,0.1849541517069551,-201.1918880794641,27.50346162271508,14.98424337610257,1.7560218258374451,0.0174404364578889,0.8494288443261856,-121.36844261924824,35.13869538350414,45.57453861978907,1.3134956973807488,0.6362209253746909,0.6400926030530115
1.14,22.941578015707044,55.00024478361125,178.0132660084893,0.34840039717565,0.4231383303845429,2.277624926734457,-165.26042070731015,23.93911577363908,54.08541581709893,0.9778876711690476,0.9880649074570717,0.5763342327914406,-202.7506369562093,28.39539893209572,14.617660539602136,1.6888105062061711,0.5765601988688469,1.58838364001862,-121.17101180095985,36.254426242459175,47.30826993437046,1.6740301549520509,0.8908396027737236,0.8642563423289602
1.15,20.766368798042816,52.62725995697571,176.30959910950622,1.268169711079512,0.5235089535746567,1.5637595413126733,-165.34367018977488,24.65043012245715,53.90117037254287,0.5075046615968982,0.715898250686993,0.8510509944656289,-204.15530084664468,29.17331460114745,14.144699270737922,1.4228157497105822,0.496239420061359,1.5578094681890116,-120.93486539660336,37.384376378816526,49.32169770119864,2.0245307150161875,0.0679481597813319,0.3041549654490358
1.16,19.32520615091356,51.052997779799874,175.4410753318829,1.0203309411201458,0.5401567659219707,1.6109566288991004,-165.44361012143906,25.385441433080157,53.66680920240464,0.0391101631926914,0.4293229948751971,1.1142326633428712,-205.55711434835104,29.997086657486527,13.706600671598157,1.2037659498917874,0.3971554129885052,1.5403746789156076,-121.06251224448371,38.33126000717622,51.55955444169509,1.9254796137432584,0.4546524691974241,0.5932930360105508
1.17,15.256268636316983,47.42252348262613,173.3659681322337,1.6170340237604532,0.5616897088216167,0.949481622320446,-165.64935008185043,26.18982012245022,53.51679336214787,0.1773979512455568,0.1325863664394873,1.162411988397399,-206.3256933946455,30.43686824194717,13.436260013583556,2.090642607466923,0.6098272151317257,1.8010692651371067,-120.8801767478267,39.19724087473726,53.94717980032486,1.3172312827176034,0.1670853654590564,1.0275862877222792
1.18,13.377081008416049,45.64008840449765,172.4919556805225,0.3093118441827018,0.4170955876634535,3.180716367120278,-165.7496041760856,26.86320108499384,53.206970083867255,1.060214955012144,0.9828381519260988,1.9116035944858865,-207.6097567560379,31.20663430883196,12.879054804265854,2.0616485263698507,0.2824138051556753,1.273564369440387,-120.6888852899718,40.13425079800112,56.625741009921455,1.696921689905433,0.3208234216654196,0.878837905888206
1.19,14.131887850480368,46.75105441732284,172.30373842849033,0.3196485039626959,0.3401434908934289,2.2098724658515496,-165.87785342985907,27.69206202272503,52.83508503022526,0.2658954595453291,0.5115527807910978,1.080450270691104,-208.9326066885573,31.86857624416601,12.183498506541468,2.2497770471837684,0.1388741851361179,1.4874461078448251,-120.60692817661138,41.051430425859735,59.43559755556464,1.701028887737736,0.5822531330643286,-0.0072127789864374
1.2,14.700947519145735,47.70702602753175,172.26429124066584,0.5106764480556321,0.1831027742674061,1.5889393169279766,-165.9748577213973,28.274027795142576,52.610312066266665,0.3426938194457744,0.3685531865599749,1.1646203408939424,-209.6351476627323,32.17506461430887,11.746152469580668,1.959297598086924,0.1002571930448635,1.6609184774943904,-120.4782014664082,41.60145752279824,60.95375061367598,1.434571344323652,1.1959712054083935,-0.0182481742480577
1.21,15.252894788705584,48.687793023006776,172.20225425515292,0.6949650162310572,0.050838942956382,0.9619376735537444,-166.07255138371983,28.85880826248294,52.44049472984107,0.4365025497377921,0.2168481471731586,1.262054745230995,-210.30445506680203,32.493021611608675,11.3060589747779,1.6486049154074662,0.0812786570408753,1.8411363639991996,-120.30977670201096,42.12619956720466,62.44688654626904,1.1847905703412789,1.7972339337915686,0.0159253732356905
1.22,15.553277308779158,49.929728158691006,171.79896721164036,0.1814106669036233,0.4566139226038483,2.1334016282874515,-166.2489891598829,30.050033462524784,52.10397597782741,0.7552216294966151,0.9797727002137796,1.8396211958387283,-212.0042050645473,33.129169187940406,10.111765799983107,1.9308058647861064,0.8265900418729165,2.0970692780090383,-119.93785303334636,43.22922514135035,62.43986348843565,0.883916318449737,0.9100606019037036,0.068846427900203
1.23,15.566181384251664,51.31533904156199,171.37610231419973,1.1309820631007774,0.4536120826054604,1.4451482762409182,-166.43323599222467,31.004635761892526,51.82071105653944,0.1484302799327942,1.277994965186194,2.3856413561963823,-213.82580098691932,33.755022074010384,8.861760060223077,1.6523820028256135,1.2103758928974029,1.5987587225185147,-119.56514250819929,44.31429010282316,62.43110603793621,0.5262586649617269,0.0206833049576849,0.1414103367247432
1.24,-74.1688824806148,52.75425106625832,171.15575289037167,1.401384271560694,0.2842642398902819,1.1773737264169637,-166.6370329907584,32.13344441203735,51.58623426511103,0.0824533521423729,1.1311530227081403,2.328330007204755,-215.45070083786013,34.185096054617404,8.846008742865033,1.5296886642021232,0.8645304554903697,1.253420628939317,-119.24419396903954,45.1852282122013,65.75193925052487,0.3912345301326499,0.0815468891732444,0.3618989920830964
1.25,-163.86446506513383,54.19528119745423,170.9293783933379,1.646155973110926,0.1244951841273341,0.9114031357995084,-166.87558380356947,33.67668664970621,51.39822365205081,1.1900582204544876,0.0489476598303909,0.8689397415932082,-217.06965099776377,34.62615720253488,8.809885374723638,1.4043592142044887,0.5432656017780874,0.8944617330201483,-119.1773980672187,45.8825223799336,69.53866422840947,0.2211416514436054,0.1687853453772311,1.1533208363713436
1.26,-163.67966492038812,55.2422623751653,170.68857698380762,0.945756435667338,0.1803068585912465,1.5138962717890447,-167.06512865742084,35.31378840485189,51.11960211179061,1.5272259990133936,0.0257780022664651,1.0756488668779995,-218.9167046973897,35.0460592146554,10.67491135210303,0.671263993249529,1.757220741690029,0.8487768264184345,-119.1356393899112,46.550270773486425,73.29913831609018,0.0511588904296162,0.2522224690858404,1.916439490270552
1.27,-163.6296867978925,56.308801687094864,170.17017142219396,1.1031326684520966,0.1533959992574552,0.776082467678833,-167.27079095213273,36.56643794324796,50.88408093880093,0.6921373604712848,0.0173492816735458,2.354311007443463,-220.81505150444204,35.48499904703244,12.937929517529485,0.2452958180584937,2.1470155685498997,0.8303558672679409,-119.31044245247764,46.99476985941881,77.05524717144608,0.0001380895493292,0.0337363921344937,1.1296241405140015
1.28,-163.62408599117532,57.47453143416844,169.73967786899365,0.7549452141660183,0.1365070349247009,0.5754466268121717,-167.37567238775878,37.72940561680863,50.63542523140456,0.0004239162605373,0.4626405131385174,1.348527880574217,-222.70869887109296,35.822662916909806,15.43643619125302,0.0675760568042938,2.241067472752749,0.5648457691328475,-118.83604577980468,47.61120287685973,80.66827681022397,0.755347330773235,0.3550580654028316,0.354229345976182
1.29,-163.68269959379995,58.28960294549625,169.44662319232174,0.3780588875370081,0.0332547110966212,0.9127059016553454,-167.67059283890265,39.31163730173094,50.34564354598552,0.946268078537404,0.8836294299480814,1.1851760221295249,-224.1050378835845,35.98449971577357,17.70199144840008,0.5032470437960087,0.8480173893796398,0.2053373143522558,-117.99871648978171,48.38283195608052,84.36734449192623,0.6904660595372056,0.471191412474513,0.0593022745079161
1.3,-163.9286995323071,58.75283650634731,169.18386664703647,0.2523017725406123,0.3918044990094332,0.3412802436322867,-167.99791364513123,41.16797616381461,50.06705078919537,1.5318502308222766,0.72152051595554,0.9317906656849648,-225.3023812528543,36.0653845519624,19.8374824386765,0.8418317303285139,0.7987666899412426,0.9112419768119676,-117.55632957478706,48.938839958377145,88.25444162501843,0.7229091509866028,1.097567838788711,0.6472761964752203
1.31,-164.32357483485515,59.387530364344094,168.81670772564968,0.7049376504193999,0.2634201395754113,0.449761635109957,-168.2511997816657,42.80306560347038,49.81121402844384,1.3668807724330152,0.2343790736233093,0.5771598746974472,-226.38874900466004,36.13359428404474,21.89180950602396,1.1490254359754737,1.5693971059306877,0.7551099530799931,-117.2546540461206,49.13324269466949,90.23855690355518,0.0217684072501549,0.2550645039617951,1.1974571489988084
1.32,-164.4443194395508,60.54156878621544,168.07999038209346,1.1540749321871118,0.2312948743632063,0.3545901897099137,-168.2647255802472,44.18808862274742,49.571680398684464,1.0358232074286369,0.3860693261060668,1.5561728417035017,-227.49916510479736,36.070025058976746,24.30684871564137,0.996060719481038,1.057332692804872,0.520540801783238,-116.57251009739925,49.38767016725804,94.2422663859606,0.5815326330900856,0.2160482968692986,0.8594308847094239
1.33,-164.5618980193945,61.69111941821669,167.37252196272578,1.6202729751070917,0.2348838959958513,0.3007644060465558,-169.0070417229946,45.70267827739938,49.19587330404227,0.9177577787826704,0.2920086460096908,1.3314801227744069,-228.76627497104704,35.94733522676624,26.82954081077156,0.4762295269174018,0.817424251895339,0.405093863555049,-115.64963521927456,49.872268585511165,98.42769291987908,0.2972848271054976,0.1123310942243236,0.5734582606790566
1.34,-164.57447222256627,62.62494936659685,167.04995372518135,1.2466793588460323,0.1287643368012628,0.1767522333577148,-169.43704778866882,46.55719700650461,48.95387168973678,1.4491903113888214,0.0456119391280213,0.138614384054613,-229.7427971138837,35.74669822107903,26.82071928432604,0.3340288184621843,0.9692240807444116,0.4019089487469991,-114.69207800524396,50.3844659101758,102.62426205671947,0.0233017075247367,0.0171061428311692,0.2630204954600742
1.35,-164.67916846561226,62.82116259957481,166.87696497601434,1.0282130169793189,0.1132626175174515,0.1729881966608905,-170.04927850642588,47.97458071587423,48.603624294989366,1.5576934838643564,0.0632154890224488,0.1345516045772993,-230.2567110572577,35.65308294414371,26.803676218345466,0.2702720572126138,1.0482871263832154,0.3940780174480578,-114.38871379526972,50.447671350335455,104.76191930502388,0.3104504050829,0.0083379863956182,0.2700621695391864
1.36,-164.799204511592,63.00196602041389,166.68980564269503,0.7809412719153064,0.1067309446258232,0.1459731747255991,-170.64853362084145,49.37120220961896,48.26514985856628,1.649815280571656,0.0644227348248463,0.1443757586876418,-230.74937231405423,35.53133660281176,26.818100905417765,0.197625525887996,1.121740116269151,0.3955391212215712,-114.06801670146972,50.50498155043652,106.9412096123254,0.5729381608531904,0.0176149491976458,0.2880665752614746
1.37,-165.00203036869317,63.37959044274655,166.2943963143131,0.3491193278011443,0.0594992171797582,0.1379121646745832,-171.26572518710074,50.995367179928,47.89410133053368,1.2378032920123352,0.2903267522959188,0.8133421244233525,-231.61781452356112,35.25226511752451,29.505711249401838,0.1151559654609671,2.1084893430870144,0.1867163697100279,-112.56370927981165,50.34487769851553,112.34496750571245,0.374826220579031,0.4885828990679283,0.4528487171992897
1.38,-165.24882798866747,63.625812036464346,166.00583120532727,0.3613946430205758,0.1634252383831618,0.0121649519136482,-171.580734060863,51.86875671725134,47.63001928375475,1.2927512049785357,0.1416952360068358,0.8345312519944443,-232.08482518865907,34.81359121640706,32.0595431893949,0.270934042691734,1.2726986797028186,0.3232142762169029,-111.06386267720345,50.18970302699288,117.74659158256742,0.1710321481844232,0.9693335772727216,0.6295319908969587
1.39,-165.2588098345968,64.2005304409148,165.55654518596032,0.5209796327499918,0.0925724461403414,0.2301234800660533,-172.01852876155348,53.49751189881904,47.19945891586292,0.9672564800965164,0.3951616746485572,1.5118619658546626,-232.5463764948028,34.3884702662134,34.623679541617875,0.3996820133681013,0.4333140217854627,0.4840180899312128,-110.1244424911928,50.11329593375232,119.88577505313368,0.2028558192781871,0.3099614477914312,1.2873488057271718
1.4,-165.17108980152057,65.07918154481311,164.99550010064132,0.7009582009028897,0.0627056730489152,0.3865040396091992,-172.6014742150822,55.166386670547375,46.64109051437685,1.0638051970065865,0.2559795464956516,0.7882296038256436,-232.4965442338769,34.06058283714911,36.81385913683135,0.0466268541756997,0.7620086459847175,0.6859233315320304,-108.31916137556703,49.878485821252966,124.13228625261316,0.3546110175574016,2.8734223866969666,3.493772809088469
1.41,-164.95566542703796,65.68992473887394,164.5593533865759,0.9283630354574942,0.0509039938688004,0.3244612728755647,-173.19559229943388,56.80652518648142,46.06606730351712,1.112662859343466,0.0803612311227452,0.0546951564157608,-232.4410726342597,33.66398999821513,38.93061787934727,0.1828125673867607,0.3747032149574579,0.5024465591029514,-107.7514500815429,49.18461096060613,127.74196964544784,1.9595458052823105,0.7169363488546638,0.7611732085452707
1.42,-164.94057902700115,66.49222343424296,163.99835323275943,1.03873157597836,0.2047837678303569,0.7724120921635107,-173.67431071970972,58.50462858303279,45.445918705628266,1.0059377441084505,0.5289012329945315,0.5110500154349934,-232.8540787696042,33.23877781480424,41.44467402574375,0.8940337235609511,1.3352988984934315,0.669107684231892,-107.06635318417749,48.00448649213061,130.68090832205067,2.586635035253839,2.5098975806770074,3.670848151908319
1.43,-164.9454525992332,67.19339408451717,163.74485134145377,0.6811126014218268,0.0417032471041581,0.3937195824668931,-174.07199437690932,60.11558175951859,44.75327706320448,0.9776456640653118,0.5170949731568044,0.1978638666264292,-233.3173796741484,32.756999564475514,44.12604061173834,0.788438036887667,3.218191012534505,0.4018808312654865,-105.94712339781566,46.989856536125686,133.570491498945,0.6383068256028588,1.7565509025996184,2.422647905671226
1.44,-164.94069806252745,67.69887189775497,163.1390812900345,0.4841981975367098,0.2876649869595938,0.2433014270146865,-174.21172176763676,61.56584669869316,43.95160680679936,0.9703612415695598,0.0447182469676952,0.3628777887089285,-233.3739883840734,32.19906960025279,46.87888893931772,2.254706151406291,2.989968229957326,0.443764403133347,-103.60763901555548,46.41352945038312,136.85903308988514,0.5591837888518427,2.5507086067452827,2.1138020310560965
1.45,-164.6889887537977,68.33657304953672,162.88406483901343,0.3601787606321425,0.1025967199604578,0.565569421628159,-174.25399081261708,63.005415694925496,43.07587373916869,0.9885125711671005,0.0855381033802254,0.2887230143319966,-232.9218021574247,31.73423149310312,49.189747838953934,1.3778591018360973,2.274142706258277,1.0292544750273922,-101.31457970736456,45.78947088065322,140.13837705480415,0.5064085214648748,3.314059672402065,1.7885324055507446
1.46,-164.43299167805972,68.9557851352321,162.57587712670377,0.4240209393904424,0.1992132845893525,0.4802801537644025,-174.2088409201983,64.37147598341122,42.09633457353237,1.0475099804657426,0.4467147035835684,0.0734959876686396,-232.439327925976,31.31736820501347,51.50453652069191,0.4976881038441157,1.5680228395923617,1.5826572025891712,-100.07023619918635,44.61513971803464,142.37824883437847,0.2509755312864169,1.2632288303652066,1.656024214183844
1.47,-164.1856014237669,69.60238056692374,162.2514991848401,0.5305400742067506,0.2967690093462403,0.4354376316018861,-174.18801588908448,65.75237809410261,40.95406536530624,1.2956896343910471,0.7290255845513843,0.1538401125785628,-232.63022410508216,30.617485251529075,54.04671844491062,1.1447259971702464,0.0573155580612637,0.8395684314982784,-99.23420290370704,43.64922120540003,143.97633356050204,0.1446467950639499,0.8571271723971893,1.1998908246485038
1.48,-163.98734160760517,70.04685847896113,161.98528645288266,0.3172296096717195,0.2913919035938213,0.3249704755589379,-174.19332989298826,67.01725707855427,39.76335885906399,1.3438706536581142,0.6766940528728055,0.1652739479273481,-232.82189594158103,29.91846937710281,56.76031594374607,1.2440567340822517,0.2325063666426038,0.6188745623147638,-98.45333402445624,42.683768221329885,145.55915379682497,0.0364065739773496,0.4479884636763889,0.7363764650528143
1.49,-163.95257741611906,70.50144093489637,161.88618616471106,0.5143441824666535,0.053703609518292,0.2260255979782928,-174.19746314392333,68.10173542175394,38.582534624268206,0.9492323235416692,0.218105610024991,0.2353133023975295,-232.93195907505952,29.42487570406352,59.19662907741266,1.0022263576053383,1.9136242045916976,0.1824694750273145,-96.98658268239546,42.30738862175988,147.79941969731408,2.0194627917174337,3.4110897203528534,4.056534492418967
1.5,-163.92540667810997,70.7260624044446,161.6538325994678,0.324663939764807,0.0972533848293391,0.2227351320560493,-174.15757965094804,68.66750141464937,37.95826761142967,0.7217566852860035,0.1464793502956415,0.1687819396444461,-232.61065577254357,29.402718321949383,60.25624072044867,0.7980676507432212,1.048078003062675,0.3888162570387193,-96.41048962758084,41.65590854721066,148.67949804878424,1.122807923870916,2.041603951366783,2.37662024806669
1.51,-163.8983108474497,70.93478645363223,161.4602554531683,0.1529015886056441,0.147406502434452,0.2330422558479742,-174.1415681739002,69.19038952678733,37.33646273521872,0.4772639580503146,0.0452945797276739,0.10933422350215,-232.3165817780182,29.34506763465782,61.32171107548208,0.5536259148052376,0.1860797355296974,0.6177488104308049,-95.81243518164912,40.99578448136421,149.54135562539196,0.2132110789414433,0.6640097312038651,0.6466066309729166
1.52,-163.76369551109153,71.12307157833648,161.30922038464118,-0.0006207703868773,0.0155502549712096,0.0441948307976463,-174.1398456287666,70.09542828983602,36.02012115575028,0.2558426411318317,0.0227873392419979,0.1350404777267227,-231.36916764387743,29.496812275965084,63.17770394571736,0.5192457460827152,0.3449340526505268,1.3602977516244183,-95.05175684550304,39.88049901550051,150.49838675401404,0.512388041626611,0.6965687912299778,0.2217892467902041
1.53,-163.5820111600399,71.59487130038657,160.81249359276634,0.2611640242375837,0.3651621368282733,0.0132630739781104,-173.86353447211036,71.00764205888083,34.58975198923331,0.7444161151821037,0.1382986850257368,0.2275826227404719,-230.48869934946495,29.55318887839197,65.26153334263918,0.2380025477810784,0.4575550754288466,1.2103339688300931,-95.0424809747813,39.06492479020329,151.3786190721006,0.2077264377453163,2.2316431894955424,1.716985363222366
1.54,-163.189706584815,72.01868625423856,160.87795423371273,0.2789586495986619,0.619027810321198,0.0094168054234538,-173.77269324463788,71.93215029398559,33.26608229031732,0.6623495401486549,0.027514975284062,0.2188065814983758,-229.98731540636865,29.468587400815977,67.50291564774022,0.439797340623155,0.7789803674213792,0.4650026021604423,-95.43037997155167,38.74625140491026,152.61612236280078,0.1105751816683446,0.1152649946635597,0.8193768621399675
1.55,-162.82171838212227,72.37851273087614,160.94931562394927,0.3449733485969198,0.3174503146399796,0.0435284945499375,-173.63811643088837,72.74224323749273,31.999710270852912,0.3972566057792494,0.1826958588211137,0.26282339135675,-229.93088605514063,29.0466781527148,69.86460121979687,0.8557305584849455,0.7285113891424367,0.1896358840107296,-95.74854457241253,38.3707191302299,153.9455829765119,0.1087569626998159,0.7121398965874768,0.1706398512776505
1.56,-162.43877742624335,72.75752587026297,161.00741912137684,0.3968572227194533,0.0167228599424691,0.1004583521533005,-173.48947125268543,73.3733023060679,30.770473688166707,0.4340266028259143,0.2043237666627754,0.0354753093839848,-229.5614363951946,28.7447549104589,72.05566104918618,0.0494136875185137,0.9007855720307076,1.11546645767618,-95.11787719993217,37.50235992904133,154.36442693147347,0.0759862678313612,1.6991464561318348,1.089491877350154
1.57,-162.1988493956246,72.9494583019217,161.06323271039471,0.781034044861813,0.4762361221395121,0.3241689678386797,-173.4353299348206,73.69472632943526,30.019194944338537,0.1617276278637796,0.1741616923936883,0.2534408774302367,-228.7084645035033,28.80300959356656,74.01754255740073,0.2957193251135354,0.6461680401930049,0.7342337198162775,-94.50656513110692,36.635386640006026,154.81205037712735,0.0298950500728192,2.695094311108813,1.934764739000549
1.58,-161.85360497106515,73.1327769562312,161.31128485568055,0.4461382171064728,0.1707159445482584,0.177831365316632,-173.326023996675,74.29841440699009,28.59500941647368,0.1234303778704988,0.4110559448599932,0.3408006066353611,-227.86737336669103,28.87382699682136,76.00849799292246,0.5532485591087818,0.394659655772499,0.3780190782274306,-94.68489505575424,36.25227845388604,155.36964523570737,0.8344507523971844,0.9271147382753384,1.1769158905078632
1.59,-161.3935081540168,73.30201444566282,161.49672865661012,0.2718426219630629,0.204539463633661,0.1583196849304895,-173.09496545984445,74.89863919549428,27.30714255790477,0.2425206848482222,0.2507631838967459,0.2570865831574394,-226.698263764646,29.37399019491092,77.68783078302279,0.0551608876350162,0.5002020086384397,0.6805695168951393,-95.30567046149396,36.05380122717565,156.31401432294578,0.7684607835301639,0.1912463553578107,0.5336226776417959
1.6,-160.94788732920736,73.37969277712706,161.69326307195826,0.1168039262730594,0.2863674406857738,0.1710958792592344,-172.87262455775004,75.50337678980289,25.994953689354528,0.3219383294015923,0.0725597918213059,0.2065609152704597,-226.066423436244,29.500557330943707,79.50627790342448,0.0786895088319271,0.989145185640416,1.2073138362205555,-95.05924777867352,35.495890233208634,156.73302969251102,0.415761568065484,0.7471754964871153,0.4682701864223841
1.61,-160.4915435775267,73.49773267248261,161.94328368122876,0.0123476945111776,0.2209382896583102,0.1893138034380691,-172.69163649918346,76.06550651673545,24.591747283717137,0.3859912854410592,0.524964747089841,0.2196345810552327,-225.37523275138605,29.57244158495148,81.31191128361353,2.1270998995650974,0.0153183261968611,1.8972185964593624,-94.1782930537661,34.75526868585784,156.56678012777036,0.0424892116706705,2.125354063091537,0.9279817254022996
1.62,-160.13976533145814,73.69714291483422,162.00364337165462,-0.0128754026411912,0.1450112158867108,0.0196989345269094,-172.41220162844704,76.49179522724565,23.39435551967232,0.2289072964652349,0.427292550167484,0.3092384355654561,-224.682574840588,29.813116053208,83.18347237598935,1.757803000257813,0.4464978742033039,2.341634956307244,-95.05610778784316,34.63831918629707,156.44902251728595,0.3413029834410322,0.4582972069997553,0.9515069838240756
1.63,-159.63855834442683,73.87076099209287,162.49948355910868,0.1895390587976677,0.1377646463959297,0.2500922995577952,-172.13321014997297,76.94167677265244,22.1955984456556,0.0900103231542333,0.2860461663191767,0.4029527466124079,-223.8214698496703,30.315903615158145,85.00501288578093,0.1978739546773126,1.6978786475179468,0.6285370680010752,-96.1330335352776,34.820201809958704,156.69043831067856,1.0092160014098568,0.0789763606307388,1.1964366579191867
1.64,-159.26466055400584,74.10835027464739,162.44933155303391,0.1427249785456825,0.2343816077137585,0.4257074004546821,-171.96137323917696,77.31238260344803,21.143335597374016,0.109486727537355,0.0729598411361739,0.4666072727481693,-222.55250953339035,31.01106574438397,86.51139643002821,0.236007515750058,2.19917007783579,1.1909205339204847,-96.69932482209876,34.88619969661882,156.69220649985664,0.8964913685453191,0.1337935896677835,1.204510954956202
1.65,-158.99226440585664,74.18869429459355,162.70613153673906,0.1495405807699718,0.1646451211638085,0.3667629803513198,-171.88124126415696,77.56484504899564,20.4495687493886,0.1129420498837142,0.5697323086300712,0.4177222966203829,-222.1275959030364,31.37313125211486,87.21634372636146,0.238465428991983,1.1291345828029309,1.2063939395466812,-97.14699149343411,34.98036188466817,156.5314628469092,0.5256088339580905,0.2374256411509147,0.8056379739718038
1.66,-158.7525707053717,74.24221275328075,162.999829969141,0.1697382567591052,0.0942365221683184,0.3287292063121115,-171.82945011029958,77.79475090653425,19.757069682181392,0.1172866281576315,1.0320605101033609,0.3471409803879935,-221.6735378229643,31.747508325437117,87.93362003393723,0.2407676955221844,0.0602179766017853,1.211374394963871,-97.62538279464955,35.06560524478556,156.3771642752651,0.1570627291510254,0.3203401820879111,0.395030609236873
1.67,-158.40433735805377,74.36131316242081,163.48042796300507,0.3379295741666938,0.1621989303059403,0.0432034181877463,-171.70160757997982,78.11016247081517,18.763231256546504,0.0171143487751029,0.2981188473464637,0.3169748415318774,-220.48696735582487,32.495899506838164,89.56569210889376,0.1742135985526935,0.5197107713752653,0.9338332891411792,-97.67749110488124,35.312159990796246,155.9348802813396,0.4714153427887882,0.6600237777904719,0.7457824325752758
1.68,-158.00266027915734,74.43801585831633,163.86381551608062,0.3204978531776258,0.2065662076612654,0.3333831682541518,-171.4292749057087,78.30684316124506,18.12092943178533,0.2208219676312525,0.1422901544868487,0.0721427641013581,-219.42775866387169,33.37893986328028,91.18289832981226,1.1063646386463877,0.1893250210797067,0.95390035609921,-99.12740628796509,35.44540382205301,155.37748191161504,2.5700893203802297,0.3787546983198361,1.771569439072708
1.69,-157.71307828845926,74.48899487467976,164.04906732121668,0.0362371008221898,0.2592264441439434,0.1104536534243557,-171.21210004071065,78.60582257542522,17.121791497505566,0.0449785660531438,0.6004768130526827,0.05923676623948,-217.76925164196865,34.441335457796434,92.68653070705692,1.7627283715673618,2.1455598656173422,0.4650990961642669,-99.80695210059392,35.50469768821016,154.6227872037396,2.6616656773126794,1.2149523887903262,2.1211896585619794
1.7,-157.31174530877746,74.49495561278546,164.55543660912667,0.0563072063426885,0.1647048087075894,0.0507193582762303,-171.0178537162383,79.0071363913266,15.83204455043516,0.1004835631848603,0.5048185776621678,0.7298158152284204,-216.1916588722766,35.19518999071952,93.92694125044248,1.383225123430638,3.3488121701597016,0.7702323857901586,-100.11262560864442,35.62364498365457,153.93735797800971,0.9352526319461598,0.3153738861669026,1.951861289671089
1.71,-157.14657116069822,74.49794220534325,165.062193153141,0.0294403203798035,0.2760537228899168,0.120022654517063,-170.93539380395617,79.24303000319284,15.333528172204502,0.1391342012319736,0.2481895279472827,0.5886353549589635,-215.9197377534041,35.44267862974954,94.50705740422995,0.987362518667896,0.8206293587583915,0.0802040637651347,-101.04741539916766,35.99861679517624,153.245322701903,1.0430374003458005,2.117234933943868,0.8541914377550868
1.72,-156.99308090293516,74.57005727367518,165.00017029967162,0.4664849347685945,0.8494394706420483,0.5939393665817642,-170.8866436180859,79.49110943808392,14.828965027535505,0.1695242328215788,0.0103868416259759,0.4332199686867627,-215.0488051112341,35.74850964816679,95.7436172907252,0.9489437656021767,1.7043019120179883,0.2458353060369813,-101.44178635751592,36.20025288428343,152.4378476168624,1.7934248347412989,0.6493027621092022,0.4413933860159574
1.73,-156.9465370588994,74.55046181342381,165.19679306165244,0.486671324352405,0.8917042808579807,0.7093811905593557,-170.74970982735007,79.85492787898961,13.698159538238444,0.1833760478907613,0.3228531223703905,0.7174309134604407,-213.74716325400607,36.42956632077752,96.86402638594282,0.1093106358577431,2.7361280783270123,1.444266676422011,-102.70845467038517,36.30313923844621,151.3664595102875,2.361503320812788,1.439419173491459,1.3805830735610614
1.74,-156.82245540939437,74.56308495255311,165.31226795047047,0.1563669133429731,0.5886631109250675,0.3968591889250307,-170.62345820079432,80.0617597259739,13.073699498210614,0.1269697442504141,0.6479971760297076,0.2052278874808855,-212.37111452594743,37.57169346140542,97.80451964513222,-0.0083939700620868,3.6285428311562526,1.5471326996838335,-102.9917238990656,36.6338443053945,150.48680897850198,0.5808976821958137,0.5870680956337688,2.0727247762490624
1.75,-156.69501820370013,74.5674708075021,165.73090375285102,0.2846475106523064,0.3539697611621745,0.0766047334287315,-170.52028116416685,80.22572423137035,12.6915556018323,0.0831380031976019,0.4505145394690387,0.276107307540458,-211.61393695893352,37.772354669201945,98.69152462518792,0.7037831645457024,1.1077857513036016,0.8264228252072197,-103.17521849578895,37.041429321748886,149.6346884625786,0.5145066936226185,1.3619053128602243,1.1308581897372985
1.76,-156.7002438171156,74.57387961497436,166.26408114416697,0.3842337624211788,0.2291558976108318,0.0983117973156527,-170.5733739700052,80.44128312609763,12.144295476198575,0.1835942286372943,0.1000384090100804,0.5926207291436536,-211.1901771160336,37.94163102153172,99.48582765311626,1.0218944209171783,1.4068169440035063,0.1452233809826609,-104.31275405498262,37.50678031037506,148.70079619610047,1.191133376368169,0.6115019007206733,0.4036782267245588
1.77,-156.63473689369022,74.6057097663107,166.69341703865595,0.2787063157242209,0.0623230153024613,0.2463146451749626,-170.56556363016966,80.55697798257138,11.64257204167978,-0.0069665183708133,0.7356422509460775,0.4881525403179849,-210.0515247335192,38.50354301735637,100.186012425722,0.4940216270354652,0.1587673894051329,0.1415581105489447,-104.4403319409609,37.57670356463765,147.56766961227942,0.7498370532158328,2.868757394906126,0.1109923107935767
1.78,-156.69882803277198,74.56842859750385,166.87593547835684,0.1839721915066385,0.0383139232822526,0.575242670797768,-170.42778478982697,80.50113519201996,12.009568140869932,0.2147192316364177,0.9975120263759828,0.0410273034388383,-208.61295087621255,39.25764849511157,100.6716342612781,0.247247497380453,1.0456430539946973,1.191900832346405,-104.42996476173124,37.83110095112206,146.55687204145386,0.4955947493654115,2.46961154463709,0.2410142500543658
1.79,-156.83762079747848,74.55469487597212,166.67119049793504,0.1234585129461958,0.1902111663113679,0.1458739152058167,-170.44581041548136,80.44212131503667,12.2676198573668,0.2109526927766456,0.8142758613727273,0.1235557815212692,-207.64279085577567,39.80232744419041,101.17779277077004,0.2197220719572212,0.6903528424737718,0.924146235038365,-104.8133737523866,38.55599390615344,145.90324771403942,0.9719989143321986,1.550419603201102,1.7141119377487406
1.8,-156.8896081443769,74.5100799760109,166.72000474201477,0.0748868038949051,0.2515242712529711,0.0944078377133699,-170.56195278227085,80.44789033839903,12.226380759661849,0.2339539629107626,0.6915711315859217,0.2771055316565546,-207.1598403692536,40.05965800942756,101.4372555627273,0.1814101143426771,0.5245454814757695,0.7719947563797956,-104.90983164007612,38.98324356989962,145.6096355011508,0.7534178022728187,1.707809209930702,1.7048198629714728
1.81,-156.95083315350422,74.44103314349661,166.74533888975773,0.0571308667579275,0.2927408045597057,0.0360189292707841,-170.69072244353595,80.43233777051562,12.133199046019367,0.2921435277358113,0.5707678842947145,0.4329453302797127,-206.6892008615195,40.301052002072645,101.70030131241474,0.1635296713376342,0.340570447790315,0.6327076614771395,-105.07821976078776,39.38540346058184,145.30681876844116,0.5687669697297948,1.8423862075439656,1.7432247627438744
1.82,-157.07410935377897,74.37192689642646,166.87893743052837,0.2136805495811169,0.4664194232358211,0.364321826619062,-170.86970716078025,80.3847300399857,12.493144749836585,0.0946151238057154,0.1433761885044726,0.0626314331020223,-206.50754007175811,40.3125030651739,102.381869339387,0.6886766773752291,0.6590213152582703,0.0514154509322481,-106.76350824462176,39.56866945891077,144.16976828595014,0.3733540638905285,2.6536903230337487,0.4567042240407672
1.83,-157.25115285822298,74.26311914408724,166.8681653125564,0.0433227061065687,0.40261320207764,0.4143426739965493,-171.00525345025298,80.24960845966218,13.518783953486974,0.3854724470003203,0.1312167898741142,0.3026218161583588,-205.4401149135554,40.88361043765964,102.8008884182537,0.2476935051916384,0.1377319681292638,1.1194102758915283,-107.8576887889806,39.83445646223474,143.24248805941036,1.2852162642114606,1.6325956236992143,0.5752940777877332
1.84,-157.45089442633562,74.19908454721607,166.93816960973777,0.043519464568852,0.2232595336910522,0.5733822581836315,-171.12444294897253,80.13812817088241,14.338101734123956,0.2918946900463066,0.130662731541913,0.2307237138384552,-203.98557516153303,41.76587022806821,103.1790325500168,0.9534042289283146,0.019016828457999,1.835900323952085,-108.18289342228783,40.55326016059748,142.81312692553408,1.0243808334855535,0.2097003202606955,1.1711230561734751
1.85,-157.7024139145578,74.20279460797056,166.99324788411283,0.0367951253926406,0.3403540051417332,0.5794915017663169,-171.24479570260124,80.09965955197335,14.707073745857477,0.3143064896315925,0.193631929963766,0.2458749409433336,-203.06601614655884,42.32501057700389,103.63423081313636,0.258093066427384,0.4858058370119557,1.3106577657411709,-108.43711978361608,41.18621244620582,142.372634932672,0.1763495779850256,0.4937873631205555,1.2827206037449963
1.86,-158.05832568881246,74.00047729314385,166.72309725673898,0.0680467144892454,0.247526131093963,0.4004246272979702,-171.56390677343262,80.1750747643414,15.27201294567986,0.0464246936074718,0.1706266421845947,0.2327602420947916,-202.12734754164225,42.81836644523238,104.06821121850103,0.3950546720128791,0.1012200475419173,0.4474844390723055,-109.19625317708888,41.424005015609794,141.70391402000263,0.5008174535982212,0.8184943492859788,0.3510021772313749
1.87,-158.45738584633318,73.82190554623433,166.42979451224116,0.1008207250268467,0.1566498084930627,0.2316117802032845,-171.80990394234416,80.05645781504136,16.571748384222182,0.0927349052159159,0.0872448368820489,0.2404085902371369,-201.31997657750333,43.23611909767057,104.43329299681044,0.1498050049677088,0.6100277662470863,1.0615128316577882,-110.48759403046984,41.62605516660167,140.94312419280524,0.3492638215920294,2.8092249553957336,0.4314720608332144
1.88,-158.6464299741586,73.68297214787499,166.42814141466198,0.190027590218892,0.4641564341485161,0.2835386100317625,-172.06659969657093,79.86630844723625,17.887930393559476,0.0879935463580615,0.3175892266694016,0.3039803797270806,-200.42773962728128,43.68583746232239,104.8487264658309,0.6247179235324374,1.1568152132945293,0.8009916080707105,-110.30977630282592,42.31343181982958,140.63773772364408,0.2232508089980836,0.1406945379859882,1.130549951642184
1.89,-158.68250898061848,73.6194464930617,166.16307302193994,0.2542534728498359,0.684854770636253,0.2229485273857651,-172.38236913972435,79.82265210531051,18.95288356889867,0.1610397871909734,0.4709878373868355,0.4505280260459561,-199.43425276452632,44.13570657927455,105.36839415630344,-0.0070542428856964,1.1832711367171227,0.6410854918191609,-110.77858985316958,42.55817931150436,140.3437679611511,0.4356551617220985,0.4778250748677594,0.8805432819580664
1.9,-158.69265395175532,73.5692020024385,165.8736457281833,0.3324135339072355,0.8618808814869638,0.1500761014296362,-172.66356114252463,79.57067809807667,20.352970727341905,0.2194673238983937,0.5275388423362541,0.4603552507675971,-199.1922516283205,44.3238674497847,105.55634734233614,1.3725536926401565,0.7044119818099984,0.9376254418962452,-111.24905792186546,42.80237570361872,140.06839233665423,0.6455792065660273,0.805842730929073,0.5937071051880172
1.91,-158.56797760828292,73.55540891970368,165.56261462336104,0.1724429819192119,0.7435771845494578,-0.0090342605039422,-172.95807253118426,79.31692501761384,21.76445831722236,0.2863895322865605,0.5923422148126258,0.4917109226455937,-198.13393343674707,44.82651995358956,105.94165047454403,0.8753053967544256,1.1150445742714348,0.4833577908986571,-112.05432490995987,42.69553153752968,139.39512182195196,0.1956906332037827,0.4931824076100795,0.555436241736112
1.92,-158.39933778195487,73.44460289064057,165.81572834847688,0.0854921514636025,0.1108202346486419,0.0930265114529175,-173.13100984452234,79.07142968221592,22.88763669690059,0.13433749556206,0.8392026317023611,0.5368992867405924,-197.3786786201236,45.06773738054406,106.1294286840441,0.1545311800986869,0.1633082111642963,0.778937738538735,-112.8300227121369,42.75751896595629,138.8750274373996,0.2777683542782488,0.7916968119454733,0.5387339816036167
1.93,-158.19915576279007,73.46077953264174,165.87624243995975,0.198880704580172,0.1277827630958923,0.1519358785696445,-173.06802803716053,78.80375966649727,24.37797809868437,0.1424566548513015,0.4755697274769762,0.3601265622379132,-196.77763119844704,45.19715880683197,106.33728898141428,0.2383302555262756,0.0977731268759064,0.9497954820609444,-113.62523530916351,42.7974121450243,138.36881977239975,0.3578858582773309,1.0719475395291704,0.5009394231328013
1.94,-158.0636204928779,73.31569002702678,165.98456523240682,0.142569073307947,0.1133840472470815,0.521990695278174,-172.989050404875,78.55529700710777,25.84626009557726,0.155571912444709,0.1353188500761167,0.179904936673415,-196.1730450207751,45.38873572360274,106.55949364303146,0.332872720823915,0.013533883289014,1.1227727924355737,-114.26201544358013,43.05988786718624,137.93586598053858,0.2291500563451343,2.5790999447204155,1.6827966357609976
1.95,-157.96773467272885,73.2479359575547,166.21838904704347,0.0966585925082953,0.2019682948905552,0.4082944681887314,-172.98474398206903,78.3674739854042,26.72482157780392,0.1038740172808004,0.2466362982083577,0.3356814771274849,-195.8589560487337,45.57785074211061,106.68256135948933,0.4014167091300388,0.2819991046782376,1.264438694400429,-114.74254748126684,43.221605977734086,137.625758042926,0.4927539662025857,1.4982129928380612,2.10544544608019
1.96,-157.89640056179323,73.16545293823346,166.44134628618204,0.0760431090520163,0.2517216613749659,0.3274406378898051,-172.95708484705946,78.19388661929136,27.5801984425896,0.0265872266219594,0.3493954456491727,0.4796673870310448,-195.5504810664201,45.75579664018434,106.8065412991669,0.4454228472036149,0.601721432406839,1.3906333155150672,-115.234964696856,43.36752806121776,137.3131600501839,0.7356801539009552,0.3935934840540738,2.510684981126817
1.97,-157.80668779983753,73.05589357882323,166.44192249003447,0.045596148878833,0.1893448581275822,0.0650131530401567,-172.8810999332494,77.80034074003329,28.834304874365447,0.3193201852965215,0.5820363739638013,0.0990038888776753,-194.81291924003773,46.14147531502076,107.12143658708968,0.1517845344501349,0.6700948521302972,0.7648329607461656,-116.01188816387742,43.56554218471645,136.55086297104862,0.516324096218118,0.5327017340901001,0.2791264059155753
1.98,-157.8124024769366,72.94274044812558,166.6102535551659,0.097114198275808,0.2916824670087194,0.1312903448468899,-172.75831317741813,77.44188495959011,29.839550411288727,0.3288825488083282,0.1539870554846241,0.7449477855496539,-194.29372254324508,46.56531653924887,107.19040359006895,0.4188188740679031,0.2893095108608752,0.1485661445110863,-117.24796144318928,43.74249707137137,135.87095204722524,0.8554956927097623,0.7523058376934575,0.5442269941476044
1.99,-157.81748873633623,72.88141119359261,166.7526842207821,0.1283797463396108,0.3985628695961398,0.236241595076985,-172.56273860806627,76.98871931009276,30.954366218758796,0.0744607750762221,0.60699775777616,0.0715571546008338,-193.8105262446851,47.18653037279224,107.1812567602468,1.673407072777673,0.4654199975401888,0.1168120089149669,-118.176578989023,43.745910133431,135.36483429681107,0.9778883791013112,1.5626250292276864,0.0766231373505391
2.0,-157.9496572602146,72.88099322135868,166.5031777315248,0.0647796228718948,0.4109232844596199,0.3813862823164898,-172.377985736332,76.55601689085658,32.13881057329077,0.1872620101549695,0.6167557024981368,0.154092103230896,-193.3186764252321,47.37641846721632,107.50759759827366,0.6886241927139878,0.7921646563013239,0.6056022354693559,-119.10563897481212,43.42596779994333,134.9934817384566,0.2370587292690226,0.2042711909410877,0.8280216966631923
2.01,-158.04608845601453,72.81834196833218,166.68064477041014,0.1302768540279246,0.341524123421338,0.3461082449573771,-172.23591190683325,76.32855455544534,32.85200120840563,0.1420823639467343,0.3351751053714603,0.0714162727877099,-193.13126557233647,47.30432979962302,107.744567878165,0.5135890860847854,0.5837609981077864,0.8480029237360404,-120.06923832172168,43.08388900403792,134.5416990563332,1.0036027284562867,0.3954646944761571,0.4926253170038439
2.02,-158.1193111956314,72.75652320700141,166.8786002503189,0.2441456578654836,0.3203526589662803,0.2822760295609059,-172.07822581506667,76.11559767235234,33.59638488070499,0.1128727825043798,0.0968147279042573,0.0164946868933943,-192.845820398355,47.091460996127,107.95735453897188,0.8901376554748744,0.6093346542551119,0.5290659226773693,-121.02065295729226,42.74709452064166,134.05914692226654,1.781703865211143,0.5374998131923483,0.0768734144476565
2.03,-158.30667931717844,72.76148301670335,166.689364403158,0.2303707020268242,0.2489150076804734,0.062331705018057,-171.88220785996955,75.87613048316078,34.142805302596585,0.0092245163168025,0.073632742632694,0.2816056289326166,-192.566948672756,46.86533406503554,108.1870358517252,1.2993742178154724,0.6123262187709395,0.2315858664358074,-121.68481855966704,42.75562564059099,133.82797429426685,0.7757966280743019,0.5892511628249896,1.3494362505944109
2.04,-158.5684368999234,72.70105029349077,166.56646754306612,0.1551717089257761,0.019737044673135,0.1895988400131912,-171.8880511201751,75.59292817588809,34.646571884159826,0.0964021726496971,0.0806333721368909,0.1734537183949308,-192.1872926899888,47.262642994909,108.49408331682804,0.6104282039238799,0.53779388738667,2.0946002606822742,-122.07822931581036,43.01130667183377,133.6891178649223,0.4187879059231072,0.6807937363691114,1.2306753570644016
2.05,-158.68707352056828,72.56193810720937,166.54933799581863,0.3776613605586595,0.1575333765147755,0.3720758677681021,-171.86879602473527,75.30327084172798,35.13466951525037,0.1569566670210368,0.0855567072411955,0.0771872831609619,-191.54968518625185,47.57203109174021,109.01884384636143,0.5723444889928869,0.1512582767660859,1.095967849172919,-122.80805460205778,42.93641915079248,133.38447436418454,1.4658828998887388,0.7443624896721714,0.804232387220525
2.06,-158.82386639354436,72.54777325805898,166.13034825624158,0.3790234470987206,0.1534432571329065,0.0771420303961296,-172.0792900966801,75.06741449001859,35.56993116865358,0.2123324775642496,0.7373064388288001,0.0789175568914931,-191.17040970298385,47.80997333841325,109.55277418251272,1.3379656922090188,1.557226452472414,0.086839289787289,-124.01369491024673,42.611679008726185,132.93029482617138,1.353834038326491,0.8812083276716816,0.9279348231828508
2.07,-158.71118459696444,72.56760512015433,165.98757145149062,0.2082356684887387,0.1546887852033452,0.0638920934984239,-172.00410688523775,74.86218445687254,35.94283006318026,0.2231138490501539,0.5468565255925687,0.270910537540267,-190.69406744997167,48.01122096008249,109.99726199863504,0.8852715953295154,0.8330527464826043,0.6473631788178832,-124.81271944148764,42.43100084356856,132.6417840170703,0.1911912675428827,0.2756394483154289,0.8714451732785785
2.08,-158.7965670604535,72.56461084505068,165.74336106433236,0.2533632521489354,0.0965353426010388,0.5264590441385737,-171.8136934829754,74.62614611990523,36.409090388451325,0.1113355477194687,0.3654200618096054,0.2922789711829579,-190.31570110871397,48.06827516198853,110.20196174224002,0.9390263150117164,0.2734808799464217,0.3926077668227912,-125.95266735306458,42.2369770107208,132.3109522677509,0.2184051777842861,0.6862282482736571,0.735568065758328
2.09,-158.75696389732127,72.62124644474588,165.5539843532316,0.1535945866573588,0.6186267483311276,0.1251250648949271,-171.81970238283574,74.5098707986903,36.75007742802497,0.3500917156396467,0.335990942040453,0.3206623719618617,-190.2545349786053,48.14500035180869,110.3145311390357,0.0379733541038197,0.8433534111244341,0.854166427340347,-126.4955385967798,42.14411513846159,132.1371886666129,0.0792119551040958,-0.0042595922249371,0.679782060074035
2.1,-158.74217015255255,72.57632351394096,165.4991702556005,0.0814512065455716,0.4221958658373591,0.1462329679852903,-171.90506568812617,74.41314712056732,36.981416942623454,0.3494751013590663,0.2454314392514641,0.2788327889159444,-190.15470383694975,48.06373494156621,110.3790639768738,0.3643148958239943,0.5913837742926945,0.6256224952377084,-127.03079926967747,41.95249557595015,131.88839462258463,0.1260449050516773,0.083932882272106,0.5521978318052323
2.11,-158.7645025973606,72.5767510138921,165.4363658341718,0.0520083229462461,0.2210598397090552,0.1636704385555972,-172.0220645176979,74.31244494085915,37.20958850200319,0.388811655147335,0.136722891762384,0.2664795454514561,-190.06745657697263,48.00117696395324,110.4486809619968,0.6893202941283272,0.3452939771828923,0.4106287589565714,-127.55121559299744,41.80309086301612,131.6975268941312,0.1801463469008781,0.1486768892040453,0.4355251917100295
2.12,-158.68908118704812,72.52693407744854,165.53262138618314,0.2506178584954115,0.2560345947191588,0.2352010077820462,-171.9506594757768,74.07563104640128,37.59021456260174,0.2242910453630524,0.356092851841238,0.0263249967672421,-190.2438077341855,47.87515337466225,110.5087049940631,0.2450997194489173,0.5344605813331701,0.0868174242448803,-128.0670329225177,41.59282049845357,131.43127392017155,0.4921198616691052,0.79364882841701,0.9792575005469968
2.13,-158.63553547174172,72.48819336085302,165.61645296041158,0.4415930594997911,0.2997974972698904,0.3246241219702677,-171.94797775109097,73.98235787909937,38.08060963272428,0.5928361252798467,0.3673868544113133,0.3102861037273088,-190.0887637097171,47.89869614110524,110.5255664225528,0.1584923360838921,0.56791037861512,1.130193852662885,-128.57276298815998,41.3838869587313,131.18593434056672,0.7923527487560348,1.4328556821633565,1.4974364798592847
2.14,-158.37538315188925,72.37769960151896,165.9835311889346,0.4677139010639584,0.3235030770368971,0.0270155579374637,-171.95775039819742,73.85683293537758,38.5840220370056,0.9689177365351328,0.3638515028784451,0.6198396862135029,-189.9202309317137,47.91890039940304,110.5624312055316,0.039527468947572,0.6201760237745524,2.18319338961923,-128.67234299702648,41.440054139726136,131.18784087123188,0.9894120302745728,0.1872809639385005,0.4323347891763918
2.15,-158.51608992724258,72.13367748703388,166.2536943275566,0.5954972763058323,0.0654605084293484,0.0277840537916634,-171.95497972791725,73.75975883175049,38.77352107452051,0.7333165754939491,0.579667284299806,0.0716965465324212,-190.00865744462925,48.13753558692554,110.63125080425148,0.2826251834334583,1.2354888894725602,0.7961840847608374,-129.31912486025402,41.32427299535668,130.95233192038637,0.6336392691200912,0.9916551894020326,0.683451143759039
2.16,-158.7002984459894,72.06344669819245,166.05878343563745,0.7376665208518183,0.3500577662105289,-0.0049698698814955,-171.92578993996338,73.77572890014275,38.79586207448959,0.5889971338592036,0.5650708095185183,0.093889899724051,-189.80713563625883,48.1930507068763,110.6824443898738,0.4741288660052177,0.7114831087025147,0.6038081561400196,-129.9439233939508,41.17713701037488,130.70408216951134,0.2955006152759032,1.7402257358505666,0.9505841704608002
2.17,-158.65118909840564,72.12015139742863,166.08093797527087,0.2068304076013838,0.6187346378019303,0.0546456459243758,-171.89682726628928,73.79314124193289,38.81666950821442,0.4466120435491952,0.5041455751739667,0.0827872234255036,-189.80063307740656,48.31049366402437,110.75424328412856,0.527991674449802,0.0970316475414914,1.363633483746711,-130.4282864551816,41.061426970602895,130.62068477514802,0.2982014800716032,1.4280362108054705,1.2422873099550549
2.18,-158.5552978111943,72.26279774187813,166.05793810632787,0.1743840003832754,0.0739439299543631,0.0350311820506056,-171.69246380749183,73.76137693138116,39.09870575950413,0.5692296209221864,0.2255069165794607,0.0204231756610603,-189.57514905594573,48.43460100380655,110.86811315971394,0.0178285900207961,0.2653960521709523,0.9840662244587602,-130.75415338007602,41.05412621365785,130.57057079539874,0.2672337041542466,0.3468552669814462,0.6541578060280648
2.19,-158.74530343502877,72.30588775545203,165.80383084359255,0.0444871402749353,0.190309270950911,0.102712724177121,-171.643241792857,73.7350804280599,39.32283407998165,0.1663794336339711,0.4811269909003918,-0.000533533539678,-189.31988732423625,48.38696095300551,111.01044560576464,0.2047280340127825,0.1015943950944838,0.3372797048228411,-131.4968129834901,40.744858734005895,130.24531870989787,0.1214847745842797,0.2167089438741967,0.1708345659021498
2.2,-158.94390153764687,72.18375576318492,165.8884178204579,0.2670612469531398,0.2263456483649164,0.2165195725213176,-171.63870326035183,74.00764849858223,39.26348776797144,0.6012094212421784,0.955161932935293,0.9048095695763264,-189.1203955552584,48.448211522775466,110.98742392812618,0.90784108422196,0.016812871114184,1.220554316065514,-132.38359498553982,40.50316367839923,130.0854472577616,0.2782391754290189,0.589616013801091,0.7024853454011138
2.21,-159.13713277073353,72.1714249546935,165.80916061535407,0.2813937197922783,0.1734418729292082,0.1997965571844743,-171.75251229326616,74.31384557261116,38.94721054735229,0.0291246476926941,0.7527563111457095,0.3111772801787451,-188.82263942700504,48.63601927225096,111.07163468363048,0.4325319819803248,0.591814997221457,0.9170694715609126,-132.74151710932506,40.55702201728946,129.93258171320565,0.606149055627905,0.2386688133776468,0.8299418599713503
2.22,-159.33857315879007,72.12576567256008,165.74714817933207,0.3100656462804669,0.1462898319881577,0.1863108621131214,-171.7314966949107,74.24499551725766,38.89246344579327,0.112308915942782,0.5291321693848667,0.0754487156778441,-188.48925989329956,48.69550817836029,111.24588570593058,0.9158140308854998,0.3774297839754718,0.976333708843554,-133.35768516719313,40.565038074006814,129.8859782914143,0.6898455211493332,0.0777619037622802,1.1184571872309854
2.23,-159.45049470615913,72.05310123230936,165.76235490053008,0.3461357566979023,0.2535376975684227,0.0917606244784739,-171.9028067782504,74.24114679151819,38.885983913640025,0.2351355002855126,0.3704617394848976,0.2031137599247515,-188.37290287994475,48.5038768767389,111.44365930041177,0.8879480789753509,0.737482033567874,0.8860388403543082,-134.23369100549544,40.11736437176856,129.62552637887492,0.4348780396225802,0.0445712174367803,1.3256120422100452
2.24,-159.68888849820215,72.02231361728884,165.49899357639268,0.2018485232068244,0.1675081339601264,0.1506973570468756,-172.0807476866907,74.25864318543621,38.87696847002177,0.3173871955546433,0.23613726787103,0.3087752464419687,-188.3014002174569,48.37971906670734,111.5596713568533,0.8628479560929175,0.3751145562103836,0.1272718689456481,-135.10736658424233,39.69447620901004,129.37684260352677,0.2172252707374289,0.0110875201975115,1.5055737654714747
2.25,-159.82537892176558,72.02046675127848,165.3809299923169,0.1203181001200068,0.1242704004449106,0.1637101515958751,-172.14487705142236,74.34453184730255,38.77202685377459,0.3679936519731522,0.1801564122630336,0.2423344176339023,-188.28046685864712,48.389389701033394,111.52087696258494,0.470955032430866,0.7994422592310448,0.5252031346531146,-135.67593700030957,39.417043952307125,129.25816513227372,0.4393697270302624,0.6464393294032038,0.8390561736653754
2.26,-159.95536866136078,71.98996031198593,165.24871207689944,0.0615739426344028,0.0667880588515661,0.2226171152800238,-172.1958464022874,74.42509741371165,38.64245816955293,0.3898921462899888,0.1337576476662552,0.1951400297891184,-188.24234790929597,48.39432348957284,111.50222705823144,0.0993175679679158,1.233311016963548,0.9464142753678874,-136.2651643348652,39.11653294547661,129.12916007545994,0.665306664801982,1.2817661368883797,0.146325758263156
2.27,-159.8659703698393,72.11887069211275,165.3635846530324,0.2289686655821205,0.082487055477068,0.4262324504551894,-172.1714631718203,74.44634194483706,38.61354747396052,0.6928760706267908,0.0891561149220352,0.5487914677438381,-188.07330989303867,48.31454635381768,111.50173674536912,0.7152642770997152,0.2692018530461131,1.1278823004458924,-137.1872130144123,38.55910218199997,128.88019605349783,0.5903181932678943,1.021327070796325,0.3437038285900859
2.28,-159.91221545943733,72.19038234075967,165.0578089505044,0.3541670795233468,0.1199423339402979,0.0238200257640672,-172.13147283279304,74.4408028224731,38.580447467483054,0.99034011907718,0.0637619037244555,0.8848773908001135,-188.3052136511052,47.98490630365713,111.61144435672448,1.0678625903399157,0.618767809790558,1.1998397638693683,-137.87607712324802,38.25699199648095,128.80495407105573,0.4929365484550385,0.6369882814224942,0.9804504377033818
2.29,-159.98771078813328,72.19715004900162,164.92785075666234,0.1123069464716499,0.0565343662228391,0.35649408962084,-172.26072145564325,74.35888985273719,38.339607942628426,0.6524527122217826,0.2447114834036027,0.3262672357841334,-188.3644470339755,47.76727705672023,111.72766550123396,0.415848933849865,1.524950645652852,1.243015267263474,-138.75237316848077,37.88970766659614,128.63014083605836,0.0606858301787103,0.3997939588201928,1.816899889922604
2.3,-160.12145142149788,72.05937281359938,164.71041189997635,0.2243627899315387,0.2079485425908096,0.4805023815985451,-172.36647856220264,74.57083935061944,37.87813788522034,0.4817154579116565,0.3623301082188637,1.9086930289936783,-188.06613049651205,47.89703915799272,111.88636880157682,0.5329826501410947,0.4407728783952205,1.371194279182784,-139.8127821670676,37.3077729985398,128.44235733582062,0.2076574298245922,0.136500803100505,1.0171180941780114
2.31,-160.1539213297981,71.9767199608618,164.80565518471985,0.1494351432461811,0.2292358103923469,0.2402083020755387,-172.5024196381243,74.7388314286086,38.03250535048373,0.1886146596174808,0.2566681834141079,0.3820315643754885,-187.8694742614696,47.76054071871716,111.94977404434542,0.1817240511962747,1.6877428437014408,1.4755003823126118,-140.810195546471,36.81707042330318,128.19236126525706,0.4266139330058777,0.925044890100133,0.7510587166238593
2.32,-160.2543592621996,71.93812061908406,164.496969187236,0.3636616725135806,0.2303223602953566,0.2631538461355193,-172.5600874354743,74.68739749587533,38.587005850041805,0.4536881075417279,0.3036595805403599,1.6203769685855454,-187.92832675545424,47.45888018500976,112.06058259641324,0.2282542912979201,1.500211235093876,0.99762836371348,-141.68767523578902,36.3832397124426,127.98988690279616,0.2728981261696146,0.4317425542380034,1.1244088724811525
2.33,-160.41937376802042,71.92541508285126,164.43024078685943,0.187099108105962,0.2169170368003079,0.3345362248314008,-172.6293041719036,74.50070125898124,38.717169642549145,0.1835592616416331,0.1263844877134587,0.4793456484048407,-187.9127154176912,47.17940361083369,112.1889127656863,0.0583807989316503,0.3194229226152522,1.1405831587116673,-142.94413189194216,35.733013431085645,127.80519199741806,0.5450549855343739,0.1791071284869638,0.9344376326420782
2.34,-160.55283951992044,71.95321905864083,164.39393897986773,-0.0160247983664024,0.1825639987870039,0.3762607714825941,-172.8644817869735,74.568747227952,38.57222231278282,0.5721594012624062,0.1254630802706915,0.7708158800270262,-188.248760033371,46.739295900564194,112.36930555402884,0.1844975368977652,0.3435301593664182,1.1308111278470303,-143.9105755973899,35.18973261760192,127.6253907076891,0.5086088306870558,0.2618786079207222,0.7861596188691633
2.35,-160.56487090303378,71.81329165288496,164.18980545031377,0.16159979671754,0.3278056618742878,0.4972290315250273,-172.95268607377383,74.69268933874135,38.793325622051846,0.6439928537070957,0.1211396833916151,0.8161712171687323,-188.42397804443144,46.223124457058965,112.55271179372332,0.2000301424158506,0.5190253794427908,1.0342813848283443,-144.92612880970432,34.6241875600297,127.4282820862332,0.4640256226750031,0.3786979651892311,0.6377078688995129
2.36,-160.4914175253672,71.8755798912397,164.24512872495015,0.1448729413710228,0.4219078664196857,0.0210181540157868,-173.08379555105955,74.81304529432555,39.02236483851881,0.7219550180552321,0.0779281167506609,0.8287785300050593,-188.6187591380104,45.686578415783806,112.74484036335976,0.2397409550059447,0.6422516751032722,0.9565911538057346,-146.12087170568495,33.99226895400594,127.32361782465418,0.4584426899519608,1.1070966923655488,1.3775789989416318
2.37,-160.44193071829437,71.80420410449163,164.51374165265403,0.5548528762806697,0.1079752728774279,0.2240150632649414,-173.02919863647375,74.67672911188382,39.3253980806241,0.949333498690927,0.1505359615671865,0.9044299617684592,-188.85730290176295,45.13315508123751,112.98884916323404,0.0416162009053749,0.7018800916065527,1.123790934035595,-147.61194640374637,33.19130500960793,127.10081330935576,0.2453923198351614,1.3746446852130314,0.8834666008987555
2.38,-160.6448000585261,71.74922326975975,164.32074055633674,0.1020249119356804,0.3383296483077995,0.0324807920521993,-173.1896765352084,74.7463743877751,39.35682915963119,0.6234697955825999,0.2038423884440269,0.5708314702210113,-189.2626771520648,44.63481422768142,113.12228135156822,0.4377731705234707,0.345196962677213,1.0389941307238053,-149.10147555414738,32.36743461458741,126.8720408119248,0.0395048981600635,1.644042649714483,0.3923312816093471
2.39,-160.57402384798056,71.62861391362637,164.5075078586043,0.1856164206333864,0.023817071954664,0.1527055644675282,-173.38804709690527,74.80424148863996,39.40600292485671,0.3672261792935762,0.2844060242773357,0.2243244544121707,-189.63731749957103,44.13502963506681,113.25525339066712,0.8790840775227257,-0.0138848251016262,0.956107719431754,-150.51923330300514,31.43032612205956,126.74455255536502,0.1228699077557118,1.6510592781059192,0.5319061217722423
2.4,-160.59906375533515,71.56298214906985,164.5839487892826,0.18411562484868,0.0331865456637572,0.1822217889878348,-173.4427260836945,74.85748634314605,39.47963237892091,0.5105901925562095,0.3923828695182894,0.439235062401156,-189.77009637191216,43.8703255457985,113.309069761061,0.592633323519888,0.1708463031798255,1.143056653442259,-150.82868293780822,31.14314141191797,126.81291481099171,0.3072696885044123,0.922414886700628,0.566320439197504
2.41,-160.65623908686769,71.5171837171108,164.6882587360577,0.2297835766457626,0.026460539657787,0.1981411307205099,-173.51357806521477,74.92823874884492,39.590576501652336,0.6571369543620684,0.4974711971677209,0.6773879987848502,-189.92323210538012,43.65014927677866,113.36361856567316,0.3024767454080856,0.3430442433730693,1.3089744283112168,-151.16799121579132,30.873152236770917,126.87936629045292,0.471186547701675,0.1882332705331592,0.5865819457638057
2.42,-160.5410342160573,71.49876132708194,164.6803141441785,0.0204030473285535,0.0343544858130805,0.017235084825881,-173.38916635644563,74.81086286334677,39.82916980046295,0.8613777537213279,0.0544486852058871,1.0846800423747427,-190.45363496416363,43.11057322454669,113.50306591584317,0.3459465797450012,1.7475802638234648,0.1738398910333485,-151.4939565715742,30.629940410918284,127.01408033938252,0.1523024993697239,0.4562908263862926,0.55132595006724
2.43,-160.5687199492251,71.44406481433715,164.7475391440726,0.1860252630669626,0.0657835076108628,0.0321552658749538,-173.43346416186728,74.60934939132079,39.94232254514533,0.436066226714153,0.1434620596413639,0.3873114469914403,-190.49144221239956,42.99146410167402,113.6165039618174,0.4276071403697201,0.7891551647296458,0.3223248642573424,-152.05199865470777,30.249612486705036,127.05230494724404,0.2052099499106553,0.2073365887766015,0.7072933885735383
2.44,-160.56812300827744,71.43118591091718,164.5514617479603,0.1794084470193708,0.0904490043282158,0.1221822388454019,-173.642791057346,74.74791956248805,39.895986436282925,0.0351750364590874,0.2743781164725321,0.3639696503655614,-190.36347739126785,42.94257902050159,113.75482281663578,0.7935582866494558,0.3215953205321433,0.749840071132705,-152.86918142446504,29.74618381560423,127.06481179537084,0.2189240538851533,0.0864710468098869,0.4196528165939399
2.45,-160.5596815540589,71.3137146937668,164.87852875295636,0.138628229914778,0.1343688826380276,0.0009604459710337,-173.68763287455073,74.92876122756398,39.75451564344517,0.1451535477098061,0.053472847151954,0.0402246202647371,-190.50519137050603,42.80369718649721,113.82403123989586,0.2935251088826694,0.3483197847614333,0.3628005873277764,-153.4416415422616,29.30499703186434,127.1077280020995,0.1513711230128291,0.4001670141061706,0.5250668572012618
2.46,-160.5605781809057,71.30754091983182,164.93395945419175,0.2111446666189281,0.2399434056667451,0.0854476004574043,-173.77984787232072,74.83500404251787,39.85885921525182,0.2082668350569836,0.1516267560013116,0.0443909988106981,-190.8064017189961,42.54317879802082,113.75147280973462,0.2672498087184118,0.6318552670006486,0.9522060902380632,-153.8429722177573,28.997501582102327,127.185065500918,0.4166467795328281,0.7370452057513732,0.45121823411065
2.47,-160.6994126834648,71.30817312266343,164.93154088246987,0.2180836461026045,0.3302696633296469,0.2298535082325736,-173.7937228307792,74.76446070873027,39.960371485390986,0.3113758882930207,0.2399715171891696,0.0521310188365346,-191.0957337475145,42.38060977818821,113.68858315292718,0.3369518505464532,0.5602039341217939,0.7609335576796395,-154.49959155343382,28.497610120126268,127.1309844388998,0.2249250275298989,1.3882863116415862,0.4231084386378521
2.48,-160.7534802819261,71.30915539994818,165.08288993467727,0.5272911568142845,0.0932134433627413,0.2042239865249357,-173.8631200681447,74.80232425578876,39.87755664164786,0.3313861839248605,0.3254138287799546,0.2273945794265064,-191.36639111395888,42.209398222182266,113.61133507359392,0.3835085823895455,0.4844940312521393,0.5777655414027784,-154.9492201147816,28.32044409075646,127.07158842428431,0.0508818586933558,0.1162465313669681,0.5143387724099646
2.49,-160.57983482270217,71.26339115238144,165.26478942686222,0.4662992977949731,0.0421037487997142,0.3013633972300023,-173.84348919781013,74.82785664812663,39.82248889061905,0.2938825163303991,0.2215076367464056,0.1881695314244802,-191.36936575761837,42.203468983104,113.60762590075684,0.1010773273768507,0.0916465245187551,0.7328993161153904,-155.28349449779682,28.06412113311121,127.05689265356789,0.0623978223780677,0.1182190900910142,0.2849541176511694
2.5,-160.57492350964282,71.19812113227746,165.18379695893103,0.1460097239912687,0.1319967236140828,0.2119787703321874,-173.80701022515694,74.88531281643573,39.76273771397226,0.2916223375946401,0.1005294223385984,0.1338253907127008,-191.50972146651253,42.12936981103466,113.5736396504,0.1653434524552493,0.3789257039143605,0.5552527244931189,-155.60473307315948,27.80308021937878,127.05757198130588,0.0791606134081255,0.102773821877774,0.0770522556008368
2.51,-160.7518111389519,71.20826845862346,164.6851929882654,0.213797778914636,0.2627595087468387,0.1281517329261784,-173.88933163954258,74.92786147960364,39.71284802340461,0.1466080807050047,0.266730684857158,0.3955217565747503,-191.6297654991725,42.00667025885137,113.45536340133825,0.0006542885271916,0.8670555922338303,0.6112435614334906,-155.87601310274567,27.613686132827187,127.0477631418996,0.1500480046020876,0.3920237651799725,0.4295047756250183
2.52,-160.81078482846306,71.19081650697636,164.7416576799054,0.1174113857853879,0.410334920768433,0.0617552067528342,-173.81176527794187,74.93833669699934,39.58717263789355,0.0052008872925748,0.0449364524462254,0.2739892930555365,-191.68999430604688,41.942494082158525,113.36879616117396,0.0656267260367444,0.7019598276583324,0.7395761957483055,-156.56536486643697,27.30463367105576,126.93386881339111,0.0295786058893311,1.666780106858217,0.6477493162666034
2.53,-160.93244854526318,71.11414709453555,164.49821521235856,0.2542027467087643,0.268323648436812,0.0308656035144491,-173.75075819924973,74.92858648244273,39.50385410072932,0.4004115934962899,0.0375895484421918,0.4947938080547207,-191.87140484673333,41.81252755023831,113.3023069472874,0.0668956966706351,0.1182807119802752,1.076249239643881,-157.0609528752662,27.06607655976912,126.8134902042465,0.0199272887511571,1.5254516463705468,0.3380426052431862
2.54,-161.02047821000528,71.12198181461501,164.45824786206512,0.1989421847151851,0.082685049379764,0.08009974421333,-173.75491914106573,75.00191457200721,39.32926555525176,0.0796255426131418,0.2783854793776836,0.1694429491558205,-191.93976735699644,41.75015954275794,113.2470568158988,0.1752867876892538,0.1160615490732647,1.0798022575280684,-156.87006486849177,27.30920787140876,126.80297820182638,0.0569917016598782,0.7033656174195557,1.1430901424458884
2.55,-161.08641776078323,71.09399870933946,164.26096339292295,0.1887696515010157,0.061420634551503,0.126779682955345,-173.76085592361073,75.02845227260123,39.28783135417539,0.1389089270793078,0.2232794365883889,0.1180624159965763,-191.92235205867107,41.77672404540464,113.25532788253447,0.1231699366659403,0.4766830097982941,0.8536324991773085,-156.82652154862342,27.366665662979443,126.81966806184715,0.3367814175350513,0.5242005384228239,1.0064820847973688
2.56,-161.16174918373682,71.0894038384802,164.0869829101832,0.1570602212909105,0.051998880382656,0.132074043931378,-173.76830267310413,75.06208272175193,39.26552910540129,0.2409424401861326,0.1859467633146129,0.05434855704064,-191.93176708493183,41.81119473084209,113.24661236849194,0.0218771202871003,0.820681727264109,0.6392851338719656,-156.79813851124416,27.448993990279,126.88225958382569,0.6456224895990506,0.3343465461856607,0.900478791463287
2.57,-161.32421387012246,71.06576319655527,163.7527201562485,0.1147370922923382,0.0303722271856671,0.1725951006994037,-173.82970547134053,74.99961927587947,39.31185022227975,-0.004075498216705,0.1504645005149305,0.0119141657639138,-191.74857401327807,41.95707714862594,113.23428950794413,0.3365517901981688,0.6568195337691667,0.8216872290372226,-156.55802217875274,27.68634154588713,127.0104683888345,0.2385575493835332,0.1189079744731565,0.5997502188631745
2.58,-161.32600605400333,71.04670022357574,163.68816383671518,0.097286763701808,0.0924016599194095,0.1125913433901012,-173.83916559879268,75.09492350189352,39.15918766842013,0.1366624784223411,0.1780121888665077,0.2428660308018271,-191.72741928365184,41.93761997831668,113.28163472819494,0.1779616381622243,0.4139785975883374,0.9160336473096574,-156.85307991428587,27.63816433805544,126.94746951276213,0.1841862954547636,0.4125479818547115,0.5841377695824628
2.59,-161.3840764542482,71.0499977822003,163.5511624982249,0.1339210267436204,0.0834238549762578,0.0975759782551898,-173.82370655337317,75.20167577337693,38.99668319340059,0.279006972462864,0.2161367739764028,0.4719580381618002,-191.69383144687689,41.93998928307124,113.30542200672036,0.0134592461268889,0.1283259733594523,1.0583219017901635,-157.1195386092397,27.55780760129085,126.8831317021416,0.0927484699258079,0.695326822532761,0.5734625376430281
2.6,-161.33714071956126,71.10188845767298,163.68833931041513,0.070874278012228,0.0603151186731997,0.0319651327253789,-173.88281530944715,75.22993071623097,38.96099861917907,0.0429221077123899,0.1831704355410327,0.0445112415849676,-191.74343247865892,41.80095539640799,113.30530700155164,0.4269698269999317,0.1317980750623517,0.8813064876387446,-157.30577467126278,27.508154379430795,126.86770708996836,0.1655400802560702,0.8509154784564212,0.5034431532930901
