0.01,-106.86,80.19,176.61,0.09,-0.18,0.15,1.61,-0.02,1.72,-99.82,70.72,165.34,0.16,2.06,0.19,2.8,0.5,0.51,-181.7,4.67,1.33,0.12,0.08,0.44,0.74,1.07,0.78,-122.22,0.8,11.46,-0.06,0.1,0.19,0.06,0.09,-0.05
0.02,-106.47,79.61,177.35,-0.03,0.28,0.14,1.64,0.47,1.61,-100.49,68.08,166.92,0.17,2.12,0.39,2.27,0.26,0.44,-180.92,4.71,1.4,-0.02,0.12,0.6,0.99,1.1,1.05,-122.12,0.71,11.42,0.02,0.03,0.11,0.2,0.08,-0.05
0.03,-106.43,78.93,177.45,0.13,0.44,0.2,1.58,0.46,1.67,-101.0,65.35,168.92,0.27,2.13,0.08,2.19,0.33,0.65,-180.61,4.81,1.29,0.16,0.21,0.47,1.22,1.06,1.02,-122.14,0.56,11.37,-0.0,0.11,0.09,0.36,0.19,-0.02
0.04,-105.9,77.87,177.84,0.24,0.91,0.03,1.81,0.44,1.45,-101.99,62.53,170.48,0.28,2.23,0.01,1.94,0.39,0.48,-180.14,4.98,1.42,0.12,0.03,0.7,1.45,1.35,1.04,-122.54,0.78,11.43,-0.02,0.09,0.13,0.46,0.25,0.11
0.05,-105.76,76.99,178.3,0.16,0.82,0.15,1.84,0.47,1.44,-102.75,59.71,172.15,0.49,2.35,0.24,1.59,0.23,0.59,-179.7,5.21,1.28,0.19,0.28,0.5,1.36,1.15,1.2,-122.36,0.57,11.08,0.03,-0.01,-0.01,0.6,0.25,-0.0
0.06,-105.63,75.89,178.66,0.33,0.95,0.15,1.92,0.66,1.25,-103.4,57.32,173.48,0.41,2.48,0.21,1.29,0.26,0.37,-179.24,5.01,1.33,0.09,0.41,0.44,1.48,1.35,1.46,-122.5,0.68,11.29,0.06,0.12,0.06,0.62,0.47,-0.16
0.07,-105.38,74.44,178.85,0.18,1.26,0.08,1.98,0.65,1.18,-104.42,54.5,174.67,0.31,2.6,0.25,1.34,0.49,0.53,-179.17,5.37,1.3,0.35,0.31,0.51,1.45,1.42,1.57,-122.56,0.51,11.31,-0.19,0.12,0.1,0.78,0.19,0.11
0.08,-105.38,73.02,179.22,0.04,1.2,0.15,2.22,0.85,1.23,-105.08,52.01,175.97,0.4,2.5,0.14,1.18,0.27,0.59,-179.04,5.4,1.35,0.3,0.4,0.28,1.45,1.15,1.86,-122.52,0.56,11.45,-0.04,0.02,0.01,0.99,0.3,0.23
0.09,-105.42,71.4,179.28,0.27,1.35,0.2,2.1,0.77,1.23,-105.79,49.23,176.83,0.38,2.62,-0.03,0.93,0.23,0.53,-179.11,5.78,1.28,-0.02,0.33,0.53,1.23,1.29,1.88,-122.6,0.58,11.44,0.02,0.0,0.11,1.03,0.31,0.28
0.1,-105.85,69.78,179.35,0.26,1.59,-0.03,2.22,0.83,1.25,-106.54,46.72,177.76,0.32,2.6,0.14,0.78,0.2,0.48,-179.21,6.23,1.11,0.32,0.41,0.59,1.04,1.15,2.28,-122.64,0.65,11.44,0.24,-0.04,-0.04,1.4,0.55,0.51
0.11,-105.79,67.65,179.35,0.12,1.64,0.12,1.97,0.92,1.18,-107.16,44.23,178.22,0.39,2.67,0.15,0.87,0.29,0.8,-179.47,6.34,1.06,0.38,0.37,0.65,1.05,1.03,2.43,-122.6,0.72,11.57,-0.03,0.1,0.08,1.41,0.49,0.77
0.12,-106.49,63.55,178.92,0.29,1.87,0.09,1.89,0.65,1.11,-108.39,39.69,179.02,0.22,2.18,0.24,0.96,0.27,0.85,-179.8,6.7,1.05,0.26,0.27,0.44,0.7,0.72,2.5,-122.61,0.81,11.6,0.07,0.26,0.15,1.33,0.58,1.52
0.13,-106.82,61.57,178.87,0.25,1.56,-0.06,1.9,0.79,1.26,-108.88,37.43,179.34,0.08,2.04,0.03,0.66,0.33,1.02,-180.3,6.84,0.97,0.17,0.11,0.45,0.58,0.68,2.53,-122.27,1.0,11.54,0.28,0.05,0.11,1.46,0.6,1.97
0.14,-107.03,59.41,178.81,0.12,1.77,-0.03,1.77,0.76,1.02,-109.25,35.49,179.5,0.01,1.86,0.32,0.99,0.33,0.91,-180.61,7.2,0.94,0.2,0.2,0.21,0.56,0.75,2.52,-122.27,1.03,11.72,-0.13,0.15,0.1,1.44,0.5,2.15
0.15,-107.41,57.55,178.51,0.03,1.55,-0.16,1.77,0.64,0.93,-109.64,33.51,179.63,-0.0,1.8,0.06,0.97,0.23,0.75,-180.87,7.35,0.81,0.12,0.26,0.19,0.32,0.76,2.24,-122.1,1.3,11.9,-0.13,0.14,0.15,1.4,0.52,2.42
0.16,-108.15,55.61,178.4,0.14,1.59,0.11,1.68,0.65,1.15,-109.72,31.72,179.47,0.12,1.63,0.03,0.91,0.25,1.23,-180.92,7.44,0.78,0.21,0.14,0.34,0.22,0.77,2.19,-121.99,1.18,11.85,-0.12,-0.15,0.06,1.23,0.3,2.61
0.17,-108.5,53.7,178.29,0.25,1.45,0.17,1.53,0.55,0.81,-109.68,30.08,179.53,-0.04,1.34,0.16,0.92,0.33,1.02,-181.24,7.78,0.82,0.31,0.24,0.26,0.3,0.94,1.95,-122.17,1.5,11.83,-0.01,0.04,-0.04,1.14,0.43,2.93
0.18,-108.85,52.23,178.03,0.18,1.37,0.18,1.48,0.39,0.77,-109.51,28.59,179.61,-0.07,1.14,-0.08,0.82,0.17,0.98,-181.23,7.38,0.69,0.36,0.3,0.29,0.07,0.76,1.75,-121.98,1.34,11.93,0.11,0.12,0.11,0.96,0.34,2.94
0.19,-109.27,50.6,177.83,0.03,1.37,0.06,1.42,0.58,0.79,-109.54,27.4,179.44,0.27,0.86,0.14,0.97,0.41,1.19,-181.17,7.37,0.71,0.35,0.35,0.02,-0.09,0.99,1.62,-122.25,1.45,11.83,0.02,0.19,0.1,0.87,0.45,3.05
0.2,-109.33,49.33,177.65,0.01,1.1,-0.03,1.2,0.54,0.68,-109.38,26.16,179.41,0.1,0.73,0.23,0.81,0.12,1.13,-181.18,7.07,0.7,0.25,0.3,0.24,0.23,0.86,1.25,-122.07,1.82,11.98,-0.25,0.06,0.15,0.64,0.32,2.98
0.21,-109.82,48.26,177.54,0.17,0.94,0.11,1.15,0.47,0.75,-109.07,25.34,179.56,0.04,0.78,0.23,0.75,0.18,0.95,-181.3,6.75,0.87,0.32,0.16,0.01,0.06,0.71,1.14,-122.29,1.74,11.8,-0.13,0.21,0.12,0.68,0.41,2.78
0.22,-110.19,47.01,177.55,0.05,0.67,-0.06,1.05,0.6,0.79,-109.04,24.33,179.19,0.13,0.76,0.29,0.61,0.26,1.11,-180.98,6.47,0.93,0.42,0.24,0.09,0.14,0.84,0.95,-122.63,1.66,11.94,0.07,0.12,0.14,0.47,0.36,2.91
0.23,-110.61,45.51,177.02,0.04,0.54,0.19,0.77,0.28,0.71,-108.29,23.2,179.37,0.1,0.57,0.13,0.86,0.25,1.15,-180.79,5.09,2.13,0.75,0.4,0.15,0.1,0.71,0.83,-123.0,1.92,12.09,-0.11,0.02,0.07,0.44,0.44,2.4
0.24,-110.9,45.09,176.96,0.17,0.67,0.0,0.97,0.42,0.63,-108.19,22.71,179.17,0.1,0.38,0.07,0.58,0.32,1.23,-180.63,4.65,2.51,0.86,0.71,0.01,0.24,0.71,0.55,-123.47,1.95,12.11,0.08,0.12,0.13,0.41,0.5,2.28
0.25,-111.09,44.51,176.74,0.08,0.28,0.01,0.75,0.33,0.59,-107.82,22.32,179.34,0.17,0.57,0.28,0.74,0.39,1.25,-180.56,3.92,3.26,0.81,0.51,0.23,0.34,0.68,0.75,-123.58,2.09,12.21,0.06,0.09,0.22,0.54,0.71,1.95
0.26,-111.04,44.18,176.84,-0.16,0.27,0.2,0.8,0.45,0.7,-107.73,21.95,179.14,0.3,0.24,0.21,0.63,0.41,1.23,-180.42,3.48,4.18,0.91,0.42,0.31,0.37,0.54,0.68,-124.25,2.13,12.49,0.26,0.16,0.07,0.53,0.65,1.91
0.27,-111.5,44.13,176.72,0.22,0.16,0.09,0.72,0.42,0.73,-107.6,21.6,179.09,0.33,0.24,0.08,0.42,0.32,1.38,-180.44,2.65,5.32,1.18,0.39,0.1,0.35,0.5,0.64,-124.85,2.25,12.82,0.15,0.13,0.11,0.57,0.68,1.87
0.28,-111.33,43.9,176.78,0.1,-0.03,-0.0,0.71,0.57,0.54,-107.48,21.83,179.14,0.11,0.23,0.06,0.44,0.45,1.26,-180.44,2.1,6.66,1.22,0.51,0.13,0.47,0.72,0.87,-125.46,2.4,13.01,0.25,0.33,0.26,0.66,0.81,1.71
0.29,-111.41,43.76,176.61,0.14,0.25,0.25,0.84,0.48,0.62,-107.37,21.62,179.27,0.12,0.07,0.11,0.42,0.24,1.22,-180.39,1.56,8.06,1.52,0.57,0.16,0.29,0.78,0.63,-126.0,2.51,13.44,0.18,0.21,0.38,0.79,0.6,1.65
0.3,-111.61,43.94,176.62,0.14,0.24,-0.01,0.73,0.64,0.38,-107.2,21.71,179.36,0.03,0.18,0.1,0.48,0.38,1.24,-180.83,1.27,9.73,1.48,0.49,0.2,0.6,0.5,0.86,-126.4,2.87,13.89,0.31,0.41,0.3,0.65,0.58,1.64
0.31,-111.58,44.07,176.62,0.12,0.08,0.06,0.84,0.57,0.5,-107.15,21.66,179.16,0.2,0.15,-0.12,0.46,0.39,1.07,-180.68,1.08,11.39,1.67,0.41,0.03,0.48,0.57,0.89,-127.11,3.15,14.49,0.48,0.51,0.52,0.61,0.55,1.73
0.32,-111.66,44.16,176.77,0.08,-0.07,0.08,0.77,0.5,0.31,-107.05,21.77,179.44,0.17,0.19,0.07,0.74,0.58,1.17,-180.65,0.98,13.34,1.71,0.64,0.21,0.46,0.75,1.09,-127.71,3.67,14.96,0.55,0.42,0.29,0.62,0.48,1.77
0.33,-111.56,44.32,176.7,0.21,0.22,-0.09,0.68,0.52,0.67,-107.02,21.95,179.32,0.18,0.18,0.11,0.73,0.51,1.03,-181.07,1.09,15.27,1.62,0.44,0.13,0.27,0.53,0.88,-128.3,3.91,15.77,0.58,0.65,0.48,0.78,0.7,1.94
0.34,-111.61,44.93,176.93,0.08,0.27,-0.11,0.83,0.49,0.68,-106.89,22.4,179.48,0.02,0.22,0.11,0.5,0.75,0.89,-181.21,1.52,19.64,1.78,0.45,0.23,0.42,0.71,1.07,-128.99,5.35,17.14,0.53,0.82,0.55,0.5,0.78,2.08
0.35,-111.46,45.44,177.06,0.26,0.37,0.12,0.82,0.57,0.5,-106.84,22.23,179.44,0.1,0.08,-0.0,0.45,0.49,0.92,-181.42,2.09,21.98,1.81,0.72,0.24,0.44,0.75,0.97,-129.25,6.05,17.74,0.67,0.86,0.71,0.64,0.69,2.05
0.36,-111.27,45.94,177.48,0.23,0.43,0.1,0.77,0.52,0.54,-106.73,22.38,179.46,-0.1,0.37,0.14,0.35,0.35,0.71,-181.74,2.93,24.34,2.05,0.63,0.27,0.38,0.49,0.84,-129.63,7.0,18.36,0.82,0.8,0.46,0.52,0.74,1.91
0.37,-110.95,46.58,177.54,0.01,0.52,-0.01,0.86,0.5,0.58,-106.95,22.75,179.54,0.21,0.12,0.04,0.43,0.44,0.75,-181.72,3.45,26.55,1.84,0.66,0.19,0.33,0.51,0.8,-129.66,8.01,19.24,0.33,0.93,0.37,0.67,0.86,2.03
0.38,-110.76,46.95,177.73,0.26,0.6,0.18,0.71,0.38,0.55,-106.83,23.04,179.73,0.21,0.21,-0.05,0.5,0.58,0.76,-181.72,4.28,28.98,2.1,0.69,0.32,0.47,0.52,0.77,-129.46,9.14,19.9,0.59,0.94,0.53,0.74,0.8,2.01
0.39,-110.34,47.36,178.0,0.15,0.75,0.12,0.75,0.4,0.4,-106.62,23.23,179.45,0.08,0.02,-0.06,0.66,0.32,0.89,-181.98,5.21,31.47,2.04,0.71,0.39,0.56,0.53,0.69,-129.58,10.29,20.57,0.45,0.9,0.54,0.69,1.06,1.92
0.4,-109.89,47.89,177.99,0.02,0.67,0.02,0.5,0.31,0.47,-106.52,23.53,179.57,0.01,0.25,-0.08,0.48,0.54,1.03,-181.88,5.88,33.75,1.92,0.61,0.1,0.57,0.71,0.74,-129.31,11.61,21.03,0.51,0.89,0.54,0.82,1.17,1.74
0.41,-109.73,48.51,178.41,-0.01,0.55,0.2,0.86,0.27,0.77,-106.38,23.59,179.47,0.34,0.15,-0.11,0.62,0.29,0.94,-182.0,6.89,36.37,2.03,0.71,0.17,0.6,0.42,0.81,-129.12,12.77,21.71,0.49,0.88,0.43,0.54,1.3,1.53
0.42,-109.3,48.6,178.54,0.09,0.62,0.06,1.05,0.21,0.6,-106.48,24.07,179.67,0.09,0.47,-0.04,0.72,0.49,0.95,-181.91,7.6,38.86,2.17,0.65,0.16,0.6,0.39,0.54,-128.84,14.03,22.32,0.47,0.98,0.53,0.85,1.34,1.5
0.43,-109.14,49.56,178.78,-0.05,0.47,0.13,0.83,0.12,0.52,-106.39,24.15,179.64,0.17,0.4,-0.08,0.69,0.32,0.92,-181.85,8.43,41.17,1.98,0.64,0.16,0.6,0.43,0.23,-128.35,15.32,22.86,0.55,0.87,0.59,0.93,1.36,1.32
0.44,-108.46,50.11,178.65,0.13,0.43,-0.02,1.07,0.04,0.69,-106.54,24.42,179.62,0.23,0.33,-0.04,0.77,0.32,1.27,-181.51,9.42,43.6,2.08,0.67,-0.19,0.6,0.38,0.67,-128.31,16.29,23.6,0.45,0.73,0.47,1.22,1.51,1.22
0.45,-108.04,51.19,179.12,0.11,0.81,0.09,1.07,0.05,0.44,-106.44,25.27,179.61,0.14,0.39,0.05,0.97,0.46,1.24,-181.26,10.75,48.32,2.13,0.65,0.29,0.55,0.4,0.34,-127.64,18.21,24.42,0.48,0.68,0.33,1.15,1.59,1.3
0.46,-107.72,51.83,179.38,0.31,0.64,0.01,0.98,0.24,0.53,-106.42,25.65,179.6,0.09,0.52,-0.04,0.83,0.49,1.28,-181.06,11.61,50.62,2.17,0.58,0.27,0.59,0.49,0.45,-127.52,18.98,24.85,0.2,0.56,0.53,1.27,1.61,1.21
0.47,-107.47,52.4,179.39,0.09,0.59,0.12,0.89,0.35,0.66,-106.51,25.76,179.8,-0.01,0.47,0.02,0.96,0.36,1.49,-180.92,12.05,53.12,2.08,0.69,0.23,0.64,0.32,0.41,-127.48,19.49,25.36,0.41,0.53,0.44,1.25,1.61,1.24
0.48,-107.07,52.9,179.74,0.31,0.61,-0.0,1.05,0.21,0.67,-106.43,26.41,179.56,-0.01,0.27,0.02,1.02,0.38,1.23,-180.76,12.73,55.48,2.07,0.71,0.22,0.37,0.49,0.43,-127.16,19.85,25.66,0.25,0.42,0.34,1.21,1.61,1.29
0.49,-106.74,53.57,179.6,-0.17,0.41,-0.2,0.93,0.17,0.42,-106.48,26.97,179.92,0.2,0.45,0.18,0.86,0.21,1.3,-180.55,13.52,57.65,1.94,0.85,0.39,0.51,0.5,0.39,-127.27,19.92,26.13,0.22,0.19,0.32,1.18,1.69,1.48
0.5,-106.54,54.26,179.76,0.06,0.52,-0.08,1.05,0.11,0.47,-106.47,27.39,179.59,-0.03,0.54,-0.02,1.08,0.32,1.24,-180.24,14.17,59.88,1.88,0.66,0.38,0.6,0.4,0.45,-127.4,20.06,26.65,0.19,0.29,0.38,1.1,1.82,1.56
0.51,-106.54,55.07,179.56,0.01,0.73,0.01,0.93,0.28,0.53,-106.62,27.99,179.75,-0.04,0.61,0.02,0.98,0.14,1.27,-179.88,14.73,61.84,2.04,0.54,0.3,0.29,0.4,0.36,-127.59,20.07,27.07,0.31,0.35,0.33,1.19,1.73,1.85
0.52,-106.44,55.66,179.72,0.06,0.7,-0.08,0.76,0.39,0.47,-106.66,28.5,179.67,0.04,0.77,0.05,0.88,0.11,1.16,-179.93,15.29,64.1,1.89,0.53,0.4,0.29,0.33,0.5,-127.83,19.92,27.19,0.4,0.21,0.31,1.02,1.82,2.14
0.53,-106.12,56.76,179.59,-0.05,0.86,-0.1,0.88,0.2,0.34,-106.68,29.29,179.65,-0.07,0.84,-0.08,1.12,0.41,1.07,-179.36,16.25,66.3,1.92,0.49,0.64,0.34,0.45,0.35,-128.14,19.85,27.82,0.25,0.25,0.16,1.19,1.82,2.32
0.54,-106.03,57.65,179.59,0.28,0.79,-0.14,0.92,0.18,0.37,-106.62,30.12,179.67,0.11,0.9,0.18,0.77,0.23,0.92,-179.09,16.6,68.37,1.73,0.38,0.72,0.24,0.57,0.45,-128.52,19.65,28.43,0.55,0.42,0.51,1.23,1.91,2.67
0.55,-105.95,58.77,179.57,0.01,0.95,0.08,0.73,0.32,0.37,-106.79,31.2,179.64,0.02,0.88,0.06,0.87,0.27,0.75,-178.61,17.79,70.32,1.83,0.62,0.56,0.21,0.6,0.49,-128.9,19.37,29.15,0.71,0.25,0.34,1.12,1.93,2.6
0.56,-105.7,61.08,179.18,0.09,0.9,0.11,0.64,0.15,0.3,-106.97,33.4,179.1,0.24,1.12,0.04,0.78,0.27,0.81,-177.25,19.5,74.25,1.73,0.68,0.71,0.25,0.81,0.61,-129.61,19.41,30.6,0.62,0.37,0.36,1.15,1.54,2.69
0.57,-105.62,62.46,178.91,0.03,0.84,0.16,0.72,0.17,0.52,-106.83,34.54,179.08,-0.02,1.03,0.04,0.96,0.1,0.79,-176.74,20.23,76.19,1.87,0.74,0.79,0.06,0.71,0.36,-130.1,19.59,31.79,0.59,0.24,0.06,1.51,1.8,2.92
0.58,-105.57,63.73,178.91,0.09,1.04,0.14,0.45,0.35,0.45,-106.91,35.72,178.83,0.04,1.23,-0.03,0.72,0.31,0.42,-176.0,21.36,78.08,1.6,0.68,0.82,0.36,0.86,0.49,-130.26,19.78,32.18,0.53,0.4,0.39,1.52,1.88,2.82
0.59,-105.56,65.1,178.79,0.05,1.09,-0.13,0.64,0.17,0.35,-107.24,37.23,178.66,0.12,1.1,0.14,0.68,0.25,0.37,-174.89,22.26,80.08,1.66,0.47,0.99,0.41,0.83,0.3,-130.49,20.23,33.72,0.73,0.63,0.25,1.54,1.56,2.31
0.6,-105.43,66.4,178.53,0.18,1.02,0.17,0.62,0.24,0.22,-107.2,38.66,178.31,0.29,1.48,0.17,0.68,0.11,0.56,-173.87,23.58,81.9,1.49,0.47,1.04,0.37,1.0,0.56,-130.55,20.88,34.8,0.75,0.57,0.46,1.5,1.74,2.49
0.61,-105.22,67.77,177.95,0.35,1.11,-0.02,0.43,0.15,0.38,-107.01,40.26,178.24,0.21,1.51,-0.09,0.77,0.18,0.49,-172.75,24.37,84.01,1.53,0.6,1.06,0.62,0.88,0.39,-130.12,21.36,36.08,0.82,0.64,0.44,1.61,1.57,2.06
0.62,-105.11,69.13,177.99,0.16,1.0,-0.11,0.87,0.29,0.44,-106.81,41.76,177.9,0.12,1.44,0.02,0.56,0.18,0.49,-171.61,25.55,85.54,1.53,0.46,0.82,0.76,0.97,0.51,-130.13,22.28,37.09,0.85,0.65,0.29,1.66,1.51,1.81
0.63,-104.94,70.44,177.71,0.08,1.18,0.16,0.72,0.3,0.25,-106.82,43.33,177.25,0.14,1.58,0.02,0.75,0.26,0.45,-170.44,26.82,87.41,1.46,0.55,0.97,0.69,1.0,0.39,-130.01,23.03,38.17,1.0,0.68,0.54,1.85,1.77,1.56
0.64,-104.98,71.49,177.4,0.2,0.97,-0.0,0.74,0.2,0.32,-106.77,45.05,176.86,0.3,1.57,-0.07,0.84,0.22,0.6,-169.13,27.77,89.17,1.37,0.24,0.83,0.65,1.2,0.32,-129.51,24.25,39.82,1.04,0.9,0.4,1.73,1.45,1.24
0.65,-104.56,72.85,177.15,0.15,0.89,-0.03,0.85,0.3,0.46,-106.8,46.67,176.67,0.24,1.46,0.08,0.72,0.39,0.34,-167.61,28.96,90.68,1.08,0.22,0.77,0.73,1.41,0.67,-128.85,25.54,40.98,1.24,0.68,0.63,1.73,1.61,1.04
0.66,-104.55,74.06,176.64,0.18,0.96,0.13,0.8,0.31,0.28,-106.46,48.32,176.3,0.16,1.59,0.06,0.9,0.2,0.61,-166.24,30.05,92.17,1.02,0.26,0.8,0.81,1.21,0.66,-128.17,26.77,42.51,1.38,0.97,0.68,1.78,1.49,0.8
0.67,-104.41,76.41,175.96,0.12,0.78,0.13,0.78,0.07,0.3,-105.82,51.92,175.39,0.09,1.46,-0.04,0.87,0.12,0.39,-163.61,31.86,94.78,0.85,0.25,0.77,0.74,1.43,0.53,-126.65,29.67,45.2,0.99,1.09,0.81,1.44,1.73,0.82
0.68,-104.35,77.13,175.44,0.3,0.91,0.1,1.0,0.03,0.47,-105.65,53.5,174.79,0.17,1.6,0.16,0.77,0.3,0.47,-162.31,32.91,95.8,0.82,0.29,0.61,0.85,1.38,0.74,-125.72,31.32,46.66,1.09,0.99,0.69,1.48,1.78,0.52
0.69,-104.36,77.92,175.1,0.14,0.83,0.18,0.78,0.05,0.35,-105.34,55.2,174.46,0.22,1.69,0.04,0.8,-0.02,0.46,-160.78,33.87,96.65,0.71,0.34,0.44,0.65,1.27,0.85,-124.8,32.66,47.95,1.15,0.96,0.75,1.44,1.66,0.45
0.7,-104.25,78.74,174.47,-0.04,0.72,-0.18,0.75,0.29,0.12,-105.14,56.54,173.81,0.34,1.75,-0.1,0.72,0.18,0.48,-159.65,34.55,97.51,0.52,0.34,0.59,0.6,1.25,0.84,-124.04,34.36,49.4,1.09,1.21,1.02,1.4,1.75,0.77
0.71,-104.33,79.38,174.17,0.06,0.68,-0.06,0.8,0.14,0.39,-104.93,58.23,173.23,0.09,1.6,0.27,1.0,0.19,0.45,-158.6,35.22,97.89,0.38,0.03,0.4,0.68,1.23,0.71,-122.95,36.01,51.08,1.13,1.11,0.84,1.17,1.72,0.92
0.72,-104.02,79.88,173.3,0.02,0.54,-0.04,0.82,0.16,0.34,-104.73,59.84,172.65,0.27,1.78,0.13,0.95,0.11,0.27,-157.69,35.88,98.76,0.51,0.13,0.27,0.67,1.14,0.69,-122.26,37.79,52.61,1.13,1.2,0.66,1.22,1.73,0.95
0.73,-104.21,80.45,172.94,0.09,0.36,-0.01,0.7,0.05,0.37,-104.18,61.2,171.72,0.11,1.59,0.11,0.6,0.28,0.3,-156.55,36.46,99.18,0.4,0.02,0.27,0.65,0.98,1.01,-121.26,39.45,54.38,1.08,1.39,0.76,0.99,1.94,0.95
0.74,-103.92,81.02,172.5,0.09,0.28,0.13,0.76,0.25,0.23,-104.19,62.67,171.11,0.12,1.41,0.09,0.93,0.29,0.35,-155.6,37.19,99.52,0.45,0.1,0.19,0.67,0.92,0.92,-120.77,41.14,55.99,1.07,1.48,0.86,0.89,1.85,0.96
0.75,-104.02,81.29,172.04,0.12,0.41,-0.13,0.86,0.31,0.31,-103.74,64.18,170.22,0.14,1.29,0.12,0.91,0.35,0.35,-154.54,37.46,100.28,0.28,0.12,0.16,0.59,0.98,0.92,-119.94,43.08,58.03,1.03,1.49,0.62,0.92,1.75,1.25
0.76,-104.15,81.53,171.49,0.15,0.31,0.09,0.62,0.12,0.47,-103.37,65.85,169.17,0.29,1.32,0.01,0.86,0.42,0.23,-153.66,37.84,100.65,0.46,0.09,0.22,0.65,0.8,0.99,-118.94,44.9,60.49,1.1,1.45,0.9,0.69,1.8,1.33
0.77,-103.66,81.67,171.36,0.1,0.11,0.08,0.89,0.25,0.58,-103.11,67.16,168.05,0.21,1.57,0.15,0.99,0.29,0.08,-152.98,38.41,100.78,0.53,0.17,0.1,0.3,0.8,0.96,-117.85,47.04,62.75,1.02,1.47,0.82,0.9,1.61,1.19
0.78,-103.63,82.21,171.41,0.04,0.31,0.01,0.77,0.28,0.63,-102.77,69.82,165.38,0.22,1.25,0.19,0.93,0.29,0.19,-151.14,38.86,101.99,0.61,0.24,0.2,0.62,0.59,0.98,-116.18,50.33,68.42,1.02,1.6,0.97,0.86,1.6,0.96
0.79,-103.49,82.17,171.05,0.06,0.11,0.04,0.79,0.25,0.67,-102.72,71.29,163.88,0.2,1.25,0.21,0.91,0.27,0.17,-150.44,39.47,102.57,0.52,0.1,0.4,0.41,0.53,1.05,-115.31,51.95,71.38,1.24,1.85,0.85,0.89,1.4,0.93
0.8,-103.56,82.1,171.26,0.07,0.2,0.27,0.83,0.49,0.66,-102.54,72.27,162.63,0.15,1.26,-0.05,1.1,0.17,0.23,-149.12,39.86,102.96,0.72,0.19,0.46,0.55,0.68,0.83,-114.41,53.84,74.77,1.02,1.75,1.03,0.76,1.17,0.77
0.81,-103.3,82.22,171.92,0.14,0.2,-0.02,0.77,0.59,0.83,-102.37,73.66,161.04,0.22,1.06,0.05,1.14,0.61,0.2,-148.26,40.53,103.55,0.76,0.2,0.41,0.51,0.78,0.88,-113.44,55.24,78.37,1.17,1.93,0.79,0.78,1.15,0.92
0.82,-103.21,82.11,171.99,0.01,0.12,0.13,0.57,0.61,0.76,-102.26,74.63,159.27,0.17,1.11,0.16,0.99,0.42,0.22,-147.19,40.76,104.0,0.47,0.18,0.36,0.54,0.45,0.81,-112.43,56.66,82.25,1.03,1.53,0.74,0.84,0.85,0.72
0.83,-103.13,81.84,172.48,0.02,0.19,0.15,0.72,0.63,0.77,-102.08,75.83,157.73,0.04,0.92,0.01,1.11,0.49,-0.07,-145.94,41.56,104.79,0.64,0.07,0.75,0.55,0.62,0.65,-111.33,57.77,86.55,1.05,1.63,0.96,0.95,1.11,0.61
0.84,-102.83,81.79,173.09,0.09,0.02,0.06,0.78,0.91,0.94,-102.09,76.69,155.95,0.24,0.93,0.06,1.11,0.54,0.04,-144.83,42.16,105.37,0.55,0.06,0.55,0.42,0.62,0.89,-109.94,58.96,90.64,1.11,1.81,1.04,0.87,0.91,0.47
0.85,-102.92,81.48,173.81,0.11,0.16,0.09,0.72,0.94,0.72,-101.81,77.68,154.48,0.28,0.8,0.15,1.13,0.61,0.32,-143.84,42.69,105.77,0.73,0.23,0.58,0.5,0.76,0.77,-108.95,59.82,95.01,1.04,1.74,1.08,0.73,1.03,0.25
0.86,-102.63,81.48,174.25,0.16,0.22,0.22,0.79,0.86,0.76,-101.67,78.23,152.5,0.3,0.78,0.1,1.12,0.52,0.23,-142.53,43.44,106.25,0.6,0.26,0.56,0.52,0.46,0.79,-107.72,60.29,99.61,0.92,1.53,0.94,1.0,0.76,0.25
0.87,-102.86,81.21,174.89,0.2,0.19,0.16,0.82,0.73,0.77,-101.73,78.85,151.13,0.17,0.72,-0.0,1.2,0.48,0.23,-141.53,44.12,107.01,0.46,0.34,0.47,0.47,0.78,0.83,-106.42,60.77,104.04,0.93,1.61,0.9,1.02,0.78,0.46
0.88,-102.72,80.92,175.61,0.31,0.15,0.24,0.7,0.81,0.69,-101.51,79.34,149.71,0.38,0.57,-0.09,1.13,0.89,0.46,-140.37,44.61,107.32,0.56,0.14,0.47,0.39,0.64,0.86,-105.23,61.15,108.62,1.09,1.38,0.94,1.16,0.84,0.18
0.89,-102.69,80.6,176.73,0.34,0.1,0.06,0.59,0.89,0.87,-101.57,80.26,146.99,0.37,0.42,0.05,1.21,0.77,0.37,-138.32,45.84,107.83,0.48,0.37,0.4,0.36,0.83,0.94,-103.04,61.1,117.22,1.03,1.4,0.8,1.32,0.77,0.25
0.9,-102.91,80.43,176.82,0.17,0.16,0.22,0.55,0.93,0.7,-101.51,80.72,146.01,0.22,0.47,0.0,1.04,0.75,0.52,-137.56,46.46,108.17,0.39,0.25,0.41,0.62,1.01,1.02,-101.73,60.94,121.6,0.82,1.42,0.65,1.21,0.83,0.16
0.91,-102.9,80.16,177.0,0.23,0.09,0.1,0.77,1.05,0.75,-101.66,81.04,144.94,0.12,0.45,-0.08,1.01,0.86,0.35,-136.72,46.99,108.38,0.33,0.32,0.41,0.5,0.88,0.83,-100.47,60.57,125.69,0.77,1.18,0.62,1.3,0.79,0.3
0.92,-103.16,79.99,177.11,0.09,0.06,0.0,0.81,0.89,0.64,-101.69,81.18,144.03,0.22,0.27,0.04,0.81,0.69,0.42,-136.35,47.57,108.46,0.32,0.36,0.4,0.35,1.09,0.7,-99.62,60.15,129.43,0.59,1.03,0.73,1.5,0.75,0.34
0.93,-103.19,79.73,177.22,0.01,0.08,-0.01,0.59,0.87,0.74,-101.96,81.71,143.08,0.16,0.42,0.08,1.01,0.69,0.17,-135.57,47.89,108.48,0.17,0.01,0.24,0.33,0.87,0.98,-98.7,59.58,133.09,0.68,1.0,0.7,1.2,0.78,0.26
0.94,-103.39,79.83,177.08,0.1,0.14,0.16,0.62,0.84,0.77,-102.06,81.69,142.22,0.01,0.3,0.04,0.96,0.68,0.25,-135.04,48.13,108.82,0.22,0.14,0.26,0.3,1.12,0.99,-97.61,58.99,136.51,0.51,1.07,0.66,1.34,0.71,0.38
0.95,-103.5,79.62,176.87,-0.07,0.21,-0.06,0.38,0.71,0.71,-102.5,81.96,141.54,-0.02,0.16,0.13,0.82,0.62,0.35,-134.68,48.3,108.57,0.09,0.12,0.06,0.1,1.08,0.93,-96.68,58.36,140.05,0.35,0.67,0.46,1.31,0.86,0.28
0.96,-103.81,79.61,176.58,0.11,0.05,-0.11,0.41,0.71,0.93,-102.5,82.01,141.0,0.21,0.24,0.03,0.77,0.51,0.22,-134.33,48.43,108.61,0.14,0.18,0.1,-0.01,1.43,0.8,-95.76,57.97,143.05,0.4,0.61,0.42,1.35,0.83,0.28
0.97,-103.95,79.69,176.4,0.11,0.06,0.13,0.46,0.59,0.77,-102.89,82.2,140.42,-0.01,0.32,0.12,0.77,0.41,0.17,-133.91,48.77,108.72,-0.13,0.06,0.15,-0.05,1.29,1.15,-94.91,57.4,145.97,0.22,0.67,0.35,1.58,0.89,-0.1
