0.02,-115.93408195074944,59.35847605557648,169.13053443843438,-108.8951813514875,84.58351768636244,0.4684655952431621,-177.354757935949,2.1248605856820046,0.1468809385705345,-134.8112928245888,18.015756095984614,8.08717317450942
0.03,-116.19793929965104,59.460016617574,169.20451815318518,-108.68392170124145,84.85833583935283,0.5594871699483431,-177.24814759986398,2.1623633825403,0.4597069987077236,-134.85610836549097,18.03678945101187,7.93850711401871
0.04,-116.22885086908512,59.80782053122692,169.42033426684088,-109.02045594213476,84.74759058736932,0.5269809068315094,-176.75135966025363,2.471052295191572,0.6745859566766729,-134.52064632298067,17.697639834513737,8.103754620318977
0.05,-116.1144002153691,59.6006715066094,169.29917321437966,-108.65902401812536,84.85612201797558,0.5069713162290527,-177.04665313340504,2.583816326772008,0.5549705743373404,-134.44191313986408,17.590838105559698,7.971922181734888
0.06,-116.19807853749968,59.43835457252499,169.2317354626419,-108.90184956196045,85.04853679595499,0.5092494457458686,-176.99933612012376,2.773283135569109,0.5101998705954395,-134.32519443365757,17.659396013662093,7.987206188244014
0.07,-116.2682558460538,59.68540413260991,169.47516205483186,-108.75143029031062,85.0223013159381,0.7428761831871511,-177.1795121471638,2.6872239630801733,0.7159079323532013,-134.26777739231878,17.201751274821852,7.922681032163782
0.08,-116.43394484594664,59.533228230740406,169.24798138531577,-108.83232991013796,85.40048077140841,0.7141883369703321,-177.17926914423114,2.7040694421480453,1.1388159266003657,-133.82853266515804,16.81560548226912,7.876169967954938
0.09,-116.40364990217404,59.5293878689571,169.36886633985335,-109.00746120530552,84.98154821765984,0.7344064869685275,-177.47024962908043,2.7965304568168308,0.8641838259205035,-133.65478996439802,16.59696273469185,7.586421501642626
0.1,-116.54332138234152,59.62690474422452,169.20754302403031,-108.9990755533519,85.2390091197264,0.6227867872850095,-177.40143269910172,2.96091373825173,0.8732907899580435,-133.16833927817342,16.387060517625166,7.573248261755394
0.11,-116.3857711299222,59.47031103455748,169.11467934755436,-109.09465315616546,85.23622345864848,0.5453328101242967,-177.42475129077872,3.29269501177221,0.760895595689858,-132.84617975519447,16.367164695501955,7.061574379278638
0.12,-116.56243043923358,59.63251650454656,169.57577023373926,-109.15427385166667,85.25791582414817,0.6101563950027136,-177.41250317553565,3.3418615581405997,0.9742991544750582,-132.74481505866356,16.107519025970856,7.116797893159134
0.13,-116.3751564195886,59.58544629661016,169.22096012001657,-109.1414525243082,85.16108207080698,0.5695714545308623,-177.41321734963873,3.311563208593584,1.100541879970389,-132.6195029931317,16.062199422118645,7.200478763313862
0.14,-116.4527783187897,59.71840672063308,169.26377162723526,-108.65436371795694,85.03293041745566,0.4403003477911594,-177.37723426935125,3.1654888389697757,1.250577043767731,-133.08543380818196,16.08346882293354,7.292627585431931
0.15,-116.24129931670524,59.57272803740586,168.96846277522133,-109.14378238907662,85.22925436247833,0.2271834329328599,-177.26353165610155,3.5339495619334893,1.4505248361785186,-132.687847381733,16.00031674478043,6.9983430709691845
0.16,-116.3913764592802,59.74390375849325,169.3552079309163,-108.75888083028912,85.01195753392001,0.4800030971870635,-177.38638451190056,3.279300063192051,1.28309572651819,-132.35024340378814,15.98030859603796,6.974982117739501
0.17,-116.48205368167896,59.49284476203443,169.40310124028434,-109.06050929822484,85.18814067160748,0.625885488473356,-176.86128985359514,3.4319582248319187,1.5207252630431087,-132.3065670344452,15.837076579637335,7.020678027654687
0.18,-116.44007282437737,59.73474216950793,169.29745203935806,-108.9398704754473,85.14197250017712,0.5228309461126359,-177.29694139112746,3.807905905491832,1.710058660589109,-132.1212437128033,15.728621511335165,7.193368159382352
0.19,-116.283536954578,59.62892856866814,169.42434820028203,-109.21918732785448,85.21097035971242,0.4084619432723634,-177.0377418544873,3.946584236112049,1.7811645316532003,-132.2044380464196,15.610778300960964,6.565044300028199
0.2,-116.03452705721595,59.74475077688462,169.4358559096862,-109.04841787255374,84.99893923054732,0.5019905054249308,-176.77595351581562,3.996069187216292,1.989380488089028,-132.5002978833619,15.649915410965818,6.747610102600014
0.21,-116.17573518430636,59.555418260950944,169.29047447372432,-109.09577493660856,85.16892550098179,0.4804235003233098,-176.80830883672795,4.278965662779292,2.072366868316739,-132.74454112048693,15.3514190071983,6.606510108507366
0.22,-116.1894554403395,59.52746945845431,169.3517357568307,-109.0098265021436,85.20305240477369,0.5692889770132332,-176.72006032995867,4.30610069924517,2.1655412153596,-132.5156072896783,15.461314415795878,6.60971379114812
0.23,-116.14947410262997,59.43682516229981,169.33117131873905,-109.01350883316717,85.21794831929459,0.5847956151422219,-176.7613429355011,4.535487678395266,2.222601362932742,-132.6278798345707,15.59863657795966,6.513843095167257
0.24,-116.04127500068284,59.60688075363521,169.2347850547371,-108.83067466057776,85.03812427137478,0.5269861555312596,-176.66196652505502,4.268927698445514,2.456006486449932,-132.39895653699853,15.36872676021049,6.441828508538452
0.25,-116.09901388824278,59.48809765833367,169.17106999994255,-108.52258924185462,84.9528874181535,0.6196257081079687,-176.6428478388141,4.378836035381836,2.483223136193498,-132.70723572394772,15.439287935781866,6.707787672301025
0.26,-116.12144722494068,59.366020402304606,169.2715640175977,-108.67149103947884,84.99044635705465,0.7808517166081175,-176.62382689214624,4.537850167952872,2.15169379391539,-132.65214114360958,15.41493634830996,6.694381585429595
0.27,-116.03647534992038,59.44625613960961,169.20758355002965,-108.74323229924735,84.98598358896308,0.6158005401602,-176.62314660255373,4.412863669798391,2.4789662050809587,-132.73768438484225,15.277730322165963,6.883024739649781
0.28,-116.10866436438988,59.64144946650882,169.37506404428274,-108.75699499184726,85.09864993810108,0.4268217327144959,-176.63920673395523,4.456757841867022,2.55798638660354,-132.92111096420516,15.482176023071704,6.621963066250609
0.29,-116.03060290556328,59.43766369099133,169.30572947524246,-108.80156614171412,85.14625230542231,0.5249614608379586,-177.01232039354468,4.514559809084064,2.2696704423425182,-132.94516480563342,15.680094823980896,6.725241748098194
0.3,-116.19633294009448,59.34361525770918,169.4598385087521,-109.02410041711508,84.96637942048757,0.2680553323678248,-176.79154599327725,4.5996411844394425,2.458114396308299,-133.16099102032348,15.7686302846304,6.861712454003653
0.31,-115.98251655221392,59.45924851001463,169.4895391603044,-108.81699883386597,84.99260493148613,0.2372620077499348,-176.91891037998042,4.638327530302102,2.630152044887673,-133.38985645253962,15.769999569742865,6.632880247720789
0.32,-116.06206692338328,59.584749670302095,169.57025841319998,-109.0817175462394,85.04921385922077,0.4355032816743264,-176.87443046517086,4.529974818408213,2.380813224128326,-133.65077544965294,15.839089213678887,6.716829233161143
0.33,-116.14464396167185,59.52300946803545,169.47677117973572,-108.76204182228024,85.12690164214874,0.5899235658810378,-176.3870507046614,4.5878227742596325,2.364869597114133,-134.04833814146605,16.36019168861216,7.166522273954673
0.34,-116.09224839701244,59.205474482178815,169.2018307541649,-108.65598489586236,85.20581794110859,0.3698337260226531,-176.77007379402536,4.370903582929273,2.4128405377464426,-135.05062540298573,16.44877151865824,7.074673304083408
0.35,-116.27629518701504,59.54218430524554,169.42481029663668,-108.70754990980384,85.27741504231739,0.5493733783476464,-176.74435098181374,4.693970871244906,2.4662321349243213,-135.69471523219755,16.748974985939295,7.361245112974288
0.36,-116.213346268216,59.5064772547715,169.56820506961964,-108.6474196856125,85.40157776696574,0.7785194171431284,-176.71552389028383,4.3910616227996,2.5240062087781667,-136.66989123062052,17.625190583699,7.94441725285473
0.37,-116.03648843230326,59.78300962716145,169.30510207709077,-108.55099835645257,85.44879356568482,0.2875269716383583,-176.57799445297434,4.634396004970351,2.3035739625280254,-137.8108119760252,17.818149479309696,8.701612877834703
0.38,-116.1017822791953,59.74258337247048,169.45841435345991,-108.58511384716506,85.41963322423099,0.3905586489266099,-176.77122306672788,4.5207914048657,2.5424812269469164,-138.82021820979406,18.66307962097305,9.369759794931012
0.39,-116.20211033536488,59.64694715542512,169.36127307896058,-108.7398183217038,85.38613111192197,0.354636315870101,-176.5041505566597,4.747334077492415,2.4565262142635813,-139.38486415866805,18.72696627252875,9.859504565237492
0.4,-116.26113045428914,59.71323998368677,169.235651764236,-108.44692074924755,85.56367326153692,0.5119081627069755,-176.74021806935122,4.384612623329142,2.351658068771614,-140.03435140870695,19.42908430748928,10.347030562509412
0.41,-116.17474154351784,59.423586377114965,169.5799983017007,-108.95307742857231,85.54226189244848,0.600234946781446,-177.18899986458757,4.265163201224738,2.2078673992340465,-140.74760619944033,20.04571765286988,11.011017033136833
0.42,-116.0633803074344,59.69231285558413,169.38783107862247,-108.7033654741983,85.68589295629552,0.5813774436946604,-177.14876109343768,4.520109056590618,2.583955530614356,-141.261434159522,20.411814926079945,11.33251077738344
0.43,-116.0399074934538,59.74011358849163,169.34804974702232,-108.48319202150682,85.7616990676468,0.5427904842951421,-177.15652549937295,4.80606373986716,2.491824416699575,-141.6794593131372,20.722314740729853,11.787319008819114
0.44,-116.1889371027486,59.49671437138894,169.4238449745583,-108.74259656682952,85.70155320766902,0.4060965762282688,-177.70107708953915,4.4422068346339785,2.1939313949116404,-142.3338564083382,21.109556946268157,12.625797473978622
0.45,-116.10691726884797,59.64772536377656,169.40531761178474,-108.747128771795,85.55836256859426,0.4301157224597606,-177.78581783215955,4.071629011958718,2.214625583959976,-143.12413585815182,22.01941240243944,13.278704395843402
0.46,-116.07248928283512,59.42726273160402,169.4715872687667,-108.54808982944232,85.55399481469978,0.6175691379810128,-178.2209144335918,3.785128316577639,1.6872831051673245,-143.41897280383108,22.93933561168941,13.482963406696902
0.47,-115.92969909408912,59.38719769206133,169.86912994683533,-108.59208516190937,85.85755788852187,0.5883813599865586,-178.80188586543733,3.815029108002047,1.6553344234721596,-143.41609696484622,24.124106253397763,14.20941797532076
0.48,-115.52532377132616,59.58509173497604,170.0327502468015,-108.86585736148864,85.78642849554628,0.5462867097301718,-178.88692624632725,3.655049090778775,1.6919369208008992,-143.50317098165786,24.937419439625245,14.862367952248006
0.49,-115.22616637303469,59.15025684756024,169.9663412105111,-108.7513306467532,85.90849528153738,0.5278142705036057,-179.65645503712418,3.265716643474578,1.1274644171508323,-143.99918103763144,25.4661119654206,14.929546593406393
0.5,-114.86478772750505,58.729961909981945,170.08301749049696,-108.7561384103634,86.13919418015332,0.5159861330416995,-179.76547939147588,2.942761995656613,0.9117882538930504,-143.46511364013102,26.324830449290133,15.194497172069427
0.51,-114.7344806584934,58.58937249028489,170.40968392322353,-108.63901488533452,86.08805910697178,0.5893939715217534,-179.7066339361633,2.486103725410585,0.3290301089147136,-143.54774865825797,27.228136329757923,15.436688761883348
0.52,-114.81419949691342,58.50902111944796,170.60675060648146,-108.50974673156138,86.11479562755957,0.7372219941700375,-179.88043253988533,2.562112706989127,0.4944831147527755,-143.50566299130634,27.556912366876965,15.7494464623415
0.53,-114.90986928156308,58.42566013472504,170.31818654560587,-108.63968697471245,86.31777002124853,0.6460526176914825,-180.06937315766874,2.686819937537982,0.229577271048434,-143.37622527474528,27.73351019175413,15.6254293258396
0.54,-114.54471041894288,58.44251608878051,170.82128311446374,-108.61906872695135,86.74467570803365,0.8984439245239234,-180.3413997250476,2.1254823023968235,0.6501473847603744,-143.58924109929663,28.334941527007384,16.22729538737764
0.55,-114.3837178693976,57.96141066131306,171.12044801377692,-108.42139768674646,86.9958292810871,0.7159648176176585,-180.4185727187537,2.0984724886242985,1.0019271278184725,-143.80910869211505,28.77832718936442,16.505207608438305
0.56,-114.33882583274082,57.54423912727074,171.3580693837615,-108.1380589329444,87.37639972348822,0.8040413378576523,-180.45317814626816,2.0898668928367656,0.897552319294288,-143.6688914598269,28.997852017879,16.556950655103012
0.57,-114.26939309568046,57.59782584704909,171.6004270701748,-108.35856800367822,87.39485404060954,0.3822311113740196,-180.4645881152259,1.9211273425831088,1.2836843884801832,-143.65336855630784,29.4068866335931,16.72966191552345
0.58,-113.97253901038783,56.97986363782738,171.71427933081284,-108.17802011960649,87.87225034887828,0.5571106809431186,-180.6959963368852,1.2803806812550802,1.7609265239208547,-143.2660908556332,30.170368641381188,16.93227663128532
0.59,-114.31592536687928,56.48668452105788,172.1059373268887,-108.12533384239356,88.05201965713002,0.5278779879007567,-180.7355537224508,1.1361248566526716,2.4271113898972776,-143.1223236675525,30.821352961990453,16.771381409356948
0.6,-114.37421686243036,55.54995851906189,172.48601474378657,-108.14784999810594,88.4900331910807,0.6572323368257227,-181.1099216659017,0.918323045734474,2.2729294080745754,-142.4348072747183,31.219908257361965,16.340760466328028
0.61,-114.65959583679133,55.17234450778021,172.8071142268446,-107.96603531708548,88.90537931390897,0.8249757426305511,-181.398479048632,0.6256582203992881,2.86327188701664,-142.34090945714925,32.13509139999151,16.086286977751282
0.62,-114.59748310560452,54.63658394790893,172.85335047034445,-108.34484090144711,89.1943528328056,0.2892761371477094,-181.29899040407827,0.4022183244673727,3.44184258224872,-142.32949987330812,32.64713390019638,15.896761087293491
0.63,-115.03905013486737,53.89450979975479,173.2616860648899,-108.3400105155493,89.5830125195422,0.2273201759153031,-181.53319897507896,0.5345356891731802,3.6020509530534235,-142.2635259776194,33.155761896671905,15.926145065294792
0.64,-115.24663602903752,53.30575744851792,173.31272759801456,-108.43091864056866,89.29140512570774,0.3535861836243112,-181.6454711692249,0.6611184177578256,4.648091033857517,-142.54538002657816,33.7236317661373,16.040610630844757
0.65,-115.59428877383397,52.82707439026495,173.309089063085,-108.26869036516084,89.14407920283507,0.420639272349805,-181.64887977280475,0.7955494767042023,4.796480873745437,-142.78235327552355,33.95721436530595,16.249432858007673
0.66,-115.94395130970774,52.43941387961372,173.31728048832912,-108.515383718566,88.96808997131352,0.4994605545261134,-181.30207412239855,0.9027100397721008,5.23265432645272,-142.75425765855093,34.31098880908235,16.52650351640884
0.67,-116.37094109984788,51.80423630957252,173.3969634681026,-108.35498812300524,88.30853036519878,0.4782458611380982,-180.9166198286484,1.5247323273485105,6.142363793252787,-143.1349758691218,34.656182597613515,17.22941359630861
0.68,-117.15192787957186,50.67394410016029,173.74397861544244,-108.3814664401014,87.76016317924238,0.4039352727992396,-181.0251275094164,1.8713399577732224,6.666856118270693,-143.4208321316335,35.17315624739083,17.698763888845548
0.69,-117.57767822341977,50.13244026611363,174.06401167959632,-108.60674354355707,87.10972997170457,0.5621703015526397,-181.4605489760072,2.2959095560833327,7.151436977763282,-143.9057596858458,35.50244876379751,18.147061763929106
0.7,-117.8314008329226,49.887487794587685,173.95524019050046,-108.68809497850746,86.76460880850703,0.2608339994826295,-181.64623763394485,2.170714159129987,7.639339360460748,-143.89764364953177,35.6360300894441,18.114643654957685
0.71,-118.29750649258816,49.54509318559466,174.19545011203627,-108.91185646259687,86.31928182811825,0.4109214212954125,-181.713814060773,2.2429897979696283,7.794685867251668,-144.24710338079677,35.63452301497652,18.502783595892275
0.72,-118.46380294775992,49.03926155606911,174.58556637801843,-108.98893369231064,85.72290638427009,0.3195424966023513,-181.79750764715527,2.2028091996744297,8.070472248925197,-144.14155668495494,35.848395556545555,18.834101575148253
0.73,-119.3243877792586,48.2262649903889,174.45628607412976,-109.28737325140212,84.8429778455704,0.4140944578731462,-182.2562207482283,2.329637020570688,8.405208672893917,-144.0088020254973,36.12945483815822,19.017644016476325
0.74,-120.12050619239588,47.02029632279936,174.56124244571777,-109.65354370560657,84.8237363424501,0.319940622263514,-182.6779280395479,2.167532475087579,9.199247244778023,-144.1367091986537,36.55989103241436,19.11660436478256
0.75,-120.73132838874328,46.09817882360112,174.39955919663544,-109.96751101177242,83.86104309631621,0.2482880929133638,-183.0536934351709,2.144563214236044,9.706429373556947,-143.7570714772785,37.17779959982272,19.71420630288457
0.76,-121.27611063761964,45.38615979014144,174.33120343182932,-110.77147463224752,83.2160269372663,0.4029299232394028,-183.38244835091703,2.531833658702641,9.77489017981428,-143.27381137779636,37.59102746908037,19.4951094581956
0.77,-121.23138463145813,44.62569778425463,174.32677380781908,-111.33358015445434,82.62930338490702,-2.812391562695672,-183.61708882878236,2.3839594733133085,10.91612818901834,-142.51967724880504,38.08957515478558,19.870030858542343
0.78,-121.4158831675926,44.56121459931473,174.25131660386262,-111.84460549385776,82.1299658723926,-2.5628104306802664,-183.81912557996503,2.4366233753633044,10.857642514108193,-142.2133365858322,38.319541548049386,20.04872198809769
0.79,-121.59707231995095,44.31695666021478,174.30485744909075,-112.17813441648644,81.84051980200788,-2.554686636674192,-183.59742014039435,2.796684465698758,10.997071048001798,-141.74670768484347,38.523484559752646,20.181823005625983
0.8,-121.12896499853994,43.80794779077404,174.4858057808901,-112.69164643953408,81.01507739788313,-2.406544691616226,-183.6671405896353,2.596836096040592,11.610351182561796,-140.80538109081138,39.18571417172264,20.46648125077964
0.81,-120.84053005853572,43.57177131444693,174.5506368367096,-113.46013070463404,80.08341162186629,-2.198091756405516,-183.5282592089988,2.943631830447093,11.691404229758309,-139.85045673771242,39.59587602371268,20.749835805432703
0.82,-120.7929445036786,43.24132586505919,174.90567350066448,-114.03437665745548,79.00262020590559,-2.004087323691102,-182.83164025906788,3.030585045144329,11.76972175342676,-139.2014071311988,39.677940755003,20.798370684472477
0.83,-120.24100341084451,42.43999416802903,175.25490695422968,-113.97195198450189,78.4481398031964,-2.100153879247526,-182.2422631108174,3.406497337192118,11.981400653466451,-137.76079015999886,40.84912061686157,20.03169316500052
0.84,-120.5273813454708,42.365491421612,175.27725157025014,-113.7624830966088,78.17497718997596,-1.8619479728838848,-182.19833963082,3.23521283548167,11.649785627655913,-137.49385172037964,41.15612799460886,20.412340050414645
0.85,-120.00147519365149,41.79924587032063,175.63214387108786,-114.21582800457485,77.95090933785804,-1.9402300811779345,-182.1091099292084,3.8463570147349793,11.23951523780122,-136.8952163347685,41.67441139582997,19.97410044675258
0.86,-120.01164747834264,40.9199589284448,176.0990323571923,-114.03695221750034,77.21099718405817,-1.7544990693891915,-180.9714816596893,4.146890592776429,11.2574621652483,-136.1698910250164,42.41999003498805,20.488675894948702
0.87,-120.2040986117416,39.78143415847791,176.3064018889421,-113.91616349186783,76.4185410605959,-1.7423452838231648,-180.89297516948693,4.344182760805176,11.08145518571559,-135.81366649975422,43.16259461042519,21.47713270087189
0.88,-119.89685866133252,39.37268065703612,175.86494090257224,-113.81246987395204,76.03516099887247,-1.3822493856493414,-180.32587452411863,4.787620760591387,10.818679346001977,-135.89817223100974,43.43435306724083,22.51770514701812
0.89,-119.85936414719848,38.50208447974663,175.33718583090464,-113.54848675847012,75.82047522671898,-0.9873226428340744,-179.99777407173937,4.996146331704514,10.8779378731004,-136.7753861971708,43.71846090105864,23.834027416438754
0.9,-119.80932124717248,38.0516837416224,174.94499863977785,-113.3117085703913,75.4770882298768,-0.6035465927757626,-179.54018405004004,5.821324499195076,10.614751270551386,-136.84137247643258,44.22580447255172,24.87696131621533
0.91,-119.93766422153654,37.19698955052057,174.65856090595958,-113.21548804916596,75.37307149274214,-0.5669684236645809,-179.68207779840117,5.807476088201306,10.410816000021743,-137.3115201123791,44.57366509364046,25.517046383430312
0.92,-119.87887290033542,36.70836544062092,174.38979934102005,-113.04724627368095,75.34435301516187,-0.9158298020110652,-179.9309933791955,5.794809299733671,10.397359771168205,-137.57343921734162,44.93666290804554,25.99123307300348
0.93,-120.27621087557236,36.034903223795176,174.23361164663527,-112.60386207238714,74.97177638892477,-0.7650450689549758,-179.9142668421958,6.405087933329936,10.046806071033116,-137.23766319086013,45.51055748388563,26.793234900175843
0.94,-120.3252522394728,35.0869079109956,174.45003377113787,-112.41452477686488,74.35350147305854,-0.3440145882877308,-180.10987903648171,6.337532218820628,9.609738248196102,-137.52750348532084,46.22644776619985,27.18025523605946
0.95,-120.60459087058156,33.911865050135056,174.67540121868183,-112.34941004299874,73.85720541485459,-0.1787923887309095,-180.19637224685889,6.605989668223707,9.554573022408364,-137.82841163270538,46.64525437774275,27.74721081551874
0.96,-120.9463480738472,33.36433714476565,175.01531303228384,-112.34973757231506,73.22035191853284,-0.1264000188264996,-180.71364035896516,6.308934205871871,9.47580085980025,-137.85879418973497,47.3829781981397,28.7617383820094
0.97,-120.95195994748542,32.467310986462394,174.99692419260913,-112.25411301820156,72.58043953700997,0.252240046423158,-181.0482518603013,7.1216613050015765,9.114475875130228,-138.47146082814325,47.26889591872873,29.712103213098317
0.98,-120.73712669850867,31.92565324756231,175.00036585241733,-112.53662414420464,71.86789703569835,0.3953184278972982,-181.36886027379649,6.876725042460586,9.449381910082266,-138.76977140999503,47.79755583957393,30.498263442772167
0.99,-121.0201115026274,31.519205944451198,175.0614373821429,-112.72271034189043,72.02416311008179,0.6207976850063914,-181.29557096516692,7.132307513734062,9.12666615609913,-138.593983307043,48.24864289265519,30.959629825211405
1.0,-121.26890628356703,30.969211342187645,174.91059844780506,-113.36169931302416,71.26167554200968,0.2794612807699942,-182.0888136695506,7.685844579589474,8.750107494915115,-138.75554329326602,48.68907661985047,31.72965695298957
1.01,-121.61163355565728,30.2246975881962,174.90286026114748,-113.71832092646233,70.3411286892083,-0.4397117331779981,-182.26639354625888,7.891118941667327,8.945269296920818,-139.30385346368004,49.32682207365983,32.40800975416792
1.02,-121.60328472684184,29.12542140313367,174.23596424146905,-114.48752214142188,69.74762974758075,-0.8332313892334466,-182.8258557389325,8.353868492978899,8.644632760033206,-139.15587016333234,49.8771348541744,32.85288871427954
1.03,-121.30156763526028,28.70536814892586,174.55006034548487,-114.95235481424255,68.80855702675882,-1.38971065881416,-183.51104352958893,8.76715969252322,7.856440630575699,-139.42049151041164,49.85918449705535,33.30894791688719
1.04,-121.67532342816406,28.2099658108644,174.40699040437005,-115.07396344034396,68.49230854633468,-1.424250641596269,-183.57424238181557,8.917457155491425,7.894566915780393,-139.40092349111936,49.80441819743135,33.59418101928513
1.05,-121.50864811865884,27.98493077761804,174.4167850449635,-115.06750840445456,67.97834913150761,-1.3707382297940205,-183.7378142816184,9.311811451953508,7.791688984747363,-139.74976508346393,50.07402039089124,33.753865845639105
1.06,-121.41768015894002,27.230130246589862,174.52931460161503,-115.787882376308,67.24188728679849,-1.8926024835617576,-184.2453586867213,9.717099575191234,7.697042392488333,-139.96316624613232,50.78310341804318,34.146969614795545
1.07,-121.71964137046491,26.81832712416287,174.82610653742705,-115.9911592401122,66.01378069879495,-2.1155907716479336,-185.054802463842,10.458989909884249,7.760861419609963,-140.09163413293655,51.70605860675874,34.20247824908243
1.08,-121.4754283767603,26.473932654963978,175.04533062679843,-116.83901553025962,65.52737212275044,-2.2352889792560373,-185.81593218832796,11.190799469463606,7.77965906545573,-139.8178071743266,51.96287185838951,34.48908318996376
1.09,-121.77905407208064,26.2526262749237,175.36465814314045,-117.34852965529824,64.61674318375005,-2.4167729376384823,-186.8380121245089,11.819439867906182,7.640081341415763,-140.3251780328949,51.67638341316594,35.836902897142785
1.1,-121.7038333894406,25.72410540468301,175.2624900722784,-118.22729377185333,63.758658736056375,-3.07285118079796,-187.5887148972116,12.429189445646612,7.72552944218579,-141.658066608441,51.0825271567208,37.33370608266465
1.11,-121.91168738661952,25.26322367121405,175.79914199816926,-118.8449116027257,62.9818629459505,-2.8725403264363614,-187.86196509535236,12.983604606729418,7.577896233959665,-142.84918944916035,50.644376322094175,39.28585278487317
1.12,-122.08156046454717,24.939824385698437,175.63288727993327,-118.97343693833844,62.506709057378885,-3.2632552437837767,-187.8800517306741,13.405357040493096,7.544035420412177,-143.4992310050406,50.46991750166741,39.9334641321973
1.13,-121.58818153664431,24.469650134802947,175.5504315896871,-119.3161953450106,62.45642413586205,-3.165261544448172,-188.5128369846395,13.28311038132044,7.695210164849312,-143.94283059133366,50.72237490960882,40.4323705761655
1.14,-121.95893974192174,24.324826897924662,175.49229754145117,-119.76406313130092,61.44505279778997,-3.214682885338632,-189.15351914329057,13.753544357176652,7.145616109573723,-143.92209225643623,51.006576965551865,41.30275532548372
1.15,-121.95722759911772,23.96302489857761,175.56498130890603,-119.82743002722282,60.83729608364442,-3.39290591293518,-189.33467322822685,14.418969676484425,6.966324612238803,-143.2136399942961,51.91872551074219,41.55086344827627
1.16,-122.2717649333809,23.57403308488932,175.84466769061194,-120.1564278487107,60.55362567446976,-3.230139239251827,-189.80735799899293,14.757017837663785,7.27213570061418,-143.33450062647097,52.09646882307873,41.47917086492232
1.17,-122.2536307919502,23.47189583090183,175.55336178260654,-120.31581842090046,60.18932011910072,-3.4329938508823776,-190.27581563738107,14.75787503642312,6.970044948231696,-143.38384565305714,52.24887572749517,41.769353980191006
1.18,-122.23627354350916,23.023625872593325,175.48611028458885,-120.29741590049268,59.8675300039179,-3.3596737618131387,-190.3327716530948,14.933616250351962,6.7201722171502825,-143.51002103755985,52.02129571142706,41.843146525890646
1.19,-122.65110804470794,23.100663319177063,175.8604870263396,-120.11828500248902,58.90093943011133,-3.460146892552736,-191.05045019464285,15.029415813494028,6.42724241818382,-143.8579159602774,52.54571784468593,42.455698463428334
1.2,-122.474788662549,22.79812718574442,176.23496874105498,-120.40803123090484,58.62221879269933,-3.693705370242103,-191.52926505302187,15.228794699866048,6.553477895086557,-144.41580440436798,52.43924117669077,42.9934347869596
1.21,-122.92709468312368,22.74549299882172,176.3025005960853,-120.58802209476288,58.02116816745649,-3.3668513225384764,-191.67987053657765,14.996800663062494,6.132549144947233,-144.84329225243278,52.01802753297816,43.99133372467401
1.22,-122.61940933629414,22.19383788173212,176.4121364438263,-121.19160754731936,57.03739207101579,-3.732463424840534,-192.4791961169769,15.4957762053955,6.120690952314007,-145.37318146980783,51.43470061912254,44.43143458391649
1.23,-122.75316452324957,22.207842875714427,176.62313617244473,-121.5518492468709,56.558619717520415,-3.8793975029371945,-193.28692857201187,15.851562080327172,5.992467412130887,-146.06892530770378,50.83152556083654,45.1033853515204
1.24,-122.64178974991788,22.02884179526212,176.64806850253066,-121.72761227436268,55.90451346076264,-4.333532704581955,-194.4686690955905,16.59601585978097,6.173499813797685,-146.2069231144593,50.69741001019787,44.79263536060221
1.25,-122.79461154110096,22.20305213922346,176.74622253614208,-122.6350692018692,55.19517630524005,-4.27003926723376,-194.7033831306832,17.082491389444073,6.494048514518111,-146.1828785511104,50.83147977243008,45.02775420992746
1.26,-122.68250911997058,22.29920371615444,176.6779512981942,-122.61053833800294,55.23728557217346,-4.393362908554818,-195.0581824297797,17.26082900706009,6.555430025521838,-146.34484721013317,50.77105377133592,45.24418414905831
1.27,-122.78021659762504,21.9813849811711,177.15605700070665,-122.62948612055416,54.96319847177844,-4.193417848429977,-195.3202346730129,17.70824057245787,6.849493794975714,-146.21272468565627,50.79372924062934,44.998174459705886
1.28,-122.63091150867076,22.27164907829657,176.79507269120475,-122.71842692499705,53.959662718362246,-4.334162161695771,-196.39322477989336,18.26416743873448,7.543743508954939,-146.55032507256036,50.43303189839872,44.8634331510352
1.29,-122.6975932932989,22.69813622451254,176.8302222078203,-122.83818279971932,53.29314298787505,-3.977777436110972,-196.90694844139267,18.55311192453724,7.584224962707405,-146.71166312939437,50.45645252859645,45.01955725333851
1.3,-122.866190389218,22.593416559348256,176.9316694287724,-122.81755529845252,52.9171861649705,-4.131797926561185,-196.9914313464787,18.894999638985272,7.798027053769357,-146.71777416645205,50.53503713298774,45.09656741542133
1.31,-122.40875084211534,22.815971752480586,177.28114849817098,-122.75195507728186,52.73966846376548,-3.910997702195803,-197.2654912803392,19.08412772396117,7.8891312569656415,-146.88324666831426,50.340284623770806,45.06930904894114
1.32,-122.76308415787923,22.77302352275675,177.38909815046227,-122.25730201911354,52.2054716506954,-3.682241690625966,-197.19977593944955,19.44953481710714,8.016990299311407,-146.7614273707257,50.48883733319674,44.8688341836744
1.33,-122.44053889266684,22.754468663424287,177.22603727353427,-122.66209855022602,51.68542357802556,-3.7385894906923176,-196.57923227818245,20.02977309908838,8.105777413301844,-147.0776614269607,50.1709984560612,45.145042754240045
1.34,-122.4764073044463,22.72489139343089,177.25868859050766,-123.06431309932884,51.1134377877553,-3.749655054229701,-195.7231161819204,20.47258349602969,8.088438368397414,-147.20078717934803,49.94632716871238,44.91417518738328
1.35,-122.39693562718136,23.234518070032053,177.02547488480272,-123.43659607403544,50.47044815847664,-3.806798863340493,-195.46929956141352,20.77693086624033,7.59134241409917,-147.72217105454214,49.98711928953959,45.16409766139113
1.36,-122.5283195473335,23.295200139976146,176.93203776742382,-123.70792943563232,50.17391826041457,-4.331080326154843,-195.2311797430711,21.419431792016542,7.311023356444177,-147.5224835261752,49.985946438187526,45.30207585006737
1.37,-122.5250306024966,23.463806534046604,176.9408180370941,-123.81639155216656,50.17772536737274,-4.194070585676494,-195.1336709613129,21.515544000952374,7.263679910009794,-147.83551631135563,49.79610389691975,45.30205438300718
1.38,-122.38018956338136,23.484503307469552,176.88820959859217,-124.32533267786684,49.50542679397154,-4.528992606955482,-194.6266539121186,21.639980533646327,7.11359834720724,-147.93121021665542,49.9029973788359,45.18137216364173
1.39,-122.28752497505872,24.04732093599944,176.66145685015647,-124.85249303183902,49.40783789112028,-4.702244841744581,-194.9578419172937,21.89888024334189,6.920588606022198,-147.8747822209781,49.69831652819384,45.34260818354126
1.4,-121.89943740421631,23.780617772756774,176.6042003205442,-125.0839724940555,49.52671219632861,-5.079016118969567,-195.029614103617,22.132946832211204,7.222124679379017,-148.1426309915507,49.75316986751472,45.00436264839643
1.41,-122.02763253544322,24.077166878486807,176.792337330335,-125.57283418279734,49.37465060133112,-5.158087188277967,-195.32602421239284,22.144603128826667,7.34845690801661,-148.1830893305012,49.701726744005086,45.39881939432591
1.42,-121.8764790870372,23.812018784789835,176.678175539863,-125.6514081729974,49.224752257993686,-5.505155522823529,-195.48569334459768,22.574134161389622,7.616417307710667,-147.78598305596472,50.16903614257364,45.32419222119395
1.43,-121.885060254081,23.92794578291244,176.62806646862705,-126.21867963615703,49.03609479102792,-5.646793345189171,-195.8526930785083,22.427052441551822,7.756798506829464,-147.82690722066397,50.43163099726199,45.20229373555309
1.44,-122.00734183195192,23.790564430716955,176.94073913627747,-126.73995382593402,49.13925287193023,-6.078937399499536,-195.90667462726765,22.528315330575527,7.934595001001463,-147.4548214436434,50.87792767733186,45.029111109493904
1.45,-121.73705236389593,24.056692403961936,177.12035349259514,-127.4733864513972,48.86960730423778,-6.747900333405293,-196.19638470661127,22.827508514075785,8.173845470287787,-147.29638612421704,51.25120926766928,44.95713528279455
1.46,-121.7301660567053,24.33642660980615,176.98300638408858,-128.1619145734656,48.5394084305794,-6.9590845302915065,-197.12689882940003,23.05049745380781,8.6021484691065,-147.37129315829714,51.820763921109965,44.71980459114362
1.47,-121.62595031328334,24.31955557664265,177.21500999508746,-129.06512596808597,48.235764858774445,-7.527245803201741,-197.1384526905335,22.73616019465377,9.19216586338032,-147.25846078511643,51.832856748204975,44.41404575100798
1.48,-121.41018122948368,24.62065765054018,177.18845147442758,-129.63984930371103,47.82778142241658,-7.834221303571842,-197.4785372593941,22.766867127469578,9.07607062672631,-147.0288637428469,52.61169341530756,44.57899489188334
1.49,-121.6576606476677,24.8486891415213,177.38048403424824,-130.32323893429614,48.01375719689766,-7.834027036732993,-197.7473411331995,23.08129402022289,9.472578664024564,-146.44604180452373,53.26425503274065,43.94100357254132
1.5,-121.51480497052718,24.844894014958623,177.32591742402283,-130.0952730215601,47.81202445027274,-7.935714162102773,-198.14539304061552,23.394977222991905,9.773391523499177,-145.72439708420382,54.00936871695691,43.39062716258112
1.51,-121.6818195466564,24.985748083901942,177.20373251799842,-129.83001863932327,47.31052347224385,-7.908753945900053,-198.2234956324336,23.3636949514042,9.881271639094482,-145.52912366531268,54.73492700958703,43.10368838208706
1.52,-122.0511586931312,24.95795211099848,176.9490055825474,-129.89482808616867,47.02734100077016,-7.968732263586485,-198.7229987901414,23.414520627267017,10.20707138213904,-145.0801106455664,55.26463910708617,42.80281087911256
1.53,-121.93683304970628,25.027238136927316,176.89599483963215,-129.7864037297132,46.88813967792836,-7.846491938861151,-198.5833083121361,23.814086455007512,10.31176207785474,-145.78989108511868,55.24768913395493,43.00392594167506
1.54,-122.0986310181842,25.002809878518462,176.8504929443626,-129.62560148978346,46.68641380130356,-7.903969176656595,-198.55451886143652,23.53210323718904,10.773351475081856,-145.60524702206746,54.96758312988045,42.76424555569594
1.55,-122.15612935554614,24.9946381458216,177.02514238508493,-129.61981476372574,46.72878152721944,-7.96941953481871,-198.70878932985335,23.28205538918621,10.59033772240144,-145.9968138816709,55.05939955945434,43.0103011982241
1.56,-121.9532469797187,25.046318875395222,176.80760782813675,-129.81775358906998,46.39656051279503,-7.800874736112054,-198.32377874480144,23.403090982718894,10.82673083206343,-145.9578987908354,55.02460979574354,43.04625589799718
1.57,-122.17541454304072,25.23136718412477,176.93602891780571,-129.816674746262,46.34717622513618,-7.570154226043374,-198.42721939466395,23.28022069291989,10.732314110365756,-146.10967314315334,54.94283815489592,42.8085458006455
1.58,-122.10908952415718,25.28510029483827,176.84897643048896,-129.62348722183003,46.15012136400824,-7.583602813748259,-198.35855084201165,22.892047110251124,10.371669711919374,-146.01908456703055,55.08648915343095,42.18718305946162
1.59,-121.9038224320704,25.48627829008568,176.65902669953283,-129.61732167096525,45.92121284489185,-7.475106190530615,-198.04175636114144,23.061909997895903,10.344165448099991,-145.48121359258946,55.89918725861847,40.97855024947564
1.6,-121.83872848474044,25.724478171494795,176.99971012871544,-130.16966974003375,46.27520625822401,-7.93212450502818,-198.03230099373195,23.053028345424327,10.50934615502367,-144.86715144637407,56.49475281742177,40.341828491925774
1.61,-121.72805315726151,25.588009903339223,176.88034389300873,-130.24816709085306,45.89445173737002,-7.932808337946866,-198.47646029291147,23.046044167560016,11.278213886028068,-144.35747879828654,57.2259089236669,39.406328165540295
1.62,-121.70840615337912,25.94087183783358,176.88300859563356,-130.70459953831323,45.5038991034838,-7.869829465732297,-198.68961304972524,22.82202512477401,11.96983853567532,-143.91038156122283,58.22316008416677,38.10712582574979
1.63,-121.8317711382903,26.22452209495948,176.64357730147415,-131.1448378944879,44.91981756969741,-7.905428772121411,-200.01968795341685,22.8323637395988,12.541333025332792,-144.33330486160568,58.295938439106365,37.79286347578198
1.64,-121.53437261575792,26.14687774838215,176.762778615784,-131.65561155462711,45.23897360442327,-8.055042901014815,-200.46607552594065,22.82664964484128,13.020869486854693,-144.45689247418048,58.0919998157105,37.99844488326045
1.65,-121.39211386184274,26.33188699994656,176.91073439322108,-131.35033749041813,44.87046151605877,-8.047578480818688,-200.6916864532036,22.596872167963348,13.093088068727816,-145.13609530726114,57.644772543597405,38.52840613186784
1.66,-121.16489595466032,26.66396372799324,176.77482692965228,-131.6131610560748,44.71608980827094,-8.22772476714582,-200.65067690193217,22.25203902237281,13.082633503274822,-146.17447149045947,57.08295251352637,39.75079214925781
1.67,-121.37190001811696,27.06830711158491,176.88400636589742,-131.5140271470069,44.51768960721219,-7.9621832818663,-200.39205379826043,21.893243494596952,12.78984209913182,-146.73379097753514,56.74205923467438,40.43795982606814
1.68,-121.06922445015162,26.879147051742223,176.79595012088612,-131.61888255227868,44.69663892100613,-8.227701233183062,-200.13956158181003,22.078131349726764,12.924708272702448,-146.79491077137328,56.5840497181166,40.56488645002175
1.69,-121.06225550618448,27.144162346814618,176.99050661395657,-131.59934880406624,44.58788767752305,-8.31335464846099,-200.1415128222652,21.84537937249356,12.96762741973285,-146.80796310694433,56.71435516370655,40.49829074895686
1.7,-121.06687577881009,27.009546315273884,176.88780757795527,-131.6846261821487,44.793803574210656,-8.26127754648778,-200.06762249278265,21.819161761029857,12.633043061473828,-147.04685052549902,56.684381764827634,40.575186313682366
1.71,-121.28514435587788,27.189622622676957,176.66236834446798,-131.67587342290628,44.98682946688533,-8.302814768382865,-200.2334644142,21.635607632070645,12.733370160963334,-147.26092906800324,56.59842260990929,40.652782635505375
1.72,-120.8570966805272,27.37029581385821,176.61101637198652,-131.07693190815965,44.77833832540533,-7.855450177008587,-200.594517095411,21.485273867044533,13.14093737939256,-146.87021114856196,57.15204213034993,40.8228481759269
1.73,-121.04378102755857,27.96573986517489,176.84911570099146,-129.87254815217122,44.68457551466025,-7.307525688534607,-200.8553326212377,21.816300900151752,13.56020245660635,-147.33736470598618,57.08229417254109,41.450726639989874
1.74,-121.03523711184178,27.99584498799645,176.26023546571892,-128.89041172637127,45.024929112644976,-6.915215030268028,-200.9771541838705,21.49609008493509,13.45554257809252,-147.50024134530162,56.92075870779558,42.04686195521761
1.75,-121.19768198666618,28.14684314097177,176.23360774595977,-127.58527997429051,44.52799923148105,-6.296593165797551,-201.4905718634898,21.06411723224792,13.426459942457532,-149.04178188432445,56.147936264718325,42.96947709920361
1.76,-120.7721808866536,28.41865813016249,176.48489259891377,-127.226297917831,44.72488530976146,-6.259776814996768,-201.6946477861684,20.74247546451937,13.451293774499437,-149.36787893395325,55.34955624038217,44.11244167299519
1.77,-121.07223234472816,28.53522735039051,176.73574169210193,-127.26408889888528,44.709002239382485,-5.950091541232843,-201.77109744081693,21.11022722678036,13.12840616160813,-150.05763416444245,54.76108819741909,44.949985947108274
1.78,-120.64740362876552,28.226800430534688,176.84078533570036,-127.32953071801386,44.900700739166666,-5.956856056790396,-202.0712702125696,21.55374869350334,12.555978060140273,-150.65733019358998,54.3730978417092,46.09371221975946
1.79,-120.82767893429914,27.988972443505705,176.83956705982925,-127.27192779973696,44.770515672760304,-5.782105114239718,-201.41272820077995,21.74427627483258,12.060126019795934,-150.2992050671944,54.25698834799952,46.12538244921528
1.8,-120.82341732079604,27.89747620890318,176.92916029766138,-126.90275133593865,45.03048939428481,-5.43165008809005,-201.52607136104683,21.83581485795201,11.866031902003954,-149.58064749408464,55.10545630016178,45.109093322913296
1.81,-120.71140445703011,27.883800188064782,176.98963111568716,-126.28592539736732,44.93400307912462,-5.340775127588128,-201.2635769892828,22.02008118014423,11.351548368819271,-148.21811359611877,55.531215635879605,44.095207285352096
1.82,-120.5545219298654,28.00950857635561,176.94161300910557,-126.27501807353892,45.0538361762859,-5.268749413687791,-201.25929416990476,22.204744208247817,10.982523711920024,-147.93974805679824,55.56658234145114,44.10590443001527
1.83,-120.8281547139074,27.980457075018336,176.93045237587356,-126.15217528648756,45.01191268533076,-5.26540076553034,-201.0743570875,22.0777704959306,10.698008300319229,-147.9160905415461,55.6433883228983,43.57659281459032
1.84,-120.6236106278662,27.638049874447944,177.10914308415238,-125.9646624957194,45.21202886432717,-5.009584670524991,-200.8935794579058,22.68350838315735,10.42748122852307,-147.74943725146042,55.4999062703177,43.83889803022796
1.85,-120.6431375632516,27.234093970329926,176.8037230639269,-125.55782739925836,45.20586035530294,-4.731799018450723,-201.12501410223751,22.84536450593696,9.844425807496089,-147.50850972085544,54.90680900536474,44.44671726523908
1.86,-120.53213144471056,26.81665570917303,176.91905376979628,-125.3593427541156,45.422087921477406,-4.799496104780727,-201.1718386297736,23.277815802966263,9.594597246941763,-146.90206684244546,54.78763033858704,45.267417300220885
1.87,-119.94183716446324,27.304887714605115,177.12213628635254,-124.79164315634368,45.57219931243465,-4.486879542642963,-201.34622067985663,23.524922513721148,9.59694064737774,-146.74298498192204,55.03838256107412,46.10571441781905
1.88,-120.04242740413152,27.033132343251896,177.1483401052457,-124.44621419813296,45.34844957063963,-4.343709712864505,-201.6771301874508,23.749248846686392,9.32723929253693,-146.43931417999437,54.26577306321131,47.37989530034078
1.89,-119.52049402330164,27.595240539773503,177.40244552836486,-123.49773322010677,45.61372248402253,-3.7917510337731737,-202.2754371175284,24.2606282076006,10.42955447536688,-146.82742239420278,53.548534594375504,49.22789654427895
1.9,-119.34768152457228,28.137110967771413,176.71413982135206,-122.72379792157722,45.61744694328125,-3.8897877521534094,-203.73273812030607,24.753656649210267,10.952100720102054,-147.27844000324558,52.61836233769582,51.1337407728676
1.91,-119.16024306145712,28.48437753590278,177.08793825264485,-122.23194859774956,45.98968120971488,-3.1527625546384703,-204.83076429945987,25.304572452525697,11.79281010683393,-147.58989741733578,51.82678603867446,53.09012114139863
1.92,-118.88259153088605,29.274380645350156,177.04830312788866,-121.59316605078492,45.90479081571301,-2.7695765434907256,-205.203297847558,25.64563031352489,12.551429223811429,-148.09023524935782,50.77936009490698,55.31154162699496
1.93,-118.54971764907826,29.71364289143718,176.8339928099051,-120.89788157945362,45.96442147116221,-2.329922197009279,-206.0209513046796,26.049152572527248,13.288707553048924,-149.01771571195758,49.55060404326864,57.52578036883219
1.94,-118.29341464749405,30.55529659547261,177.05620072182003,-119.90643499325093,46.44262139672293,-2.3583493414632573,-205.98685929549495,26.20946650481853,13.493437644883194,-149.32223235517077,48.6798070003656,59.55698473689522
1.95,-118.32046871849164,30.726193621199684,177.2674559476699,-119.49047319205116,46.5970961947445,-1.973061054210908,-206.36045986596395,26.542804391715805,13.829607901645613,-149.34122252400488,47.98700761365792,60.23560918467483
1.96,-118.3625292508353,30.93404693014907,177.43066130177658,-119.18424959577187,46.6100051666769,-1.7941124375226418,-206.4626604270099,26.67689859085037,13.97938619373922,-149.61300289910363,47.430838720122445,61.25832620034668
1.97,-118.02390972166384,31.58918103601956,177.23510840303274,-119.1942745875177,46.77774604707837,-1.7099602926762578,-206.2787156514377,26.731087282286943,14.395453897045684,-149.76353699988533,47.06471289262296,62.18113208942512
1.98,-117.90323005546772,31.756782340450844,177.37860983973755,-118.92495904323395,46.76719154886291,-1.7041676338384852,-206.35995803031932,27.049949912128245,14.282164095926731,-149.8603792950894,46.5145318806637,62.991178331149456
1.99,-117.77517666260292,33.00001767190621,177.35904461949767,-118.02416698299956,47.43572314234421,-1.589269289216259,-206.64799957504223,27.38706124551365,14.880651399006036,-150.1869219417761,45.63622049109787,65.16411393179554
2.0,-117.6027265462026,33.87190981141006,177.6924299146268,-117.49492341243489,48.15728659132853,-1.0381486551100454,-205.8508122165825,27.9164433051625,17.240577313234972,-150.084313466117,44.74077458656939,66.26389310243121
2.01,-117.38618755365378,34.73738490444787,177.65665604676485,-116.4862591615188,48.5808054046462,-0.8216267099245962,-205.9494622752687,27.77784708024728,17.908539548213156,-150.8324225638553,44.18400637489933,68.11235351123676
2.02,-117.42091559774818,35.390944928603744,177.66951675095123,-115.78672293216964,49.52036763668714,-0.2213730633613825,-205.6196597727029,28.146629033130573,19.683902218051752,-151.1626227453234,43.371983168758376,69.725579964799
2.03,-117.67134497706428,36.80379473949305,177.62097433775347,-115.1497984593204,49.9653136196124,0.1365754940787818,-205.6712962682157,28.297204928213805,20.95740795262078,-150.86011497554912,43.124483101949366,71.02824377703942
2.04,-117.55864730360318,38.07574196232514,178.05419553490617,-114.17817937081404,50.88929821921848,0.5149371110776416,-205.69094311206143,28.32963562335587,23.263448055253065,-150.09319965037045,43.54309983877764,72.64208076181082
2.05,-117.97830473399586,38.98761398956536,177.83352571362508,-113.49153868345276,51.57214387908254,0.4300564962228528,-205.70481387108467,28.771122755335824,25.187675795908365,-149.7163090617477,43.30912639571616,74.07262650849482
2.06,-117.94480714936728,40.13706932808376,177.96523798479075,-113.24945570757596,52.30675741451397,0.434136330611052,-205.3947085786228,29.381987838955943,26.896281865459542,-149.30081640254937,43.37356651848021,75.6284853050302
2.07,-118.490293155619,41.049719044452345,177.7584112994587,-112.98847007870408,53.31476958478215,-0.1018114317918692,-204.7495996478235,29.840373898892445,28.267178075947083,-147.61453172797053,43.850510590625056,76.55527170915394
2.08,-118.28519096359436,41.75615401625621,177.8123177298464,-112.6713430071604,53.54013689459476,-0.2032447037828775,-203.7110845679469,30.22629949613324,28.848736149352696,-146.9296629836934,44.66851692001892,77.04255136439113
2.09,-118.2960196125876,42.55930943311487,177.56213898984532,-112.4671314429614,54.17986934672615,-0.2715011239044357,-202.8484920778121,30.578459009003307,28.960286945426077,-145.86516168977664,45.38975799946855,77.47042179328331
2.1,-118.26861741125106,43.15896547221126,177.77407245945437,-112.67919078406592,55.20842081343708,-0.616095567973983,-201.17586499122848,31.37492467627828,29.572586247064987,-145.893384899232,51.26385245448184,76.15889855284135
2.11,-118.19271885381292,43.864478037760826,177.93679972115666,-112.96756138659234,56.04385746319753,-0.4528138869718843,-200.34902695778823,31.460406011737884,29.8884640127422,-145.8994887073079,53.81440915649487,75.87732954787658
2.12,-118.4775898824168,44.435312495942384,178.06940984214555,-112.85990520984254,56.44444013991464,-0.7624917158206423,-199.55595033162385,32.07082123677166,30.209852355366483,-145.8293288558701,56.31923085930992,74.89925803044841
2.13,-121.99754009311482,45.54195050833655,178.31076143963637,-113.26876328062411,57.11103931733311,-0.97269691080579,-198.69914389838075,31.68420480137188,31.686570580181503,-135.22027158209363,67.70893588065776,75.07177050936613
2.14,-121.654153911938,46.637149163532335,178.44260120676955,-113.31681009340694,58.87193175113752,-1.0397945449636945,-198.29185142712743,31.58037033993673,32.81484617306719,-128.44184117569606,75.16009224033597,69.99809299154313
2.15,-121.440386101992,48.0061831146874,178.53619376025077,-113.75479420080715,60.10742911621654,-1.2776723973504862,-197.7564780141214,31.243626876690687,33.356202810147984,-126.62773968992228,76.77719787983769,69.95937366187471
2.16,-121.44837654320416,48.9642367811695,178.83582958309438,-113.7821845377282,60.81458895093763,-1.309206626855668,-197.97597636609228,30.69867463875857,34.957311729668845,-128.12700323980104,74.43065775923375,77.13558054748546
2.17,-121.0651324319747,50.41516065110836,178.6065250522598,-113.89535729143356,62.4132049415292,-1.7611536061562294,-199.39156220095512,29.639506054088933,36.98712555084475,-131.557110372304,70.49855839209984,83.08877915255462
2.18,-120.80955719064303,51.92335392916066,178.682978536172,-113.48864551652832,64.10714417491825,-2.2498331949647725,-200.29595149456088,28.71769163286595,38.29727577323949,-133.76321224105536,67.94608529988778,88.09216887107918
2.19,-120.75432266799,52.84972066060856,178.9517324388265,-113.21711203283814,65.65794428832405,-2.780065702741769,-201.20885837794967,27.555289260433,39.363583164965455,-131.95854171963012,68.55304437951263,92.54689885643089
2.2,-120.14399155995496,53.5628147880356,179.21915867430022,-113.24623768131504,66.8584502079246,-3.2839105019932844,-202.35564252504628,26.05459402299059,40.991889364583145,-129.66927690280295,71.16895687176716,98.55596321204766
2.21,-119.78291161230516,54.15645263191888,179.1698199031228,-113.1909466398022,67.35071904369671,-3.70979918384253,-202.74296929518425,25.147781189913378,41.3719820263604,-128.97750505272913,71.49843183298351,102.16058691688993
2.22,-119.29183449986763,54.73321241518197,179.65073562539507,-113.1173758992409,67.652798890282,-4.097891465362835,-202.93282329137975,24.37561256240472,41.87038133467068,-128.41251465340247,72.18304373171073,105.9324560125776
2.23,-118.15473531905332,55.639073783525205,179.92041139783285,-112.6910180281694,68.58051847276813,-4.975331011066303,-204.2592835977656,22.68505472696643,43.79870262893227,-128.3933785764046,71.99325896044665,109.50690402946138
2.24,-117.2128084480662,56.52719769149933,179.4836076054206,-112.54453510426596,70.03698297695261,-5.841089497403549,-205.70427622968725,21.204174192706564,46.01504153180475,-129.29911376743132,70.56528617389041,115.3397040311038
2.25,-116.80159597710526,56.9980299733686,179.1654184929311,-112.24545783774198,70.28777869641517,-6.15174023815405,-206.2465254539891,20.575189482094803,47.32468884887938,-129.97112657295668,69.42159498216002,117.6859309668384
2.26,-116.9389559052055,57.43876202861682,178.9835307773132,-111.87082642107708,70.96756051243533,-6.302174388631933,-206.80302460414552,19.868782000654782,48.22044992487397,-130.77193164403965,68.2437519171512,120.37209410091918
2.27,-117.05684949432644,58.08852549806556,179.2261065092571,-111.31672839863364,72.04204924900206,-7.59485596104067,-207.6768211316721,18.466827511354552,50.822987878754425,-131.98827438654962,65.66213332923462,124.6439096532017
2.28,-116.80744507457968,58.70240809727304,179.09644488881736,-110.52435211039096,73.07941763398851,-8.907510578915149,-208.22018134040692,17.266249070751133,53.2220852929754,-131.89274116465413,63.51991037871104,129.51782726428124
2.29,-116.17834480828968,59.60802301895942,178.88855010794913,-110.13788326716777,74.07724781269802,-10.203103448639874,-208.5515781403948,16.340990090525906,55.466335820497,-131.64166359855977,61.68355906281443,134.1896474700916
2.3,-115.58442408958074,59.87371687590906,178.15093708349718,-109.27711405304088,74.96936664844877,-11.13962687205056,-207.38157065245184,16.59340867704764,57.07944616782032,-131.11897751865138,60.22221664372445,138.13422236441227
2.31,-115.06738480322596,60.31432360055157,177.5248943778306,-108.73701298950606,76.01080787291905,-12.931821116262178,-206.19177995784327,16.415217746839122,59.13908518638144,-130.71492663573474,58.58464793561136,141.83320167599786
2.32,-114.41227475437935,60.856291023798015,176.63549877728374,-108.39332065861647,77.05712299778732,-13.879505350168175,-204.7763112594093,16.81013953026305,61.03621058873475,-128.34287706407815,57.25424285418728,146.0694102678811
2.33,-113.20365741591472,61.259690979632815,175.70490851371477,-108.50218239796048,77.86403952827924,-15.269513194041735,-203.3427513128515,17.25266054109372,62.20590903531906,-127.14514148257088,55.72712419860773,148.94236418457336
2.34,-112.9168832710359,61.13127062935168,175.43927860083423,-107.90268856792206,78.15847318511368,-16.038417351681947,-202.52592158224505,17.541892015543752,62.88411919175503,-126.35893229994332,54.71794874512895,150.2945317780709
2.35,-112.66804156170836,61.29969361479151,174.9599947503734,-107.90194823088194,78.31599878816347,-16.820875458022684,-201.8691270923404,17.933368261632527,63.70634929439768,-125.74377540353645,53.75049485494811,151.7637272580678
2.36,-111.9962500080468,61.924272727781904,174.3814349052758,-107.16793590719485,78.76020509118388,-19.45930610599699,-200.97824097903305,18.359948185954863,65.5302219603979,-124.47765861879518,52.67642909376048,153.43744883199938
2.37,-111.30674163149676,62.25283854366701,173.4888416508368,-106.42103199573626,79.35345284745874,-21.31567842933285,-199.9229238841077,18.55070786178341,67.33815493958772,-121.96699646860012,51.55057229015512,156.8550189905909
2.38,-110.77783816591948,62.34654074055523,172.5350983748067,-106.17804101479256,79.75188507053373,-21.6384637314056,-199.5469752708657,18.97109073625321,69.29403895052405,-119.5205070680618,50.603704540088266,159.7974113110882
2.39,-110.63409962032112,62.64941288376167,172.3373060737504,-105.63076977743236,80.11967658087444,-21.511559152359936,-199.6017253376672,18.47709661315872,70.32091391256249,-118.72490241763175,50.35498331285408,160.93172850862882
2.4,-110.30262461201926,62.69140057919335,171.8768459967763,-105.14319043903528,80.30058047880593,-21.583166465132685,-199.2394261654919,18.746827252500584,71.50364510472986,-117.85389283693688,49.58238200834633,162.4239301377966
2.41,-109.91864562163028,63.36729063189987,171.62584128706803,-104.68987635765576,80.41023672360973,-23.566114625803525,-199.33986511146068,18.339055447782968,73.3817142966665,-115.8043856696554,48.6556420500173,164.48074568111082
2.42,-109.42353920717724,63.56148625497848,171.74675816376313,-103.89469141470258,80.52252469176857,-25.857181819185467,-199.51681063605835,17.979197158934962,75.27348398644853,-113.37696144624375,48.1006388584034,166.46713834534677
2.43,-108.97005583713846,63.59309986196303,172.04284936045613,-103.25455607198067,81.06809285937777,-27.88090046312513,-199.396972540732,18.26707641732427,76.93241335105166,-111.74807951340708,46.923587727926,168.57810271484962
2.44,-108.76476630699554,63.50599810300639,171.58647568419724,-102.74220717405188,81.2486684520575,-29.459765616863837,-199.11093538545032,18.007836903712803,78.34407473726526,-111.13166844746374,46.55768365960555,169.19025627646857
2.45,-108.28258735392272,63.48982332939502,171.83606236044457,-102.64994265664336,81.12144472048448,-30.46542664056543,-199.65148371655675,17.653478023685384,80.20156905722186,-110.06722619628852,45.43050844845886,170.16691281054608
2.46,-107.33265585067464,63.343430919998376,171.55019061188105,-101.87571832879522,81.7569867492509,-33.57593104742027,-199.66173802144968,17.880784635726048,82.00161582947419,-110.09650566353451,44.74645756196729,171.85545114088524
2.47,-107.353547747714,63.12683349184682,171.64732873782094,-101.96579250322029,81.84768248576133,-34.98336807339247,-199.5971317144975,17.98485495987011,82.8779183206206,-109.77471807309784,44.25210007215677,172.70780621512355
2.48,-107.30823950566364,63.00603586226032,171.63033576426574,-101.58624019740398,81.74244798254801,-36.3256767106603,-199.2875533680377,18.316281454448045,84.08091830199379,-109.88334780811466,43.98596099859249,173.64175422546717
2.49,-107.3468502517518,63.07942536035706,172.1355981294671,-101.4213842424588,82.1325003128286,-36.74122874417152,-199.1975856181867,19.006371051228385,85.32566013478996,-110.2439252272837,42.83433981927234,174.2723122319902
2.5,-106.841616779092,63.1662975605698,172.0576820962006,-101.08657669016104,82.2066352322544,-36.49333538216719,-198.38842009290917,19.45677990997661,87.01867847455219,-110.45963941761308,42.03416440109931,174.78733531094773
2.51,-106.34362955164656,63.398174248966,171.61854698690613,-100.62808178441794,82.43510151544395,-37.47390701349598,-197.0849711543111,21.04020496919663,88.96832478740889,-111.79563323717876,41.09704127113272,176.82020999443222
2.52,-105.71933621444424,63.338762235505605,171.83150448796118,-100.5188478493971,82.28504613974138,-38.31202419465927,-196.08684373504929,21.87402867502253,90.28708102610808,-113.18144682957782,40.53548956367717,178.4793923862884
2.53,-105.91663654845564,63.653315040462495,172.264653912506,-100.17369490947364,82.3300992260704,-38.896661637514526,-195.95960913615872,22.329889556149794,91.21302908525487,-113.00453176114914,40.08609722862898,178.3045602099266
2.54,-106.0765903829668,63.46892039037325,172.46235386513783,-100.31270439103544,82.43049713309198,-39.9216170396477,-195.46636538521835,22.394604384219864,92.16423801818549,-113.45081200425489,39.81157103026844,178.90706552552007
2.55,-106.09376826965767,63.40884695052145,172.91609352540928,-99.96603216520968,82.44149505300322,-41.66176940928792,-195.54417773559703,22.61983959955185,93.61511175527696,-112.98460050412368,39.36580588858435,178.75225695174518
2.56,-106.51661508318256,63.532483292593774,173.00956355722872,-100.20437348033816,82.93618805141774,-42.668189329313066,-195.75034472116627,22.21926367587873,95.0571665876874,-113.60025607391576,38.92032236239644,179.97619238209336
2.57,-106.97382670117004,63.28773695536477,173.13763201735082,-100.11042003768534,82.6898783787074,-44.09048839074431,-196.23904222758367,21.862890254301927,96.98639344032156,-113.91664312850116,38.256413306119725,180.3879184456734
2.58,-108.2863558820506,63.91256792361396,173.77469911110938,-99.97559960041824,82.77316544991947,-46.68238334532792,-197.43406474971397,21.09828704754164,98.9855591847657,-113.93204038977566,38.101250344748976,179.74184935582028
2.59,-109.0783801522872,63.989265299396095,174.22828139708153,-99.7164736028816,83.02189986315724,-51.46805259482043,-197.53023480329517,21.201012849469446,100.48461026141844,-113.53321186136723,37.801748434393176,179.46708070625627
2.6,-109.63586249503362,64.13741151817818,174.1610657419566,-99.72044278989104,83.20923597706499,-51.36806631040065,-197.2662479997514,21.491465958226968,101.33231510389284,-114.3508333572291,37.79697054904352,179.79247727692135
2.61,-110.14051175298997,64.19253066621522,174.7563217025594,-99.77110497941098,83.2612749820673,-51.66323496953365,-196.7950661107116,21.83237809553649,102.05416755322412,-115.24062812729984,37.51526668169424,180.0482543086559
2.62,-111.0485510404483,63.805688223350174,175.03618528606503,-99.8984028220793,83.33462013184982,-51.39357233501049,-195.454896060799,23.425838235880555,103.25505007212524,-115.85699038124302,37.68282726965574,180.5777128488588
2.63,-111.65438507188708,63.631365146756686,175.0882110673988,-99.97027237027528,83.55474445884568,-51.524962378968574,-194.01134317543128,24.828673494472664,103.6841637706738,-116.64221710952836,37.23850561072014,180.92044732870005
2.64,-112.21013984563484,63.81668941341583,175.56140104754206,-100.3834520232208,83.51792313781631,-51.65693193151786,-192.63436467784277,26.19000142627845,104.62438016233828,-117.02691709061196,38.18008742479032,180.8138345939833
2.65,-112.88331644703288,63.925831467796336,175.85039652646668,-100.79270456573704,83.54913625506803,-51.44671445058298,-189.8788113575208,28.435680491122827,106.01586611523535,-117.38161180390794,38.64755512740911,180.5065309696537
2.66,-113.85607830446364,63.62272529782299,176.1842067541407,-101.4010736677414,83.615060796703,-51.4528245684883,-188.2303286981833,30.21070381259618,107.38062615695917,-118.05016653268072,39.475530571580215,180.7980541404579
2.67,-114.10567985108332,63.99020741871983,176.4174554610329,-101.56043366151133,83.83856270090854,-51.38074045633408,-187.0666611348033,30.939806294359823,107.57868098253492,-118.42228150798076,39.68486625508057,180.4290985313816
2.68,-114.31831982501022,63.91570517018628,176.4990749580773,-101.88292599373176,83.55684078992134,-51.31971522340567,-186.4276333085286,32.21611649412415,108.19768729857704,-118.866117928478,39.95956460026847,180.6436834094498
2.69,-114.7636056142687,63.73984248524373,177.01716405039377,-102.51394576040576,83.83482000989724,-51.39802810660002,-184.29985857866563,33.6030573707501,109.95717496274388,-120.41082724124622,41.02243282438422,179.92224235880602
2.7,-115.88203703925348,63.75399299372322,177.57219335167196,-102.85498589258104,83.66523323908946,-51.601031062241525,-182.75120969246169,34.90280216412815,111.55526822976393,-121.2204205186762,41.697676803262105,179.66990097518206
2.71,-116.52674378025438,63.66038311815398,178.21850784773284,-103.57577000337682,83.88653488322109,-51.29647690659184,-181.7505534658369,35.658207410813084,113.02839337425634,-123.20145759835462,42.22154920893725,179.36411975560202
2.72,-117.58233787305495,63.547000805203616,178.59457407642086,-104.03970666572374,83.82691075128932,-51.48107618794485,-180.77247783771972,36.19003853624483,114.48321279117636,-124.6167119977178,43.25588360289379,179.26179740053703
2.73,-117.65347463772116,63.58441349333303,179.1847387756234,-104.62342545037949,84.00324496479631,-51.17592133658105,-180.0098856048293,36.61927643700847,114.85048338769847,-125.66957249176176,43.39996170323647,178.54607803956003
2.74,-118.02643781862608,63.47404063240407,179.3637599337612,-104.81582515636924,84.3698670208875,-51.28256998604787,-179.08233190071934,36.84663387036127,115.7466319621718,-126.81081106402534,43.61385108392816,177.77957562729418
2.75,-118.17646660145137,62.84524619025581,179.26654857944015,-105.17633506604854,84.09762357946525,-50.99771864491422,-177.30622010020753,38.24975772534691,116.52774915077023,-128.10148511067342,44.04138566506051,177.28964128859252
2.76,-118.2045582359428,62.29797123936629,179.35565212078882,-105.73767801714624,84.15627689636936,-50.91967423673159,-175.52931041497,39.134254738929535,117.28992683239036,-129.14654548243303,44.66434072725709,177.13085143471855
2.77,-118.25798543817626,62.37546820427449,179.63280101065237,-106.13246608351054,84.25603953122256,-50.75283500692509,-174.30216648753748,39.52426105017627,117.77513409828586,-130.21580723328324,44.68963596902391,177.54635384634062
2.78,-118.37599759958805,62.3720705768465,179.7305545987908,-106.01253670062376,84.24178517778087,-50.590383684568174,-173.5082067516321,39.74785794440109,118.30251014406868,-131.80629597140336,44.69843420880768,176.71164744913352
2.79,-118.02375414945044,62.32937382024157,179.8457383076587,-106.54392800215584,84.28781453570984,-50.36031654817621,-172.78676823590212,39.95659436386586,118.85000153695006,-132.8461747965622,44.39775743724533,176.18518347861274
2.8,-118.48986215001877,62.68427985128629,180.0455306857706,-106.43675413861048,84.32576679674014,-50.25585460168539,-171.98515330298432,39.59090277720532,119.5633715252508,-133.49733966595124,44.79901098046886,176.21357022433816
2.81,-119.17546043283272,62.69535295025557,179.4649403717981,-106.56086830839368,84.38197295539703,-50.34940826282919,-171.7749174655704,39.518935213630925,119.71891888956984,-133.75528562673557,44.32740821544526,176.77489459296177
2.82,-119.2414974520962,62.59142537371095,178.9616967450756,-106.75982794527924,83.99582346482076,-50.45279638892118,-171.9812939224286,39.08102561966237,119.6328454898394,-133.91261495020663,44.51291054305954,176.89107045745698
2.83,-120.764565504895,62.48753639790888,178.30043822265904,-106.65556727160332,83.62446293948487,-50.534870181142445,-171.93237909641806,38.64261805074637,120.22882843803328,-133.69327918696874,44.31350706371,177.31123801300748
2.84,-121.0330989941833,62.79096060466642,177.71723044859274,-107.31394669576184,83.59592914561297,-50.119336317280855,-171.4709292806259,38.33776109850587,120.1985131741504,-133.72464550328917,43.72993808786825,177.844739643593
2.85,-121.64000519544948,62.76878511262471,177.54778298461517,-107.77846703734016,83.58178510321147,-50.18581758354781,-170.18984184074557,38.50418304748685,120.4499362998794,-133.0523366670963,43.37585502597599,178.73276197596377
2.86,-121.73989423528656,62.68649421343278,177.4305491426681,-107.85394256274397,83.45585402087278,-50.3334978460803,-169.6464296293065,38.7435660850131,120.42588404019727,-132.97095048809902,43.08689327200405,178.885528758414
2.87,-121.81988398497504,62.77842560820881,177.2623441970465,-107.88940501933035,83.32331627842107,-50.33555482707879,-169.14909470523568,38.77448315086639,120.41210543362176,-132.98798134428608,43.2007593744254,179.3705288485977
2.88,-121.80403792683308,62.19288022269937,177.91351222318022,-107.84764724583198,83.54008114977604,-50.46972939292167,-168.0243527366361,39.13544567715846,120.03737261803025,-132.94496742382816,42.676889799846,179.80810944369728
2.89,-121.5317533973288,61.96853022318401,178.229656030702,-108.1382791561472,83.49519770008233,-50.44368066226815,-167.35190987607217,38.5655321869442,120.06977589389372,-132.75498688667537,42.61805478493601,180.22490242641655
2.9,-121.74953304246614,61.22647436540862,178.50781547222468,-108.04976188686342,83.66645483268768,-50.731670510569295,-167.01997921560087,38.22799684828983,120.09086140996573,-132.29413756426155,42.410616022410416,180.26911051891287
2.91,-122.164616939241,61.118800435377,178.5957085183167,-107.9820000210589,83.52118649527941,-50.6015673490776,-167.210566705094,36.71091170576549,119.94510337419418,-130.43541752747865,42.28435575881765,178.63343158555816
2.92,-122.39308221785464,61.02707795198107,178.3083826675551,-107.87842249546766,83.3316385384499,-50.847550980817104,-167.5368704125773,35.68631440551243,119.81213048431762,-129.28869823545045,41.65818401873075,176.6062829636201
2.93,-122.82507217034885,60.17211466367486,178.02674719653726,-108.2308229699755,83.00329811466725,-50.56308982484346,-166.79640605208317,35.829180240090274,119.21269417146266,-128.58182109531052,41.25929127681189,175.3422259003409
2.94,-123.06620391254891,60.191883184516215,177.7422429198209,-108.14243527540953,82.65779780345486,-50.15137822326455,-165.6249125169252,36.609427162984325,118.84708214101752,-127.96404640173104,41.02695342394666,173.9416515248127
2.95,-123.30360718093884,60.06883051068283,177.53449366308405,-108.13817828592312,82.93402650602,-50.40114460677055,-165.3648499195046,36.3251943444168,118.75845658832868,-127.7962298338504,41.10992387066896,173.30709514607656
2.96,-123.54203383204472,60.01827523596722,177.21302700179356,-108.1775634865596,82.97295899596492,-50.23141269476303,-165.22240533883573,36.35349859724924,118.26907914682796,-127.10950195929532,40.67524056943288,171.98428950930298
2.97,-123.50770840237304,60.03555548725467,177.25349732548491,-108.24742060701162,82.65048186404466,-49.23537010732337,-165.07641079758412,36.58775255959597,117.39980127002453,-126.03245923871444,40.45294136751904,169.96676373559663
2.98,-123.37348142479976,59.518221177075,176.92287638483631,-108.15309062695876,82.06826475579912,-47.394635903376674,-165.2446092534248,36.311183962488805,116.5119600001778,-125.5417377726698,40.35515747391303,168.58701678407058
2.99,-123.06906853291896,59.4650072454782,177.3052564056968,-107.9699440418464,81.73044454138386,-46.65866625396963,-165.31914827591785,36.24312174763738,116.11079102475723,-125.2935500054537,40.3553278189942,168.2058923301456
3.0,-122.7687471690339,59.16356339997129,177.22235344449825,-107.90410378322402,81.58169347199654,-45.37303108284642,-165.34086582643113,36.1544839803475,115.73433720474566,-124.9175793894354,40.4419781666432,167.42736809099205
3.01,-122.79030042768082,58.27458127899465,177.3810031301138,-107.95630260389348,81.25723749274457,-44.3269815555337,-166.05507590317066,35.554386706213315,115.09928306696573,-124.07500897311834,40.34657385905654,165.9523537164111
3.02,-122.32006505647438,57.86039277243085,177.59753535963625,-107.70520940775197,80.87207930718267,-42.63889995546399,-166.19719952460602,35.04840510718647,115.35331979631592,-124.08737912218008,40.31773513531875,164.6379544042884
3.03,-122.89720359712562,57.38978813313767,176.83710266130072,-108.0223412752146,80.24179541350483,-39.8518480649264,-165.9207939973546,34.3398483445881,115.82133159992496,-123.66826074475604,40.87610291320598,164.3732122785461
3.04,-122.93232065829248,57.0459741799372,177.0720675092055,-107.67307112993862,79.78104887070195,-38.06662945225917,-163.12186100432243,35.258834804059255,116.1859535138195,-122.40855350430073,40.410361617330565,162.91152828657397
3.05,-122.74688026847252,56.59779883988611,177.03529403746998,-107.61177771194605,79.52402938685515,-36.505900599577146,-160.47636193568485,36.68632935388922,116.38677709890244,-121.8159571614851,39.78411626960854,162.84722158331246
3.06,-122.35684619540312,55.575784344747404,177.5186365971491,-107.42062671042102,78.84668872708761,-34.739383488588665,-160.06496514516022,36.9145971436624,116.4882028984922,-120.75207055658775,39.52539576167775,162.7749888207944
3.07,-122.34286805095566,55.55134111816468,177.59622691863896,-107.02336842263745,78.0942305425782,-32.967961338337645,-159.57348774781445,36.57160657883594,116.55221788014649,-119.8293074624441,39.020241981369374,161.6437233894556
3.08,-121.94223758209012,54.66326908381603,178.16220022161238,-107.32057816389894,77.45888126993644,-31.346278015810515,-160.03744118521251,36.31203833299325,116.76031196454092,-121.18995760369722,37.9864069309491,160.98942251152798
3.09,-121.92357014438429,54.29964143564861,178.3126196087978,-106.961208510489,77.11478073121638,-30.862373206807494,-160.09304448016564,36.26713895779565,116.56101267885776,-122.01280062079412,37.583035651766295,161.47922783210566
3.1,-121.97031667226588,53.94605546901646,178.5451317161817,-106.92119629418234,77.12158531308815,-29.87583910339325,-160.27232218420238,36.56311646895673,116.75187116830288,-123.24586783225128,37.43638755735137,162.1862978463217
3.11,-121.98220275930628,53.29001208795334,178.90717900522029,-106.58414809333158,75.92995774702749,-27.93376003434264,-160.11408838702243,37.397811898189175,115.41939721087276,-124.04230948449224,36.924598598238255,161.595720208904
3.12,-122.41637671593922,53.2541899745534,178.6013307676722,-106.58670083638616,75.68329592836993,-27.41111623749645,-159.1830552373343,38.27665621020713,115.51380352200728,-124.10417054566318,36.95713857109678,161.39055175475502
3.13,-122.5046685461197,52.74623333683096,178.6445608525626,-106.47115206329735,75.54004799204415,-26.586825914545628,-158.42408643661213,39.100014412313165,115.34468043790731,-124.16490974184734,36.89002657076056,161.19738223526892
3.14,-122.97918609104224,52.38654791371587,178.6076742349829,-106.20933127432224,74.83295082475031,-25.524964209765532,-156.32745116128595,40.87537963998529,115.64139344440136,-125.0521837785012,37.3040652462518,160.82724150375088
3.15,-123.62828333392083,51.707126644406365,178.47532525161265,-105.87767631758288,74.27463482031722,-24.31690065333093,-155.79878842550664,41.43259933526281,116.71153012421472,-125.02972633733714,37.553246637241,160.30666962189468
3.16,-123.92506721193762,51.186446610823445,178.79833933336857,-105.96231995287243,73.95604510103095,-23.50591274597975,-156.72263070164314,40.23249316787882,116.76706055545168,-123.17411344889923,36.78360272275536,159.12996158255325
3.17,-124.31814850823648,50.52227963823368,178.26144069064688,-106.42967485710372,73.39495751983048,-22.564964600934147,-158.19281889179155,38.826272253963126,116.740914991227,-121.80257037569186,36.36186715761841,158.08530389313998
3.18,-124.9107204113898,50.14104120799534,178.49833108960823,-106.90555376710584,73.1388415877511,-21.44154926859964,-158.85290612941094,38.52056795962695,116.76340435940637,-121.50465009322382,35.95975614580846,158.3264945960745
3.19,-125.6765539587648,49.67950022114121,178.3814776420479,-107.2070537867852,72.50615503737473,-20.68155462217894,-157.31536425994614,40.5738424984568,116.5399810041026,-121.55213833277652,36.078112180062526,158.71214366063637
3.2,-125.86101897482015,49.38456748430189,178.55716205483483,-107.3425077585661,72.32288363020207,-20.08157975569884,-156.38357608977628,42.33795963500084,116.64348633065998,-121.87261261127672,35.957553067663355,159.48700547131278
3.21,-125.89541525987607,49.35474557572744,178.73918724886062,-107.4023468458295,72.27200677896813,-19.49269845384476,-154.7430848850858,44.41885337254671,116.79852829718088,-121.90077066663898,35.99371745973583,159.5977749269857
3.22,-125.57303955604608,49.05693114445482,178.69572244855465,-106.8951927828326,71.92052184166435,-19.41181029715561,-153.94770590150551,45.09283426031299,116.4775953721746,-122.29435845620716,36.071691239128654,160.16257823128868
3.23,-125.61333319106966,49.061153909855975,178.91559104535236,-107.05853703269952,72.10635743800555,-19.28929460505629,-153.9558845867496,45.782242588785024,116.2136658930614,-122.62603142516144,36.219651596113856,160.31643309246607
3.24,-125.1412449473339,48.78238003870796,179.06838326365377,-107.0840701446683,71.99660760868156,-19.190986538613046,-153.93328279671414,45.89092268142338,115.9541627521253,-123.12737539486638,36.3238512070018,160.24416796002413
3.25,-124.97335620338755,48.978719898096415,179.27361289219849,-107.12765677535909,71.724612665143,-18.74189739155729,-154.361196625839,45.48529869014608,115.9562037123864,-123.08080557152398,36.327347222257714,160.47854576500717
3.26,-124.97973656777306,48.749627135941424,179.32868807311758,-107.30939787728676,71.61810247856316,-18.53839389902201,-154.77965384090405,44.879818409991024,115.95987036495946,-123.10200376866496,36.577127053836094,160.26282470170457
3.27,-124.77329826644426,48.91283203008253,179.5375836036181,-107.5825213892046,71.27526365595088,-17.482945229912833,-155.492187202028,43.94513754224644,116.3781256898406,-123.42040981424688,36.7747470174727,160.74329974824167
3.28,-124.83992118742192,48.843656311338776,179.5078758627487,-107.79334195260206,71.06318401752057,-16.94410353529669,-155.6923255695218,43.71990295443046,116.23779721776252,-123.65686682442856,36.47493404991339,161.13162935408909
3.29,-124.29372317420216,49.02119028893949,179.56351513257553,-108.05030993327496,71.03128472931668,-16.426580783139187,-155.884184306512,43.0638986569146,116.33279550569372,-124.36274387566937,36.64946898721735,161.53183286040124
3.3,-124.10487137048555,49.14911305032783,179.9466855917206,-108.18403799476005,70.93391835244681,-16.004221250053664,-155.69280293907445,43.2112440280722,116.11282696940404,-124.85537078442673,37.09714550229681,162.17902187566008
3.31,-123.67401679253926,49.16928838588124,179.89440520347566,-108.27500868434969,70.9438245729605,-15.66394347576568,-155.7115930553298,43.40130106980181,116.10194638509108,-125.4981322854716,37.50158657085781,162.6822220290053
3.32,-123.4715979846161,49.20632450496563,180.1299632440476,-108.71982292774986,70.98348066296886,-15.782533272684091,-154.57034226543422,44.22120287589852,116.16049257895912,-125.82992304733604,37.686207845782015,163.0348972000272
3.33,-122.9264215515983,49.25953246583035,179.67921415943792,-108.74913399165146,70.934601586433,-16.330422067513283,-154.69406854279757,44.42473141450256,116.09448517112162,-126.17373675763952,37.71138100603299,162.83427022334917
3.34,-122.27060611400898,48.99068221449683,179.67592351382035,-108.21731393123709,71.13829169888757,-16.246354855855554,-154.51190782446892,44.14240706319422,116.17322430624056,-126.91783144846649,37.42653105417273,162.94192745176196
3.35,-121.43047952649528,49.13846524920164,179.37260200474623,-108.08345001502492,71.19849404593448,-16.379769529961898,-154.98675490229635,43.77251151416959,116.5740355523107,-127.07650088183138,37.84922643230546,163.0880500289446
3.36,-120.9160188220487,49.21965890920698,179.0852660479448,-107.74267813925336,71.19543374218904,-16.54434597323218,-154.82887439184424,43.57567945134527,116.48868331075496,-127.64718270895956,37.75191308490408,163.30986435612996
3.37,-120.59413282208716,49.225914078495705,178.60451416725368,-107.69883424629604,71.57228875569693,-16.6067796981635,-155.02084618737908,43.27131521318894,116.55177545105556,-127.76393325639064,37.7214572453892,163.59576451678893
3.38,-120.44957804718848,49.31260939266854,178.71251011014309,-107.9084884449978,71.56183556680963,-16.69142959935636,-155.00470582077696,43.12224427987628,116.64567380179231,-127.9671403639859,37.585949491212766,163.53632611093346
3.39,-120.23106957442153,49.606778755951,178.89499773238626,-107.94498864317168,71.59112277216829,-16.83845424729174,-155.2469738673335,42.95867300809036,116.55212805764528,-127.96394028281436,37.518029185762266,163.2611531445856
3.4,-120.34675720781374,49.38590586383311,178.7186314541089,-107.50365894727584,71.6999411213631,-16.918061887699825,-155.4944632334258,42.58646988959018,116.3854816271246,-128.4823117175999,37.771736064063866,163.96321717552846
3.41,-120.22596500689814,49.41670760621312,178.58149579753604,-107.70007985840056,71.74297739352293,-16.86453501620537,-155.4928681765601,42.6526730189675,116.4505355201938,-128.92122049634403,37.75707390894552,163.91787730494588
3.42,-120.4342958551301,49.75202445185164,178.4431119666297,-107.70339799354804,71.82110432022854,-17.04519935478271,-155.41402369613397,42.56058248218359,116.81522788493892,-129.13093457049325,37.78435134555582,164.48267082629698
3.43,-120.24902247117616,49.5449876259172,178.4171509610365,-107.35786336013214,71.91699518126983,-17.196595239062134,-155.09743279606448,42.83472292758797,116.95516042082018,-129.26284463705767,38.21830449243456,164.44721679073425
3.44,-120.34102462384293,49.72632069501562,178.46809045647578,-107.17557389727702,71.98359879541202,-17.936649881697345,-154.7362336814144,43.03969432118988,117.12242348725444,-130.025324147285,37.773986822553766,164.77075086360531
3.45,-120.60664937609528,49.7622519462806,178.92909797971106,-107.13567081320537,72.12047003390367,-18.053418629057308,-154.35497746332882,43.48692900116722,116.79663541984308,-130.35069269431645,38.34938907936209,165.0166410595717
3.46,-121.00255087456802,50.036168329144445,178.81648339786756,-106.86803206100504,72.58874911067794,-17.938432673960865,-154.233484830635,43.25632686082428,116.82727909185849,-130.48447925950384,38.27007094409744,165.04712200678878
3.47,-121.13387199606058,49.92569549860918,179.02713187828218,-107.0388753943752,72.63000077280601,-17.853184266953015,-154.72092562352316,43.03878084266338,116.88482585073574,-130.2728995999098,38.11929947191029,165.01948011799638
3.48,-120.80897419280517,49.8068801713953,178.9394805870483,-106.87252263172034,72.59566153739883,-17.90594826124351,-155.40041551847918,42.44324670751977,117.1630543406192,-130.02818422156545,38.15885707462227,164.7110316808154
3.49,-120.7808938960224,49.91467801107703,178.64590537142658,-106.72215152377709,72.59567862295734,-18.05618719948127,-155.1678596998258,42.20665181324393,116.67454274282996,-130.5754176947975,38.08536210141264,164.80844538731031
3.5,-121.19530305664476,49.53930915963266,178.8926213649586,-106.68337727317076,72.99759715822555,-18.095450786896407,-155.64051318053603,41.83910821466797,116.93291455741576,-130.43271905889213,38.11814912089625,165.11418353517874
3.51,-121.0616005328594,49.95847073709404,178.96333051414018,-106.81245585165271,72.95215573929292,-18.17820324213367,-155.2549880738415,42.07119655850906,116.90876105311504,-130.51330843089588,38.30009477285606,164.8926947025774
3.52,-120.93187916947028,50.0839204005212,178.92851939200415,-106.84749186494368,72.70505698514008,-18.187259169400328,-155.561350617803,42.21450767057016,116.7320180783667,-130.45191874828183,38.17834328532901,164.71287630771474
3.53,-120.84878977499672,50.20885830724089,178.8343228057784,-106.5318705062139,72.85315863645317,-18.27372433370734,-155.27620010723533,42.22064222246785,116.97684235611204,-130.1751970604254,38.11117367842559,164.9805555128913
3.54,-120.93582446665312,50.10328839467061,178.71229812033675,-106.63237498653518,73.05677944772805,-18.13223766488197,-155.2805979713878,42.52435654779014,116.98956953753988,-130.2185655874961,38.20677266447877,164.93056377167687
3.55,-120.8615865728873,50.25904261638727,178.87943457358833,-106.41883125650686,73.06557406727245,-18.066261326989807,-154.7805388648783,42.96945412360555,116.82605807335644,-130.23363648958528,38.22080264506237,165.0844103501045
3.56,-121.01185990691226,49.88545406107109,178.86428230126137,-106.70560708743822,73.12473160997973,-18.204833044027914,-154.71586241340984,43.52991984543651,116.97934460835128,-130.56452283761084,38.307972727011176,164.9674444783919
3.57,-121.06758750162714,50.08066606803941,179.05813889051743,-106.5692299419336,73.26026122156327,-18.05433153464151,-154.5433028188996,43.300196587035934,116.73438995358563,-130.21215418392086,38.41203525858714,164.53599651356015
3.58,-121.2063306629541,50.07800074572806,179.0623617255343,-106.84878006848274,73.47284910554849,-17.79246600494554,-154.64255945138447,43.46477496675058,117.12656146185002,-130.54293034336243,38.225838466448415,164.6881195147833
3.59,-121.26424137724042,50.30725152480902,179.25621955191312,-106.77989616555656,73.55113075315627,-17.82181796270794,-155.15950916577663,42.82978500285757,116.942571015227,-129.77394273432296,38.19012127413156,164.6631322523517
3.6,-121.6071008078746,50.068511088096,179.29382279645904,-107.34973341629198,74.02066951929382,-17.653511139609247,-154.85460250248602,43.02535898530347,117.09871414766477,-129.82313487615528,38.08671725076235,164.68944766880796
3.61,-121.741069768996,50.11456634814187,179.51135156040365,-106.92366006338368,74.36655909446871,-17.52005373697385,-155.40932801046796,42.68766967136903,117.18474170757908,-129.70059249121792,38.030174993487584,164.50753877217878
3.62,-121.64263126886588,50.035700429035806,179.13495607365164,-107.25042384927757,74.47834973873172,-17.422000322211392,-155.4079761715761,42.99612382556364,117.119069604237,-129.04508566184538,37.70586295264311,164.2969561835413
3.63,-121.8537523626992,49.95835213029492,179.22596868454673,-107.25140591756796,74.73277396079455,-17.576700869078667,-155.3744387605622,42.53960836609405,117.28898141981956,-128.4049260900274,37.88320576407009,164.33383855735167
3.64,-121.66001192338057,49.85186864362576,179.3552653945273,-107.35528982853202,74.51474041977391,-17.665960958172885,-155.3316200402018,42.645001235753845,117.02349219807346,-128.428410194908,37.73494592263431,164.19748338324226
3.65,-121.63727346639216,49.76921398562106,179.32866426588757,-107.23337532266036,74.51728672544401,-17.54839223169023,-155.20643714245352,42.89316582110981,117.098824969115,-128.3685912669704,37.80795985850847,164.0071564449654
3.66,-121.8448344115936,49.90628766876533,179.14698992783076,-107.2529667273454,74.44917440400172,-17.268379046957456,-155.357613209982,42.95350893833879,116.932578456278,-128.19028555087476,37.52922179894922,163.9567150731767
3.67,-121.71380646025024,49.5997288088855,179.65456196472033,-107.296070090056,74.42811056532355,-17.75082880204364,-155.26945461141796,42.98361557534898,116.62214869077764,-128.04800635093233,37.79392048740359,163.9325165066333
3.68,-121.50388119362282,49.58729102051638,179.36290177633495,-107.0941343084548,74.52253845193206,-17.72634009167803,-155.23770478102932,43.09515388626791,116.80333591998864,-127.74839744621974,37.4858406440497,163.4942785959533
3.69,-121.49440532314968,49.92243496347744,179.38548279163743,-107.25498081730224,74.827732637877,-17.512740135995596,-154.6476074540511,43.15791588492419,117.12643767625394,-127.68645960328384,37.46380264021777,163.6664982489657
3.7,-121.356994344376,49.478311302097374,179.2225540961593,-107.3703729249632,74.84088607813513,-17.387837154184172,-155.09812223310246,42.83060207667572,117.15677600694164,-127.36221301244969,37.16326476056981,163.87975066055648
3.71,-121.38925446810808,49.57330625435687,179.32445369597193,-107.17907967131045,74.62797929404432,-17.33291577872724,-155.39251079960053,42.829518478641695,116.89045926129208,-127.03666870057414,37.24180794557973,163.5782696270998
3.72,-121.4151344604376,49.5689497162718,179.30717550466105,-107.27708308109877,74.69362940829058,-17.49719477680726,-155.12273964130358,42.58080151069849,117.10827142193888,-126.59048392116884,37.04085374122027,163.35486225090685
3.73,-121.1693076963194,49.50630559308439,179.58540718318486,-107.21321229222362,74.99016994695748,-17.379072930645542,-155.42014386389653,42.57046799858647,117.4209773722975,-126.44777902146842,36.997250877743085,163.28062861378385
