0.01,-35.27015707152607,82.31583322281233,22.676794075870124,0.09121835722709228,-0.035642728772784585,0.23408075715486043,-0.06852184804819428,0.1366597475670919,-0.08264379868235265,0.4291510659062011,0.5555714375685764,-0.5850785872499673,0.5483303956983616,0.11661007494443758,-4.524045098546641,85.8312822782341,1.6286728994053028,0.08761897229838828,0.2900911659920367,0.12047631892772735,0.9076031933422631,0.24507560889899827,0.1617000874664168,0.6747734378350142,0.5242777794302168,-0.30923053686061985,0.44695455904220177,-0.017046409660829993,-175.680290154646,1.2694339403862644,13.735557052244825,0.12455613122007611,0.011567328969580348,0.6264851379413472,0.1307497843913284,0.3835697738992558,0.14624651119498053,0.49292190575653066,0.3707360071347552,0.2588546205620441,0.4786014853524894,0.05649574132488663,-357.82008840449384,15.686010862069686,9.600926658915117,0.005521473613074014,0.21979215299836782,0.07617156208877304,0.1229705215655017,-0.04318854473305041,-0.09404934422506639,-0.6220682862677287,-0.41686440982586065,-0.3481486838674023,-0.3979860798792416
0.02,-35.214618518114136,82.19891747671483,22.765286153978746,0.27200541379827753,0.1919756500854675,0.2747396956215005,0.10660034119304929,0.033424979295263044,0.1637581230263131,0.5343223168931805,0.5764561738479512,-0.5741027982526943,0.4874651102916991,0.11950175995410725,-4.460372058681999,86.28686357927852,1.4496550140619584,0.16589435906125627,0.6718532910867241,0.1963810699134751,0.8305855169119557,0.14690366607629618,0.044535843826255694,0.5100651728628893,0.5789028440427401,-0.3928334965952665,0.36330481345770005,0.1569250343976997,-176.23056416515803,1.3830389193708812,13.90592235073383,0.0818799334167755,0.3203457395926104,0.47174549647554337,0.2433181439044792,0.8741802906423022,0.2859273318371054,0.7018942126666502,0.5675162833920926,0.414240936595162,0.6390047973923976,0.12445177978446939,-357.6954755173398,15.595229441167328,9.557555105638825,0.15748770673968918,0.0797978047577121,0.0666129741856658,0.022572736500289584,0.2038321796287557,0.005510512932141691,-0.5777083383495525,-0.6673054184442819,-0.571348631609208,-0.29717248366564986
0.03,-35.42769581807613,82.49609893442695,22.904030077573125,0.11517654998518767,0.05956098976221252,-0.0007241752130953339,0.0984871186200526,0.05466478782265692,0.21430766316655556,0.7393152604703648,0.4122533358754934,-0.42515619469735855,0.34493298600792355,-0.028929655300054036,-4.545773982374058,86.97679803146723,1.1868957779451907,0.0699581486684554,0.7693719366067822,0.2828544068417028,0.6726672048337504,0.14269862208626255,0.1890061038201956,0.5003017103784779,0.389281339935049,-0.5552091961503819,0.38034425799703225,-0.0759654480507732,-176.71351167090234,1.4172615871006937,13.903505757405512,0.06349007879231092,0.3010785706700107,0.1946606361107973,0.19965489351545698,0.9379773255916057,0.03958146596452586,0.6615242435026687,0.5002476042468187,0.2852356735291725,0.6372221840255079,-0.07400136796102458,-357.71065884185236,15.773672064227412,9.403832959628518,-0.13787429871110113,0.12520256368360916,0.08686337709905707,0.30537425598543083,0.3119385942590577,0.13530015133551637,-0.608012684712876,-0.5382316851157195,-0.4378444790393017,-0.527031386843143
0.04,-35.38897625162427,82.49120641884693,22.99493069215942,0.13797438087982755,0.09541507314530892,0.10429446369272265,-0.012772867392342527,0.015772004004070972,-0.11468482298608906,0.5452234864816394,0.5733162430628375,-0.5067231413129637,0.563281012771434,0.12598569616358024,-4.304328424038074,87.9891145456985,0.9227946582143576,0.20065261323966485,0.8462330911395851,0.1694949566706326,0.47470432234422033,0.0723041557198194,0.1078585626541989,0.5091761525699138,0.4464202444736345,-0.43520521378405724,0.5955883965539897,0.0384623467160039,-176.39011661336883,1.5227379989654068,13.931147086092153,0.016152477590806777,0.07570098942023326,0.21796486747883814,0.08863235964289323,0.6496897125007303,0.17267981421930678,0.4560152274407017,0.6162702690399993,0.4193523361924175,0.6559458852998881,0.1006552862380046,-357.8465949740588,15.633406009554903,9.72222887943018,0.1057666473106605,0.1278205936405317,0.21884494552733508,0.24309290065067526,0.7364259785951681,0.19145709470534986,-0.16764267534164945,-0.5559188596436891,-0.5884208413123421,-0.5864960260325758
0.05,-35.685875083872055,82.71669429343825,22.948236253678523,-0.049113292826072186,0.11884609137322782,0.0011579549542041004,0.2082175243646776,0.1404736795684562,-0.017770143334047445,0.5007059828827379,0.4163180168964179,-0.42871600138070487,0.5456730833499541,0.016596135028236945,-4.419883626518505,88.91256827588332,1.0327426416746373,0.16977392521820694,0.8137437119439366,0.23200265888261362,-0.18370915303486118,0.15106940606878502,0.2029927136025797,0.4194040025757994,0.4404617029032381,-0.42667442839901937,0.41796234931943793,0.08934809403394839,-175.9604897595712,1.4872939952102173,14.029588534851088,0.1501911224079902,0.031115798102440966,0.4790109408680016,-0.05953500453992806,0.20353832306880443,-0.04730214179264858,0.6786012724831277,0.5020367756855759,0.5271604315902434,0.5544559878495777,-0.00691146053712801,-357.6802478844116,15.587304151281794,9.851466555602048,0.20498489063340344,0.15414573214752705,-0.03344537908514711,0.18976506395941506,0.7451629642088357,0.02817067216010834,-0.5764530691294327,-0.6325346789523199,-0.6405894879027612,-0.4521522401319773
0.06,-35.71304805475381,82.61523945938531,23.156301300731933,0.2869739387718835,0.03051498065142093,0.05058904081870793,-0.034397326592683894,0.020698911007947643,0.06870134033840666,0.5593499706166071,0.5306275600585574,-0.39427294115723277,0.44295902541422283,0.0642508789609713,-4.297425163508212,89.06207824120366,0.7001201478643644,-0.04955913519589658,0.3585170254248065,0.10849744678283733,0.12860431099666836,0.10236876076536047,0.10377333367876121,0.4402221313354221,0.6379503707000873,-0.544159275123045,0.5706538609704375,0.2782657714264887,-175.19540999122918,1.5872541568447682,13.911637419250326,0.03187794005197884,0.06039247005477115,0.43197556557548467,0.10307965543165594,0.29734915829080955,0.09908638438447501,0.37544867120847486,0.5275233854871699,0.698075113847846,0.5335386279964252,-0.030317760086904372,-357.57183618563755,15.631149142130063,9.694942163320084,0.010464190053297573,0.15247356884836943,-0.003783172654141659,0.12409474940626508,0.8001929606574458,0.041978304792913104,-0.4481062376906657,-0.3871562721747173,-0.5215689511484756,-0.4850790721600154
0.07,-35.91949630609141,82.73475846637841,23.37725193391597,-0.08248765402881433,-0.10854085075083789,0.12023771439227032,-0.08977537539080911,0.16266493392603784,0.05018000261567174,0.5039839020468765,0.40344513542229743,-0.4325849178706464,0.4537469409539636,-0.06264622726047084,-4.397840156754363,89.01833197369879,0.7371460818580202,0.17122310682058162,0.2076372788578481,-0.02103751289633556,0.22814789575310768,0.2627986170169577,-0.08299134052179315,0.4220246516133397,0.5157446801267053,-0.48209699990855887,0.4185604191013454,0.07244283076632205,-174.82523387506563,1.531317434726569,13.469471809825773,0.20319240052442986,-0.1086940923430924,0.2976310969739625,-0.08884077122157556,0.10341576806871873,0.1472017231503771,0.5076213325885149,0.48019703919488027,0.5162656093976813,0.4391187862437248,0.1069881417759862,-357.14041893740085,15.881965439293882,9.840874726634317,-0.006739053493664951,0.11758850008826693,0.1797959170555643,0.1831879233830076,0.6307706924300124,-0.046876141174179285,-0.5013224922624492,-0.5734355092739649,-0.5427248809314118,-0.525002858872019
0.08,-35.9171075001934,82.60741801716846,23.220408041024932,0.10385437198224934,0.1720700256396589,-0.02436328775205651,0.198373637672859,0.20068692757768614,0.2638138717871461,0.3849727034961825,0.503010702503207,-0.5622478055557296,0.41829338072906447,0.06682172461834913,-4.638555990472627,88.98201596526492,0.8305711872701691,-0.16766838688537095,0.11963641645553093,-0.2861672836455583,0.09980620417537804,0.05222923447770913,-0.07738103514173328,0.5200659339073989,0.4842122138482054,-0.6217306597731509,0.6114875453932664,0.18105537994318435,-174.70671655404928,1.7331929329808156,13.672731885301591,-0.05620501046919952,-0.07466342220029884,0.041831785238293846,0.1778438871927116,0.2485969527279979,0.23825992169633325,0.3085909329948353,0.5417953293666592,0.4085551555717148,0.39050979652673773,0.0575482662881298,-356.91504174459675,15.783054296277212,9.984628201216479,0.07065017393180584,0.06518420373656136,0.3447026137167106,0.16007350172199244,0.5144820008274656,-0.01465065705542283,-0.6332748081208364,-0.5234667868831013,-0.5874848585677658,-0.5262644465262085
0.09,-36.08462081995286,82.53799392027389,23.161654750706713,0.06558312757361989,-0.08076375305423666,-0.0744371836462784,0.0016613149402946725,0.11294572553161171,0.528789905209297,0.45887811678344914,0.5032095763921095,-0.5463829553212971,0.3047495928757855,0.17473490002699785,-4.5028220539392025,88.79233899890481,0.7473549783043706,-0.041930308274046146,0.0864503174747901,-0.045248386824900545,0.2251690169201972,0.004776235360768526,0.2729880560854637,0.4858830516293748,0.443282155283166,-0.5642130761849053,0.46099060973336625,-0.06253611760614505,-174.62169473417092,1.7478121378039282,13.437661982399824,0.014661799482342863,0.14354932935482148,-0.0359136274309153,0.16379346337461248,0.2756041707607853,0.10649352631488365,0.3789717421918748,0.543784007026167,0.4053606014477853,0.36360252201027754,0.0041215921872488626,-356.70387624888366,15.823615213689038,10.095986525245625,0.04094441935417356,0.1587154079395468,0.2749017778361724,0.20147752309699785,0.39085864885919996,0.07373923830948835,-0.5147329861915118,-0.43883951103134816,-0.705915701182502,-0.5654521037421214
0.1,-35.97654679046838,82.79381145238035,23.52851164670335,0.22835857292312298,-0.09915260387137126,-0.018087467951596315,0.20750821717321133,-0.014627636785793957,0.39377252252235856,0.5962224638959145,0.45558957804136135,-0.599472474422047,0.3958206449557773,0.0804071592167561,-4.503131421251483,89.19455789917691,0.686741362290438,-0.12305821415923393,0.1068259039049364,0.040164206026683025,0.21056638264812255,0.23031903476455656,0.09385506174637141,0.6501001818427503,0.5205837939625804,-0.447821381230123,0.48866112891382907,0.1479707512073788,-174.62555152586995,1.8587367358613625,13.672872146723174,0.15257160574377537,-0.02589837457147883,0.03550602395375065,0.18881114162093554,0.5110914144331686,0.3488207078459703,0.4530536454881207,0.47594595721900673,0.4799083664721304,0.4313509295611682,-0.004732040640842788,-356.2896102740509,15.995524923374212,10.251251367104196,0.08658005740634678,0.12642121340508908,0.25385156533387276,0.27207410020443057,0.23806190279639175,0.018612556868158457,-0.5164128406703227,-0.6762123205701537,-0.34957558888058576,-0.5325663512923438
0.11,-35.98763950617231,82.94222668745006,23.683276421690415,0.006120758765756988,0.13455747493273096,-0.09049187743802542,0.058045655365677316,0.15829961109988708,0.2922105503693497,0.6139749782588715,0.7239480187297964,-0.5125731482730358,0.3844611468011234,0.19895703627008426,-4.495674000312999,89.05099824435221,0.6644853123753292,-0.010712374191857159,-0.17561476554629343,0.1743349666136942,0.1413809526667198,0.020749346292587983,0.2844962996526828,0.560197781899822,0.47446649696207027,-0.6507950063723301,0.5089805739048848,0.21803900885241723,-174.42807516584392,1.7551599589596751,13.114820924137174,0.18529907087491249,-0.0798271740363194,0.10415346685715783,0.162771887203661,0.5458998596018548,0.555213466382648,0.48060235006885954,0.44362148452155936,0.5163704222448676,0.6089651434358934,0.2505128538218869,-356.0988024305993,16.12590298920184,10.280458474050553,-0.010789595165626054,0.008962229933159215,0.28206833878443194,0.0730853271220582,0.2861563246780414,0.1132112195498706,-0.4851202549622034,-0.5839121735737741,-0.4089336393293632,-0.46610466449950333
0.12,-36.11117143368757,82.65613593957349,23.93005561352718,0.05210115896936379,0.25970698716325424,0.078195219557183,0.028805235291468695,0.12776904241390355,-0.12702425357520752,0.611084421768983,0.6165741183293691,-0.4885011115397701,0.5668697599428472,0.050728783229832,-4.597096010840536,88.95400125009472,0.7628154734366476,0.07671087656080416,0.033609561860253295,-0.0010708998495138778,0.049140823351271457,0.04554303617387369,-0.11544680004983283,0.4250674826738492,0.4784932411189966,-0.5647287240102536,0.6912329968603637,0.19809566528334518,-173.98698884227366,1.749668562871285,13.102075903314462,0.18501530290851959,-0.002086560987957531,0.25395567275804004,0.08793950406575274,0.5810289982589425,0.28279234734409764,0.5506247132736299,0.5428352544590274,0.46865136769567467,0.43464411997278524,0.009897761754260867,-355.83798324260977,16.302595161137866,10.230852121560645,0.12005543953151986,-0.02206760909269983,0.395801012965246,0.15756290267271295,0.19954513308380853,0.08854247516343242,-0.4123249690088984,-0.454581642999517,-0.565863400340227,-0.6346064387930278
0.13,-35.96363782823841,82.79591402290467,24.043704009092323,0.18444566483040556,0.12383815208455488,-0.04381113669570776,0.056978652804124494,0.2248364253166138,-0.04360198383235875,0.5550921363274028,0.6322960696547433,-0.4577724772292837,0.602674984938623,0.09057208862937442,-4.530944423146526,89.10993550410079,0.6561436079040821,0.15775369527106167,-0.08248961845946344,0.18160645529728314,0.3633812776451001,0.07943943726100958,0.2420868055415032,0.5582506066319879,0.20060169777145292,-0.6063781154107086,0.38638999190940104,0.06643977486592403,-173.677262390418,1.8769397364301315,12.962557256678238,0.015516857416247282,0.11258017280143427,0.33252590799231596,-0.17336714301962797,0.4562161631642208,0.20930213707466522,0.5726238677719332,0.5001388652517518,0.5893943777024833,0.5683251872094297,0.09470298313033002,-355.50699892012443,16.376332090723885,10.71655733100616,0.12439983344301694,-0.05180551810920048,0.35719877352044654,0.10311750832476754,0.1154466518623096,0.2532413813546188,-0.550266808121872,-0.3865063382215169,-0.5978825682713617,-0.4968377219961109
0.14,-35.99141307090076,82.92116085546176,24.372393254592318,0.030490743066397763,0.14227191288560748,-0.08942424522767865,0.1329330752346871,0.03513819769650269,-0.0756701687850521,0.6370079682627058,0.47837905652041396,-0.585573595567495,0.5678902694767588,0.22244861072845135,-4.277916768217364,89.16133145091403,0.722222147414521,0.04567989086174857,0.13285322006339095,0.001272580638690523,0.5235888875643743,0.004913962389753625,0.06060285010300989,0.5325393255216065,0.5527254838780767,-0.3765426418874206,0.4279094105816957,-0.01558122579366053,-173.41524953238599,1.9554858257418588,12.796487332929274,-0.026450180734422096,0.0864452712021413,0.5432486293201545,0.05749211292061056,0.26406619241889906,0.17468871470867117,0.5089665670746066,0.5245677418287378,0.3879178733582477,0.5815696372076407,0.08013561600811198,-355.247281145368,16.57712613366638,10.580485691734669,0.29304670718862175,-0.0307111853253534,0.25720690267743385,0.09930304587882562,0.37927084895899327,0.2275360021237117,-0.6785463129880281,-0.48316411648059765,-0.49255776473017765,-0.38557410380930957
0.15,-36.11104662085822,82.90792192590625,24.900195296177646,0.06418473446551029,-0.04552739353504347,-0.0517512189116913,0.007074852555951448,0.07165828471703667,0.10544023300666101,0.5707553378416698,0.35332473649568014,-0.26795749366566335,0.3020949538333676,0.1050879829273407,-4.349764935638632,88.98816598196862,0.636004657082174,-0.0004475419820129632,-0.09131859426872432,0.0401649973787695,0.48650273820957823,0.016228045623082478,0.13091254849033856,0.47053917077974156,0.596794093422043,-0.46026791230918984,0.5097672407940937,0.23080342631718226,-172.7502580702832,2.1717673419695296,12.673093312008916,0.1141331864224114,0.10480221507359516,0.48383977423684094,-0.07792298298552013,0.35906389710975073,0.45444846156093427,0.5830235303098971,0.6312580521757165,0.34158758507202225,0.3945343084240978,0.006170838619453889,-354.88046322716684,16.53832481150425,10.868235809954495,0.37735022035627797,0.10173857617099727,0.409260297024518,0.10774837516689283,0.17499521257257702,0.2882882731925629,-0.5409836781784377,-0.46453297360919066,-0.5547437204586492,-0.3636962174017261
0.16,-36.09605093384588,82.88967388433808,24.994507422081018,-0.10158853363277498,-0.2514699438622946,-0.05745185760847237,0.09443694321276866,-0.011567705144208826,0.23094038330490524,0.46417936241323776,0.47426141832394164,-0.5221036056492256,0.3986130591628897,0.24483236486696558,-4.333190580565396,89.06338363199222,0.9412924048511873,-0.03529451421252361,0.14842983752492167,0.04360096258011055,0.5888527485965975,0.026321775091166344,-0.03843294469458438,0.5439283877936892,0.5147224792957567,-0.46573957380077835,0.35729178290144475,0.17873397828588172,-172.637517980668,1.9472951816297432,12.817730627679305,0.21015403375141073,-0.029468609620496286,0.22415739297612847,-0.1125902142287439,0.32670637892545185,0.16034040522014814,0.6218967205608879,0.5358515841281541,0.6058400016116239,0.3929966922306576,-0.005099187360363855,-354.46930473704475,16.458045130553682,10.965418317319397,0.07663360387568442,0.11761173183428368,0.4235387451373104,0.06253629660612287,0.1502291744623214,0.11937091061232953,-0.5975169581091253,-0.5124638741880624,-0.5527433818293804,-0.5706451825710143
0.17,-36.215818617018094,83.09081798485572,25.195802389077045,0.005742427059335448,0.04802460994148573,-0.026908009443136427,0.02163693670617339,0.14687313090475332,0.2428998049788954,0.6026323606924738,0.5073209583633425,-0.6498695599785945,0.5637615349134688,0.2437075538353659,-4.460198882693022,89.10999265311831,0.6917764368119121,-0.1487079836279154,-0.11032684923399225,-0.06650143051625536,0.15187702313201962,0.06722588540200389,0.19201313270558043,0.5685974283710912,0.3765945418370133,-0.6677406028274044,0.5394243426713867,0.20019451343204744,-172.33055045939844,1.891708317437652,12.43844411874095,0.052112129642327976,0.07030715184807396,0.1787554592194113,0.18660563054079954,0.3728196318071986,0.31317824156879587,0.5814756050587426,0.5287074281032411,0.4785973362922648,0.611620631125774,0.22112988352229968,-354.24352769229336,16.489797090144805,10.947247778815735,0.04047557284685828,0.19321670686273498,0.20358946165672506,0.1568952306108189,0.3736752669094876,0.3565129686392547,-0.505149143613689,-0.6128903716852556,-0.49736800755334265,-0.5488782838336981
0.18,-36.179995158568545,83.10561278046903,25.12058543642714,-0.007126988802955182,0.032341720207128666,-0.179129948870284,-0.10398843346745931,-0.19507260407391247,0.0725639410672655,0.3956462974103133,0.42897825318351135,-0.5943196169161035,0.3192402401241493,0.13299623542422137,-4.259356291643681,88.75959577401831,0.5715542905455926,-0.039628832170083804,-0.015996590228548116,0.13434102551087437,0.2193324955081581,0.02280123607510571,-0.02563111113922799,0.5351454203602629,0.4247510065901416,-0.28616796549435775,0.5412183182349031,0.09596878028674244,-172.14352666778416,2.0764893508072153,12.336361153603509,0.14944036089940677,-0.013223787659283226,0.2214526279415844,0.11123320877983703,0.47021531682101325,0.541124943989524,0.37398863650217357,0.5251987516052136,0.4544390300028988,0.44935069958248497,0.31247776716372433,-353.85461859653975,16.521171807654987,10.910141317282132,0.14389742595000116,0.04791905488616894,0.21477418970018913,0.21883189233524994,0.17876547349927716,0.3721058290430701,-0.4952227666334534,-0.41095334170325004,-0.49540218233270666,-0.3604682921605809
0.19,-36.335280045594246,83.01595126556798,25.518671784465734,-0.0013652722040382176,-0.07576226532974586,0.07723790222335175,0.08794911865716223,0.07648973067472828,0.14262033088807508,0.4769163822060684,0.6767902636996617,-0.5548093170548061,0.5111509307432894,0.31191830652016667,-4.5570102729879345,88.81536760493245,0.696088219094045,0.11467182539363574,-0.08236431110791974,-0.0505125876401887,0.37965281924474636,-0.04821085980347477,0.36864849509202324,0.42203232962495507,0.6478886853433556,-0.3637890216127752,0.5684249752880021,0.3119434519180789,-171.95211971001203,1.9493627777910996,12.207131100051175,0.31347241471986,0.058538071353196205,0.4105770943213743,-0.000930495449672511,0.49604659855042554,0.5403023311921967,0.4885811142889903,0.5548426655283845,0.5593568101387046,0.3997470314387881,0.22861613239916556,-353.45647612739504,16.62832260870037,11.04903540279966,-0.026705421025920287,0.03560893077713069,0.1774568719089509,0.09314391080091784,0.06580586908932655,0.16677788100654992,-0.4538636907170121,-0.5934032141619393,-0.43269211994199785,-0.5689377419775646
0.2,-36.259069487681536,82.96605641780467,25.614225015855116,-0.11845360963933547,0.12929080492208841,-0.03436768119048745,-0.049081901353875815,-0.1310031577935444,0.0996931646088279,0.6052162279062211,0.43755647586448043,-0.632958260873048,0.5475498007368168,0.30736037299652863,-4.378402926640223,89.09472552110081,0.7631620932487423,0.013843720739554522,-0.019586542701372694,-0.1815618013082082,0.3347829928140049,0.0694478157691581,0.24494057328579794,0.5119127610193164,0.5259345912343212,-0.4016565480287205,0.49310772144417736,0.29561354834231757,-171.50803145632278,1.7460073215726777,11.710063189022108,0.30005576413930224,0.22572939959622795,0.2973042767007706,0.10526350347623033,0.2710837561820097,0.5361806370669361,0.4974947366325171,0.5788528405537304,0.27811268000283484,0.5589569543883329,0.22527740382895198,-352.96953550088466,16.486084069279546,11.247104305705495,0.1307712498833282,-0.04454493373546077,0.23542174770901808,0.23954759760808658,0.3930338282944337,0.3695869347409453,-0.315638836354299,-0.800185704365381,-0.5347640644366596,-0.5562009626240164
0.21,-36.46224673104811,82.95527902037429,25.44448917014359,0.12491242462070583,-0.02183266007635601,0.029373664591086326,0.1618579099036685,-0.040161705951724774,0.16199121631408048,0.4592504373409022,0.5946730353771046,-0.5621237885551434,0.6001243990213547,0.2792106960675558,-4.6126587570554065,88.86337707771027,0.6982743168123602,-0.055553317453416996,-0.06257611062940052,-0.011604759080109784,0.29641195332595743,0.03605257853811509,-0.1014361298143851,0.3711534084893565,0.40182905524173235,-0.6014358363660872,0.6811087207728844,0.2179974619963251,-171.162090081293,1.6967213481785086,11.480420130422697,0.22847781505424442,0.0463774565366554,0.2751863824567199,-0.13667153325546907,0.0007092931456569862,0.5398456721192,0.3947010142504146,0.6215315467354291,0.6081831551768295,0.2628109272489303,0.1905191570018934,-352.51055952198925,16.359753430657133,11.091537912805736,-0.07975781094025475,0.13982714242657387,0.4446076496691565,-0.13017175805223952,0.34562263602533516,0.4877652121172186,-0.5012381664602986,-0.69557789978721,-0.6210140267340792,-0.4515375980888717
0.22,-36.346492018983575,83.16114662034681,25.58674932343482,-0.018965272589958997,0.021245551388456824,-0.20290263312583157,0.013684364997416876,-0.020297513328315503,0.15695122502055578,0.24631205251063942,0.6314663282423852,-0.4678710841636006,0.6099669128622881,0.25096717016777803,-4.621706757454734,88.71909358390722,0.6130926393001936,-0.027478039021591343,-0.24535178505213356,-0.07617645030910582,0.2894130928781691,0.10203065152389992,0.10341806941220144,0.6296963912148624,0.21335231209334587,-0.4887237109824711,0.35698408485607713,0.26665513609762215,-170.63584368327392,1.3194598274911105,11.54544044774216,0.17666857357392335,0.21557267299643162,0.3751689314574752,0.04997193408013101,0.202540018358786,0.7342172217431395,0.6109811481421821,0.5024192619917885,0.44309585270494084,0.5174602570028074,0.2519474672254133,-351.7924029161592,16.338112361360732,10.931864535468078,-0.10496760850062144,0.11234059639895723,0.16170461476076442,0.27098120808918175,0.009037243221352437,0.8626323664324392,-0.41923880606646735,-0.46029248930175365,-0.517700812658545,-0.3538527012776936
0.23,-36.36195494786768,83.12613633144859,25.560306609753898,0.044282657396830634,0.04476436982998239,8.357628248514328e-05,0.10575183108403671,0.20783178594146456,0.3019615561361276,0.5225943522703385,0.4735894737211762,-0.613248108120547,0.3901078184528633,0.29943085405257164,-4.416691478932828,88.90725973318882,0.6742983587150518,-0.06585728245233222,0.14785321197782395,0.0788950527777229,0.299466542975753,0.1360822087875226,0.24381068520127402,0.46380510114748796,0.6287006377876709,-0.5573950969656947,0.6445333048456777,0.1571296143056316,-170.24346441618718,1.4329419499347287,11.12335058952623,0.13420979715767034,0.1284695991326798,0.41856771139373017,0.13268505975935926,0.11159200070847473,0.4371696310561908,0.5367445429672237,0.34755960289957755,0.4092976924556013,0.7288438539392638,0.16032705559491378,-351.6173902493681,16.262860381988993,10.697486618018988,0.04456069979470062,0.015808717624834684,0.017692732542124084,0.13742676131421094,0.1297697949824296,0.4529157663710362,-0.45119720554030085,-0.5571163588796709,-0.6170106326463574,-0.3870018362569447
0.24,-36.3102541562734,83.06806017966858,25.538436405656867,0.09444439594491709,0.11310899831147307,-0.1191475059791781,0.057254953670000955,0.16124924080687292,-0.012962037663903636,0.4707273585918774,0.6561998897381823,-0.43239511591695734,0.3905884005716179,0.2807764327453948,-4.653880630504395,88.7353735904853,0.4646845392852658,0.026228677072176524,-0.05970199569828238,-0.0326905630330866,0.0413702894353348,-0.10911134051202503,0.04811160804696829,0.5668192692706375,0.6652681717007252,-0.5136867593437925,0.34547434223145945,0.18484092541555847,-169.69501163732963,1.0923843821925465,10.914627395515755,0.13543327097781124,0.04338540190156667,0.20428446404498218,0.17281849699300467,0.22363509946853358,0.5971532989007171,0.5147317212428743,0.5843364186920953,0.18314872477368627,0.46568814616262943,0.33264123218601765,-351.66548768986263,16.378439009069865,10.589957684952413,0.16433145553892334,0.05510010462161373,0.2862071145485419,0.09260128622407987,0.13432024545318683,0.21285688400932426,-0.49101965312877277,-0.4372211220967261,-0.7005128207843871,-0.5133721727834539
0.25,-36.42575887364034,83.10229045549448,25.78695135960064,-0.0029766469807915447,0.02573265054223966,-0.011318546131154865,-0.07415047098195533,0.1810383555304329,0.04877828485756277,0.39365495780640547,0.24259654801998604,-0.6104891062668851,0.5403162830295883,0.2828289843880244,-4.538680628657003,88.74165753221396,0.6047346311361849,0.05085836703331695,0.1350950421848939,0.0348496275617345,0.15298033570199226,0.07488744642512424,-0.1252617801259546,0.5877182685732676,0.6483787861662301,-0.5996006742794364,0.5871848234168036,0.19128499268519414,-169.48332839931626,1.0412493377945597,10.685346131098683,0.12653280427169109,0.1970478320293504,0.3921267611797317,0.40477723985958125,0.5455262605629702,0.6402248681492801,0.6028519258931242,0.46018086430703853,0.572350074987821,0.5776305348589721,0.18303011328404045,-351.1046230010801,16.20867820423692,10.162249348131615,0.23333748969365442,0.26341972816587705,0.20490752129858153,0.034283223348512706,0.18715566525670713,0.6265982401370436,-0.5213399367558177,-0.6589574323174527,-0.550170912119329,-0.5686474064540458
0.26,-36.45576858413336,83.25251618754852,25.694527604637187,0.10315205529219007,0.09000436851620466,-0.08913145490873813,-0.010152818959791962,0.10149812103631581,0.05721079712859533,0.43481451996669995,0.5510728424524579,-0.5053163086704385,0.4763768615802685,0.1801971147711554,-4.670897548401085,89.0256001048379,0.40975979126415973,0.12524377591749208,-0.035753772622490965,-0.07861296899552879,0.38202964664994915,0.09729659902806108,0.006047411568478135,0.4572126595737081,0.49574996887299316,-0.5757327823571591,0.297752070519331,0.3344320494013551,-168.9368306081851,0.8593847784678996,10.5971709250747,0.11196903892500681,0.27662228272011447,0.2552828631932436,0.2661579300163705,0.5235037210308147,0.29446329688796946,0.5876583800631605,0.5575638068645059,0.5086407297721387,0.523632921429184,0.2050300920401752,-351.096175141658,16.072394747137533,9.936140813480023,0.2055311886390252,0.02177475159980574,0.18703175625567175,0.1188192143824851,-0.05863469624819169,0.6019007486441347,-0.711391720402629,-0.5338827538792972,-0.5040396644403148,-0.4722154758468989
0.27,-36.42803554239103,83.21933831625269,25.81616302785619,0.05687766528810691,0.08000821593427969,-0.21004768209403296,0.01157181992206847,-0.02359786440052511,-0.04321005765522756,0.6163379504644825,0.47019218092027204,-0.5328955807725173,0.4680802592784154,0.2833607124340682,-4.715492153222509,88.82053394728243,0.4984058236674205,-0.09066071757176328,-0.018959600177548823,0.012498577566856402,0.3330211259563893,0.21772768861801062,0.1076846442091673,0.6435883712173736,0.4579139408421207,-0.5455509925866134,0.32958751648973206,0.2624452159552305,-168.95307040921264,0.6727835440512987,10.489017831346006,0.10184854431307266,0.03101958085183952,0.29534860950405334,0.3588357338398594,0.3519464309031596,0.224832939495248,0.5670306616711025,0.5627782914571183,0.4277023408238837,0.5778987456049718,0.4458053088932326,-350.711325484173,15.87621284881814,9.604716255695722,0.1616597410942171,0.23185219193899553,0.20228396727090475,0.2797526593273418,0.05705858920787257,0.08862247538961002,-0.5151637640593332,-0.5326493459768245,-0.6037409520518427,-0.5035528035561523
0.28,-36.59442030979471,83.28478763302519,25.842806297634613,0.09222024506379406,0.28924697156409634,-0.06759711322189567,0.17114443455075487,0.20922961000570267,0.05888193699680002,0.4855891295241377,0.4237412817764628,-0.6041488117907875,0.3198855101738135,0.18795646163722635,-4.6708614313277,88.927089910266,0.4582022066990903,0.034104939276877036,0.034139830407990415,-0.0507749697423088,0.2622769222294849,0.22234477141003736,0.27206596644574393,0.4522048042754446,0.574959682566416,-0.37524968504947964,0.5415916350222777,0.23971937201893503,-168.6399261264656,0.6221952276608905,10.390609595389078,0.005877490406584808,-0.05267099382448681,0.1818082706219805,0.29242455310142934,0.4819067903411772,0.06504075789192293,0.2881588680758157,0.4827252761635654,0.49278012825569184,0.5646938142452361,0.44964219747913664,-350.67768515651164,15.850730804798589,9.112460320991376,0.16158961328524685,0.05117086361470481,0.04678181026076007,0.366121501869349,0.23704131662057262,0.15188564808615762,-0.32868942166257675,-0.3897135722375513,-0.5325154361195208,-0.43271931788990087
0.29,-36.60899811939305,83.17312024299339,25.986159884029686,-0.021090499977459144,0.08707184918998973,-0.0011697013343916463,0.055113304167024924,0.009355438952673201,0.2766721541927096,0.4564222246003484,0.5102173007531975,-0.47459898515371546,0.5148305744933439,0.22757296686402473,-4.918504031685832,88.87961267232035,0.43441063729031243,0.032776559146632266,0.11832468194618567,-0.2018137269469279,0.420980431486901,0.11535907739229621,0.14619536472082512,0.5889220908869109,0.4456313451995955,-0.44514700976690685,0.3614980369274436,0.20642711255115234,-168.6732684698339,0.4914776734790728,10.56418069700585,0.032166840642290924,0.26901064093604954,-0.09267495924285127,0.03672742976646454,0.570657516097567,0.3294614982041353,0.5482243559663309,0.7221410432653195,0.7385198693707746,0.43002581740023166,0.42131529838359694,-350.79025735739236,15.826232620815077,9.083962637415407,0.11725648935338044,-0.004305834169328102,0.2055204925470376,0.20188477119889767,0.165333476126656,0.17143311820161156,-0.476232838268582,-0.4736894320088498,-0.6979848603680066,-0.44435172779304183
0.3,-36.61486501506132,83.16442526837578,25.756801286248074,-0.0766166273633685,0.1169789773714554,0.07035833960567388,0.16234882823958868,-0.07911436748336277,0.22974531436454784,0.45362602056089785,0.5185498279574932,-0.3603909435954585,0.5729705532649876,0.48022207951814644,-4.77924334406323,88.56910856349796,0.49674762040116444,-0.009190745599030638,-0.02063723188967844,0.19367104511568312,0.47712349344004046,0.026803198788250215,0.06605038902014991,0.6434488396613731,0.24740835240811998,-0.4572683213787795,0.49478964841721584,0.4392824318823987,-168.8961538125602,0.12687011215777733,10.370624653598405,-0.1461189638600514,0.08065835010945775,0.15697463999655975,0.11484289827540302,0.5863109106095288,0.5806933370756658,0.40627551452101374,0.4656950640220475,0.5439652356239393,0.47674302612677766,0.4095954712381071,-350.9389668714462,15.565901702428873,8.90620360758574,0.1399063291293373,0.2061575310128143,0.159854508252597,0.1324482708223213,-0.18482725178898607,0.24404887943459375,-0.5327099568217544,-0.3913629986326723,-0.7498269893174183,-0.3871498477125126
0.31,-36.569159276913815,82.84141779897408,25.831203385977258,0.16170634394189914,-0.11648246463135016,-0.05756421306588232,0.06303734328571611,0.18350255942760474,0.1519207676774904,0.576929045998399,0.5378124556709265,-0.4968731874208637,0.41400882247178605,0.31425481928549337,-4.69014332915008,88.66794625508514,0.7208459850675744,0.06294147711276044,0.2000961314675472,0.03474408117068753,0.44157719527511674,0.01306617842644767,-0.073395782948428,0.5224646800397886,0.48257580626870167,-0.5224585090781877,0.563786176042329,0.21909311038571544,-168.757436177053,0.13259037131794052,10.212089593388553,0.4748872929896667,0.15003919568921031,-0.12480684345545517,0.26597196671805146,0.44501070010533167,0.6874676173009646,0.4316203583508089,0.5160556845561646,0.5430055977964078,0.608870140995437,0.43109834176973283,-351.0239840457926,15.542201476137393,8.707565981606551,-0.022457568875908537,0.22829145115709926,0.04751059944798936,0.22112391554416302,0.19572438292361455,0.6593574295570391,-0.4796479244818335,-0.5923644273308805,-0.4603423058606002,-0.39644752414531054
0.32,-36.67458976815157,83.23930126333993,25.69926846267236,0.023579677468273854,-0.14077217222041352,-0.04060657049004694,0.25565804271096243,0.01606273468919366,0.11310396239289615,0.42750094233612806,0.47029831017345824,-0.39035527774584033,0.7450019889351043,0.357401038156328,-4.9045760244284295,88.59954831744777,0.5078467058451369,-0.07151302811275785,-0.15191313924170122,0.20647785971861973,0.18101373193845735,-0.018887254742221044,0.27028529926826356,0.3988002287767236,0.4278791766759442,-0.4557304569316576,0.4358580098382304,0.4738357961983125,-168.7160078521044,0.2621505964793487,10.13567881715976,0.3169782111024261,0.2045427203839789,0.14368118028243654,0.06025229241563966,0.17182850096067626,0.3880184659018995,0.5231279092994191,0.7847847331326632,0.34222317776823635,0.6572359901813977,0.0696773788304127,-350.8339269444886,15.294755177562601,8.764893303988137,-0.006384416847550674,0.1814784392196472,0.09199474149745343,0.2414087434424943,0.2640990201455549,0.5646769145589927,-0.4083321753271671,-0.4604133902711525,-0.671471681016947,-0.5442117869489026
0.33,-36.53471113972543,82.93640884255076,25.842897221355,0.08055069961267312,0.15791734126104656,0.15982193149346452,0.09597802727507107,0.06443544670136764,0.13283487601862848,0.5439325986087963,0.6714074481415437,-0.5341795068308945,0.5824870234493731,0.2969375268571821,-5.053692028118571,88.76561961256645,0.4933797158241204,0.14902835249216673,-0.12731851818022905,0.12778543842423545,0.26771013373051106,0.09914482776441248,-0.08918014919442828,0.46494266662166817,0.42024098866765836,-0.5220760969691284,0.6081742206364286,0.2238751030219588,-168.55644418508825,-0.08343180090209948,9.890264248940621,0.17610895841241733,-0.043256675723200716,0.166841848003408,0.20600177764672656,0.07826501565542007,0.0841816517892243,0.4558030038807072,0.5048665017464444,0.5353230046237993,0.4670242937192096,0.29256104991408355,-350.7732913939036,15.142785745952397,8.768339604814935,0.10035736116119506,-0.01140967700609112,0.051429783957180175,0.32885702415100765,0.17653388590098942,0.4523526423612968,-0.6632177646192982,-0.6354147328053311,-0.38575821496533047,-0.4548700822544935
0.34,-36.696527561588816,83.1703536380633,25.850292692401755,6.183425748004934e-05,0.08645564148143815,0.001187957719267,0.1675325015845312,-0.09903547489662695,-0.01910136476726315,0.5111245450961283,0.37527635865477765,-0.3886128548235761,0.8285847028738149,0.21848905854372078,-4.686757618577802,88.7582590719705,0.3702521739410971,-0.18771547259239582,0.000735883767544708,0.0382567125699858,0.3334193280724111,-0.06249724350914321,0.03405137148479826,0.6409518659922001,0.5976327152029883,-0.4317171629470168,0.5089203081991309,0.3106588615160509,-168.38216996929097,0.24561640247935074,9.728552645984102,0.3669249839161639,0.021830548556335483,0.14594351732098093,0.13569155491564294,0.5180013497236411,0.5919885312232422,0.3587904205825105,0.5215553609064284,0.45736423676815213,0.6318024174809199,0.2781099328914881,-351.0824625434898,15.004760722727632,8.812131462123299,0.12622643343950196,0.23329606679267764,-0.045120906707791085,0.32373719734236966,0.2681565600387779,0.11018793263853681,-0.445658056725695,-0.49505614746264787,-0.5204134670390307,-0.4935005577765829
0.35,-36.87585402693349,82.95215524016439,25.963536127390427,-0.0007368778043077047,0.003163864777149611,-0.07869889790439212,0.0019634116910597008,0.1484263101069614,0.06936156026127838,0.5082286872400608,0.525317199248034,-0.49085366414455306,0.6092729808022567,0.3892177718772787,-4.970168180862628,88.7398696520436,0.553234051692606,-0.11631385148888634,-0.007281025010089072,-0.13258411841013681,0.35862671428190585,-0.02524981763957168,0.023090876501245874,0.7429541284210294,0.6002343823948633,-0.5179149495038387,0.3988137546565222,0.28238194562571495,-168.02048768699592,0.4274793150450883,9.637724963278348,0.3937446775737067,0.023477140732734297,0.26812807596038163,0.12462488011832631,0.4390660770662233,0.7339152632208777,0.6224569551643544,0.6362440989325512,0.6184376969489802,0.5431113696675235,0.20307691363398211,-350.90061755975705,14.867867943803253,9.079195676276141,0.22951294118758653,0.09591918744917191,0.08455827208152578,0.3315814563136077,0.09242536773225367,0.2106433760394009,-0.3467637864603118,-0.3993062406198901,-0.4529835670928756,-0.29142314509033573
0.36,-36.459199979599276,83.29349276023774,25.710957318134742,-0.1103683701859954,-0.15201853312117086,0.1595331609161434,0.07556570420367316,0.08035214188037665,0.12015567988139611,0.38716809300115196,0.5060003984520343,-0.6735793852551062,0.43663270312866603,0.3887081766608259,-4.7978558794557715,88.55915400933827,0.4123170272561316,-0.10559788913494429,-0.18514725107826013,0.19726468168578107,0.40978464797176173,0.11619053779202676,0.09830970212272555,0.5003314765579229,0.4420459228292718,-0.4001874284374055,0.3364084625138143,0.37895425037867575,-167.62102842380762,0.6735503240878317,8.954007065173679,0.4123063418227215,0.3483313090238638,0.34542800573365634,0.10036787907952247,0.40141434938108334,0.40105562410086576,0.6193401132306099,0.7691072663616163,0.5499900336083059,0.4551247525120879,0.547088612202157,-350.93472559096006,14.798651311303548,8.96481317053894,0.1958384393215539,0.18126183496927928,0.04621010331952477,0.23868705603595475,0.29302148784588083,0.6887151004916554,-0.3580779989947662,-0.4582624762450062,-0.6319069044012375,-0.5416271271753843
0.37,-36.6501909346056,83.12920240044878,25.842045337055797,-0.04841502810204634,-0.10144152505040935,-0.13360280773337915,-0.12262075367352611,-0.05760721049312492,0.20185762670440804,0.4766617292893874,0.5225617828274325,-0.49300152501739003,0.5650912710601111,0.39135716898816386,-4.75963353249618,88.52322150952729,0.5050088548319914,-0.1620681611397457,0.07948933655260243,-0.07227364616431002,0.26345232717229883,0.14520996936592143,0.03631696932681255,0.46877288078075313,0.2956797128029819,-0.6032982431069596,0.535581755665517,0.2771985458660741,-167.4618639982381,0.7140527935149988,8.927265686199453,0.14832130030078383,0.21691761264761739,0.3051123114158615,0.48044214538961183,0.18112584168638393,-0.09277950679589442,0.5062237932601684,0.48574642358343256,0.5344565367165226,0.3963768589809822,0.3277199101441231,-350.62744948102954,14.844373948446938,9.317803587173442,0.24236759840101985,0.1524656576256733,0.10229081419129801,0.41001399551845075,0.3064521207995262,0.6878583867873316,-0.37926655086681055,-0.36709180313498535,-0.5314180733742656,-0.577392019784872
0.38,-36.79759339513133,83.15915593495343,25.885679393709655,0.07662831758542372,-0.05349823154462109,-0.14295454489036255,-0.08004229270124472,-0.02813684324371054,0.1848304216041667,0.41052808689532266,0.5371630579000466,-0.35579102699649556,0.7415592981441623,0.3622229203394432,-4.81528582010896,88.60929048441416,0.41622205887330727,-0.017621880009447467,-0.0878793936948449,0.044528278914100924,0.26438676231593217,0.3923870014380209,0.15878052479566773,0.6013268991234056,0.4447423990099169,-0.38577702621693966,0.4719844560465777,0.3940683588360244,-167.34150861503625,0.9358377854872437,8.620994377876226,0.07538162648190558,0.20456204834466507,-0.022632118884766086,0.3866129065561974,0.2717344958060261,0.17372475301481025,0.567671060945447,0.6343136527042734,0.32494885644388477,0.5264180905002067,0.35752826920554465,-350.5250703236961,14.470946248891448,9.142192900808146,-0.0068205116779710695,0.14077439594772198,0.04377295153106238,0.6250064836894642,0.21697485429019736,0.22544256323307768,-0.5175337978140181,-0.3442191820368768,-0.4816353255968521,-0.4240153325099435
0.39,-36.57414885186432,83.23162249909049,26.20683244875265,-0.11541517088949661,-0.10929158173884553,0.11152918603330168,-0.026621289089671842,0.028702992140878077,0.1807751244645825,0.4480568743446483,0.39233239172699197,-0.41635290967973515,0.5624129014343273,0.45282888459604154,-4.834511574107442,88.62066754603025,0.4075058168907496,0.09804264305224608,0.0021959795770006563,-0.06963082423488205,0.2548708766799238,0.0926488745772828,0.051783498009106796,0.5326913499228572,0.595925026128074,-0.5896398894204167,0.501602199218692,0.24351951655761359,-167.0995158676528,1.2021252438530652,8.5699726563879,0.30104681140234246,0.2156992513914371,0.016506262543671782,0.05010056159022973,0.4032882430139883,0.5410439213358308,0.46086102266788,0.46639255175005945,0.4914289280842247,0.31286128205141295,0.38531636279082654,-350.18965545116936,14.19413045850684,9.229169726330005,0.03414907554837858,0.20543717031173914,-0.03864708579525089,0.14491567880428263,0.013403207055204966,0.15819388498052026,-0.44076688512091566,-0.3904709380082671,-0.4641863167931475,-0.5348834234988062
0.4,-36.835906174951866,83.18504522614651,26.019635313092383,-0.026739942475654505,-0.022001031381078756,-0.09023352385853718,0.0742234476129579,-0.2147223672370231,0.23661258228566043,0.3169748385181548,0.4724959178798329,-0.3649046338374847,0.511732415680884,0.2973395773047643,-4.605189426305505,88.59282434266153,0.25979839252834225,-0.08723394782306099,0.07259954548207144,0.2501131725654856,0.1820784272464785,0.14251309022709727,-0.004241540778846677,0.4819852781188291,0.48793616509868704,-0.7191551322673666,0.31476497324744873,0.34705126968210986,-167.1037021842038,1.6057953126491409,8.594167107976835,0.14146789352039593,0.3975465678891181,0.1503138098276997,0.1683499870805527,0.41462803648704794,0.6218589217469099,0.36356393645653423,0.5087631644576334,0.4935740491974779,0.7416024119857667,0.7327134217803366,-349.9904501001724,14.147611300391098,9.10157268618579,0.009265386815314813,0.05395428837618782,0.15061983171508891,0.307360470387769,0.21688178902160193,0.5624595878266577,-0.6059598612878968,-0.6109151627255429,-0.4180771095150527,-0.3325801656803763
0.41,-36.87786791854996,83.20598408811158,25.95416244680915,0.06420511205480774,-0.06497108883128815,-0.10121418362905127,-0.0392009598832814,0.10662784807300923,0.3577016655875993,0.4051196823672277,0.46831531856594294,-0.5601467516424791,0.5587566593743697,0.37394086228968554,-4.673082751875133,88.54230993023019,0.6579201753005046,0.02646037784128609,0.07107902655777712,0.019463122788320096,0.17053005287682815,-0.03019980248615553,-0.03577774947563271,0.5210063653475737,0.6807473276196498,-0.5043969820880945,0.708354770076792,0.34321735901413486,-166.8935255575396,1.7790072951710871,8.341028811188744,-0.03168798820372032,0.28638332154677404,0.06565200219976292,0.22442555320917257,0.37284669491593175,0.41115677286436986,0.27753358465094513,0.61476343228264,0.3362343105099731,0.6081732969386184,0.40151974534070956,-350.00956396500516,13.911312508851527,9.240276139074153,0.08623079821215875,0.0740824215173003,0.08656683195309696,0.1330909063554281,0.6760271026701631,0.5973960147369005,-0.3034239292093579,-0.5560983913366093,-0.52361162313267,-0.3869623011295175
0.42,-36.791262928048695,83.06393959025822,26.032670324095434,0.0034232948650775447,-0.0407618602505284,0.04016517462795097,-0.14567729099371723,0.12124509667299374,0.1931331478466524,0.5430634063300759,0.46008768922262744,-0.5425557769982945,0.515343195652576,0.4817999950166434,-4.872201547792061,88.54548673434368,0.4832587308622352,0.08212420083042875,0.02979927157472386,0.012755546731788487,0.26555324284381415,0.17759507595677432,0.22859505488901227,0.5424057648158663,0.5414953117027371,-0.4124657471934886,0.4727137941339123,0.5565071446633717,-166.78853567384854,2.0815996619388257,8.42027795320706,0.049274701383481834,0.06535467264796269,0.36799623965173767,0.4326110946017504,0.2997566634571652,0.7176269084547703,0.43934294759368486,0.7428900505033711,0.6757781563374736,0.6740886252716736,0.2927647608786379,-349.8528681862202,14.003971154116437,9.05658107958596,0.008265424181236871,0.19625917802936524,0.10769325661327231,0.3429305757704645,0.8230118604157426,0.584896272289362,-0.7316960232007211,-0.6980786957600417,-0.49115424002675473,-0.46305969026043925
0.43,-36.91271754469909,83.19461425129832,25.801466351551746,0.009495238736203001,0.15537119311422082,0.11368429134177903,-0.00979572636945589,-0.11531789368729113,0.10667081456398184,0.5623099455246929,0.4714376845369127,-0.7297983813168245,0.5092396348218355,0.40319841748188223,-4.724153505796087,88.6349610127054,0.3192554275889148,0.2375891062453921,0.026067933047737434,-0.14448996618136156,0.22937719918971886,0.050817186208137424,0.1796478053153644,0.5049340347915845,0.3843323371451368,-0.3046247846897761,0.5407948098921583,0.5389192432446672,-166.60519101261806,2.1673858287390817,8.361092165706046,0.16370480510979762,0.004046312374209493,0.3011567714149802,0.9658331950166382,0.5140776865729418,0.8262808556981507,0.5042240012715711,0.45126932935604835,0.517697948531979,0.6437872383320078,0.4270540560927061,-349.72357297091855,13.449257689124336,8.960294252872291,-0.10148057343155938,0.11096748928608335,0.04994006531281635,0.6911499449714522,0.5710524268279656,-0.05227899171540819,-0.4278681020052196,-0.49657833606497664,-0.39397836263381314,-0.6309412895996368
0.44,-36.81395693964235,83.06738368812532,25.85857181247452,-0.18138232962460385,0.05935251957742715,-0.11273316277697601,-0.32679524254489994,0.10732862738750962,0.2002000339434633,0.5799969682684539,0.4093516113840962,-0.585235224252143,0.46859760322759536,0.35448940412021096,-4.905107134612507,88.57465262058153,0.34604573521015897,-0.04901874589076048,-0.15091628110750632,0.020993661008606775,0.10177960579634457,0.283511451650121,0.024601869227127343,0.31933810679513036,0.4433428809355261,-0.5446935179476873,0.48609366205628324,0.44569894851482283,-166.36178204995633,2.5506143352286457,8.447502010942227,0.00929269629269866,0.3245964132124005,0.23732783056446274,-0.050072917679839485,0.8030809858735267,0.160376995040442,0.41349954507753817,0.5718407645275047,0.702391493010591,0.3736066886911341,0.4417485912232551,-349.8523255525746,13.131967748508915,8.99898222150983,0.1555324230325827,0.17667575035693694,0.09902429098145726,-0.09774060521416084,0.2065148625172283,1.3226394737219873,-0.5638045758713516,-0.6263950444256429,-0.4838412578533455,-0.5016721075707016
0.45,-37.04340211058543,82.93338721513231,25.91172197987232,0.0412770240417033,-0.05787718065891644,0.013469719655469434,-0.19812676788459196,-0.020946285260779712,0.271379957155811,0.5041868488615848,0.6033163695728438,-0.4854843812933051,0.5242078674096565,0.36097986146272665,-4.621017205323795,88.56724685770016,0.30889950970729746,-0.01130442158251713,-0.12738191669294047,0.019195209461715258,0.21357035502477836,0.11768177168181476,0.26931962111463803,0.6053145206804126,0.5844622513312434,-0.41925852541852277,0.5006493923402346,0.4800412413681459,-166.1800547973619,2.801925419723506,8.417016466776404,0.09011903668552615,0.11394590981367264,0.17382284094391565,0.22813741938202037,1.0898053649593478,-0.020284650735683113,0.39505567521325863,0.44188680946945846,0.4626745804933243,0.526249728656234,0.3931191211790519,-349.9174649826303,12.855724167171013,8.968136649501643,-0.06037384340124645,0.2651198140697655,-0.0357594066819472,0.507929542274599,0.9869957420755661,0.1449465990469393,-0.40511345361476986,-0.4040977447698102,-0.3949280319834904,-0.5423333153434082
0.46,-36.688851576730805,82.99891552976449,26.040304586014045,0.060605874319971845,0.06562356549414601,-0.10881159946959049,-0.10725695459218117,0.011112398180905661,0.17269887807403433,0.4823778171013105,0.6015918640031117,-0.6024012156496757,0.5339719750489841,0.3760705194055673,-4.8293410242346155,88.51394184668752,0.301099781853562,-0.08025379604122786,0.1595928481389604,0.016094279424673584,0.3604400962884893,0.03846342903100147,0.17379594244469362,0.5268328944307983,0.6398938519513007,-0.4570405284993942,0.31925752721455103,0.5704894358027189,-166.23964041958942,2.8016896236777464,8.29704309510599,0.09126723848338072,0.19351387565709358,0.020551014667954025,0.22716768683606092,0.6173545517770845,0.6046558044734708,0.623741843310164,0.44999223293822965,0.6004368416485472,0.6319488338697261,0.6369741134551121,-350.07383426271093,12.831113974274736,8.9290482361466,0.14980270926333442,0.08733901546435897,0.14032533188345797,0.7964905222051262,0.7550966674698406,-0.0761679901021565,-0.4792277929208206,-0.610611083567206,-0.6696158861499998,-0.45902071042229553
0.47,-36.80151132941636,83.04652113153655,25.928995561839972,0.03480744750966031,0.07584083932172314,-0.011196405230085199,0.06723870841540838,-0.021626762217554926,0.14650505948645678,0.5083438149027482,0.5147662628352286,-0.28355723410884603,0.4742698381442917,0.48863672601453495,-4.507048425256989,88.56120057177253,0.36162467449806507,0.18522561242223204,0.015625489756314226,0.13274875577496484,0.27921627301093865,0.05101335480800198,0.03807186651533436,0.5588260612284874,0.6088778814424516,-0.5609538602580659,0.4148722433882075,0.39388143878514104,-166.07953891806912,2.8794024288540854,8.243585375138535,0.23036096796261074,0.05303293900756477,0.05865840532614573,0.006014237271854683,0.24141980676080096,0.888950121489199,0.2752977714233004,0.5476560947011829,0.6761850484300224,0.5350507515149705,0.4115299593282409,-350.0798050752208,12.558217617481938,8.846433150925918,0.3267455395956256,0.024542724442187983,0.0799072840774934,0.4946290366179736,0.5705574277957259,0.8574549297069951,-0.4515646495611529,-0.5009952662670921,-0.5484549378819086,-0.5603360064748214
0.48,-36.811598781968314,83.06713910786273,25.903089086864764,0.04304257040944312,-0.07307565222204253,0.01903922045195283,0.29177454181793555,0.11766674038690748,0.342445780204947,0.42029210500344416,0.6658748857163441,-0.3117708619392511,0.44200188539767393,0.5968139600801283,-4.834282827383346,88.60789331038228,0.46861648844273124,0.2988229113093872,-0.010360413183991127,0.09485009607231273,0.4174407623508876,-0.13243212164513857,0.023413230773664775,0.50021300921722,0.41818816005302833,-0.4537312093023405,0.5685557138882809,0.7123386205279386,-166.13888412227627,3.0479223411493708,8.381781488179044,-0.20087586061679508,0.11917385154798718,0.1367343258766726,0.8674151915335762,0.5413255950808825,1.5226225548306147,0.40957875813275885,0.5751700059238601,0.3599357784414512,0.49129076132533844,0.39048604942347775,-350.16624740637224,12.309107061575945,9.079623991091706,0.08526502634201695,0.20820183357332453,0.0614683827547343,0.6237250522526034,0.24098958421454442,1.8380759283654444,-0.44729991651800094,-0.39160424205666117,-0.5453942922472342,-0.3820490266091361
0.49,-36.90042855251463,83.00354585492981,25.797498760561236,-0.027192201835194493,0.0014861100167307992,0.10661310284034896,-0.14727752122373924,-0.018612582756279864,0.15276967889176377,0.5542873449292125,0.4858171689654569,-0.29280734303460226,0.5339203447197572,0.42173407182626255,-4.656188300826197,88.6238986847536,0.4152492183904354,-0.29731916391771357,0.003422066431528384,0.11872604537363173,0.3397582602742911,-0.05379792333992073,0.22709529828233735,0.7053145696263098,0.5594180328553788,-0.5909598953951567,0.35890410823417096,0.47445633282815114,-165.4883032201198,3.011520788870659,8.23584634294422,0.11347541825019633,0.25177133268131296,0.42325325430900673,0.518644328974986,0.5766687967539225,0.7476183667315501,0.4920595931046353,0.6902424497783399,0.5221721301491266,0.4746807058472549,0.5299525774016672,-349.7137189530435,12.360046671032848,9.012615774135467,0.22459427608114968,0.09027935824244038,0.45717549470389457,0.13743058652752282,0.19947900375828737,1.2593179556970548,-0.3839220191235949,-0.5699890438993731,-0.48425795775578606,-0.5812777182495963
0.5,-37.015477136627986,82.92581982166172,25.704505370457223,-0.0801104206518239,-0.0423336918375979,-0.021888238923344017,-0.0657199408705558,0.05136428942739846,0.1189288893250985,0.455647793264512,0.35651739906702007,-0.6251786482236712,0.43868815903559133,0.5350349232841923,-4.745571008834587,88.752692333735,0.5616839834117324,-0.13287149966386488,-0.04385974630674242,-0.14325918704106322,0.3144565526701374,0.07533613567169901,0.10676309129657,0.5661584431383053,0.4923393076949153,-0.5385829205259308,0.4559615796775651,0.382805668845441,-164.59563017410233,3.2305352247277233,8.138924698543532,0.15432483974782996,0.2866599775543066,0.7547827750111803,0.03081109979767022,0.6497371713916633,0.14442681556051534,0.3344046368448427,0.4701548014934305,0.6001998592732609,0.5896819800122665,0.7810953414231567,-348.92830784599397,12.201360598612203,8.87693032858361,0.059702185986327434,0.097542645379812,0.46289205805673406,0.44343435476143317,0.7437810718519485,0.816249029167776,-0.5972585528865106,-0.5204683345122278,-0.6234332256843842,-0.5876951278377706
0.51,-37.12163641927891,82.90794115034467,25.698180994190373,0.08372823524817768,-0.045566936178798555,-0.07046739610778509,-0.06237985026124335,0.04154787479405701,0.15121731323282062,0.338922955033229,0.3841896540725429,-0.30676108490392007,0.4782001016851429,0.4505939925749245,-4.843528607735979,88.4504280601251,0.48038350675469743,0.10987597066613707,0.02463624689668569,0.1317190806496572,0.22886193705738855,0.026862588763042795,0.16517250319122617,0.4419241677556845,0.5878260910767452,-0.5891812064964201,0.5045168245637842,0.5820669452057857,-164.13059393111354,3.2842391887382414,7.759684926324831,0.3296573603065477,0.29137151087408336,0.5772062969172861,0.05625570172497443,1.3002126068538105,0.37113616414203326,0.5229260779254356,0.6134579788595111,0.697220342615073,0.34824236627636224,0.4934272614543592,-348.2069702905445,12.367235528203471,8.522244021375913,0.23085063423913232,0.25266689631252,0.8004840528800053,0.7458688467426967,1.3829785453143362,1.0805133900737194,-0.4187953272560917,-0.6186335735684976,-0.6035935413647356,-0.42813091648826507
0.52,-36.94097195717339,82.94390844040771,25.56500352504649,0.017238982268475964,-0.014732295292205795,0.07825389909405495,0.12172774128769592,-0.12288401373728156,-0.049780825662332745,0.3737449120601488,0.5559665105964501,-0.4338106775795103,0.487387509697087,0.61122787088866,-4.892850469898741,88.43606343175176,0.39245783838541703,0.08042471578008831,0.05870951138213453,-0.028024908276225224,0.42746878223225815,0.09646879869889563,0.16442038202788178,0.5619555914998774,0.5492190022916943,-0.5254685349620075,0.4237660011433868,0.4623911114068736,-163.73094714650966,3.3544148698149834,7.631259746322354,0.3627299459925768,0.23071003173325066,0.08416546612913803,0.18790507346004856,1.2101258486099487,0.448928761595816,0.5605274528400819,0.6571148682344005,0.5155676133701066,0.639145427976128,0.33429478897149456,-347.58380774135213,12.244784675501782,8.372674377873299,0.020786240338739034,0.18084126088582653,0.38981193766026545,0.5202226822290336,1.2017524862579245,0.1129931241085321,-0.6303427187004195,-0.5086318652507644,-0.6840550732649864,-0.5786848767764348
0.53,-36.9673531844122,82.74337437881422,25.61258134771256,0.09598033846341791,-0.09447695214412412,0.01766445369031422,0.20883333053587366,0.0521843699975256,0.22267993356989263,0.5350955642608297,0.4355756730848333,-0.46428385953971707,0.47609174935678844,0.5666929145884492,-4.659853232768191,88.84271642893019,0.32841991632966755,-0.03521423249968794,-0.10546893045871854,-0.23121684513315396,0.4085503446883869,-0.02297497316684649,-0.104024328160695,0.557233827331227,0.3972051385883121,-0.48065622950237513,0.5455321440493401,0.5821200931768779,-163.7120408671128,3.3739137913514483,7.1680689759670875,0.2535274392616408,-0.08837159834643821,0.05357602026666125,0.27302838825813047,0.9971483034044126,0.005311932519422647,0.486936072073134,0.4281356761933791,0.5896250838092822,0.3999215364991696,0.5316002578287674,-347.3819180234926,11.986922427124545,8.278632675577008,0.03796341129209531,-0.029596915196976437,0.04003845944003395,0.10243024825878146,0.8006269489657935,0.4255125258898254,-0.6703986472966459,-0.5716224427203073,-0.6538144879293668,-0.4801649218973756
0.54,-36.87338592126441,82.71806362358532,25.482780881342748,-0.06724015610065039,0.1566018668554565,0.13405492660243684,-0.1457048434571388,-0.1531136248873014,0.1502271610446101,0.42762981774867476,0.43341512987768127,-0.47151346346773426,0.4518885385502069,0.5455772817909991,-4.667684140367728,88.54986225097075,0.5137498872370934,0.10844283660482142,0.007303883168052277,-0.09005025425040403,0.259007050156846,0.2132039323855751,0.01687361631185104,0.5020593910454734,0.4778686810091799,-0.3789713142490241,0.460278598292846,0.4919183894947273,-164.30669633733532,3.427374673777816,6.886229205907053,0.10651363787386486,0.18453220048030736,0.6363007792642988,0.470632912186283,0.14844494502614575,0.3700337775253005,0.4066807730925228,0.5488055046715582,0.5774731481740752,0.5138231919578016,0.6595399799730344,-347.3794064678057,12.095227527981894,8.03757465412135,-0.10382869100824108,0.08350848754455749,0.03759072390847838,0.2764806218493096,0.14794733362541218,0.17107705770784454,-0.4175306518213255,-0.41927510985989147,-0.6382914022240274,-0.41596824414841355
0.55,-36.98109502264384,82.85640543755538,25.415139147766286,0.003859308678013899,-0.03538033665835795,-0.08594277528665303,-0.06610849212786044,-0.01922482668016805,0.07871199521204097,0.5008134595560652,0.5670452304551822,-0.4606883893920539,0.7275605537773431,0.5338854166244816,-4.787829341538208,88.57909329670015,0.4169727783177977,0.051675870636000105,0.06060365337615589,0.06682598823025505,0.3592847373084296,-0.05500377158266548,0.12838206935724608,0.4367106483615335,0.3971413775943453,-0.6571060558039271,0.567898236403449,0.6613837315007929,-165.04706122843135,3.494707337358699,6.680801180120432,0.16689877381602433,0.08242829863443552,0.7823744759807516,0.47322350685582015,0.17376438727036028,0.30621439055204647,0.3170891481478476,0.73123705497792,0.6597991649971298,0.46411103827122263,0.6987284327465646,-347.5366847964713,12.018205782327067,8.177873430700249,-0.028934079007522734,0.025039163268582187,0.12004165998373659,0.591710456543504,0.3040187682341629,0.8535682035148797,-0.2512685830498126,-0.40808530065365695,-0.493033287653378,-0.5697567061848218
0.56,-37.060978631866206,82.75410594384552,25.32269982411938,0.22418873380069226,0.016028161713626577,-0.01546940927058511,-0.0330392440019227,0.11391221860753634,0.142859824151844,0.47238541746230356,0.32214580040421803,-0.561317121906138,0.36967436221808386,0.4240542183457948,-4.630644069015519,88.58039751408866,0.42365542659246674,-0.010709165325224307,0.08104471023487753,0.03451422353798593,0.34581216202273973,0.07070428769383354,0.031354945299592006,0.5016347766974386,0.47383241608950877,-0.35948766415380384,0.6349394680319174,0.5361231544557522,-165.59201905236006,3.721607978553475,6.335429442244479,0.23894689766498692,-0.007417797750880443,0.5174659118768353,0.027326212186410712,0.5448349930993459,0.5239385406209729,0.6359360960625734,0.640450832553338,0.4042495866046876,0.6729122558529912,0.5114383968698774,-347.4360496955321,11.888386249906905,7.933655302968762,0.07106871093256481,0.10784949184622655,0.10179938448437235,0.2591056518249212,0.4312436190083203,0.14832611039308485,-0.4020711576713555,-0.4671957143754343,-0.6186348860770341,-0.4206423806666105
0.57,-36.97685712758417,82.84621189843968,24.95552832877845,0.012296220417320668,0.1611821292676759,-0.11477009032104414,-0.07959817377940864,0.06221128988861269,0.014250572314107451,0.6573595335877667,0.635019014810414,-0.3696309131761001,0.6449644200855774,0.5966012373167936,-4.842354848713108,88.51709749156147,0.46389344302306756,0.08169208823783145,0.07352830398534607,-0.025274212927158396,0.3053848611338426,-0.010984402572123617,-0.27231828536658703,0.3415945389359364,0.5367404629755512,-0.6096560689749363,0.5700993541557638,0.6468647208001688,-165.96121875967265,3.4484421700699714,6.308142854639795,0.13631143456368522,0.007415710480922825,0.5511013907790691,0.3166476213940369,0.43989828018171134,0.5545530668024427,0.3283454901855639,0.5668592801935161,0.43334488819495426,0.4970217962301421,0.7209194992559707,-347.7057514101326,11.783655547379752,7.934511368929918,0.2977449897588367,0.0567247587024942,0.0653684950133576,0.17092417627330042,0.26603905073666145,-0.08305476620846564,-0.33822227781705466,-0.5455190298683139,-0.6422422275557726,-0.7286989232114187
0.58,-36.93034822499755,82.62092740158407,24.587777809063603,-0.08420801009006648,0.18573092481062708,0.00956684464528783,-0.03704271970170077,-0.07803310955695121,-0.006423290592194684,0.5413934498537794,0.5578160175074897,-0.495454029083224,0.45376254002624233,0.5670752165127058,-4.847720485406157,88.3756630764145,0.50363686376709,0.04719422256752291,0.2459872901529977,-0.0496014852288815,0.3281533314295262,0.16531512028171674,0.026830866752797285,0.4739917236117366,0.3134419093721342,-0.6522935998252881,0.35734043097831214,0.5434240590842491,-166.53008662222624,3.584000389726363,5.557294426293797,0.17276100444149445,-0.07538504153902756,0.011729439163794653,0.8573131214115163,1.0199860071475,0.427167744063055,0.46023014530740247,0.7104001706895354,0.6047005354309736,0.5687531359327274,0.5741788070873411,-347.5245504816691,11.43660649976223,7.710738726776251,0.04309929033453758,0.2150334103182678,0.13169952696544626,0.032967545698664474,0.8236500167745607,0.6439336303497247,-0.4987890105352575,-0.43266145154120794,-0.5001018061898352,-0.3941103898761468
0.59,-36.91764268934895,82.63084938087658,24.381004353544732,0.10243939529735402,0.036760668319540085,0.031148690886273527,0.2543504606483401,0.23612027690026582,0.03402493057553305,0.6691576811566983,0.3676023696677442,-0.49866862949594465,0.2778408844283277,0.6824225493088885,-4.6856622866227555,88.27878512800713,0.573764678179361,-0.07731469713603016,0.027613633134270288,0.0033716731759805205,0.4066985720513851,0.01607141291810909,-0.10057077653774735,0.6940152598243593,0.4183887592166058,-0.6911941110055235,0.7137904758269907,0.6842299509188714,-165.92583436788735,3.568679238754959,5.595560014835537,0.2882339499490632,0.1139139702277093,0.48974830058583296,0.5962175536434033,0.8794630564156872,0.2516789982233899,0.42769326787081186,0.602101978589548,0.38040806411419636,0.4065191068854676,0.5917973110147475,-347.3942800701994,11.447527006811441,7.6188232721954545,0.12628971750493262,0.15696869785050643,0.08217886042180897,0.05696756915040268,0.2570412180453958,1.4118884199219486,-0.39904633143864837,-0.4785684712793819,-0.48959072979625695,-0.47023566501212405
0.6,-36.944267628972,82.88759172643054,24.450808917200046,0.10464950547622742,-0.03721941584668127,-0.03899128916350185,0.11005242909191357,0.15389125620465838,0.2969040964961106,0.5898350238615105,0.6685640984935995,-0.547836306883677,0.46997158985540044,0.5114753029596744,-4.827227824477769,88.27209481903051,0.453651051681961,0.04745163750863253,0.16727215939806556,-0.12880800574443985,0.32247286383747575,0.18551045920056997,0.271505705656942,0.5163131295879929,0.5958725311501969,-0.5535714031083069,0.3965055351800728,0.6464881347092122,-164.9643119930836,3.7552510790088167,5.453258920345747,0.28136185608502323,0.24046749211530846,0.6707318353322899,0.0653742904754195,0.14557236253291453,0.41013966567601906,0.4341326300113277,0.6984778047289373,0.6081650792941273,0.6637389536449213,0.6680989489569141,-347.144928473053,11.446551914944566,7.505351359870579,-0.05030533817165794,-0.026093246993541597,0.35026677180328086,0.40627924542406085,0.18328306286186563,0.5960779819504437,-0.4912243998342397,-0.7215759680109367,-0.6440200486216847,-0.45490022490944104
0.61,-36.58358448175337,82.57905013702283,24.526068202148835,0.01715517163517094,-0.10322752957518677,-0.17483292743487389,0.36134701933303504,0.05550411995548093,-0.08686014332243698,0.4426991210724967,0.6428584379459028,-0.4814045249079527,0.4109137961101734,0.6103108159070175,-4.813308064656284,88.0270197757693,0.2990795275285498,0.2122966401893079,0.13229048123699072,-0.07820552169729257,0.4428257788363135,-0.07787426888261367,0.19584638540269886,0.5809716199291093,0.743055366594614,-0.5923036013230287,0.479277490028604,0.68165140196209,-164.3237227603889,3.8450825271183113,5.033480073503342,0.26616530967812424,0.43557438677652965,0.7738063963264523,0.04787747769362383,0.6912172105992587,0.7107558715397069,0.3776685394447191,0.6636712237869871,0.6318176739133099,0.5811677536298141,0.51539971433698,-346.591938456394,11.39332354403923,7.186931621290843,0.09678395292092683,0.012504668304598877,0.6271952891810877,-0.14788711808223956,0.22062475936924636,0.6878315982645882,-0.523819022296903,-0.5235392261171165,-0.6372833833493686,-0.4697936499003757
0.62,-36.615773399494664,83.0268238173379,24.33261603338433,0.17080253253476968,-0.03603419982206102,0.03506619469763245,0.24406283010708613,0.2604568992778209,0.16732245820113384,0.46246327737971393,0.42674099472880134,-0.41844497468597175,0.291420651765504,0.5791286692633081,-5.04321612733724,88.07814907163154,0.19403649540675488,0.03104357400468112,0.33892972212662004,-0.1294840093424522,0.4607634118684697,0.24982697106723223,0.22345339846592088,0.5372429018532752,0.3772015220403331,-0.5486450492027201,0.4763309207861469,0.722120939125338,-164.04503495380442,3.85113235950184,4.870382723423797,0.08653610573899635,0.14662200054003993,0.45611433808718305,0.09999883250939878,0.6962988908566125,0.3376833188549655,0.2541767122180873,0.6398294818307271,0.42676322444710313,0.5995564162790262,0.7134776033553123,-345.6201951328339,11.362271175754818,7.041824798288711,0.13955282923377862,0.03959193677099965,0.6902055935414588,0.37888908730299076,0.290401036999346,0.30573569768064857,-0.38571523559405185,-0.5219551010960573,-0.5186884546837189,-0.5274219160804591
0.63,-36.47310828551775,83.0417127383387,24.493682184567415,0.06944195069538432,-0.05336421835381859,-0.18541781658748557,0.27745372982141314,0.48485783255013537,-0.21666978301496423,0.33383541539537653,0.365846120659026,-0.6517012848964061,0.43596884193676294,0.5694735392520588,-5.052276563496696,88.00126910892772,0.1903335334452997,-0.13999070656155937,0.20908327277355085,0.061721177394569005,0.4509514840114209,0.06178493510392133,0.07341153488222724,0.5964364914877676,0.32356858090879664,-0.5793205836035484,0.5210396559916377,0.696109840514258,-163.60932851385013,3.9546384002461252,4.812694105497876,0.06686803645980116,-0.03145134944397957,0.13651002019695813,0.34075360405562893,0.2035479937861837,0.5061436253078383,0.5133585542070408,0.6052628339644899,0.5334500774644937,0.5757067741572195,0.6802834090501221,-344.5514673380344,11.441212465067157,6.727026733809745,0.03700552008677796,0.1017460069531693,1.1422784297169568,0.32232932344295473,-0.031023438619069296,0.24394789286941113,-0.5087457789830144,-0.42201700470759723,-0.5341391352556156,-0.44135419844611806
0.64,-36.749637154178096,82.84186573164644,24.406220148115164,-0.11637437383532331,-0.017974824971192654,0.11733642386552338,0.14348630532879864,0.05683501114545789,0.016343034675456197,0.4467735348153931,0.4545803525887261,-0.43657470329228815,0.5895382364087218,0.6132670225515828,-4.883741783936163,87.74825676962966,0.5778201672844623,-0.07527279367732484,0.284257726709316,0.09543238943403627,0.5829559581018565,-0.09056930189929331,0.18877015700048322,0.5274431722884024,0.38172393342924693,-0.5703682434204552,0.4241473677227222,0.6698755018333258,-163.51600900790723,3.9345544965269594,4.769266631907157,0.17061961951355425,0.23658396873729307,0.04864396310731264,0.3737004084157042,0.8441945234150504,0.8841455361462524,0.30726742083881214,0.5481137636395114,0.44440444988989297,0.4323267265334711,0.7596908681072653,-343.1149996053679,11.453788243817987,6.400317195535096,0.07531619715521112,0.11236080686915231,1.3606223202548884,0.13483924503839445,0.6854547793854976,0.5047607491787713,-0.44345098317758497,-0.49818030666187174,-0.6238923347669645,-0.3470589512954162
0.65,-36.70066398323645,83.28090834947875,24.649974266036914,-0.1625916263514515,0.13299365368693372,0.04660723855860942,0.12912083526219262,0.04145698131516973,0.10174368586862835,0.5534551874415304,0.5293766557742277,-0.6622120137026519,0.4808343171326678,0.6925057108699826,-5.004562954728697,87.56821490738852,0.35303754203029153,0.1398637199917635,0.2419291998822662,-0.1796926301909439,0.38889075872141987,-0.1204444610419372,0.16446403838808962,0.49213690829334306,0.5512412538744978,-0.3871902541382924,0.46655891200474575,0.6699622116532873,-163.04688547958543,3.990780330996691,4.888745063432129,0.16605159196933222,0.13086419382155565,0.24030949085455772,0.24249651216181067,0.9041931711172779,0.7771320526944034,0.5204122125376154,0.5844107290902658,0.49150588734507356,0.4143091020251307,0.6564397496536155,-341.9446198185265,11.460599008913352,6.125710324182305,-0.040460664083561845,0.32643665061749083,0.9936440512587834,0.13680551143313263,0.6295871586313312,0.968072885599975,-0.4442244294153485,-0.5726843508844114,-0.5389181458689407,-0.45433229473868314
0.66,-36.809268052557606,83.5363241171039,24.477745797112004,0.11083739433295337,0.12452835151464811,-0.08932625869901219,0.19439914490057483,0.21020347188855187,0.16777979775090607,0.5778409677387497,0.5360169314346338,-0.4759218514156023,0.4163783837696972,0.6566810055585374,-4.909374894589313,87.22709743819249,0.308731156193887,0.1447390731667771,0.2272648850793425,-0.039665236612252616,0.4006518154128261,0.07485984027645405,0.2642120215337866,0.383958491150852,0.46767044065903673,-0.49251033924665055,0.5325893542538936,0.7478168819295239,-162.68749324634211,4.184690361311181,4.6688328502448115,0.03241762239659151,-0.11897007740706983,0.16269890753085176,0.32835386731105326,0.5846833967936915,0.5888965210050243,0.42615452772541523,0.5904950822914741,0.5227963677008965,0.44865470754290815,0.5985273045089429,-341.2962812189791,11.660901880949638,5.966550884143848,0.04864997549575052,0.05283376341345084,0.6601541116430008,0.4161005048634575,0.9153792482826056,0.473642911306577,-0.22291784291595196,-0.5039269670279994,-0.6064135255981459,-0.40829922465260793
0.67,-36.70379958142337,83.49097294306058,24.40655755768752,-0.09442673608936752,-0.05331409337332946,0.12809916239818314,0.17630189914357247,0.0405684209617764,0.09935905739582732,0.5421264962747011,0.6137978486118993,-0.5557370313331723,0.40124785864549334,0.4805344308430452,-5.218919761155822,86.9047040603663,0.5539880488221547,0.1173627788891721,0.26938617020591027,0.0905315246084049,0.24321669892446351,0.03616541860187701,0.29532272161934997,0.496950129099863,0.6806119677330678,-0.48395153716219336,0.5573249047573888,0.6861539414695246,-162.8658429507087,3.992370204763052,4.776221536566007,0.01754396296883598,0.15041583003203848,0.0712736267755579,-0.03885683933618121,0.49072262462847077,0.5404444506567675,0.3037513280192454,0.8208570642183253,0.4172268337939766,0.591247727417168,0.7578700118397315,-340.881179581567,11.216111356921928,5.967087920724403,0.13517983570417172,0.006783245477102767,0.281336771210777,0.17881975734025965,0.5241281509452975,0.48818707207087386,-0.3688989234539419,-0.5923913779905795,-0.6196293441728395,-0.5800688954322787
0.68,-36.773225472629576,83.11938015242448,24.52977497960803,-0.06382204139367235,-0.02212020707077466,0.025076399397868807,0.1208771692491493,0.1908027467015519,0.21832630602044176,0.42857697280198603,0.4955645746518895,-0.3933236449305501,0.47441190535273314,0.7932499550693289,-5.219459642527301,86.77211797964343,0.47909655198852785,0.27161545540892695,0.27789244850468664,-0.04193785335009161,0.027955727393167262,0.10545177572188363,0.14983589403010997,0.5358787188995036,0.4658813068303468,-0.49657334880572634,0.5177277867446594,0.7981943865699376,-163.58985926952536,4.319825676616449,4.533324280283034,0.047195958814210334,0.01581392381215887,0.18897917795045363,0.3247167453726744,0.20077784019319683,0.5406055002496523,0.3071487322520958,0.6609358979958055,0.5279500731766223,0.5082592495307822,0.5864584190838411,-340.864624969574,11.190777131456448,5.884206565883431,0.027522440726867298,0.1330570049121048,0.1963986500150397,0.09405813805565977,0.5507568773587038,0.34171891532397686,-0.5985632231715357,-0.48301469730055446,-0.5219866455554849,-0.45083735451421425
0.69,-36.932626189872636,83.18518539899667,24.544584783694972,0.0074420617791980705,0.02642369201043497,-0.030857420549028253,0.011846209631620794,0.1097545644648587,0.08290879051386822,0.5683033159565949,0.5737049084306279,-0.3707082486183191,0.5363324496607037,0.7617543139785711,-5.544701151809623,86.33943640088091,0.5369852801325585,0.023117362060354696,0.3904046756951442,0.07942249429015992,0.47824571567606794,-0.01572981952682661,0.22660416767873093,0.47063166245564286,0.6734770735067579,-0.6286556763412223,0.46762852984702324,0.7015029690273946,-164.1756544672503,4.1812781162355055,4.779534344271458,0.046101940419773266,0.1376577641482984,0.6089746327712915,0.4740353031550639,0.08483812812130945,0.5072850496088149,0.33950483440036044,0.6985996263637473,0.4259163537684487,0.5706436605354934,0.6319054889434643,-340.5294113769293,11.18573213684362,5.971620755200892,0.3304281356430048,0.32578572175895887,0.1885325641730663,0.010913917667598527,0.27513524306284376,0.3291352103580687,-0.35811122566550163,-0.6041702052898151,-0.7716870303820272,-0.46416146201013286
0.7,-37.04517350876824,83.25190380047947,24.65575443369483,-0.01123385859984735,-0.09816635330021063,-0.02359852658687902,-0.11722775515012725,-0.11093268022106245,0.0399888373007161,0.5674137223781529,0.4922916309518264,-0.46359477014958217,0.4062786378282077,0.5442128338258809,-5.249610101659383,86.1738402850388,0.46132420107768607,0.08022312740987858,0.25483478311534125,-0.10654720754296622,0.5699837401576198,0.0916816091755846,0.21648952663942947,0.3811667111012865,0.42108891859066594,-0.36357833611297546,0.33549524126057584,0.8256585926819601,-164.7318014141456,4.016181128472234,4.796818230562111,0.093949039069164,0.04083299353357133,0.5343038063807622,0.7023250704646481,0.16892473044453452,0.3423444960998524,0.4294160383345679,0.434841598893166,0.30293741910665534,0.5361636368662989,0.779469000296902,-340.2475013528043,10.710086887066401,6.148560180895002,0.23399619150466897,0.33209792965806595,-0.02847226725329144,0.13174946592439854,0.1777262599137444,0.007281101134006929,-0.3947862084866833,-0.5056367689714056,-0.6615147722819998,-0.3597028370549954
0.71,-36.88724948492065,83.19303646020511,24.634655799862976,0.023579872485284193,-0.018371738459656575,-0.02796003507937872,0.27526751094933954,-0.09493559259522734,0.14261666107279655,0.4441919051069382,0.4981080988610981,-0.641149149105801,0.6352368995587596,0.7172407254963877,-5.363554555892538,85.8164557162818,0.5257398207337954,0.10873330132090181,0.39471139761232066,-0.15366678809847303,0.8385335277524797,0.006714968906488941,0.3197086504245823,0.5208315305657687,0.5322310961556805,-0.590273673498503,0.6650375051512266,0.7521807269514148,-165.25821619579202,4.041493946664532,4.714621650394652,0.2684096330487171,-0.06761674170286058,0.34856695162792894,0.7004903626019122,0.1329715776963998,0.46896882854732236,0.5680334986917921,0.5475374863497121,0.4791026870327912,0.55375472911902,0.8011352686530062,-339.9294260251646,10.114175959080805,6.371187272169297,0.1540233692058743,0.10166370031318311,0.02350186498742883,0.28679358975811214,-0.07842611259997931,0.01219157855257394,-0.4106427355105181,-0.5028113277426195,-0.7243215095935791,-0.521678842305158
0.72,-36.953154853756466,83.18635543016087,24.62531393029831,-0.11259835837812546,-0.016248360831473643,0.03389731829415765,0.2686639066798207,0.18775182574361032,0.5024292739898437,0.5161347498370887,0.38872121878032184,-0.2789312253563224,0.5551551694652146,0.7442601735342591,-5.713319999989467,85.54306287696524,0.49266097036373846,0.11614631008667667,0.34730571476089733,-0.15173809505891908,0.9935140913683098,0.07924856830233616,0.1541866967497984,0.4437506222398561,0.5600292834209026,-0.5713325910648572,0.4397746981281539,0.6274950490099819,-165.43306084369496,4.113406820041911,4.91681696599386,0.22489230483763312,-0.009104509799875538,0.08832085807504278,0.2597600063479123,0.31471369213171496,0.16307836275507825,0.43354539826741,0.540007964659062,0.3991594358482552,0.520912245659977,0.8670730035057292,-339.7273920964575,10.019249377016582,6.690939513531132,0.0808448171251332,0.0020901356701827356,0.08695314155137704,0.5328121242376003,0.5781820856879104,0.2913529707369746,-0.37222018497313397,-0.5254850794101398,-0.5782087960653883,-0.5378621486082039
0.73,-37.14695931161439,83.15914947533253,24.63333656463698,-0.08647743861892912,0.09148292230399957,-0.021105862579268928,0.2292307904164979,0.22723115092176718,0.5107535518379142,0.3382556202962379,0.353453097760022,-0.53145941798646,0.4675717366948879,0.8580917445868428,-5.69881058134088,84.99670122413808,0.42125620377634,0.057600352304571834,0.41918128825083634,-0.029553772841844114,1.249827281820235,0.03840827911780724,0.447845596997552,0.4638535025143715,0.6316131085825799,-0.5668012588449111,0.486136302496148,0.6935639931583354,-165.47817637628694,4.1912398495526055,4.892232102472461,-0.01372241951766316,0.028308148455281963,-0.054037698359634755,0.13213189469962938,0.858746036179215,0.22030776006907793,0.44782481606303665,0.7368600193550958,0.6705298496153796,0.43207388335892916,0.865683328141649,-339.812749632999,9.866767561192917,6.731794488253329,0.24152129779446863,0.3221869738057179,0.28732198890578436,0.47055211669392166,0.24341217435141985,0.13574940771913646,-0.5377949071773552,-0.5962238263873296,-0.6265814545864208,-0.437158221713484
0.74,-37.52553833231898,83.37089231119354,24.813139294330774,0.2378560310149242,0.29019048609312054,-0.05555535241346067,0.1947579036272689,0.15423319372524047,0.4004687614550657,0.529461140113181,0.4683020283262657,-0.5459088658387214,0.48010255782738537,0.5799709384358167,-6.008917283070778,84.44456259316527,0.47595240441508385,0.1814710062643361,0.5101864891024755,-0.08848548159528545,0.9422596138422011,0.18764075946630188,0.14322254050647165,0.5436483194914755,0.41285291706350924,-0.502344176620604,0.5630346053476525,0.6388690496469835,-165.2298838721335,4.142779847723284,4.8624669573313914,0.03290926846640392,0.23030684142182317,0.20338050478549688,0.17251071458967518,1.2438072047408775,-0.04314398272684347,0.3534433928651662,0.5828964629479114,0.4891975716043725,0.4354712967271133,0.6407757348523457,-339.97087019872106,9.90734251931544,7.164621791236917,0.12506710151379544,0.017547074582695596,0.05488029626814226,0.3286511190832905,0.15474114042399606,0.12718637265163868,-0.30785757671900027,-0.6223756706212951,-0.5461835811804882,-0.3856705787869309
0.75,-37.67976661186377,83.85390863532348,25.0994090358908,0.1854780368842572,0.20700995158336877,0.187022263195456,0.3224524790296849,0.10564271406886719,0.48788502705204045,0.23580598952052495,0.513026913933383,-0.5535079403656248,0.5210103519894301,0.8096295946092441,-6.190866287605448,83.50107312765012,0.5023474846477975,0.07358056268817773,0.6449897387159685,0.26790117257079393,1.0733315029844857,0.08608333780985697,0.2605691566435774,0.3773343364383487,0.37841995527184724,-0.4762241200927186,0.4981969607831411,0.961213447897463,-164.48116863853042,4.33532802444585,4.512538229332994,0.025398504652576925,0.25724409651559943,0.2793455625613287,0.5673094086329664,2.059299996165201,0.66174624427793,0.44314566466880384,0.5283494805715158,0.4467742453066487,0.46167027876826633,0.8803286032471898,-339.9045970963541,9.69712441214669,7.296877076622276,0.4415604820874057,0.15914954353855426,0.23799240855779097,0.03797732256319104,0.30045945320653056,0.8502816030402636,-0.34121434758113234,-0.43120409487244793,-0.6813703366740376,-0.30163269300038154
0.76,-38.13452289274582,83.78028247124816,25.126583016030956,0.11780256593970526,0.08704762336015479,0.15620447743221602,0.3929613494817539,0.15782107416746766,0.3635340351647648,0.5654865973203683,0.5054617136977286,-0.7430015544999742,0.32484150014618773,0.7502022901562954,-6.12683472316819,82.74241150698867,0.4233784003212826,0.31985727607738984,0.6218651446947203,0.01575690990514477,1.1133736274862356,-0.22768738850418965,0.34924012414017563,0.3627118088205493,0.424189034139174,-0.5633352843538396,0.44490925997338854,0.7340396965183331,-164.86570245827997,4.139069081029266,4.456919152476044,0.1233505011589704,0.19223668618063522,0.3069813473246379,0.317690749960557,1.33308725215063,0.7513810366237662,0.4252642674861456,0.6635113873079858,0.4945195091782212,0.4968630863243753,0.8672543641515074,-339.81003112497507,9.650158703612684,7.402801698999649,0.1953397004150072,0.11009105240965794,0.17819217628335274,0.01941390373413257,0.9226343206252327,1.232926631177878,-0.48925751954064256,-0.5210833266922715,-0.5490182728991752,-0.5727944225145507
0.77,-38.79690772277293,84.10001778680862,25.346759736439683,0.14056410394514035,0.4140022805739972,-0.011324150335812883,1.0758283111295817,-0.035547836134557045,0.513978614058601,0.5927838721469009,0.603428949962493,-0.4207076574898646,0.5692014209260361,0.8838788414176372,-6.691355063752344,80.71879222520951,2.694589166931484,0.1024762951745169,0.9332873532004313,0.15619737709228562,1.3562516248901382,0.10983006421871835,-0.09680834170338379,0.5226628441402545,0.33268039859535486,-0.5295061167438848,0.3723157524197399,0.8248842957864592,-165.60532391277877,3.9641858033109267,4.074147547711755,0.23166656385187676,0.16416245607637836,0.6893522693432774,0.6645247293062211,0.4365845018283838,0.8432865519876368,0.47739616437468735,0.595132369061177,0.3666456456641702,0.5704601016555855,0.8356069344465701,-339.8167600931403,10.072884002346317,8.51867578143964,0.37676669142167246,0.42438329875093017,0.41579100977440214,0.29586982122742106,0.7705204739459449,1.2778788412071187,-0.2689248134466814,-0.48590120351333976,-0.4883358251082904,-0.2842639433688625
0.78,-38.946080462381126,84.38232995555136,25.529019890883703,0.17798983693086373,0.536501961621262,0.10564320923196294,1.0518937916256033,0.08684366631113888,0.012727103520050631,0.4350540609761839,0.46613538621116213,-0.5997012193521593,0.4402235266091704,0.9576852573572234,-7.058730698926981,79.702011004631,3.476202079903539,0.1289898597617304,0.9083158697121447,-0.02059189793559036,1.356469360908936,0.17399029214764739,0.24821464535764903,0.4536377529968706,0.42261160556898847,-0.6261876060902198,0.4692382721429625,0.7733574611047452,-166.46632709407973,3.8371576312468543,4.0851791711567245,0.036855935110109865,0.23136646072623762,0.7913417184537659,0.6139963203536964,0.3250787065746461,0.8251477007975588,0.4004620019799434,0.5047864985601425,0.5278899248724432,0.6658889316661459,0.6971784672247356,-340.019416387172,10.397786723142172,9.061077079863528,0.5195350119828105,0.4906758505552366,0.4408687826079034,0.2715422984010742,1.0932284885864332,1.769259047199924,-0.20413675562613298,-0.6269583424419909,-0.7612454512803483,-0.6800742430000157
0.79,-39.590350626560195,84.67872441329611,25.736272628785883,-0.00026778775421344714,0.7620631469845636,0.08476263206348662,1.0184361057548417,0.21824063243534225,0.2797778852110618,0.5050159280347248,0.641082867749215,-0.7061446285653261,0.48768428617781096,0.7275449427381443,-7.253368068976973,78.53984002146977,4.241382008938865,0.27376139000129,1.0070240086458513,0.1806684091079063,1.180857443919048,-0.030009623278714176,0.24025069668203314,0.35605475233977346,0.33968241665103,-0.4205565853805101,0.4741591681632639,0.9069614085284845,-167.32239293559508,3.786240173182003,3.912048151540585,0.10800195990842752,0.2716673635368124,0.937636572101493,0.6400088335662866,0.18911597859257298,1.0583909353381242,0.43466207764999854,0.3806990568734714,0.5581713652635175,0.6159544288057495,0.8354674741341029,-340.7773039449522,10.854656124587258,10.063935323031373,0.3836986839634926,0.5787953162741127,0.7707391756810453,0.7211703576787951,1.3739984889804266,0.8936881998596715,-0.5113308604271799,-0.6228093636949625,-0.6019776452719733,-0.24683456082711194
0.8,-39.65466931187225,85.00672513964517,25.85626283049912,0.16768303600907342,0.5739478634231852,-0.048127564250990254,0.6596335671542485,0.05538543578330156,0.3735694867380933,0.6289780506854132,0.4698885132596394,-0.5361948054163989,0.4334811569849347,0.900349938734473,-7.313409434748679,77.42058263345122,4.44313338850524,0.18366963141236686,1.2533287780558466,-0.02952580730881471,1.1569224449434488,0.11413343727591442,0.11977546463996742,0.45989893971912515,0.5255274896267244,-0.23786938635934418,0.4048587246481984,0.814763350570964,-168.54849777274467,3.4715890918763805,3.7798547440826558,-0.14356303045290159,0.5608750372753193,0.738011047024132,0.5105454033579113,1.08033226386034,0.7133189707137169,0.4191389403890684,0.7167503445533597,0.3552510279508029,0.5259992106809345,0.8577130707033461,-341.8117943836754,11.461297924346718,10.403013715070774,0.6296304981694709,0.47140988091669256,0.9417484487115267,0.9123884536942177,2.6801588783160795,0.6808506784026903,-0.5462451552988178,-0.40776585797524656,-0.5474268132066352,-0.4700869520480501
0.81,-39.75372140438143,85.52272247395213,25.751385788130367,0.043182217539615354,0.6274719950348745,-0.01985929530783034,0.8700783700884308,0.2318316777347327,0.677071937474035,0.4258638368656157,0.6491368502706643,-0.5319993117466697,0.49785431558386817,0.8319323162768598,-7.744940646418,75.95114767946629,4.938202566932895,0.028211481878383793,1.1776679676622595,0.13127360264198648,1.2856028037071248,0.312127434949304,0.07472971539695719,0.26333718877705437,0.39612174956118507,-0.32285710591574845,0.37917725306863576,0.8293481033071123,-169.05535224554632,3.107609130800161,3.5969581371811765,0.1499502351547205,0.41290780340194067,0.1866350172967049,0.40351690251669453,1.4971488434250984,0.7233626813651999,0.5398096637250044,0.559071104996055,0.6012405968012686,0.45354905941864954,1.0500956717951846,-342.2436810014654,11.51741784826703,11.25482833333573,0.5032992782163046,0.38312476654324945,0.4188963885905276,0.2936945289859032,0.3146088597877886,0.8780967283887589,-0.5019423612764381,-0.6194256341943322,-0.572248087319989,-0.6032192569811565
0.82,-39.89404684713371,85.37863003179278,25.80967516186264,0.09898742736359079,0.8894421333044977,0.006354658561062297,1.1589808347425672,0.2456549278328283,0.4928851714030207,0.4752494424373537,0.569350339737557,-0.5248564349439182,0.5595281218589792,0.9204370859320674,-7.806163977849125,74.84983039414684,5.406088854173339,0.03829394588078114,1.2957309853811552,0.0021403512934203943,1.729365684974425,0.2606211688028729,0.005900126418959914,0.5359929798108497,0.7312238080872775,-0.5049703167588547,0.4798402826181055,0.9736055535269884,-168.77882061606562,2.8733655491873376,3.2911434931167607,0.2149023856109981,0.15368254236399254,0.4743486415920469,0.09982551761186766,1.1198807685844048,0.5791491330184166,0.3898422181153053,0.4836056122592046,0.5358818061472722,0.40246389270469496,0.8122043480198835,-342.17597292056325,12.060441114746451,11.74565580476568,0.44067964971915646,0.418381747870968,0.6077689179287946,0.8972099656424233,2.0199764947782044,0.6775143027954187,-0.4661624342166631,-0.5436295030899091,-0.5589232522394142,-0.5805334020556956
0.83,-40.29008486985298,85.57194092062778,25.901393276837627,0.13256150658270366,0.9650171181176942,-0.03468858191088627,0.7570969894834662,0.1943746434172957,0.24058483278865656,0.643802400242732,0.43179287424875434,-0.4242636194364827,0.39701141121983285,0.9023372347002008,-7.883780521701884,73.99357166330418,5.566995300292229,0.224360497690122,1.1768239864979686,0.07707078682825337,1.5759862785940597,0.3521864402138802,0.26554818090765453,0.37474791297699117,0.5132616172605288,-0.36997628414751677,0.5963364056826141,0.9261215831984129,-167.80273707516153,2.8295972223681165,3.1671083844119,0.44950694116446055,0.11641000387530502,0.9028411773904294,0.26233000968837655,1.7567747180117608,1.0055196142135758,0.2726974966671116,0.43646583396001803,0.4570662312775567,0.5701661292283174,0.9342769651261017,-341.506708841299,12.514139277972312,12.40757001342485,0.3680289185547844,0.19897059641170076,0.35012065881454946,0.1909586354365266,1.9064856469064777,0.8574521880611897,-0.39095730738875245,-0.46634122642990977,-0.525228784711508,-0.41963634851181536
0.84,-40.217859609939715,85.80030544802638,25.63617355852665,0.2175692199810566,0.8557167717065565,-0.1032528772289877,0.10188556658035057,0.03809799384443434,0.10826465327720947,0.6029661079506609,0.47346859130520574,-0.532188175178259,0.6351527927647006,0.8338926975767502,-8.079973719468237,72.71232829748803,6.004851578347546,0.10709495905594502,1.264208948755193,0.2529817206121074,1.3947261297971911,0.2668110211872103,0.7091468382456257,0.6500904862896733,0.5133176165427025,-0.39068930401650626,0.48559179424307275,1.0246698250772626,-166.62120890632906,2.2726689915728047,2.6112212219867788,0.34205560989162465,0.3004560418714483,0.6948648544980008,0.3966825714127476,2.552709363391915,0.5993604134106886,0.41000803540317965,0.6613507799749334,0.3841296982118705,0.2802023525609464,0.8941837439258912,-341.2027139529955,12.621949871536408,12.56713307322084,0.1378029740079071,0.1662145541690716,-0.0011515708999128849,0.038126380588413555,-0.03621304100241213,0.897546403391617,-0.5377553812779199,-0.4442603328395059,-0.5469332396470019,-0.42583071522398286
0.85,-40.60794034950918,85.5400128307403,25.88872960544528,0.26532012561989715,1.052451468548953,0.03550369917514688,0.9722401134628926,0.32166805552813854,0.43582493897225394,0.6420447637744978,0.5359837322695988,-0.4344024012143094,0.5511033126008241,1.0249643170516525,-8.313530820791605,71.34939605892372,6.2185712808275815,0.13127227178654755,1.1788534855057664,0.08949293940352497,1.1408009948146882,0.5167548690810111,0.81808857840147,0.4980381437627334,0.393386626928509,-0.3926055734325834,0.6263965689591273,1.0062855502277746,-166.1804626242585,2.078063635049736,2.0530536382751903,0.7441071069020925,0.3556451547442335,0.3665507691504117,0.38710973059691334,2.846912552377521,0.5157397811605823,0.4743045766120807,0.7402571389978613,0.2635665245325171,0.494127353840118,0.9121562632884572,-340.9676182844762,12.823291926295727,12.8806624296652,0.20043264533772578,0.19958153449452293,0.4512086781605283,0.31234775211958077,1.2086358344907169,1.3040272858904092,-0.4496992662140413,-0.38925103261151617,-0.5949543576504583,-0.4679926561735003
0.86,-41.01113491951991,85.30960947994653,25.5718796456794,0.2068506506130859,0.7631583896354002,-0.08901219037139295,0.6075994605553529,0.24324224453933715,0.24937150587552753,0.5711295796302523,0.6312637433031936,-0.5330001083297671,0.5631055691812417,0.8293775695846214,-8.605937782129617,70.07781802165987,6.218487057802046,0.010698196343723237,1.2336442084712034,-0.1744931562877213,1.1522195708233303,0.4187920599932773,1.197282120083923,0.4362729537923407,0.4666934087071899,-0.4167891700694722,0.4929326525151779,0.8179393946162976,-165.9508347558369,1.6081619908602147,1.4522416987858695,0.7234596842689719,0.5118313491524277,-0.06195187445431824,0.7146683758974353,2.0732945132351923,0.3596950070792583,0.23074290108202022,0.5774160068138623,0.4767593232792616,0.5020698516109714,0.9100176551190555,-340.2039995229657,13.374962906319771,13.086318686712929,0.48038600884080884,-0.06844866229316979,0.7115306576681822,0.3363791164696006,0.8276401410401841,1.3072813637357024,-0.482171702079319,-0.48352151563269236,-0.685977310381482,-0.6231141387435966
0.87,-41.356484165752896,84.90968488400036,25.988789788033866,0.1445161978164549,0.5451502851661065,0.06729389403737068,0.29916641510351166,0.19106211337764742,-0.15328614867768764,0.39294512853397245,0.386843322256477,-0.49001478864657283,0.29267831191663446,0.7617297767299782,-9.132168631407403,68.61664172617495,6.530006049001888,0.1900437439632443,1.283353462697377,-0.09427973804332851,0.9907565267614448,-0.005898710329435652,0.8533922785021442,0.4722083680845979,0.5590121779827322,-0.4539501527198319,0.4693256027511627,0.8735605720448428,-165.91402509886805,1.1798925915636624,0.8551919284705216,0.7040251246992554,0.5089898037848548,0.0882637857345179,0.14711855823277897,1.4773200568791152,0.6923526591384701,0.46248155520470824,0.6483787476127512,0.37063765600381005,0.5402709268965941,0.9765143160983217,-339.25771561607513,13.799873263932826,13.730805071082315,0.7522118112955909,0.05082468477747393,0.6550576592599033,0.16648699192879074,0.6927906978328408,1.4218580015231548,-0.5015841799867166,-0.6061996988978214,-0.6806563809346073,-0.2835515150593007
0.88,-41.29752645070184,84.54806276091144,25.9928045976233,0.12610135928599017,0.37200788292268056,0.15128001783239223,0.7580003421255905,0.2509316708229178,0.309385825804375,0.6517766707467602,0.4271236417540438,-0.5419422714668324,0.6907801265895251,0.830474287447975,-9.33817269259363,67.00964177116442,6.833328962956601,0.22493143021940712,1.635480681997325,0.12029393447011556,0.571673647859229,0.039376359007970665,0.9490759825355081,0.41490262642866804,0.33619296833078754,-0.516906793727052,0.22633206317510135,0.9669309796299779,-166.19983951899877,0.6137328475987912,0.18051947155357723,0.7430887335838103,0.6495745758925032,0.21467808291466134,0.21292732844232065,0.9684125903544157,0.3218547964312076,0.5605409553463641,0.5464004893430819,0.42475479941427535,0.4009174403502068,1.012756213864548,-338.28320911777024,14.296021002002083,14.192734370359267,0.6718637613677759,0.11661914016601799,0.9242838101391635,-0.00952315553068564,-0.1438624168041558,1.1040861327590576,-0.365675030899383,-0.5257502396778809,-0.5394392731760196,-0.48813233742837325
0.89,-41.636286482508744,84.57410806807437,25.736197275096835,0.04768587814345096,0.40137753999943093,0.06991584417491722,0.966977859371583,0.2177003664372559,0.46328898976519217,0.586911274814326,0.49623337431384545,-0.3408639754668428,0.3921867978898626,0.9468449447353088,-9.483105530095914,65.41331043313983,6.983133390321564,0.44352018328363996,1.2950620804707913,0.12405467548436164,0.10449890829257227,-0.06825909716325597,0.1721769022884536,0.2282455598456706,0.6771626012492671,-0.2544993717012478,0.2700524025893238,1.176586194688928,-166.22756336593707,0.6644255939099771,0.8877953270266401,0.814326013971139,0.5619259886808814,0.28332455698096815,0.3395555205581449,0.7368246854597108,0.7895767574907329,0.7079571078189428,0.6065473287619955,0.28895794347069426,0.48485579893843267,0.873507119652163,-337.0967378703071,15.063723375671456,14.91144243339156,0.7410626803451812,0.4070577649499039,0.8239175960403915,0.5913859863281576,0.30637290148128693,1.2134336610367729,-0.32025282090243584,-0.5549094905825582,-0.6750089398860765,-0.47976327726569246
0.9,-42.07357749353532,84.33505469374224,25.881493812419112,0.022572547530577386,0.5687453185659248,-0.11114694786475719,0.563714545232584,0.7584292772983598,1.3151194702595324,0.6877106842145237,0.44248069763766606,-0.520413225458873,0.5387439141912868,0.8896126249962467,-10.272096083921406,63.88191103990442,7.239251188064811,0.5566235362928093,1.1412290476041231,0.32054595591936935,0.5981207527484861,0.6344723987905347,0.30488105768778906,0.418560695729081,0.45030496513236723,-0.35040461557520763,0.4227813675003482,0.8834029170760914,-166.3876321199057,0.7287060611758774,1.8505902112643524,0.9147529564765073,0.5979367973886156,0.21556172303808546,0.02519427728495177,0.20538632438113463,0.9068519310816154,0.3795920818899227,0.5772170567913881,0.40799257918863585,0.5942104413040248,0.9559425545698796,-335.92231539934465,15.743113890804667,15.720668562286395,0.9069881321870334,0.3947879454039605,0.9961824058379523,1.5782455352475557,0.7800825760990556,1.3631204030201758,-0.41392477822876356,-0.6051809448642692,-0.5944153213631282,-0.5360392601897184
0.91,-42.22161869325116,83.4235870540607,25.97388306233106,0.08967955053234664,0.7266075712259215,-0.06171496747900312,0.2522745577551376,0.8402960607552575,0.8020398126015784,0.5897965657092707,0.5727791410537684,-0.4380995712903857,0.36682998011179413,0.8666088259827189,-10.86733939943843,62.665346946533326,7.196005961082089,0.22352817670262323,1.3442579795085619,0.30973375987633883,0.6709312754898,0.5485172690179915,0.16612689433868447,0.4603114288878891,0.5702951703910408,-0.3045581146400516,0.4293659711189114,0.8043477242863752,-166.4267331184023,1.5013208990635754,2.7961273308241053,0.7059894304283123,0.6499491686652359,-0.0021055020666607416,0.22385563917285087,0.5884454149058786,0.5664848992235908,0.43613049181371416,0.7277339389283792,0.3576951864692615,0.4182168320899263,0.9831867777272829,-334.8672216049902,16.58743507111454,16.464588755568524,0.9669469732568847,0.6821464128899755,1.0153625317574437,1.6697434592996183,0.7663245689379312,1.6758202973654845,-0.43408523761898926,-0.6214681968932386,-0.6460743038912483,-0.3066833830375858
0.92,-42.480178980682496,83.01496425785403,25.752477403024,0.304693434822524,0.8718204863662373,-0.05794006649289134,1.1225924314710993,0.06695211808832996,0.4856893568988554,0.45942686886829165,0.5837299396362711,-0.5935815494491457,0.4933390582133188,0.852890098647866,-10.885760842579499,61.216636325063064,7.39061119195159,0.11537801195998165,1.3420288549932795,0.2647124726739196,0.6562272224362566,0.13147751693166862,0.16603161687791346,0.3664977691821923,0.557237016904313,-0.2344747635511489,0.36533070957699676,0.9536203146070266,-166.2932019504434,2.2104579940685496,3.639280770519133,0.729251112001289,0.611025601914249,-0.09664148616642709,0.37520268503272963,0.3183332660874386,0.6268568221512437,0.5372417512690699,0.42412851356906484,0.6749114447836282,0.3882570052559983,0.956394321400422,-333.423023831954,17.587933977716734,17.63041112621181,1.1653590491716777,0.6932446251546301,1.0294602930244963,0.3115165397435529,0.2554137033556948,0.34467119269652796,-0.26437139130143816,-0.41879672307747084,-0.6376627675414844,-0.18963794464770647
0.93,-42.8395420213522,82.02772930419492,25.869775603442868,0.190372860429421,0.690727777391982,-0.08954189659365497,1.1509744442450704,0.14039095121300862,0.6143173911994066,0.46195588412176186,0.42542284438131306,-0.48756451521480887,0.6099985421456205,1.0397489812311695,-11.33515735294079,59.75090843706213,7.569128442143733,0.09432425437820195,1.1614567862864507,0.2571061657292154,1.2794059046319712,0.2622049625242218,0.2187007442442965,0.5824732804717649,0.5610600077502278,-0.5429485363045475,0.3924534863841309,1.015872453469072,-166.425297998071,3.0491390046064724,4.05869642442184,0.6571541707999125,0.8067026753034346,0.0590851477566348,0.6135378203930173,1.2493774366503336,1.1729587581064154,0.3706726614731431,0.5556644049375177,0.3980304744985002,0.49887720993655305,1.1088336236593124,-332.4664153641863,18.622718503500366,18.682391804953223,1.1925930701003848,0.6835482043792015,0.6043554054974054,0.038821853438347015,0.8610743670521698,0.869471582127044,-0.5240168456747099,-0.4597061506411296,-0.6768855291417043,-0.33997632139393347
0.94,-43.169502213356175,81.13584958798104,25.825422184082406,0.1727914707678633,0.8565615564601463,0.12324277418309121,1.0466267730269139,0.5019748329564725,0.9958139515282491,0.628252860634662,0.559736851205864,-0.5042515461630767,0.3065660685973579,0.880180748644873,-11.233167580512603,58.553411340071634,7.6201343749704895,-0.006565163758381218,1.180799901660468,0.03884112729006146,1.3016980784963599,0.23073805065832093,0.25890140247822263,0.5356362698754007,0.6149846730130104,-0.4494463736288034,0.586205584949091,0.8871732559430211,-166.1881478206634,4.142526148822431,5.037523081960999,0.6997400114967739,0.9182286002783469,0.16222367934407889,0.02445215342508808,0.2393647779989538,0.4266939056774958,0.44823711768898356,0.6269910003734556,0.5277327614497712,0.36389094658402066,1.0279921679728374,-331.61005719176774,19.70066019647339,19.954697516838966,1.2132833628652182,0.5163081171520236,0.9269385930211202,0.7683674150983476,1.146008637989212,1.702278618689376,-0.4211821662017532,-0.499890766259631,-0.5705786969880878,-0.41203540597653604
0.95,-43.500022412574566,80.4207223241877,27.84474982490675,0.07743970967304142,0.8851846697847957,-0.12201522622701369,0.4586985888534631,0.14651701941357947,1.3416528828950487,0.626574309229913,0.3359706889359484,-0.46817498467384877,0.49167103136222956,0.8214269099615521,-11.384375621154843,57.23131941176229,7.93706187579351,-0.034978459187824426,1.2301185074020744,0.19803619036932935,1.5964268521782998,0.004737404199342765,0.05080402407146054,0.27979330900304467,0.6394288947008551,-0.1582040473747585,0.42799770121449393,1.0900826145554923,-166.42178645227239,5.164056232681695,5.7876081806343675,0.636625004859324,1.0181989658225685,0.10492105638962287,0.5229860309401855,0.24909705031673163,0.4965805519887326,0.552018581170494,0.47468814404185594,0.42139585656794853,0.37783050232020043,1.1084220102766262,-330.6042638637665,20.533526296172656,21.25868803738735,1.4727300060082735,0.7777922170134942,0.9282549696589707,0.8135949567640656,0.6154396015181086,1.0792294622864322,-0.39143794528750225,-0.35157478448720514,-0.9405317300154328,-0.31728193390076753
0.96,-43.65727548679036,78.9302988160285,31.262393651241368,0.1505414838805847,0.7898471243172189,0.1924796788731499,0.6177812224861208,-0.09428934707815086,0.625508140478901,0.5538598814824802,0.6520969512306193,-0.5279289630495322,0.3384440907577113,0.9438277371634021,-11.035422709947293,55.23861315553799,8.316534097574761,0.16241781730485322,0.6328801095086161,0.011166284280391417,0.9359744892998845,0.10495317978236712,0.3055830513133776,0.4772627451755211,0.6046068087102822,-0.45389321293343726,0.44209967018927265,0.9813585595338661,-166.0057192977306,7.379875187288541,7.034744712437569,0.5057608864229208,0.8119554475264098,-0.14957512076231205,0.4267459696943867,0.5285348100896926,0.054960799569270476,0.3553186584098619,0.5071510967242764,0.6381641869840368,0.49619271697028783,0.9997739366894216,-327.66882502561464,23.13604606916749,23.761407833225107,1.142689543147768,0.6198397334383261,1.0213208958611126,1.2292214558871213,0.5785094088205074,1.2179452839293081,-0.44857218101375756,-0.31772945709055245,-0.8843305688331905,-0.28658833089811575
0.97,-44.06129279327429,78.12085195586977,32.26172229693203,0.060243057430970776,0.6898011208394983,0.11875041929212397,1.1155580864364492,0.05397191305626503,0.6656810024992605,0.41872185921210453,0.6506634808539778,-0.42998726729197656,0.4304209405212054,1.0303490688378547,-11.066134304057387,54.43027144340371,8.4545139814475,0.06266333837601426,0.691185490978227,0.32020913934130696,0.549405488004995,0.1477282935980366,0.22529593212954635,0.41039242184745456,0.3533161294011934,-0.28690038065271434,0.2367015399233855,1.0543051772833978,-165.95881747595632,8.355371545917953,7.503715146305134,0.5324693433005321,1.0638716740089598,0.3586504536148607,0.4604565869922328,0.7125093054553145,0.4381369930777063,0.38604591987223424,0.7796499004066821,0.5201642679535615,0.5263155203130522,1.0701622619622564,-326.6073282622132,24.057919299069553,24.986736498233693,1.4100990383229743,0.8219876575861278,0.6583265560671036,1.097190900182942,0.6748909247304213,0.7798063435922905,-0.4950815441091616,-0.4565051798111213,-0.526237165287309,-0.4120423080835143
0.98,-44.307248161319535,77.52802024130678,33.29771839389714,0.04831857609780113,0.6698277739976742,0.055386887299386775,1.2105277792519382,0.17525282112469176,0.8360707867983914,0.39236236177429656,0.37163907463204116,-0.45249305506546,0.45151083658721436,1.075828790528974,-11.136028049925704,53.687770560746536,8.525063364251558,0.09403391481731724,0.8440727100975767,-0.010372082740559167,0.8290063766250959,0.23740735857496648,0.8635515602675566,0.2955522112538891,0.6471038685675549,-0.3976342489594228,0.3246333824245843,0.9596059983687591,-165.86757622384155,9.50478605314282,7.805938877943885,0.2478937168773192,1.1498214978932788,0.07358441970362707,0.5401195625107246,0.15692254695163926,0.5942614957148976,0.4447334924333204,0.6549475264110425,0.3944134765826788,0.18478630573781912,1.0214995046996604,-325.74868103845006,25.283647968374943,26.469230614605372,1.3337328690415946,0.7977153578822062,0.8050535093813317,0.76455213330205,0.521038257062751,0.7447044653656455,-0.39488341840079966,-0.5528484498884936,-0.7925152240406325,-0.12867887975934342
0.99,-44.14461543435445,76.64967893962366,34.34317236539255,0.03710523658620851,0.5195341884948872,-0.10717437832293587,1.1138495109962325,0.25227771193047305,0.9800449744997111,0.6042020784850258,0.5917348191800971,-0.4385902681128585,0.37476970119776487,1.0498350590108232,-11.067067567551316,52.80214764752481,8.671773268167557,-0.08474367408367828,0.676711025385925,0.07887937483416008,0.7677659396785882,0.09030740547532107,0.7510124840353796,0.6161294139353863,0.5834640144667992,-0.27397320991236235,0.34182332360723394,0.9295512845068347,-165.9120007565293,10.611466668264823,8.231808818295718,0.23018760760277268,1.0730507024987592,0.17350389075331946,0.7208514110890603,0.4140427785034945,0.5170791974794643,0.5217764561820355,0.6054320424548603,0.5512581204671378,0.4033866266913697,0.9571626494701871,-324.81884125248314,26.448531517745074,27.997833054718093,1.639764148828235,0.7391107582272436,0.8653417459148176,0.31034975515016394,0.3322827616502042,0.5149903718789599,-0.42950713739869817,-0.4161402673135256,-0.6741862154713061,-0.033648066174128355
1.0,-44.339183973189364,76.07938383617494,35.493634146068864,0.081642234410639,0.7568953082541596,-0.006717821394558626,1.257240900078992,0.17794496261020082,0.8815490276473983,0.5643824562392932,0.6176484782673636,-0.4931679716729244,0.30552016731341514,0.9961519109076559,-11.125563926201172,52.53277845789283,8.693929880378205,0.06752550039634059,0.6904622789906759,-0.0789076603840724,0.7501383196050554,0.10652374083480654,0.6126690128807728,0.48559785606406347,0.6923316855296168,-0.37098793051522894,0.30657779983948447,1.0260894792063109,-165.87591967365952,11.812920464561994,8.42767271366811,0.12909303536467828,1.1369059317202204,-0.009293994255339444,0.6969525957955386,0.03415692820369164,0.26220377993156013,0.5096977336092238,0.6036156157357646,0.548208788638885,0.4131378157911527,0.8930201875530874,-323.3696570273841,27.420282963524173,29.33623622051178,1.3879519205577477,0.7918583475194119,1.0140678380256583,0.23213919977907332,0.06837232865462853,0.24703198942346116,-0.4589290881823583,-0.5408624816001824,-0.5443216931267033,-0.21734929853004692
1.01,-44.437934036341225,75.4701506528431,36.445610657381266,-0.010417432803248387,0.5805832632094133,0.1126200672258757,0.9818223008284553,0.2157375411213983,0.729331626001436,0.41267073940618937,0.5001320242398328,-0.5201199182895826,0.410006572031538,1.1626004113135204,-10.706721325787559,51.91917949327072,8.783347360028266,0.07779787654967762,0.391633511813863,-0.00956319458088687,0.6411651474127227,0.18920476770618533,0.27381919187916914,0.33100692317407043,0.4160351823561721,-0.2547812541070814,0.38748600333323613,1.2000082823307012,-166.29430036878597,12.71903133666211,8.556412908946488,0.06824704705911336,0.9710791387067941,0.3319250963834258,0.05529745125436265,0.15199583238346842,0.04284839016241722,0.5068090418711518,0.5445328917349563,0.5523769793894582,0.2852565234364861,1.0843034170209922,-322.93716268583324,28.99369226268901,30.859888018382353,1.3872392424196776,1.0242914903144296,0.7050508777233384,0.16549097698266974,1.5435300620148689,0.4533133108087534,-0.49218068553382543,-0.45371679420240074,-0.809237431942368,-0.27817332479733936
1.02,-44.470754384856136,74.96791377684167,36.983781111656526,0.05500458792794454,0.5343519973704484,0.0781047652660619,0.490984483081942,0.24525377159174477,0.6886902667720436,0.5577212051374166,0.40051899214122133,-0.4238652439919384,0.39082569449184257,1.225086304678274,-10.939491314322234,51.35589503691784,8.875186656001047,-0.19137415884097853,0.6443309479422694,-0.027042925047973974,1.1044962353162113,0.06965479512732718,0.2783996166077104,0.5326302101618843,0.7770284488564504,-0.4879100574469346,0.420056799550208,1.036995763735839,-166.76139198043825,13.91824867529383,8.542051366871414,-0.08148849326919119,1.1064267420014169,0.6341853591394347,0.016191057518345122,0.22053118125260948,0.11720508550197492,0.5026318139926877,0.504713058179729,0.5332623809269849,0.3081165638466258,0.975150123896955,-322.1503703395223,29.851459337374806,32.68283905292584,1.5063873544146997,1.0071089645679105,0.6353840212209463,0.2089282147841422,1.7967828595701647,0.25357982857017414,-0.4521271722219214,-0.35553537262624857,-0.7724192710677789,-0.038307769509864545
1.03,-44.600665953940435,74.38634185264469,37.33166884457058,0.0027137043097374552,0.19927711625331357,-0.0021144997647886583,0.2262869040128891,0.1197454019162725,1.1995386086010782,0.46098167744663865,0.48047664254936645,-0.48456429427620007,0.5555001279649033,1.081609325467053,-10.986342703641277,50.765745505162286,8.848924834560165,0.017270396818888645,0.31315028643370757,0.03556513990159752,1.1782636206481267,0.24192142073262274,0.23481571281152505,0.4830844829963477,0.6921448223201608,-0.36221870618773744,0.38721981129816074,1.211503121275052,-167.2866257106716,15.413709737725604,8.508941253374243,0.10173645702116275,1.0517345609690985,0.4908527700643357,0.5619430248544848,0.668290374278226,0.49606634644645287,0.35504580636240773,0.5741594681854308,0.5102737540630421,0.5145683598188434,1.2258649771273273,-321.5481526020623,30.770039263974798,33.48659677298283,1.5316749868186599,0.9892953075643871,0.748131894024108,0.6900064006813846,0.4711597507261597,0.05389782001477003,-0.38746933183948457,-0.5354035718708224,-0.8136311915765753,-0.008716195327805112
1.04,-44.61972426649819,74.33361139718203,37.883950553718066,-0.004206297828342531,0.1952008421124292,-0.04944083450100651,0.47121718122386985,0.13500548885540556,1.2847136437356426,0.38607285677216624,0.38555707614087303,-0.4389060585971247,0.4813101341696354,1.1614886224099819,-11.3660288104304,50.58850141950569,8.743912330327666,0.20709969233553024,0.14709077195704834,0.05244239102231352,0.763396040192339,-0.08438161256743973,0.6314262954937846,0.29479376081441316,0.776517359235801,-0.4400230767546518,0.18215976887512286,1.0929501036761775,-167.8591959160141,16.477920861684098,8.018339335383924,0.3074509675929383,1.0815345818250715,0.5992575091130741,0.9112304433301931,0.9575501145214095,0.7479185349424362,0.4753803500303546,0.572506476506636,0.37269417111332875,0.36305521687834547,1.238817294285853,-320.0144045517552,32.66133786295471,36.34456756789226,1.5088244176957808,1.1869570577415574,0.7569983870108635,0.6888215729780254,0.62962657011875,0.14986036201068237,-0.41580609126539075,-0.5525251106399987,-0.6969318507339071,-0.27736476998826876
1.05,-44.95633963143123,73.65995960141375,38.32786171567648,0.334397767153351,0.4735224304554361,0.0804803373772717,0.8683681938532769,0.40593934098229034,1.0872951742505435,0.5076473944421391,0.7305702666998805,-0.43672659988408874,0.2981898933199142,1.0622456308428345,-11.218370139460017,50.40068296691628,8.654207315187216,0.06316093638589489,0.15669800163875916,0.09154403223357614,0.2944434149085475,0.12869237886173038,0.7484602376955067,0.5124898784857177,0.5365441269421339,-0.19172616296268558,0.248208165732915,1.1074560776863585,-168.12944259636777,17.681222889048616,7.207404414839457,0.5756471316799764,0.9885400547255784,0.44429728277747005,0.5822541275177733,0.8107469030083954,0.7195462796379166,0.43458753951952894,0.6171591763025372,0.39282095620049395,0.3980604988089643,1.2716016332037334,-319.3048414864578,34.25748122487324,38.109866475352675,1.4157281982924637,1.2532290863722477,0.5480120308007473,0.37675417147080553,0.9569116121155817,0.11329907946694512,-0.3750423836289559,-0.47144354911799286,-0.683226196571701,-0.04170645402600332
1.06,-44.91424853521707,73.11363271612349,38.72350293702825,0.1506389235236813,0.44428479571714485,-0.03395880455401922,1.2428260021723474,0.4704098336232562,0.7748668489183904,0.5528206071994233,0.5205342527923223,-0.4644627365441579,0.3319398114300848,1.0860031173604572,-11.321174706648812,50.36207879842746,8.629791612413998,0.10264320438163622,0.22425773969081392,0.14018837689382435,0.46617954194219763,0.10230168598614015,0.5319586430022505,0.24103725859216968,0.4521614139031189,-0.21207991691230624,0.3068231927074476,1.2180878969280218,-168.5991467783682,18.983205030893775,6.479677448428617,0.6516012161597056,0.9867453485121341,0.49710049243697374,0.30967681236179645,0.6560755237319418,0.4013050330091364,0.41705789146892214,0.49363776182242125,0.5070113439018309,0.4460950723287838,1.1192268081921968,-318.9532497892634,35.6086766517185,40.3747515588995,1.390380335014622,1.7203494713844583,0.2858854387025266,0.019540498683566544,1.1780708087094693,0.5796030088702365,-0.3842218098125232,-0.3554806064921071,-0.8083351803863963,0.04820006043468082
1.07,-45.14750543869839,72.68470243604442,38.93400840633382,0.12148718498638239,0.30337093617670713,0.10123755961155931,0.49323610500137216,0.26939055949637913,0.4325236978343422,0.5254539580041933,0.4067467863274411,-0.32200365277169474,0.43973871843541723,0.9957726199904626,-11.420202835060747,50.06568611506795,8.724228456823669,0.06538606823274562,0.05989845470377089,0.0841585507320814,0.4239824247912685,0.20866153410484084,0.09634140307459765,0.270595969633294,0.5505535249461555,-0.19677933771155776,0.2395742195384885,1.0615284774626415,-169.50131536522665,20.236663068714545,5.191176928134053,0.9231484885686491,1.0813218523693917,0.8353943556532272,-0.16013457266573147,1.6855555070669959,0.2248416375057603,0.5907628507856943,0.6641518360000208,0.4425873317022058,0.433075278157843,1.0358043859403516,-318.73686745086366,36.73952487874054,42.18620147154629,1.543513612214344,1.1665147047984339,0.2624004182960382,0.6451611846748707,1.4544559772685215,0.7918522141506705,-0.5206997882356684,-0.530256558929063,-0.7310706188970649,0.07421853107299373
1.08,-45.182590808792085,72.5191124221587,39.34572198529607,0.04059863876746066,0.13482389821901114,0.1426923762428,0.6558097181685888,0.3351130908788441,0.615169909385755,0.4598324923983556,0.5029847664970746,-0.2613458605128771,0.3526480721843613,1.153786418150995,-11.296967840161752,49.953919703428205,8.690395821274457,0.24082025312657007,0.2960040382993333,-0.051912781532051776,0.6093205667483041,0.31797080031127706,0.42628592776830043,0.32669679456957446,0.5816265708407373,-0.16245143275854626,0.4310924395185823,1.1417068387984564,-169.77869455476971,21.393201657002667,3.831189269226878,1.0585158957177385,1.1473441418039325,0.5061792082990981,0.2593305224132715,1.5345746420316893,0.42394824535308395,0.6831936272698343,0.5229018392652258,0.4149153898226621,0.33935925489071717,1.3300174295381424,-317.7081389184905,38.46481416443272,44.27473384017963,1.4439226520027115,1.46168399616645,0.5329203705868333,0.2324935249753252,0.9221980785733676,0.39923292736626764,-0.530935821737115,-0.42133421222009143,-0.8792946475174703,0.007871774393408693
1.09,-45.25922799644789,72.06605497876653,39.63838171082387,0.08111875181787384,0.19841110873235174,0.052203353883940325,0.7678040308898606,-0.03588758103626144,0.7091853947131568,0.33753708582492037,0.5927971000208272,-0.3221323492492657,0.3178563477772268,1.2089201117086787,-10.901710064215406,49.899137797989724,8.77491393573126,0.009359928485477287,0.20679154781632958,0.10288467461182992,0.5041646893044465,0.2778836643355419,0.22094573451126198,0.35946056725663494,0.6784867760925162,-0.22974349440646524,0.1555058182989416,1.2998327561331382,-169.9129537823076,22.50554132868498,2.3241558884363744,1.1617954756423634,1.0397165703066809,0.3776464297008788,0.03840789544718268,0.8979128081192517,0.058551337999471584,0.5562672472748622,0.7804787685643894,0.4379700178126319,0.24430818474923943,1.2982743977253084,-316.68215673558495,40.205025708339384,46.54026648086568,1.4110222100109815,1.2953467088227322,0.8242193989200861,0.1518066219020971,0.23738898982175044,0.15216334852598354,-0.4724070800355625,-0.35556304115973675,-1.022104189623776,0.1572257591125361
1.1,-45.50967713215455,72.23483062863966,39.88490057634167,0.25375883155136914,-0.01655707699551305,0.1269195470638231,0.7640017173131117,0.04948934836227649,0.38303749375662843,0.5090419679765927,0.47972202513240875,-0.3490388930146658,0.587462230171184,1.1556198883575721,-10.45925788731514,50.10980445506233,9.213282397773083,0.01907326884638813,0.07883387141521048,-0.1283354155217402,0.3927949735510675,0.03482574858787865,0.07392484743028378,0.3915132143609139,0.5831410684524548,-0.34868977869070356,0.5233237731110263,1.184000214182593,-170.3722059078049,23.76843966126157,1.0104539416843248,1.3582194328702772,1.0953893541792978,0.2239036344453326,-0.047216932395377664,1.0628962299252904,0.18153115748925366,0.4260403085385391,0.696072674304364,0.20687300998636923,0.4217664421293908,1.0470393161723246,-315.69859468566807,41.72221549671029,48.399738825155495,1.2604146532643918,1.2365107921488399,0.8561602347006856,0.35686748975380117,0.16811732801495055,-0.10478098408022518,-0.5275276330899391,-0.24915994374877626,-0.6425308490821443,0.07807391337292682
1.11,-45.576802654748114,72.30437233868054,39.530419746507135,0.10005463047090274,0.10174668915610485,0.14061302226227582,0.42736087447893845,0.26530631263314364,0.8266132521570146,0.3744778790168841,0.5703206536448179,-0.4374873429924862,0.542461212579959,1.1816297621807548,-9.942413154145342,50.13673478896091,9.172906144142123,0.04444213530754239,-0.04131851468322532,0.04190519713400794,0.24085390628866066,0.14557584716005106,0.2283944671968212,0.23710055643631717,0.6777081096200395,-0.3112725241072509,0.32249458315637586,1.2899336145711628,-170.49202244425408,24.896029607528405,0.5409928517736797,1.169116100000445,1.038083094603212,0.30965171045174417,0.31747425305757226,0.8449890783935465,0.3042546682864735,0.6867701389607717,0.6651636883759731,0.3070443447309237,0.33115597023605553,1.2059827727828982,-314.8034834642141,43.316906883528844,50.37987092990481,1.414667914238155,1.2847772925975853,0.4697561581229894,0.3381240064312823,0.36704127470246717,-0.04703875952616665,-0.5227246444766036,-0.3887245286027444,-0.7601751878264078,0.072095414815151
