0.02,-30.045134761799883,83.92419842595,5.980722131426258,0.020284679553482,0.0027519386562168,-0.009434428928947,-136.54824145878453,84.69451761584317,176.5707041874912,0.0466151593887643,0.0038209269036973,0.0345289893876666,-172.0139285903015,3.310913832074515,6.450279993438562,0.0152950239853903,0.0022865119034998,0.0738410793169022,-155.2468027197319,14.18767067429419,6.726389363052187,0.0342947363595406,0.055957520782398,0.0602717816821336
0.03,-30.03690314391008,83.91327182201522,5.9987929138377005,0.0097065957065824,0.0013327374294324,0.0022058944000516,-136.49520418131073,84.68932385926496,176.55354422817484,0.0325508027367084,0.0183470670457956,0.0074524465153368,-171.93724703905724,3.3098032615869992,6.43461810934009,0.0214657799219901,0.0112564761541292,0.0620975298239676,-155.18476071145736,14.123955475485085,6.761585894717099,0.0350947487464984,0.0524456192602517,0.0110305021191968
0.04,-30.05360378227836,83.91536209195954,5.989998386903973,0.0153515804822552,-0.0119872629383343,-0.0131545774599345,-136.51708994559056,84.63586463894906,176.57629614352052,0.0399407937150288,0.0075092242263654,0.0090906956579677,-171.79611037955763,3.3109706601318707,6.411410801343799,0.0276493367206881,0.0041288034271223,0.094955662218071,-155.20233877860682,14.081612930910316,6.706056577655693,0.0076184700228678,0.0519963185410314,0.034758446805205
0.05,-30.05589709097581,83.93400198643462,6.019021821532031,0.0034793043631972,0.0139633088223405,0.0202309064305788,-136.47846069116505,84.65083947832493,176.60471584800703,0.0232540136295776,0.0379622525031798,0.0134513474577395,-171.7573440421823,3.3208382432890216,6.411870513042842,0.0201237795195595,-0.0095613036573596,0.0711264790355657,-155.19940726523618,13.998350099215529,6.7047486480255065,0.0185347829541813,0.0563981449075158,0.0530984827350414
0.06,-30.066032796034207,83.94267293304394,6.001940852911551,0.0136254672619906,0.0272579590953976,-0.0149477056475559,-136.4497536786679,84.68859005273471,176.63935770760705,0.0309172791246013,0.0447081184128845,0.0063503638663398,-171.682933732125,3.321252430821497,6.352012114492556,0.0239055643749442,-0.0015938212888125,0.0634620205609589,-155.25073021245277,13.921736950210272,6.606796487644025,0.0213667046627788,0.0464427127479748,0.0767142211364175
0.07,-30.03948411561541,83.94110936811433,5.983081531050641,0.0216489871825977,0.0235989790073228,-0.0047649655908292,-136.38111404299636,84.67105255766387,176.62596726852027,0.0228899022804713,-0.0008851786761066,0.0142068134964237,-171.54906551925322,3.294389388897509,6.3788087029601,0.0332916400039993,0.0210908632262582,0.0637824538609286,-155.31088037223876,13.93281664245151,6.613795043001362,0.0304191842691811,0.013631303230779,0.0630371513169478
0.08,-30.053201083842435,83.93778408880328,5.983659540523512,0.0275812683433562,0.0230644182558779,0.0155243745456921,-136.36624980598015,84.71245467458783,176.62309917298626,0.0164181067421939,0.032102496222296,0.0067041618993119,-171.4499023891767,3.3209551969249933,6.364406626730269,0.0002088563331135,0.0161817874793203,0.0838951667199563,-155.44136947121646,13.870746182930976,6.553877854975582,0.0465680039964144,0.0451628733169815,0.0863363718367592
0.09,-30.072378390105197,83.93345810337448,5.936411603492011,0.0141773533978259,0.0361653580029314,0.0378509930255303,-136.36866843844317,84.75049361006312,176.63294432379288,0.0581973687472902,0.0785557643674383,0.0141424913821741,-171.37715912777108,3.3051380115302043,6.380165228197543,0.0122723957684337,-0.0024217807168675,0.1153108391216345,-155.55436443915968,13.869124952229134,6.554096865808968,0.0531999358866411,0.0247384789077896,0.1213083307094691
0.1,-30.009087553020933,83.99666436272636,5.941660442371098,0.0244506167495016,0.013107648521878,0.0307081061599759,-136.4333302426398,84.7642740272504,176.61470343070727,0.0106571888006092,0.0047722380889276,0.0052047165155146,-171.17751134176527,3.351945640266931,6.365636045840763,-0.0007010156732313,0.0196970899927112,0.1541152945365758,-155.736991626791,13.799331140890407,6.558568858290371,0.0474627400539409,0.011709692882875,0.1608844912593113
0.11,-30.05008703305865,84.0007783941826,5.871668004661903,0.0416183006521787,0.0090266477089037,0.0140895635824858,-136.43323106289287,84.7479984439353,176.63155445743365,0.0042877242110459,0.0237934653292727,0.0147656177387365,-171.0084279889923,3.371266935493469,6.370306494729993,0.0310433747100768,0.0223388742255056,0.1948322941033725,-155.8623560724956,13.81577517359181,6.490391783227307,0.0584762056428485,-0.011589584248358,0.1185401094980867
0.12,-30.07237908269682,84.03941078713534,5.870665475647016,0.036606982665236,-0.001783312585144,0.0107222839602108,-136.4369180376001,84.80082933301203,176.6409308842587,0.0124749126536125,0.0848227230168665,0.0178151553445742,-170.89371645287082,3.413789594233649,6.39775358122685,0.0329059744849399,0.0112908825262746,0.1969852972282165,-155.93910471462198,13.83099265715778,6.508219104958729,0.0520294981789464,0.0138502149523345,0.101680035754186
0.13,-30.05888468338085,84.07079191207154,5.862876067127578,0.053510297719387,0.0022351613093643,0.0471899351719707,-136.4394615089334,84.81131412602544,176.62734772657515,0.0232531990846458,0.1552518195352567,-0.0018593714424671,-170.81594668845878,3.4442501633955294,6.448269999718138,0.0401949476815989,0.0415586288801691,0.1874828806995053,-156.01814100888885,13.814174385899683,6.49905125663904,0.0379363559369239,0.0075290594838416,0.0556281885645672
0.14,-30.10990713348381,84.133276792554,5.791356785523899,0.0528035240202105,0.0247356188849419,0.0214819251982844,-136.4257017385886,84.9090130148482,176.57954303203013,0.0068013135710219,0.1376228337775851,0.0228624179464568,-170.67222116894595,3.5130485071740973,6.438780359902831,0.0268939516458826,0.0378755961081288,0.1774171760875585,-156.06500909958234,13.816399803463325,6.447829884982254,0.0768815031012681,0.0048035870151567,0.0351236719240089
0.15,-30.107430905696752,84.13753662176566,5.795767955824078,0.0577428920771433,0.0014737356649475,0.028211018578041,-136.44448724252644,85.04845850670459,176.57705248766268,0.049494732767808,0.139744162093392,0.0036595453908247,-170.49979071778904,3.568111388495106,6.483678356089277,0.0313771951030786,0.0196688001623081,0.1085784898652112,-156.053866056382,13.866526218223491,6.440543752970656,0.0474311095809865,0.0412183785290328,0.0117582863030624
0.16,-30.203406680775892,84.1743223666284,5.751244970704517,0.0690196394846227,0.0138323828324422,0.0239950499352143,-136.47668027283896,85.17484702020253,176.5997311146281,0.0206054721295708,0.1612048706361332,0.001586338700404,-170.4283883824334,3.6086434138470262,6.489692237332055,0.0347520250793811,0.0716730503003722,0.0618078990313148,-156.1322533465641,13.872853342246527,6.372360856830417,0.0434256530900911,0.0153821002018073,-0.0002010019886904
0.17,-30.18577394419305,84.22398941646895,5.723529629821918,0.0420539891931645,0.0050962568741332,0.0444684390576251,-136.49841925801914,85.30200040926495,176.55568943318124,0.0168577529038874,0.1818891973750146,-0.0116632162027808,-170.40822572904864,3.7240971693928415,6.505758986120765,0.026094006788198,0.0876548504172618,0.0802416289763106,-156.1071854046426,13.92472416261058,6.316098305914378,0.0649845388964503,0.0196672429597047,0.0238065896771381
0.18,-30.18738329443592,84.23914531995595,5.668521629187035,0.0220261599501803,0.0024726662132236,0.0401439777731956,-136.49220738731384,85.44649268057893,176.5567382023734,0.0081217114511449,0.2063681672060414,-0.0055582053467656,-170.37014682757544,3.811222510063425,6.505781342726922,0.0327920392337351,0.12527232998982,0.0864879235840339,-156.05131059315457,13.923698543574805,6.309287802932579,0.0549607905745189,0.0108823131233555,0.0837123400513561
0.19,-30.203849444436,84.22054234285187,5.690914052334644,0.0169799648646321,0.029343489158851,0.01654349489243,-136.45045197311077,85.57120683439804,176.57149752147458,0.0099120488918627,0.2547084555103536,0.0228407383849074,-170.1993860646476,3.989798447492913,6.425968169778804,0.0688886667133057,0.1228871269024541,0.1801937715758293,-155.94065250728875,14.007175478181273,6.234709317239585,0.0572591297470812,0.0349919216827999,0.0898164588833475
0.2,-30.181054050440576,84.25913254646554,5.624081811728359,0.0099830997634369,0.0457144309708619,0.0182038375859588,-136.43680306875106,85.75257698942706,176.588971778653,0.0110472927125565,0.2946519473740108,0.0111672752829987,-169.8700823076812,4.111061214001553,6.304139944677988,0.1180645052191931,0.0560866439850605,0.3897831904334976,-155.8607888783722,14.049544771898566,6.212150580618047,0.0347574366938192,0.0280300180153344,0.1054233489038638
0.21,-30.240908512423644,84.2636847765945,5.627839804181058,0.0099357554191265,0.0430774398790934,0.0082684996866068,-136.4459505101696,85.87292488379882,176.57538380878043,0.0369501931820758,0.3450175925571942,0.0284664622843422,-169.4345915750411,4.256618563518311,6.1912466391455006,0.1214946291560015,0.0455492170619268,0.4105713690691931,-155.6897248622416,14.126669004280185,6.111356500266984,0.008940849616933,0.0633265765060436,0.1690963742978157
0.22,-30.261699794512843,84.29921785244689,5.614315961298759,0.0195777708504229,0.0548699730745403,0.0113110648104169,-136.3884850111281,86.05960945698554,176.50894278223993,0.0478914318783358,0.3823050939369057,0.0243280402132075,-169.01367171236473,4.363658023578156,6.0635969687305735,0.1563227405606795,0.0578184422680115,0.428380831023352,-155.49856385665137,14.182418657611631,6.0661651987505145,0.0183495079328059,0.0440367092229492,0.1995316647032779
0.23,-30.23254144491831,84.31459347530436,5.6265026437523815,0.0084132050428581,0.0803960761717902,0.0336546101056463,-136.32438432447444,86.25663569218342,176.513243755644,0.0775443008697926,0.5410324802067541,0.0393329404596626,-168.50441765784112,4.476503766101746,5.881767744906734,0.188438785985274,0.0751937896240408,0.4205251242414451,-155.24441130679762,14.324017090702965,5.99155480469422,0.0130362165765149,0.0290842363056394,0.2304327260657818
0.24,-30.29266539504202,84.27848006579744,5.656007941759436,0.0078448360353874,0.11173410381736,0.0203706439768446,-136.2967215519778,86.32139667094509,176.4894001661925,0.0580260102056908,0.5764730568158155,0.0526169545372504,-168.30833102879458,4.566485046651346,5.755523386513196,0.1794390630172278,0.0623150890052921,0.3848088955772774,-155.12513503748667,14.332726655718666,5.987163558476611,0.0140204059367231,0.0287968029200647,0.2525044487885168
0.25,-30.313592206851137,84.24502480276787,5.679422324861037,0.0122267159600884,0.147692094060027,0.0441428663620212,-136.26208049958518,86.37972651385721,176.4336931094872,0.0732871011969648,0.6157267209629635,0.036061115923962,-168.13492698328432,4.632248993636409,5.628817737933992,0.1578880779267246,0.0534402912676591,0.3611188025081365,-154.98310152930344,14.37026217593582,5.926044460451593,0.0248113135173557,0.0159653474711976,0.2580376927095858
0.26,-30.36886854896667,84.18298494589284,5.693535444123238,0.0192819930178326,0.1738893525519569,0.0714481098136475,-136.19386997439926,86.38425914340382,176.4294537199586,0.0063278605020511,0.7349789603460629,0.0617175920398,-167.69166011433498,4.74367027861189,5.378310352054241,0.1796400664646405,0.0842231447424577,0.3544238961681497,-154.7066101382146,14.437611344150689,5.867692613534244,0.0027614947455567,0.0406960853871761,0.2706384884771336
0.27,-30.435261260083685,84.13241009591422,5.60188716321455,0.0364742955618217,0.2208413691656233,0.0793862454975859,-136.19587854911006,86.18440124889794,176.50906616542483,0.0406038975097006,0.7920721322891522,0.0789991376537913,-167.3719102602681,4.876234915321599,5.179470627801679,0.1694105024586175,0.0934929901374667,0.2979049352571056,-154.3654033372301,14.49738565617705,5.863042779757267,0.0256101154472223,0.0574813575367673,0.2654954952918432
0.28,-30.46153781560312,83.99533047779389,5.561641449953567,0.072761405661307,0.2372430867570513,0.0841199017605151,-136.20894056584518,85.79956605506068,176.63724134984358,0.0146616234130656,0.908457830467375,0.0738251568490383,-167.07335435336597,4.953935929036171,5.034666524064066,0.1643544922668779,0.0711358289038034,0.2723868177230699,-154.11453149641946,14.564560010368142,5.811658419013381,0.0273853362370126,0.0512034847842555,0.2657053931429245
0.29,-30.51274678231281,83.87993885319244,5.505468732809569,0.107057620425214,0.282697938612614,0.0793431034566199,-136.25565239689098,85.10212827415347,176.67009706816629,0.0703639591656283,0.9976898919549342,0.077462959894331,-166.80411742390294,5.052485439277699,4.8501193140614935,0.1962883281948861,0.0514149589466039,0.2239856171696675,-153.93010569615447,14.622034220117342,5.811697813448939,0.0574292839595159,0.0498166379039786,0.22294505145679
0.3,-30.436560805146595,83.74659995876156,5.365724640019957,0.130899821917735,0.355187303946042,0.081300984233376,-136.21475301308055,84.14103390728694,176.81942159484842,0.0534712759050832,1.0773791158362511,0.1172930719560834,-166.68877157157323,5.072809493392064,4.741208760477581,0.2250013556249218,0.0149205901934668,0.2254302651588736,-153.6935091114339,14.69623361609151,5.744065803081676,0.0467674887313511,0.0169317991888363,0.2232202485887879
0.31,-30.44081289436751,83.55566969064547,5.304218754435209,0.1352796868657969,0.499192734383478,0.0717827878958489,-136.1662802473221,83.17674965957531,176.94181540083105,0.0300211973892922,1.1770612995758434,0.1304859347788993,-166.25487767679928,5.172050477618511,4.231041478886704,0.2444497965681649,0.0244795540006068,0.273884776337188,-153.4459861332117,14.696061065301308,5.74803564718527,0.0493922339554354,0.0245997115267358,0.1868705272379844
0.32,-30.445203084970835,83.24869876303694,5.24471040866701,0.1411314370658822,0.6659819071197511,0.0615745246806451,-136.0712817054437,82.0072983866686,176.94866263480353,0.0536290065356582,1.2653966295273982,0.1404513006766585,-165.809428375866,5.246184711304507,3.690489814955983,0.2876019975778584,0.0417602918836121,0.2445650100863623,-153.2463291168315,14.751798618799434,5.758014623283911,0.0495384719047515,0.0104920129216609,0.2103388023275563
0.33,-30.3808830265582,82.82175440501612,5.257999810042426,0.1792153032152501,0.7686984624195814,0.0553963687711095,-135.87659106764005,80.6131552802752,181.37967441582177,0.0808499836296114,1.356153164363232,0.1868581314638354,-165.4869460272442,5.203384513781256,3.3021369705597703,0.3264208082079949,0.092116904697619,0.2472076509900447,-153.00143710444186,14.755714679064656,5.76084290788928,0.0614790003295652,-0.0015680715524701,0.1732337108458615
0.34,-30.24952708160357,82.31300692790178,5.251114951274206,0.2939548814124598,0.8279374319601994,0.035570264346314,-135.67691251657374,79.17243358594716,185.0017633891393,0.0155791228821728,1.470517411843346,0.2062794402635127,-165.2349209162832,5.065354145298967,2.936537519796077,0.3246819425710829,0.1161870422204539,0.2032402466005963,-152.8183806943239,14.75208117414951,5.743471768419434,0.0469990057587875,-0.0081576605886077,0.1413207786089065
0.35,-30.044921024051277,81.63214247484906,11.116016307801416,0.2947112489754211,0.9706419938248076,0.0489099102757321,-135.31523024884595,77.56649144735904,187.99457572621256,0.1623642542900755,1.571426303796071,0.1911968947981865,-165.122417311738,4.931837001170586,2.563769682178344,0.3204042795358289,0.1697142154029219,0.1758051033264961,-152.69220343369483,14.689435804647085,5.74479594284602,0.0611258577232641,0.0334213264809827,0.1052677833849192
0.36,-30.008438452913364,81.19454073670927,14.01662571786876,0.2999392508155556,1.0689402568154225,0.0627353885385639,-135.0499773413171,76.65222516753839,189.1710570119625,0.2748107819474358,1.6280875609525058,0.2099157202039384,-165.0107580704503,4.858129885564082,2.384514958823156,0.3551914473996969,0.1658039173343458,0.1807019577433788,-152.61335808543777,14.713291923131507,5.75209360226148,0.063898314474568,0.0310616578283171,0.1120199250147575
0.37,-29.93090400369981,80.75729051900231,16.92786219659372,0.2847690319923071,1.1820470767751454,0.0821186539408597,-134.81057183280777,75.7400789398339,190.38344472390332,0.3648168639600208,1.6960761444931314,0.1868556482351129,-164.87536835005446,4.746113199531582,2.1970164244960086,0.3651553028043967,0.1608840195795569,0.192945228849297,-152.5322312490861,14.68853995769648,5.759940583377041,0.0577761033445748,0.0314670724627599,0.0913576710660306
0.38,-29.808800897311414,79.61660717787298,21.75814459272024,0.2853822591352417,1.2008622702245366,0.1000431157295815,-134.29556477015566,73.93229906329023,192.3829645065776,0.1995817698768575,1.643821600353473,0.2019917380990695,-164.6232789894256,4.559463114252335,1.6898710368988392,0.4259712458247911,0.1672904099830318,0.2718833759345849,-152.44625755706534,14.625309015854146,5.747294140665926,0.0339751280258066,0.0271848990101758,0.0957147571617183
0.39,-29.74028566112759,78.63666693076611,25.395411903268517,0.1896069044566075,1.0797343884833173,0.0720338332244846,-134.04938863230015,72.63129669895675,193.35127483942543,0.1343824180147687,1.5925199891681163,0.2002424188353232,-164.25328170089347,4.444581340334624,1.1839682699557732,0.3896976991658259,0.1135173014369305,0.3741801627790904,-152.3014374540344,14.637393768448629,5.748010462001239,0.0140099906951434,0.0417128660113607,0.1273627450864457
0.4,-29.699130542190307,77.68804450175031,29.06374869061198,0.116820926399387,0.933006313182446,0.0519569512575287,-133.8140635242516,71.37180768685643,194.33347530043807,0.0591764349574846,1.520972186442191,0.2007693376347446,-163.79098363933002,4.348238646523806,0.9426380565160012,0.2410313702794688,0.1213845846834816,0.4083245405393659,-152.2280968262448,14.623988465864612,5.7632816548528245,0.0174047196474739,0.052509773022107,0.1012362782149518
0.41,-29.65054053064516,76.93496070856986,31.56854632079159,0.0500329455354118,0.8307316968944922,0.0876695394257368,-133.50484789295376,69.6890641833592,195.3187985875044,0.0670067311134001,1.5266813429795234,0.1958210013775229,-163.3103626071101,4.239744483328643,0.6798531338637428,0.072181383433292,0.0660950317738379,0.445299023003027,-152.14482255111088,14.564551533094011,5.728702944278923,0.0113681253137517,0.0437171484448618,0.0693503687232233
0.42,-29.633678614164108,76.21578202008743,33.57387366604971,0.0239346885893571,0.7690621403366478,0.0485814242346246,-133.18768940551973,68.00662662198587,196.18243493923265,0.0483193454776432,1.6304859313196334,0.2039884150216278,-162.8750939758146,4.06026196647608,0.689253345255858,0.0584615424056586,0.2145674736731649,0.3305519077909161,-151.98933118070482,14.502789733375872,5.677215164738355,0.0150413945024988,0.0438732758036927,0.0229390579592046
0.43,-29.62234312356918,75.80793081185976,34.4297054196844,0.0058971235751811,0.8280976046587247,0.0960845142324532,-133.01005613462823,66.18390099021337,196.8900206109184,0.0585116733655953,1.7362172130022435,0.1711388268109387,-162.7532560671879,3.744728238764028,0.7494747999189311,0.1110275161334862,0.2966289598187402,0.0634843307520901,-152.00435058849845,14.495386630748992,5.609881898006634,0.0103972546322597,0.0501395860149968,0.0378271262345975
0.44,-29.701421939489496,74.99256483783093,36.25846966056361,0.0446097252053913,0.8677780136031363,0.1026214648829811,-132.99182429424053,64.2564921865122,197.2464213152393,0.1241094227803869,1.7695220154756075,0.1788815692467465,-162.87443850702005,3.4340442286681783,0.9404160655723832,0.2108105913820385,0.1935398291182526,0.312987912440079,-151.9443100294993,14.453065674567192,5.568803746571763,0.0141882032731939,0.0437164775789496,0.0474022434472221
0.45,-29.81000222441757,74.20069419526496,37.81664241015072,0.1394528645220297,0.8969252958632878,0.0341531556973387,-133.03953522897484,62.29902720016378,197.56019072156693,0.0970158069970254,1.7479982630091817,0.1590266534525912,-163.24614235662528,3.29806227485918,1.1860694477160425,0.2511122017272006,0.1557695319327029,0.4185822583681188,-151.85899776943833,14.451444217605529,5.554875497591122,0.0278391543633846,0.0157621900912883,0.0338872749949327
0.46,-30.187150724041143,73.2304202922436,39.01918169144139,0.1979843682720231,0.8168991797811913,0.0213518193947971,-132.85943958344362,60.48745180110904,197.93579682786543,-0.0065081659401817,1.5894058383139804,0.1496613719011391,-163.81806610579108,3.1078272312738666,1.5546680373291963,0.3180943535379308,0.1199076479751789,0.4974270098325796,-151.8761450253309,14.39048587500208,5.500898512996114,0.044027307593616,0.0256462799803695,0.0167723690158327
0.47,-30.63896765184952,72.44044173829181,39.664691383136216,0.1712400940917131,0.7187248017540534,-0.0003282393998687,-132.69906351079266,58.83117473759198,198.24315431401567,0.0106701322039505,1.4358191433605658,0.1598672891501411,-164.303522825048,2.8657396959594577,1.9544841307645588,0.2697293769043621,0.2396910947455263,0.4826905590452407,-151.8712521377421,14.361623488019791,5.436008526576074,0.0261859431872712,0.0016282029563455,0.0167789833044444
0.48,-30.763948939906214,72.0977850342956,40.01699696536257,0.1730672970411931,0.6637924484725028,0.0302968690567273,-132.86505536734654,57.91694716249968,198.28727457847077,0.1894863416100828,1.5857182753165473,0.1950979349595515,-164.59168430998906,2.742148323001624,2.073898797825833,0.2229602310077147,0.2413038263968308,0.4686303307862849,-151.86509836209444,14.378417292887445,5.405816254792267,0.0348726642750325,-0.0149964027631251,0.0294589276786459
0.49,-30.9317975918231,71.75233263793709,40.3863222581974,0.1466275734057545,0.619370950965604,0.0493448480831112,-132.9957443199677,56.984180355677886,198.33600964962864,0.3783337804764307,1.739776897514405,0.2334224612857258,-164.89569720893874,2.617899255604535,2.201082380474591,0.152741914922942,0.2198075693169965,0.4794759051523835,-151.86384631592023,14.378118209188996,5.370962386441682,0.0405350648820858,-0.0002581754434089,0.0426537960217077
0.5,-31.05621283291996,71.0694059008704,41.38417002586144,0.1142608396693769,0.970493466214588,0.1377492164069289,-133.49377864079207,55.00872011332768,198.25852584518796,0.2763744384268742,1.756310543208821,0.1547420336456384,-165.3637022381399,2.383601370169712,2.171323318943677,0.1351277536101849,0.1926828970970653,0.4037259452580207,-151.95047514147845,14.388518206347872,5.37034721385122,0.0262872399998241,0.010900987477596,0.0151795101242942
0.51,-31.30065242789211,69.9290929173976,42.66624453760637,0.1406997304293325,1.1637766508615746,0.127826425762258,-133.69825528743775,53.25459412601698,198.2129425781728,0.0675113521516566,1.466956730769392,0.0510342421270493,-165.8201992139821,2.125705490691946,2.1042583462194635,0.1190781517955243,0.217891047132852,0.2976034664527394,-151.85709717665708,14.383599318690848,5.299670404870185,0.0331674246862316,0.0005943454167911,0.0533070715048733
0.52,-31.67905639505655,68.55274820801115,43.91933109776057,0.1402231099676626,1.2824297311996589,0.0894795623602076,-133.68674687415944,51.99448011648735,198.18367964734625,0.0097258917241428,1.1109033958698946,0.0067831502059449,-165.93085656161267,1.8192523797218147,1.9970763627481531,0.1459212263236703,0.228438897100862,0.0573591791676164,-151.8505044379999,14.368388286486027,5.263536688224099,0.0319825085163323,0.0157054034018911,0.0538702853697115
0.53,-31.826361444541316,67.57860598344719,44.84610325925981,0.081964951290503,0.9976614352407784,0.1185771913788978,-133.76313286637995,50.63412454843925,198.25381421523207,0.0541255191567084,1.2583570412593577,0.0486616068710029,-166.01890466769157,1.6069626747814727,1.832952222180186,0.164247604283,0.2025662440473767,0.1039795261768704,-151.74586780337063,14.437005042492483,5.1948811550827685,0.0287064047613007,-0.0100310027764268,0.048271346700702
0.54,-31.9452157069416,66.61904610635388,45.7428333347049,0.0077773638504372,0.6818133007792294,0.1571431160706973,-133.81534284592954,48.82544106698411,198.31474854114015,0.0732615830629098,1.7438846582666825,0.1361649659869477,-166.10787855950542,1.377244134943026,1.7003599354573888,0.1632769200000203,0.1960930592044147,0.1620771717161657,-151.7340089067085,14.46378172629814,5.135240843472794,0.0490768390963262,-0.006820043962381,0.0566861760401139
0.55,-32.037506191298334,65.74925516435972,46.56381182754063,0.1881440159031602,1.0332581427741938,0.0866662907521052,-133.68420193677883,46.94406179814818,198.20161431686665,0.0207558095650105,1.6335917623967051,0.1440739428833099,-166.31889163830874,1.1758428929544336,1.519306856122466,0.1811715121287417,0.1217629745964578,0.1197556264862154,-151.68829143134013,14.43574670567032,5.065867159657406,0.0379052852397541,0.0229311255154452,0.0868952110564729
0.56,-32.50813201256142,64.62609045235396,47.05521015199723,0.1698279059773852,1.070775009451097,0.0122228336656954,-133.4976547057454,45.43827263163527,198.07879980902416,0.0544337328837668,1.2495565148991423,0.113025819312259,-166.45426687335708,1.0526899556601812,1.254575238713414,0.2058430242750054,0.081685211713217,0.0606735197573836,-151.51080963940203,14.452692934806528,4.994594454805865,0.0129268557394253,0.0163957533726565,0.1426024814283167
0.57,-33.13957565270294,63.51346042344786,47.17661983281654,0.1500699842744533,0.95560321128364,0.1176737387749192,-134.1813190479608,44.07262814331447,197.99829481572627,0.0880006905493943,1.245007118816901,0.0684051050946174,-166.3578823708168,0.999477861710115,1.010113833112211,0.2605281614283395,0.0331283938389677,0.0252584508453686,-151.36729995325598,14.502491371589375,5.018118757177943,0.0089420999352766,-0.0101925980884891,0.1602607396236141
0.58,-33.6280088428433,62.62228714998045,47.181658361850765,0.0979450645411971,0.6442670893184049,0.0790283631241364,-134.4149771498355,42.50299985548891,198.1835548875584,0.3206040027774729,1.4754911290318626,0.1378312408763004,-166.358586527882,0.9876868934534796,0.6894932485512782,0.2963309049672148,0.0089502183688087,0.0253437469056942,-151.18974469635614,14.56190897255631,5.000451887048818,-0.0055087436193373,0.0381399885009863,0.1392792528555818
0.59,-34.00241307525644,61.945099338383926,47.24809236460791,0.0947574187991029,0.6131487607826596,0.0160101710994861,-134.68705066379678,40.74220772063121,198.32291561724517,0.1892490209783286,1.6007137362042232,0.114474536843482,-166.30279540754023,1.0598457450593757,0.3158212051254431,0.3490207173865862,0.0297919359058642,0.0385719425224386,-151.12090634844645,14.63318457818537,5.002667099808164,0.0375322536395086,0.0463333847062206,0.1378851406768246
0.6,-34.118688708278626,61.590078212765,47.44224683148513,0.082564511729018,0.6820479373973252,0.0419575983725184,-134.73096579941537,40.34768424351339,198.31634626656333,0.1995480359444814,1.5008110269451884,0.0870186231143947,-166.230313617541,1.0140756036342955,0.1966590012493082,0.3607629769934838,0.0535320208722302,0.1431270097793695,-151.076623559864,14.64683779849233,5.012764783092198,0.053365959316148,0.0468579834281865,0.1153628015424333
0.61,-34.24112360593406,61.251086449431945,47.606271859217685,0.0962773491269082,0.7536625020129352,0.0767567375189894,-134.76157383581273,39.92909112777361,198.3079742532084,0.1667042261496685,1.4164705783225464,0.0525173849408546,-166.11253700799665,1.0242550754816642,0.0653372251828823,0.3749919977914112,0.0517820002074107,0.2553634869902275,-150.99918069350667,14.679506943583084,5.068848762391789,0.0839747714962571,0.0530760043480023,0.0931200057325153
0.62,-34.50289829951531,60.51392362998013,47.97697960003919,0.0968942036010937,0.6346566887881019,0.0755264858214208,-134.77986650203616,38.36967503194266,198.28112588362472,0.0884589496645052,1.441771777062686,0.0430946212547786,-165.76364054321465,1.016927384419432,0.4559912137685082,0.2961654815766932,0.0180604062981936,0.321658210596847,-150.9317527345373,14.809335452247508,5.18202804297027,0.0977460772350803,0.0574175952244293,0.0686003286726848
0.63,-34.74227190886494,59.745683213926185,48.31561537600084,0.0992544284293398,0.5324618944752346,0.0627992113578967,-134.80921758327568,36.79661118927458,198.25975761515213,0.0318298448780411,1.465856796065249,0.0418671893960907,-165.48397198475104,1.0007615289643224,0.6172041454617523,0.1179838556712036,0.0264695042297068,0.2922006559601701,-150.80188899097405,14.998711348558103,5.362192399535998,0.1408225734860803,0.1136477090540416,0.0954026205424852
0.64,-35.06536014342878,59.25405452283415,48.378985530037866,0.1504667499025192,0.4280563528186147,0.0250982811396534,-134.87747095559544,35.19663434078126,198.2459015027352,0.0797632927537475,1.3634442472756136,0.1125475370616846,-165.13321646457433,1.0693190221489013,0.7602003553526587,0.1779958287347258,0.079418613005468,0.2932151411482998,-150.6866912448638,15.200249676249545,5.559685590859612,0.1178243802240935,0.1058254735617587,0.1609232337461165
0.65,-35.43370061262068,58.95170819516253,48.357512461060985,0.1756095887935648,0.2224634146402762,0.0543086241095191,-134.9977991214848,33.731777067354656,198.24182185189133,0.0407951651757116,1.169544615750983,0.0472287376738398,-164.61269563906248,1.060375161760729,1.103974985413036,0.3446909383375717,0.0605740994708351,0.5210541257412378,-150.45610187614224,15.362173795083322,5.6677469289588895,0.1539441859276558,0.1306855012040087,0.1847780302543986
0.66,-35.57266556074423,58.81580069191465,48.510432309903166,0.1178467273322594,0.0855660521213842,0.1804020392472227,-135.06040224373385,32.45687053212412,198.332244124728,0.0576290004823743,1.2186892269049965,0.0027473312831213,-163.99550043097324,0.8795264468804516,1.6976024467517932,0.4908681920406191,0.1102458529474058,0.5658259072266516,-150.1962099351632,15.502081401332662,5.750445219483469,0.2003035547281392,0.1384070087108501,0.220502066675191
0.67,-35.31157025180533,58.75805150479512,49.11627742963769,0.0687401366891635,0.2491117712822401,0.4115738808539376,-135.02239365594596,30.745626953188264,198.2704240916593,0.1145277077558385,1.580135668812993,0.064835483516106,-163.5431232422593,0.9287600913230027,2.0985584050238977,0.4184455970088505,0.0513388939128589,0.3146514618711885,-149.86506070206173,15.690690805813524,5.932524214976976,0.2108743739471627,0.1709681028776512,0.2177340915264624
0.68,-35.63177534028186,58.385095785072615,49.4972356918004,0.2968220981236736,0.3774226150015948,0.3201023067137986,-135.00267082182174,29.05898281938165,198.19505917506325,0.0242936561906383,1.266417707235604,0.0124139700031158,-163.36548808703284,1.068022501478625,2.5012384640664256,0.2731673267998807,0.2026526870808927,0.1706950208407703,-149.63438753061513,15.919299405874566,6.112215477756496,0.2097877786873962,0.1707675396686235,0.2093424433648393
0.69,-36.24596480482567,58.19833614079134,49.3240350408976,0.2768467689449926,0.2099563226753376,0.2038645122487751,-135.05164118938333,27.774103598763688,198.1007365290205,0.1547521069900082,1.1776760753649025,0.0537727920827288,-163.11996028157444,1.2411068270054215,2.812660169550824,0.2931334133071516,0.1419856542219159,0.3107913219855268,-149.44758782975978,16.130030321808906,6.3016226223480265,0.1797949437801999,0.1912788938299189,0.1565141275174106
0.7,-36.8780865917924,58.07055075106162,49.115445576347376,0.2579738288077191,0.0394521260971286,0.0797589203438943,-135.1279152166325,26.50723910994047,198.0029774140721,0.2178424027063364,1.111839708931362,0.057036049631409,-162.4520165198481,1.3069470909536294,3.055690545645208,0.1971484027184317,0.0389545925092076,0.6926363524754869,-149.3213168106262,16.361853834326613,6.490289722308179,0.1974576486134779,0.1742755233983032,0.0511401576963727
0.71,-36.67941988088894,58.19187537083168,49.49358614861946,0.0321612657675992,0.0689485409551573,0.2621414346724258,-135.26286076284475,25.254822823162627,197.7481407615631,0.3217584956106739,1.1611013153421212,0.0606227405824504,-161.61356320842972,1.3845531809222185,3.230164562114441,0.1042652398009634,0.0978060887201069,0.6604819621629157,-149.24865733970444,16.51164509469745,6.739274762886816,0.2337886737479504,0.123755747118497,-0.0014897201457112
0.72,-36.40787928600918,58.16632563821353,49.83121786082329,0.0948141587244322,0.1442089412289531,0.2730979731215978,-135.30058356521295,24.71639718339547,197.60328186023855,0.3002219500118501,0.9979047838595172,0.0430343489757665,-161.26781391966426,1.3285127567916524,3.349222300871553,0.1246110322217091,0.1361691634526737,0.6635581300945887,-149.2661992122387,16.56753197788723,6.868124505371492,0.2232240623983893,0.1185123227825327,-0.0025310229263093
0.73,-36.127029836801626,58.131372926779285,50.18422899310622,0.183458771217397,0.1899577918955209,0.2864058112102411,-135.37990670470924,24.17608079970804,197.42817014035825,0.2883782366495963,0.8575537647946677,0.0694785318170501,-160.9248114498314,1.2551409590214444,3.4321188078999745,0.1905075619722255,0.1672690156212156,0.6548521790930267,-149.24852639258842,16.61912862450539,7.00283943311529,0.2263724459609049,0.1021795935484368,-0.0001090766330068
0.74,-35.8731133181358,57.503020293858704,50.78909291662543,0.0108527139439298,0.7507431907374769,0.1734967292871352,-135.43894201777428,23.750104939197676,197.33203998091903,0.0909282010674913,0.0863688164785139,0.0417443617169173,-160.23950471487052,1.1893836186836653,3.61153829919818,0.2996403655377925,0.2346904481396511,0.6104355674697011,-149.1880676236947,16.744917947075226,7.256171528787426,0.2111722747537923,0.1106137017885808,0.0278593750713904
0.75,-35.81524309801225,56.44005324872627,51.43471620354858,0.0595563796466769,1.016502855510537,0.2289854676464316,-135.37110349805042,23.563068358145102,197.1735654842924,0.0796106224560958,0.2203046358575835,0.0822468963664191,-159.6138891989517,0.8689330361941215,3.861439036540482,0.1989518002872388,0.1641651817978184,0.2457568717880413,-149.0639661646783,16.823480799374018,7.487958072766237,0.2803753278974172,0.0274698724656295,0.1529687047122782
0.76,-35.3746583127903,55.50016432735905,52.2514064420065,0.200603952829648,0.7971763706841807,0.2849570761457119,-135.36474185472298,22.99601376831776,197.13569146099195,0.0357202145752936,0.5977910094351032,0.0224082462160525,-159.12450552062947,0.8174441244313406,4.05865185460463,0.11931995697495,0.096760545625363,0.0171295854684329,-148.88349955620347,16.91168872870763,7.746530353506796,0.2589173602429536,0.0347503812719528,0.1211498029297373
0.77,-34.809339354054295,54.76257312122298,53.05088893369437,0.1721399128576698,0.7779947386292028,0.2469628337642041,-135.37075418856318,22.35350663481692,197.34284726109777,0.130619190161299,0.5158379217250254,0.0161375351799356,-159.1142736452952,0.9345543165205408,4.186641385483619,0.1385714440209292,0.1772581840110524,0.1914082979642561,-148.70596449252162,17.00158203197875,7.979056734708994,0.2846506293746019,0.029084245682783,0.1108706649046208
0.78,-34.624806500228345,53.73683562883604,53.61759896567287,0.0306432596130401,0.9621056095355668,0.201161364572334,-135.2935240055282,22.446863150973144,197.25231585173623,0.0661794510733761,0.3635665626745579,0.0935597474578162,-158.75333803004312,1.112856964669643,4.363637536162069,0.1979364217934583,0.1726258710803919,0.4196228724530536,-148.57417839532042,17.073997012048984,8.248350586198615,0.2736921912855585,0.0526689569202688,0.1149148332520608
0.79,-34.25360887768624,52.79887781437549,54.17978173906111,0.1477659224890448,0.8224523123054754,0.2225742880481007,-135.2439573566111,22.55429127599718,197.2028191755433,-0.0005662305415603,0.2406918644327168,0.1808903531298068,-157.748017834841,1.111110314475016,4.7430759537622205,0.3419173082598493,0.0655182762483749,1.0990210624423054,-148.44344166592134,17.157632160401715,8.572872612545941,0.3043753664148775,0.0736443444460991,0.0993949329072413
0.8,-33.882656850343174,51.939863907965545,54.81448220367448,0.0918216925430793,0.8497624535997483,0.2305941721828881,-135.0503700113943,22.62438149322084,197.06253252747987,0.0578083122355098,0.0580628998849501,0.1495014484155338,-156.55563470454368,1.0677973791440918,5.121814765505978,0.1795589167247057,0.0648253508022287,1.099362616407312,-148.31654164048695,17.254383927121374,8.869461546444096,0.3596998856461995,0.1222826958318376,0.059677852186768
0.81,-33.80294355900136,51.06355644363472,55.10970973052183,0.0160780695890104,0.6350245096776035,0.1992485960530621,-134.90365525430894,23.18416657375745,197.2694627945128,0.1817133946637209,0.5052789068625646,0.1101135136726327,-155.24557244768815,1.064307447616576,5.3172312649051,0.1147015873202153,0.0737682713673762,0.990651180012711,-148.1206709408174,17.367133352662552,9.248507732862077,0.3949342186730393,0.0976723303042385,0.0903256832631497
0.82,-33.760015124497535,50.80320285175402,55.3792740458021,0.0219378190987635,0.4332439849347876,0.194667853499589,-134.7579267847159,23.763136279528773,197.4496069766037,0.3003577804844586,0.9654595017435724,0.0682413664034505,-154.45616505649545,1.069829286971999,5.430641945359877,0.2062889409800217,0.0956862760539473,0.4625694372935647,-147.9320645654284,17.516591882569518,9.679687055973764,0.3877071299125911,0.0778698883246111,0.1304142203569586
0.83,-33.513571261912205,50.43129053369008,55.737756649252354,0.1115648650179298,0.3744752256208513,0.2112395272429456,-134.55618024360078,24.697105134556065,197.6961067420256,0.3434397673245461,0.8911589639498441,0.1466670945797266,-153.99852678968043,1.1181953574928845,5.6937556042382935,0.2321658696074277,0.1040293256528897,0.3356127631344271,-147.70638857907497,17.612004119153085,10.00198080442345,0.29633212270458,0.1593515536011767,0.1838310407957085
0.84,-32.95434602918545,50.27809800242235,56.14842753411856,0.2384945003597799,0.3024848876252953,0.2533102830908933,-134.38910476498936,25.002243308774645,197.87010053501885,0.4119663465986601,0.6370796843594057,0.1459157503507062,-153.84539485292933,1.1197217107935655,5.781139945664746,0.1481071574964945,0.0850059642653236,0.2560722949046201,-147.5799883027964,17.70964507761109,10.144828307169623,0.2811593796963534,0.1834756115763924,0.112472236232051
0.85,-32.36016200453457,50.102574445935126,56.5375962019832,0.3277990488942108,0.2266762300015991,0.2887865653880768,-134.26008045074556,25.30321615858481,198.06941493480252,0.4833375603885376,0.3933230549699931,0.1758971410684328,-153.68522797253843,1.11643314322082,5.885102551586604,0.0830528424706868,0.0408313939014309,0.1790498820687686,-147.49486182017748,17.8086091861088,10.29908923853307,0.2805762162881191,0.1574718647169375,0.0502863691722543
0.86,-31.37448308972088,50.12490441118773,57.29903848297361,0.2139470922331632,0.0462547798054088,0.2970108899690259,-134.05588085136955,25.939775672306364,198.17661288115283,0.4145330231840398,0.6221565130363758,0.0628488555600005,-153.6604280270501,1.1663730801396732,5.750786876954443,0.1087504517049335,0.0359041510249968,0.0784312531198387,-147.6313985789686,17.938066840138166,10.618631313793378,0.321113593476705,0.084981858260272,0.2410745296741838
0.87,-30.88622487267528,50.23054745305912,57.68283806070731,0.116818924189585,0.1184855934239753,0.2028911386504204,-133.87279478122758,27.19776583138497,197.5681439276021,0.6411041465854895,1.4103331892901232,0.0150961295569991,-153.6107716332715,1.2627947743647852,5.645075730280323,0.166623461168833,0.0197759521218172,0.0080730123236768,-147.82131484813462,18.00836905741864,11.119480374992664,0.3792927053723677,0.0557105872994922,0.2481199771743346
0.88,-30.590656240125675,50.32575731358993,57.864893867478976,0.2029322261349299,0.1648873775057757,0.1833241919915784,-133.86553379246928,28.10873699550541,197.00556695756416,0.467870601582555,0.837131700397488,0.1109847730668361,-153.2908441646904,1.063742425962389,5.431957067657232,0.1783691442208091,0.2089942906666506,0.3702432811704096,-147.93330348881014,18.002496297114888,11.54413552603792,0.3531678102162595,0.0837151948216168,0.0459918282034381
0.89,-29.8637123450039,50.19940344220988,58.35787459984601,0.2647639757030554,0.2673134938974403,0.1562890330435958,-133.86451536070155,28.99907661659845,196.49998420991653,0.445696774825024,0.9054515085331484,0.0970376007251592,-152.73908605092836,0.6259917413009747,5.259606946707254,0.1600603658892223,0.3235528246179044,0.4919810489584974,-147.74949215516352,18.111779262164685,11.949973266475707,0.302736710259489,0.1027629807421892,0.283308131434897
0.9,-29.018753106278734,50.49626323355954,58.926409299304055,0.2884053502509396,0.3486386854275887,0.0885709203880295,-133.86543270602075,29.67975553709483,195.9833689149465,0.3103383654370521,0.4703490922614616,0.084602458989263,-152.25372777702984,0.3147009964609988,5.062434822141386,0.1793355868063395,0.2566970450123822,0.1015840254668255,-147.28872424039088,18.30565873739961,12.17321179246511,0.305106207346022,0.0844122515351634,0.3370222345904325
0.91,-28.298564944228744,50.94198413479053,59.30984162596192,0.1693354740329225,0.4042955177093272,0.0430195948109935,-133.8607472233431,30.359931525945505,195.63462232052248,0.3291691641724391,0.527429125904535,0.0685466645993313,-152.5097126290518,0.1325396959209259,4.806837622388582,0.2959941995645973,0.0957018675332927,0.4427920303224224,-146.8721796783465,18.525445904902025,12.445343415501878,0.3972411355795653,0.0798640967336314,0.3532523491008852
0.92,-27.859239089015716,51.3625886685369,59.49541158101928,0.1776232084128229,0.4035690584300257,0.0286762572843214,-133.82780521481348,30.955979894436474,195.1174194945712,0.3314741240966279,0.5445872174190923,0.0729171668470658,-152.8610326221676,0.0599483756048724,4.489115579785302,0.2802536131791782,0.0941260981987884,0.4257515789706132,-146.4370826650242,18.55474127002478,12.755098021120997,0.4059105160579349,0.0690061522359797,0.3098917606954818
0.93,-27.369592980983555,51.820239850038895,59.74993486080734,0.2261956736356624,0.4227935272962858,0.049069997314593,-133.81323020475497,31.54247821336776,194.6254067353188,0.3708487374446092,0.5806255138590761,0.0643487567818248,-153.1038899510382,0.0401569553788043,4.199888166589472,0.2822104133084335,0.2519351116301493,0.0907025776765187,-146.1240088344448,18.680084647658244,13.144889260814365,0.4074487124308828,0.077489939975379,0.2511984725407798
0.94,-26.807881072533934,52.247573326144206,60.00331514080283,0.2667082210882549,0.245078453705541,0.047807490877708,-133.80972321762297,31.6783051780598,194.3044039569104,0.2139411599974308,0.062867256775856,0.0669889249790637,-152.8328446655319,0.5717699046252489,3.871794808952449,0.3144871753003721,0.3854951547507712,0.0895518278386495,-145.8032959008391,18.823492085500547,13.553869336274282,0.432455716849229,0.0681905218222106,0.1972337862434981
0.95,-26.25876085701168,52.44193506345379,60.249412280265226,0.3057757558126926,0.1163327441105708,0.0459803612618569,-133.8151088897441,31.895775705072538,194.08231694504315,0.2501738754076397,0.1136716513847744,0.0502330494936782,-152.55919062450226,1.0472940171812766,3.566024089845006,0.3049115740753945,0.4971235721748787,0.103656976734247,-145.56268430806168,18.931532246787743,13.922368236753876,0.4135826723589422,0.0312328798242468,0.211757981183064
0.96,-26.0061584579211,52.4690781329177,60.1892629465835,0.2345750121218031,0.0641982918979988,0.0579558185144233,-133.8001711872683,32.01734558260603,194.0001785135939,0.2744679910460142,0.1150850034102424,0.053431416188189,-152.70985003891755,1.2694434876018983,3.3424910755491517,0.3382576767078838,0.4503262633766682,0.2675894474164135,-145.42037937896666,18.95944144957998,14.131712171745573,0.3794674057215272,0.0144464334426264,0.184851838759546
0.97,-25.74407317307756,52.50297344872166,60.11300847579701,0.1414649847235015,0.0277576819652223,0.0489065023642695,-133.804245758422,32.11905584031556,193.86908460545064,0.2787628116257453,0.1474238451019196,0.0575945931398304,-152.8654531367455,1.506739547584713,3.129131302688612,0.3882070443063601,0.4127350819423029,0.386574111866703,-145.2508644461369,19.00075895415513,14.30303628645599,0.3646446214336931,0.0215086837743036,0.1593899144724407
0.98,-25.4508320666619,52.49565159256026,60.01792425714896,0.2057414172808176,0.0393526675913651,0.0494102779694498,-133.80700403441173,32.18423182089573,193.687153300884,0.2325592343531171,0.2047596660931801,0.1164034928612085,-153.84211322385065,1.5641622202850785,2.61119121814012,0.4181097813225944,0.2038482015021044,0.5857278354256118,-144.99029542701814,19.06388310114516,14.624296742294648,0.3522076222865513,0.0162405148873817,0.1151212639093825
0.99,-25.111062195405676,52.63354959961741,59.86653898625377,0.0547336664540645,0.1236167616867426,0.0345956774913219,-133.87562126230836,32.05719416274215,193.34523014336563,0.2279195286200213,0.1145443378081626,0.1413585910849064,-154.8131245616649,1.613883682838054,2.1324663662507417,0.4090704962868565,0.000561855718295,0.7987776962728194,-144.93094959953586,19.063420290074703,14.987458335319472,0.3487008615127818,-0.003707038582885,0.0160316889033153
1.0,-24.94067033884563,52.780231733451465,59.7510429087845,0.0157420035794806,0.141713404529106,0.0171742299489985,-133.9352489538265,31.92200729397761,192.9932908542773,0.2073627359782935,0.0047784697177225,0.1077737565290197,-155.57619123588432,1.5989078311440117,1.6801016325365057,0.3463165214860726,0.0742229011181754,0.5502553064465413,-144.9349654149332,19.05791177420272,15.432773151742154,0.3976958920107553,0.0322325984105142,0.0896480669716551
1.01,-25.061408392516125,52.95536253399888,59.81497308366273,0.0562540573289327,0.1200884233628816,0.0395082003791471,-133.9837686662721,31.997158700030603,192.6383545747254,0.1369463982249026,0.0666411692767352,0.1130856336397952,-155.5015555475206,1.819812789471295,1.3731356818150788,0.2840288878200016,0.1950425922593345,0.0680219268652259,-144.85820615623973,19.008602033318247,15.874620825405998,0.3647636446308482,0.0179155062594031,0.0089399960062659
1.02,-25.361237005479552,53.04992400144703,59.99071387219696,0.1417345776693039,0.132676877211391,0.0720277374246506,-134.0644319941963,31.99115062788989,192.4582551726561,0.0892325046444634,0.0434122627268333,0.092841033411012,-155.05699918162864,2.0043243983340657,1.0526135117163296,0.251111348345368,0.0772082413285736,0.5738739104594265,-144.69109703091544,19.016573777568357,16.253270191749483,0.3444663789930445,0.075188581157421,0.135848899000381
1.03,-25.683574574479305,53.239918531016,60.18751519212813,0.1501512654278727,0.1340406032991251,0.0076029200163047,-134.12199176879355,32.25372741761364,192.18737499539407,0.1180682884565105,0.2514233287560951,0.1154169073138195,-154.18822157400615,2.0574590095820957,0.7449486066522933,0.2416862527986022,0.0441309385503904,0.6135089396807654,-144.34830832743145,18.943205297347337,16.422764320613556,0.2749377953635604,0.1151265738866002,0.2717546347878854
1.04,-25.97389072389755,53.50097050554035,60.14308291503039,0.1419595764846528,0.2024869189148299,0.0192694630264441,-134.21168601327918,32.60511224768452,192.03864124199168,0.0682632307399967,0.2552913905325314,0.0631508351538081,-153.62984007307742,2.125517032704661,0.563449554529521,0.2200524080364942,0.0404908836500933,0.4591587137611251,-143.99155186883598,18.92530184348154,16.542755361562616,0.1972595211006839,0.1094094850172437,0.2892894826846324
1.05,-26.26194704355158,53.74037635869713,60.12822416600382,0.1309895178762106,0.2416993523914722,0.0075383219325159,-134.32376526750016,32.94396052693359,191.87638560104472,0.0259495715932456,0.2702619197593859,0.0499368585309266,-153.45178427566083,2.1070370556971008,0.3125115016122711,0.1985793331039344,0.0073649729150062,0.0482112664158168,-143.69057679204423,18.868056281472292,16.698683570426418,0.1950762687047617,0.1272336195482442,0.1833353775237748
1.06,-26.56741400096956,53.94949866807764,60.00996828138052,0.161211931171463,0.1969998492533933,0.0218356199123693,-134.2904629021002,33.37212700196647,191.81221611286156,0.0214489554620605,0.2867067712332356,0.0265216450650633,-153.69378377568523,1.9714661751451368,0.1637535248107357,0.1892353290733465,0.0745947513759178,0.1347888204320296,-143.5758051966636,18.762458541492496,16.863250712085247,0.1880283423352022,0.1318282764054664,0.0348782018110205
1.07,-26.8729139249592,54.12799113172166,59.83940618999132,0.1635887577244152,0.1503901327720043,0.0220017618850088,-134.37713087576407,33.775647217962344,191.6240794675925,0.0236868455588524,0.2497965800559813,0.0334511851875408,-153.95717333171885,1.8048930645483447,0.0641726111798125,0.1866569169608588,0.1712519488995857,0.1916932154828499,-143.54902215440325,18.59514887379941,16.92430256352714,0.0967471006542929,0.1037090360731274,0.0503824788229382
1.08,-27.03033979413399,54.21836793007196,59.7581028308117,0.1441218526110993,0.1920252326611444,0.034560657916981,-134.40617682161775,33.964304693080365,191.54796929802515,0.0291145828037341,0.2210995428682793,0.0453591513794709,-153.93741367328423,1.7550946191329615,0.1227946276697639,0.1484703524531456,0.1431524966070374,0.1579917464215429,-143.5564552709586,18.52810436069622,16.968333837417227,0.0746628268831211,0.0814042336064129,0.0712512103049413
1.09,-27.20013749574853,54.30979670627706,59.68825476606765,0.1490400587078026,0.1613029126557249,0.0076566104991532,-134.44731207738383,34.119084285717115,191.45046194421028,0.0608734694800278,0.2036781004665654,0.0471318788480863,-153.94082291678188,1.7037883353145915,0.1853263459076325,0.1151141991924219,0.0902138484984442,0.1010676795144976,-143.5577864027241,18.43351792638361,16.988229129335597,0.0250404481107209,0.0678090177964244,0.080133432991914
1.1,-27.300989706455688,54.6239512479662,59.59136799107585,0.0771112646739086,0.1668430533480349,0.0360222597217765,-134.44653406760366,34.36512655926426,191.1483172986576,0.3886660999062377,0.3112599872045681,0.0415351403688783,-153.62262749038547,1.631725756536995,0.2462055714311907,0.0185911440206351,0.0344944244095006,0.3058825952685226,-143.61043103880138,18.374290528064844,16.994402744064466,0.0556051540030679,0.0385419655371797,0.2139873366523269
1.11,-27.50632864852179,54.810891517159234,59.5538416024519,0.1330863038158464,0.0740966962520277,0.0289752652772983,-134.4839114376412,34.68493743601559,191.07412990726385,0.0102211236281872,0.2607710731138232,0.0415227309554034,-153.17157751561058,1.622496941938171,0.171712663822023,0.1381904369891072,0.0178112790389669,0.4355813294427934,-143.900109701565,18.24821350995817,17.3158049793917,0.2146944490995354,0.0816431967865813,0.2635897937867208
1.12,-27.54521169753672,54.93644156924919,59.57686152926407,0.0177031922124667,0.0913775459569145,-0.0081616393057093,-134.51795088569554,34.870786905639555,190.877492276953,0.0430821854150484,0.1465418242306852,0.0315965369612656,-152.56181660306217,1.680406620665572,0.1722151378174492,0.0949108452094982,0.1185491632907263,0.5097071099265083,-144.17430415038552,18.13109390640708,17.62615053695705,0.3524588023456006,0.1187776919502229,0.3107208225267902
1.13,-27.56369284533064,55.051791556824256,59.49742649487803,0.0409516942563998,0.1456753085552416,0.0084926699992413,-134.44112739716672,34.9484875226914,190.57677467798044,0.2894987983046687,0.092013925600645,0.0368228372445201,-152.18537152913908,1.8686810317315692,0.1358356678053486,0.1243226917182772,0.1555268233700184,0.3311218643394554,-144.4288847677011,17.90102692274495,18.10078569133829,0.3888862073309478,0.1459585703093184,0.117846412482797
1.14,-27.563590718778,55.19317859271443,59.51122321031814,0.021443222094358,0.0949279793496506,-0.0071852471025706,-134.43970366701436,34.99597780779821,190.5697014237116,0.1043717928792876,0.0286623542388729,0.0393053496557764,-151.81909763769605,2.0045039885397147,0.3695722402518792,0.2060610007468761,0.0634505638901885,0.262965394385668,-144.3683408538621,17.75060562625376,18.545036468498587,0.3694718406076662,0.0747055082064256,0.2551746920533643
1.15,-27.368253250916737,55.38936629589621,59.69700177952112,0.1025328176245384,0.1458047911442616,0.0419051016776901,-134.4416935097574,35.070145868995326,190.34454651654164,0.1496234246344547,0.1525009735479632,0.0349142528891516,-151.61854839145067,2.105126244104614,0.6163213173316896,0.2371732111050151,0.1701113778560631,0.1611250688945191,-143.93947019976173,17.80540139314037,18.80050268223379,0.3420851636329678,0.0329112484590953,0.3623444711306424
1.16,-27.305698415997423,55.53256240162517,59.73746843579749,0.0606642408653028,0.1017233297992877,0.0645392821799207,-134.44992869689426,35.14395169999387,190.1290132700592,0.1821483336299797,0.2377714235851826,0.037559776245953,-151.31299079620752,2.371329260430129,0.8090124784029499,0.1242858955457381,0.2264199460992959,0.3477071266887047,-143.5012943491204,17.942138073292618,19.12370588629353,0.4496351536501946,0.0094152412148955,0.0457174178674925
1.17,-27.24875990818969,55.686933392406665,59.81622559889638,0.0423680626265536,0.0962234149884327,0.0440649639380165,-134.43341606600796,34.92729597390343,189.9476571740064,0.2240397525514762,0.1962693001187015,0.0261173269603988,-150.95116986747655,2.6213396040880945,0.9446836192594302,0.1054533164220363,0.2210595254717717,0.2021617225222584,-143.5785085942356,17.877397850627883,19.69249395745959,0.505279122950882,0.0138210606695784,0.246274799787109
1.18,-27.05821084059811,55.75165222697526,59.95859535904872,0.0557110753831052,0.0441075425399683,0.0819491543631226,-134.33442597728595,34.758967316171514,189.6588623497273,0.1935283376780528,0.1162351398203821,0.0167766853077144,-150.8788842267521,2.7478682605970404,1.0165893515341926,0.0455028838340267,0.4092105446041786,0.0138011935131731,-143.98853194790678,17.621468521770755,20.50872484891507,0.6076347255853629,0.0366975594698444,0.6032852904672399
1.19,-26.71732165003444,55.8132349606926,60.0172648606595,0.0963582702029652,0.0092738554135139,0.0485284983277974,-134.19033496638974,34.573754759624485,189.37616544800545,0.1711860436496777,0.0168596228251867,0.0205898235517017,-150.86422312892364,3.2260118195610628,1.0209807344210988,0.1707764114002252,0.4207046306380995,0.1461078290214381,-144.54968315882755,17.37809274806301,21.44287395761594,0.7357833343112476,0.0665774614480568,0.5152914032174984
1.2,-26.54111767222812,55.85063616771173,60.05919022101578,0.0740851984081958,-0.0050486338230706,0.0010655855113898,-134.15470268859843,34.56194105870542,189.2531117370252,0.1805473251877969,0.0135256317180457,0.0097651755539653,-151.02268204723347,3.4227139598665564,0.8914925856429754,0.0891054350051405,0.2456611977759888,0.4210939067171558,-144.71217092387627,17.23027911064818,21.91435839823214,0.720791074428178,0.0745614517234558,0.4423811024935159
1.21,-26.377835607804,55.88049687541405,60.12212769364052,0.0995400447382658,0.0049122276034566,0.0035711041544518,-134.11958155081743,34.55441525164654,189.1286402095128,0.1926143390101686,0.0349800896224964,0.0108633891444888,-151.18609453778993,3.622241088875484,0.7323753387138644,0.0178143072338679,0.0652485722830455,0.6681955815213501,-144.88271999124845,17.134652262928277,22.3704165647054,0.7196577315674474,0.0876005184188345,0.3812712278835063
1.22,-26.31653244338908,55.93374843707549,60.04672268235154,0.0858372389607069,0.0152453041657656,0.0105024092399861,-134.0754871190599,34.22875500738946,188.8775021233501,0.3230084135585352,0.2786961744344824,0.0542508804409364,-151.99695525764852,3.679356146383168,0.7458296992180296,0.0745182899120238,0.0101081218267677,0.8877308706656737,-144.94843581363804,16.932131998564177,23.19794361440245,0.7396851114932319,0.1408297748788674,0.1098613235007076
1.23,-26.096877153925085,55.93017890079808,60.0037722870405,0.0958817378473912,0.0575211512697888,0.0254836693525427,-134.00678055502448,33.996557444968765,188.57810904553597,0.3277677423394251,0.1555043732161684,0.0414201710134295,-152.9296994737433,3.611590301036193,0.7646143166105376,0.014405386847959,0.0926287016815011,0.7812269832464374,-144.73804798724302,16.842518797701505,23.99696264193846,0.7642896317269963,0.1095981662999578,0.1383377169585993
1.24,-26.00534366751062,55.80743225145838,59.996038033732034,0.0741558640357466,0.0764087163302603,0.0700078286465392,-133.9530229220578,33.81556885181962,188.18240920043044,0.2520253666513081,0.2166269719824508,0.0437000085605125,-153.73436808326835,3.494992499252035,0.6696542838870617,0.0811771719278615,0.2305137508423121,0.5798083844965144,-144.58417076221903,16.764005746178146,24.80041276337175,0.8188205595222311,0.1044972413376667,0.1353662558897315
1.25,-25.93369755692018,55.756255908406224,59.99699523814319,0.1178520665794628,0.0348104562162326,0.0582996903386258,-133.8721499441223,33.68731349436623,187.68260608639383,0.630824300659759,0.2668717176908422,0.1139697873413168,-154.24830157133846,3.241931700758374,0.5601739808572501,0.0743465528758901,0.2505815504273312,0.3880956645073594,-143.96108816045566,16.758571714525445,25.563129509664503,0.7896440626997777,0.153517603611931,0.5098011079208071
1.26,-25.72437175852464,55.695139631711285,59.9310151801831,0.0972312412664804,0.1043921522554754,0.0289296040164309,-133.74613976341678,33.418924729999944,186.8900533416719,0.7231616233936583,0.142288747370177,0.0964048056374338,-154.19793240676933,3.1763000143104927,0.4314255713912605,0.1603498639848794,0.015938532873088,0.176381905015658,-142.99175846114463,17.05551661220635,26.055870814355742,0.6599312912117034,-0.0221843464880206,0.8221663270526759
1.27,-25.51498661095744,55.40308390999298,59.84807774638399,0.1619751226254783,0.2270572875960401,0.088461999990927,-133.472911760863,33.17866915412593,185.92543166707995,0.8659838084465826,0.2588601657150006,0.0310375727930207,-153.93887515773002,3.3039278766157048,0.2473111289449939,0.1346430045499033,0.0838811390829072,0.1869986883207193,-141.99990442920443,17.56968249782212,26.564351758250847,0.6257845537028534,0.1015797035055892,0.7214528564346572
1.28,-25.241808323690453,55.11043286839556,59.77169942853055,0.2317382427597281,0.3167564086324896,0.0849208970519644,-133.18336842699378,32.58070503425454,185.0702142801234,0.8991796134089259,0.5510723958122992,0.0257308076418469,-153.80046072729502,3.3739376416941287,0.125235816960591,0.0854867541067805,0.0442976864779718,0.0871457571708081,-141.55361621523562,17.859727866341725,27.265524473454228,0.7229467818355502,0.1533639745124975,0.1757143099796619
1.29,-24.5658061647044,54.61800720879181,59.48978659420949,0.416961225722801,0.5314439780157774,0.1255714254480345,-132.94463432397075,31.69284915043756,184.3908936508196,0.7849295565781269,1.0093427595499656,0.1363223690894367,-153.98346673502164,3.3015431718865917,0.136049683189644,0.0500089230294809,0.1495118119661044,0.2537307208056043,-141.68329519241723,17.878589782134906,28.182776352533946,0.7277284447835675,0.1050013959487637,0.2909874255826785
1.3,-23.568800892394336,54.1674003042693,59.1333035694893,0.4116260819865364,0.4726533018095302,0.1190439816849706,-132.68169619576798,30.94172350982296,183.29433270750616,1.039047266104936,0.6987745321792196,0.111699002933153,-154.29263549730544,3.127100780603839,0.1865167193863318,0.0939011691383532,0.1043027442296886,0.2974288661729871,-141.9520271412663,17.79761526683547,28.930019387198804,0.5333750954087946,0.1147555634381876,0.2011965097893697
1.31,-22.55806498233672,53.753578529916304,58.74292859179631,0.4115186761597714,0.4110368353515538,0.1182451136749143,-132.38771494687109,29.745445335941,182.5092757328057,0.8348908244778799,0.978827533236462,0.0979918208180712,-154.9085324019188,2.8931176590335865,0.3767973012874991,0.164896012956729,0.2445458517258041,0.4810195340194305,-141.9300944745855,17.825786042720814,29.49783045784212,0.547465279435376,0.0128394963711286,0.0078173159148716
1.32,-22.141046905629707,53.4766024533244,58.58021429157505,0.3984448997645878,0.5293180823900268,0.1078628231555223,-132.21036895520348,29.161159213691462,182.1023790304203,0.7535074975352221,1.0849348307447908,0.1020666164352702,-155.19261251688766,2.813784437538187,0.4776695102833669,0.188960138774816,0.3115932655425752,0.5904585497879719,-141.87297974564424,17.789219651865274,29.85398766583296,0.5794790377421251,0.0551157192902472,0.0162819322188223
1.33,-21.757450415765597,53.18908835640596,58.42832497988202,0.3580344307460941,0.6421215983822326,0.1200859533472856,-132.06929661469695,28.55777008142127,181.6883178942787,0.6137731220187029,1.2336580895512048,0.0951944236216534,-155.50057408599446,2.696957274569429,0.5805472736781816,0.210458911556518,0.3623884912929135,0.6884141651231962,-141.81347623395678,17.748189284554503,30.189633098619613,0.6119105696941596,0.088390765456263,0.046346728460901
1.34,-20.99171902682668,52.4997047874994,58.23913943776901,0.3386787469882602,0.6941008295722225,0.1033179026073121,-131.8766549945952,27.50061735927019,181.31906781328965,0.4588307715670687,0.8392279165972446,0.0504482134140683,-155.70088904241624,2.185544514394965,0.7582824983695272,0.1445390661242468,0.4286294879072365,0.0940500843769896,-141.8141446583293,17.648999484750295,30.81698619977692,0.5203136443638415,0.0831834842285647,0.1197476186068751
1.35,-20.702933749423615,51.74873236802621,58.30487843947307,0.0658884617114752,0.6345452104137079,0.1895442899192375,-131.75437509269284,26.629322335327835,181.1926543532913,0.130745240752463,0.8461841018514615,0.0917628089098201,-155.20165722176546,1.9495886232697412,0.8260884949812567,0.0301061400884435,0.0966010078740235,0.5456288784023974,-141.87033897652498,17.565635462781152,31.063299848918597,0.4580597141985546,0.1321722295799502,0.2017774431657114
1.36,-20.8032043548354,50.99378582557749,58.56184309368435,0.0174362782025607,0.6296927320166802,0.1927499023352424,-131.81914954743635,25.556647969465708,181.3260852092888,0.0744832637559481,0.9248067390131712,0.143228554429818,-154.75328348889178,1.815027617754928,0.7563606375865412,0.0371415931646274,0.1393244274402295,0.2057479420534387,-141.88331621431882,17.294463572972568,31.564312283903643,0.2946084143136385,0.1742560852614657,0.1636209180493383
1.37,-21.052243722595648,50.31544618692433,58.8649356683905,0.0856143094955859,0.6523761312360147,0.1386799006528871,-131.81125498550904,24.6782519715632,181.49002911022188,0.2169066235744746,0.7979708012833864,0.0982771480515175,-154.94325381971584,1.5709762532172633,0.6969384003876086,0.0992488252119165,0.2750872879127827,0.3054511188515529,-141.5019631271877,17.26381686891687,31.812500489462767,0.3957260772385515,0.3022360645568458,0.4103036931437799
1.38,-21.56390419506796,49.634686602380405,59.1841617468364,0.2425967021005842,0.5259962100529112,0.1517428678182016,-131.86916458810734,23.864177086984032,181.9546491768555,0.3870465296246582,0.6930105926812141,0.0892593834977076,-155.4331692168681,1.1807386586641295,0.5118839904926947,0.0788510987937889,0.3123232975092098,0.5011996556002464,-141.10728205810707,17.24543472875683,32.055375438899866,0.4640238593775582,0.2642162370261647,0.2411383221700656
1.39,-22.303185169530977,49.07819445658296,59.67903442776517,0.2617955233699356,0.467208716699174,0.1425106947842866,-131.93668936761105,23.49293250416182,182.26144889190965,0.56525071050155,0.7316323248620717,0.09490603018512,-156.12991968679586,0.7500694503155906,0.4983294707831108,0.0312922083908557,0.4215694491702378,0.5354455799926501,-140.79320663705414,17.060420886663064,32.44008237730283,0.3422744647062912,0.2770829771004161,0.1569053505797819
1.4,-23.196593161467067,48.55650762194637,60.17700231119132,0.314024657181691,0.4743486694343119,0.0997772962535277,-132.0918252860543,22.50026591853984,183.0890266941959,0.7307105186742817,0.8951912813556987,0.0774300478028585,-156.27517421095965,0.619094244356562,0.3326605023187146,0.2778924807880692,0.2082019612374846,0.2931420494308767,-141.00784146032422,16.75789191351322,32.81034931883187,0.2544915198085768,0.2112355766216233,0.1947531068552614
1.41,-23.875581453953945,47.99833294216055,60.05821117564696,0.2730119770895986,0.4915531971465911,0.0124488516504604,-132.2669676364242,21.50468471153557,183.94466301082616,0.8728559663916722,1.0700131377739357,0.0798368087783989,-156.4519745602037,0.5154445288665056,0.182389601872819,0.5080546164681772,0.0100804114456748,0.0204385564125601,-141.01241409748224,16.443009511735525,33.05979438238868,0.2598611953958394,0.2788832330069055,0.0535463246146105
1.42,-24.42537186825116,47.54578737031873,59.8086260640224,0.2083794147876583,0.4395819299049302,0.003930708477245,-132.3237272766165,20.38034732661975,185.01975818200503,0.9440399717077866,0.9350698346668472,0.0181600248888516,-156.49987839751853,0.4491133687647596,0.6913705601437449,0.4398753718240551,0.0844783849655458,0.1194406288375402,-140.92534005938913,16.108599911358812,33.32388594282089,0.3311668780386516,0.340955097696429,0.068737816370833
1.43,-25.060405561113235,47.06843424892286,59.56247732735582,0.2056510067288841,0.4283801706320046,0.0007249384721124,-132.4341622458397,19.321303759964227,186.1958955599207,1.0175456014608892,0.9759286508246088,0.0280768083093626,-156.87835426156667,0.2586244604712406,1.0660659249398825,0.2748090254437473,0.1843670680348193,0.4365684679277182,-141.12308963684004,15.6836867698764,33.75805611342536,0.4094461893788736,0.3213408723615475,0.2260242479758063
1.44,-25.31117005034313,46.81571016734319,59.45857349113054,0.2058176806906181,0.4845929534768099,0.0239357432298095,-132.50041517308452,18.774695849657185,186.7823401178893,0.969724626820106,0.939825053265733,0.0498132222706009,-157.1659443882368,0.1547664886343527,1.1406799930725045,0.1646925168185371,0.1459627336477173,0.4766898734497704,-141.1977997921553,15.545172425839684,34.01967913497952,0.3925898387669408,0.2093391286199334,0.1944268395631703
1.45,-25.5690870457167,46.54114614493288,59.40705229393089,0.1828668456955115,0.5330101754556921,0.0021010605901808,-132.5550387266323,18.24994673539628,187.36901124560984,0.909197053035147,0.9177902050902628,0.0703632763321486,-157.43348162145134,0.0689387864429275,1.2371921894120448,0.0927071255229664,0.1506788162829454,0.5379055002197884,-141.29644725018227,15.364995671434931,34.25768665028555,0.3913716832470693,0.0459267425350751,0.1983680493894929
1.46,-25.983312497097785,45.93324244232783,59.17320723025222,0.1078176802964196,0.5419660297400286,0.0279331975004691,-132.75447748090946,17.366072517194162,188.4391058716056,0.9413829697471924,0.6743117750884875,0.0690647934068573,-157.68980452840702,0.0528163352658785,1.2327120196139307,0.0425658040266371,0.0312681137272247,0.4348662128687997,-141.64077134099696,15.198802802903549,34.68351790860605,0.407980767555782,0.0844719068378133,0.1774947967830439
1.47,-26.369211503016984,45.380104482960135,59.05134470964684,0.0909081060139893,0.4928955908635503,0.0183196965771433,-133.0486579916601,16.99492327917026,189.74177819015196,1.381475561028045,0.0136270891358209,0.138311598815455,-158.18578700803317,0.0577419717299877,1.3081073629927462,0.1275489775586603,0.0072804982725653,0.3260701003668972,-141.78348284775663,14.807460434824533,35.32365392401589,0.4943734531264491,0.1900298652228891,0.268900812032437
1.48,-23.935657429011417,44.76232816735496,58.9453341540357,0.113988534008881,0.5579978523340302,0.0143763263648111,-133.4562056718081,16.925463025520383,191.1900460015985,1.1891079387250811,0.0907907824192614,0.0991225181309937,-158.5087202012938,0.0555375908555268,1.4483213703177933,0.0875784378013813,0.0358066651421592,0.1565156276622237,-141.9277300470436,14.439941674095383,35.941101072411314,0.5880615227513134,0.2846797701193739,0.3532830416066708
1.49,-23.93467496946195,44.111533354188325,58.753360044461225,0.2089261915835446,0.55838497620546,0.0741857784329307,-133.73749783799383,16.756035396695196,192.45199518458443,1.093842750554457,0.2117010232629267,0.1057654035462736,-158.69757319418733,0.0835473232054218,1.5137905139188923,0.0608684259544667,0.0318450076072671,0.2285355069032628,-142.01401835720185,14.06769477230326,36.63747076545303,0.6342015912637029,0.2032665144218894,0.1880214394426575
1.5,-24.00221586205787,43.55805724878236,58.383315090764285,0.3029131157905469,0.4276465437596009,0.1093347888670119,-133.9292310061912,16.62779363193549,193.1908145801353,0.6471164367389983,0.1768982932197874,0.0985150889731987,-159.0005585152692,0.1025255987557053,1.4203333492163244,0.117700198130925,-0.0029161283385725,0.367928929264231,-142.1229452585102,13.740350325857758,37.37687600724615,0.5653952688898038,0.1427726594430565,0.2409681622790944
1.51,-24.050269951627048,42.993465486612585,57.33708415044216,1.0042588743594842,0.5306205892794209,0.2358890512273551,-134.1278386072301,16.432887543110397,193.87771345117093,0.688947531428444,0.1457161543789132,0.0938746616800844,-159.63596350789342,0.1380291159712932,1.1953123067522622,0.1753018051073296,0.2589929518034823,0.3658107490870231,-142.37327918540615,13.436553452317064,38.01088603204522,0.5377662263755492,0.177442862853923,0.2858878049122454
1.52,-24.185651788408,42.73232611035724,56.25577947518341,0.9634642838661326,0.4983771783170037,0.2436357931090854,-134.4472711300722,16.192119862533666,194.50231192414,0.6135561717708903,0.2339158456804299,0.152860673761848,-159.9516212530742,0.3651467506821855,1.0020668430452797,0.0298725971580299,0.0505981844723098,0.09561972840486,-142.5589929486239,12.989503653244793,38.6251046802657,0.5093708426990229,0.2270486613750605,0.3336180773377387
1.53,-24.310949352468576,42.44466670455426,55.12762669796378,0.9188332889508696,0.4844723685439558,0.2451064100847702,-134.63757321550594,15.673851262067592,195.2256677474874,0.653469084090854,0.420645014371163,0.1308871023247539,-159.68625976440822,0.3742859740630542,1.065925971105295,0.0780343418903834,0.045165461643771,0.3052013941873741,-142.74760113440476,12.685811545330852,39.13937198351312,0.4642064699303598,0.1201819830927694,0.2847934225192187
1.54,-24.498843934144077,42.0042577168111,53.67962011982309,1.1490542233950252,0.3252065482353688,0.2876203322494107,-134.8007668481865,15.556490435893831,195.5188191624384,0.1776376348149192,0.0307128884954948,0.1316826510360091,-159.37963041682923,0.2879662968591634,1.1048934822097645,0.0892102809563901,0.0291415944878361,0.0978513592389404,-143.12149481908767,12.365936060866169,39.79634629016274,0.544478609834938,-0.0053172895138716,0.4474823876620969
1.55,-24.625368452352863,41.75226461356988,52.50533545446108,0.8133109320401439,0.0580219611383537,0.2321104442954409,-135.0509182467871,15.484319151395876,195.6779526429605,0.1980328575117637,0.0961156251485872,0.1876492023867855,-159.6907407584562,0.4574930077063926,1.0560987218353863,0.0901738200148391,0.1300937162792395,0.4300466351147069,-143.43551763338826,12.17588080571401,40.28548537208249,0.552420187544972,0.0426240481868169,0.4446175683499921
1.56,-24.65586203399804,42.10467940355112,52.02396846351409,0.6091132424964305,0.4326183004202619,0.1628345317743367,-135.16928028461328,15.537217059707316,195.78872611313707,0.1980300643424798,0.0583200347414273,0.1593578486547732,-159.8403495742646,0.4984401052641535,1.0702238066006298,0.098255264216021,0.1204353157373782,0.4053343992232037,-143.60334822462625,12.079836635131231,40.50609409967442,0.5288585492586644,0.0628317460267407,0.4476542635263476
1.57,-24.699263683666324,42.43676332664479,51.575073877326,0.3859188156531266,0.7418896124899331,0.1008829714680902,-135.23835096920968,15.54512857010655,195.88550433011085,0.2199196559969797,0.0178053193216668,0.1217658473538336,-160.00063673081286,0.5660776785943571,1.078102432710193,0.1021315407229501,0.0916572406077602,0.3733689422119453,-143.75353761084975,12.00644448479942,40.742545506411545,0.5319319144239615,0.0789563533387619,0.464626503177941
1.58,-24.621250689566335,43.127973418015934,50.91821604065459,0.3546752540853526,0.6173039985340388,0.140998161891316,-135.37070844096272,15.737313587252444,196.0767112607208,0.1282899378965148,0.2765018804095943,0.0675842584068877,-160.1246680265156,0.6047471609340279,1.2514832430712453,0.1512971171878966,0.0243424074300512,0.1812953397093687,-144.31462906817433,11.695444468218383,41.49158504492439,0.5491303900345765,-0.0087546835789156,0.609506468753942
1.59,-24.624555768956817,43.80487852000614,50.2467798882314,0.4228042312087501,0.6860719249825225,0.1435166530701534,-135.4505783799681,16.260924620033865,196.07414281347351,-0.0036184479311356,0.4181836669696668,0.067247013724794,-159.89438983888715,0.558287113574834,1.380285042012773,0.1109081985883225,0.0599869842485208,0.1916323077542762,-144.94449953227345,11.267957356182626,42.183904858038666,0.6216408795254059,0.0126094509067332,0.5319578293466148
1.6,-24.63712565678604,44.76770985394428,49.75702843612522,0.2190128505102196,0.9087093329148256,-0.0083211307562511,-135.5446824256809,16.685767581212282,196.01942869444304,0.0510762737370878,0.4625844797791694,0.094768075190897,-159.95013900625815,0.2961322111965001,1.4474139551254686,0.1364799055974113,0.1610865950785905,0.2208554258322841,-145.43993803992305,10.819792927914667,42.99505298390456,0.6937938028596241,0.016573101830593,0.4444079181973356
1.61,-24.19895725600922,45.789648927720975,49.631103422594016,0.032259370830027,1.0227740184177976,0.1446481773268194,-135.6309241816476,17.2950114076337,196.0042416831492,0.067813985001217,0.5722056958621878,0.0219997002962412,-160.19543831541364,0.1867439689392316,1.6128954747181166,0.2496484220414861,0.0803791567076333,0.2460743949572017,-145.7956805952562,10.511325522666626,43.8195990794196,0.6558081270062945,0.0155443262799951,0.2645303313267503
1.62,-23.932170599734672,46.985925888408666,49.31419774522908,0.1147220699750323,1.065723117105542,0.0094978978118099,-135.70073902456002,18.263195110844325,196.12851540100965,0.0845790246774724,0.8965572233405139,0.0160220656421343,-160.36066777528129,0.1259555520689285,1.9914383403034464,0.3161120196658453,0.0446509659154608,0.1002688808558218,-145.99831683064454,10.298509974554758,44.54587122172062,0.6523975316135812,0.0789095135549958,0.1966449859623694
1.63,-23.63506953144477,48.32245574586062,48.90996492370228,0.0610041321763097,1.2940900489135123,-0.0108879841008951,-135.71213578752892,19.363524206031087,196.01415562842828,0.1269476539679195,1.0744567377312677,0.0144306718125225,-160.43919278208585,0.1255887607520177,2.249280349699071,0.2022410726153249,0.0776514732559874,0.178199416093908,-146.41959736371007,9.81795788533661,45.37976618113551,0.6646837423928563,0.2119278655063888,0.5259576061727687
1.64,-22.673506488394622,49.87716826178379,48.79406388161673,0.1521326204515904,1.4290929963469663,0.1780769139445543,-135.70359590456522,20.578332580612283,195.85806885844437,0.0755684689653511,1.142066667108016,0.0244778895976331,-160.75628403815185,0.1091188807150404,2.436405934973603,0.1448490393805542,0.0197188010615063,0.290633167627265,-146.86555857841836,9.37478085153431,45.9521793848345,0.3373837996317199,0.0199370966918408,0.2456326457192724
1.65,-21.56433010155238,51.54672643661702,48.86662079797685,0.1224241149295785,1.558394831693274,0.2210001477163678,-135.69557248073804,21.816465755522803,195.6914716602423,0.0531458830551132,1.2367686513766096,0.0589519200591853,-160.99541009973998,0.1332401593143838,2.616092950604195,0.1892647610409767,0.0969616872884414,0.1473900660242953,-147.05868804395067,9.19521807271807,46.313230789991685,0.2882801043205941,0.0177188124708578,0.1583128680464239
1.66,-20.820419093546988,53.437412833529,48.55734427224202,0.021437945131811,1.6898182364476906,0.0998238207202122,-135.62636497372003,23.431944541074788,195.49713220729052,0.1671973193166177,1.461223548233449,0.0751258556739908,-160.77517764673124,0.2330800222238505,2.941569049853291,0.322340227081862,0.1276195634997798,0.3619891185229019,-147.06091779822256,9.068606998846484,46.63499187628275,0.3895835769783315,0.0953779938084313,0.0813747284162543
1.67,-20.50401980714462,54.39779330535637,48.38081954178221,0.1005971175205236,1.8392995439924045,0.1058344448967453,-135.49243035400977,25.04747847422217,195.32249052319733,0.2046599001898435,1.4378814492443417,0.0844019680030803,-159.9481948412781,0.3200453461287871,3.3114054742055394,0.2849468961597984,0.1023418958987796,0.5502111424825825,-147.18400812381813,8.820400997029958,47.05395772920552,0.3759112511334235,0.1579289110321229,0.2961187861512891
1.68,-20.03631602800334,55.407297922158186,48.20777256849513,0.161811104073087,1.9288443349720148,0.1029937958276702,-135.43693800524824,25.890873891701013,195.21483771812197,0.1582545380977159,1.4781858807348285,0.0893423184251368,-159.72154943807655,0.3759435685030413,3.3989789602810694,0.2241207603554543,0.1316498019728143,0.4394215724720885,-147.63328981102168,8.380179473108395,47.3940503641185,0.4911146230427583,0.2460337177437936,0.5638204266173361
1.69,-19.5715717929059,56.44932421279989,48.05973782699861,0.2169939508742642,1.99100340804731,0.1511804450075197,-135.35867473029717,26.68663972465888,195.1198854915828,0.1047093800508875,1.4922013148872115,0.0838200817455961,-159.50562251000753,0.4305142070353823,3.5040863738531134,0.1498923711318177,0.1503263168866497,0.3417895169328611,-148.05351588583315,7.9482179716430785,47.69353715958955,0.6128807484709677,0.2931341120281455,0.8813313504176432
1.7,-18.41899067233147,58.6819659169754,47.818623166749575,0.092344520689513,2.038906251453367,0.1459075538054334,-135.38115992926436,28.39322502988038,195.0800386081175,0.0840421852868369,1.47411132737617,0.0344223609764227,-159.1730553108038,0.6118743618001805,3.6930301233835983,0.2256005633456616,0.1867717587626911,0.2570983546441714,-148.6962560201804,7.096908177644762,48.54116952493079,0.7775218884354518,0.2691078279492802,0.7103291337577292
1.71,-17.695186181129163,60.93803951342797,47.33191928145055,0.0221951706586434,1.9793048104672333,0.0347125793080763,-135.38427218463238,29.119726303795737,195.06348296782608,0.0310875772427067,1.5809408038499166,0.1651513999171268,-158.75741961880345,0.8067902149598329,4.00522463914269,0.2685319372003265,0.1600610967510791,0.4505464764547019,-149.37798802651167,6.316989134735791,49.44250068843679,0.7745186459994126,0.2673306112409054,0.7699881012732954
1.72,-17.179788190902528,63.04817342451747,46.36048947140981,0.0186972082736874,1.939300309095761,0.0141954943870969,-135.19187302788364,31.049742891207327,195.12983555174503,0.0211474191344587,1.8527329287919416,0.1945969640753086,-158.20411046543538,0.874395500239527,4.246911631822147,0.1556722244436812,0.1459656393454087,0.4348345188545998,-150.25327821764395,5.509339862131169,50.25796709852366,0.6533464303716334,0.0916608744392734,0.8897712344810254
1.73,-16.581273407595408,65.26730305220244,45.39307591077037,0.1421700257217828,2.110036621923129,0.016776650568422,-134.99804393486673,33.13641354779647,195.1724929682242,0.1397871094144252,1.732141500709657,0.1821360707415389,-157.85979710158662,1.1764424320176396,4.3191918055099245,0.0023483295251085,0.3295440651885506,0.006347460769484,-150.78799181969896,5.195895046620708,51.05967658636942,0.6542403177974369,0.1870890861080741,0.2551078457085919
1.74,-15.622961786993956,67.88995632651083,44.10909276562801,0.2194549490054503,2.645960805496626,0.1139642657026206,-134.80019811810098,35.054359136416416,195.0679147740193,0.1034177906852288,1.7289083766810505,0.1425639360128798,-158.06104927824228,1.6775073336011723,4.368089311819747,0.120705485829765,0.4392882621046994,0.2981642763076192,-150.86751448893895,5.303309595271605,51.75828444098773,0.626858869159536,0.1641396199881628,0.0529226998079346
1.75,-14.764373244858245,70.60867478803857,42.41247638612055,0.213153788244485,2.521414688616995,0.1085534590031487,-134.70211174379466,37.05434437926358,195.06949327999183,0.0652038480704762,1.9577091189180944,0.254433863945156,-158.1007194830841,2.187969993698872,4.508983984433962,0.0905836379796142,0.4631359050921089,0.1079754233190431,-150.80503869705487,5.430718178978562,52.38294467775789,0.4861520644030933,0.0708679843097519,0.1643176135532408
1.76,-13.99451644410336,73.05424530176931,40.39599383868745,0.2130602890829382,2.1549755144095357,0.034109084150059,-134.34835476728247,39.2317390866628,195.23927860626296,0.0147543312343544,2.062156629613079,0.324554180884635,-157.9887420014496,2.672604354664972,4.5988638504008446,0.0778613636795241,0.4734062739300704,0.1651013437687317,-150.4671620010512,5.812004401162255,52.90000413395822,0.5117850747529065,0.0358426366277674,0.1991651177525257
1.77,-13.28597856439206,75.35430299262448,40.376814310096286,0.2744945368988412,2.233333222519005,0.0078462665840848,-134.05581933678292,41.49575493979224,195.43923651528272,0.0224685883322538,1.87362520836916,0.3190956787682767,-157.72364715583225,3.1783630299593533,4.588007690585281,0.0919779589560578,0.5514655789835557,0.142321325386857,-150.11808654606017,6.183706878112926,53.38373223822149,0.5118388167821133,0.0189159122091205,0.2272040348842026
1.78,-12.56645719298685,77.6125044657773,40.34754722737989,0.3177048059170946,2.310423446838888,0.0098645677063539,-133.872642451547,43.48436983681973,195.68499649122415,0.0713471585132795,1.796148765149545,0.1878082676820847,-157.44327493032014,3.618348808224866,4.5724864591702765,0.0509340976520743,0.6641695056765359,0.1142072950269122,-149.8612591502159,6.188587554513454,53.73955050661213,0.2992704658534298,0.2278551932882258,0.1239425775526228
1.79,-11.819342762104892,79.75761191744934,34.87187456094209,0.3068796568441333,1.889993374917324,0.0201247661412906,-128.94045524358813,45.556091432035885,195.85321263231685,0.0146227367256387,1.9328205715038007,0.1971760243709162,-157.3603516593778,4.372101611205811,4.481862673294477,0.014755142029474,0.7982053417714048,0.0281115289189503,-149.4035711941653,6.431945968170011,53.986001932169394,0.2492488364498784,0.2089999585440221,0.2401078473343182
1.8,-11.513990230759369,80.55894776214718,31.67890858898463,0.30409071092857,1.7653994033349043,0.0219872566241765,-129.07289204462242,46.72496983136416,195.89582614424253,0.1051712581285354,2.03311001621077,0.2098327194597291,-157.35441822670467,4.796533110644765,4.494794077224137,0.0463404750194001,0.7404001792125047,0.1077147059820275,-149.17611639384253,6.572401504180809,54.092637458782455,0.2354144446000518,0.1775323301979641,0.3134583732465061
1.81,-11.199249335309338,81.37401738164601,28.481489187907226,0.3154278978549649,1.6348801074025874,0.0267591630502802,-129.19299263308633,47.88630236927882,195.94109581612372,0.1932963241129272,2.1451411556147804,0.2389315254254766,-157.3009199729916,5.250866412800734,4.514071119057341,0.0950176720983655,0.6595211751954408,0.1831445439916217,-148.94949836614947,6.70425070895941,54.17357763400216,0.1985623214684118,0.178495028662462,0.3581546637235872
1.82,-10.6424940083147,82.51722503468336,21.292227548861792,0.3547952250526403,1.3927520924557817,0.0149635154961093,-129.1122850130898,50.25952749184396,195.9419486895378,0.1966894385424276,2.099036600787393,0.2297144553948203,-157.06514186972913,5.957844324423909,4.371254929815766,0.1602214742783698,0.6053044272315277,0.0698222753033239,-148.8755524620363,6.873245980828339,54.45698064354028,0.2449005905918247,0.0529165525501154,0.2249322877026345
1.83,-10.00797361045733,83.57480259491962,21.30172484156413,0.4002366281610373,1.53021542273497,-0.0181100567694323,-129.25450656081082,52.44590301748725,195.9898016678041,0.1453947276716599,1.9361501034252335,0.2551233030040734,-156.9943563307397,6.613765426120683,4.1997516186007084,0.1940399626319375,0.6634796616246416,0.1653896914900261,-148.69516789098125,6.944768467719532,54.65781470483935,0.1836505340924003,0.0639002180729287,0.1351603620722712
1.84,-9.31651586841676,84.3760685544123,21.368939954578558,0.39326740221933,1.5358742208397511,0.0343602584263062,-129.1261025401881,54.746495905693365,196.07255594831165,0.1832879590306812,2.2181312900878627,0.3718355631191933,-157.25562617416523,7.500765549777404,3.9421689290231097,0.2404182478533011,0.9252556719775566,0.5512129569041732,-148.51284194572816,7.061683336365363,54.81075324739267,0.1820465477890889,0.0367864900042042,0.1543323235939474
1.85,-8.689951397525359,84.75671215380419,21.421368522073728,0.4192388878479117,1.092446442380763,0.0587612552955531,-129.30315264633617,57.19518588909019,196.3264863597537,0.1575201701959559,2.2349147771482416,0.3571065475262243,-157.79072940913608,8.549222616286947,3.5463263131023237,0.4116608240266325,0.9917560011318302,0.4837082291485139,-148.50314249598637,6.995942183251929,54.946831575859214,0.0731711003616245,0.0641106320897947,0.0869317284262455
1.86,-8.13668907876235,84.78641055955794,21.42310599607036,0.3842479736070343,0.7887032261437494,0.0348984128498785,-129.56968133685376,59.688516267483664,196.67919230008,-0.0039764133662463,2.0616101026934914,0.2520086091185498,-158.2973661778789,9.674502258842075,2.997053746517507,0.5172634403709538,0.9283900882491806,0.510604055108779,-148.6789428280523,6.8703673607866325,54.98357077767248,0.0072435832464355,0.0531924881250917,0.1485069065998002
1.87,-7.627989100403763,84.7463655461693,21.363627240161573,0.3498231063191576,0.7517232398830435,0.0325830788396728,-129.95427748567758,61.95553846606264,197.0115659348172,0.0301399541998684,1.9639985400597744,0.1792237145824783,-158.79693426563807,10.699798713682194,2.183342938110386,0.714899331910327,0.838148055261451,0.5834250623819701,-148.8824394206881,6.927764049099242,55.11516634359871,0.1442073016094207,0.145069397488309,0.0339293386450659
1.88,-7.116054713498396,84.5889742948366,21.32709972665631,0.3394949256020352,0.5818531758537234,0.0939649319796034,-129.70350510136382,64.34278078478134,197.0892026952138,0.1398841891144012,2.024732023503504,0.2198962173162205,-159.38091532761894,11.615047484450985,1.2478830670786238,0.7208137266632385,0.8976356167491297,0.6733282886479567,-149.0583145408048,6.952016283370623,55.563355225243455,0.4346644636520182,0.178406780286446,0.1390633479941551
1.89,-6.581044091584991,84.44041643975996,21.2520854241449,0.3160704606878694,0.4494502948203848,0.1195170250162079,-129.50673219183582,66.72446793363399,197.18395361969053,0.2724366725469974,2.05362192635078,0.2553086445096599,-160.0568410152809,12.6329603045645,0.2579024310870053,0.7420508046097484,0.9093957593075018,0.7390269819163355,-149.43844119966212,6.689847347657975,55.80820945868398,0.1725263047755855,0.0001944845844839,0.4412419904813683
1.9,-6.081530398757738,84.49794341848474,21.05313604990574,0.2740692302996425,0.197465344101238,0.1825817376778524,-129.5112980340963,69.00661851709684,197.5743384113643,0.173992765457494,1.9727328469321028,0.2383865585938806,-160.56156923832057,13.561691319848649,0.8087156774081548,1.1178725646080043,0.7986834234649719,0.3487068784366821,-149.68663313916346,6.417881794637981,55.93411987284816,0.1789214101924222,0.0759202658313485,0.1681309813936003
1.91,-5.621969069162449,84.60858220100715,20.932334893285702,0.1881010984649958,0.018640506767177,0.124148142849507,-129.66854864619927,71.19784811922146,198.188706471521,0.0287118663219854,2.022159841755627,0.222083372251565,-160.8225538038773,14.431399369839042,2.1852509014939416,1.1626947500821232,0.852608499196358,0.3246494694042829,-149.78289004418974,6.3212973486643005,56.12900632498637,0.1771621423208075,0.0561006096337019,0.1730392752258862
1.92,-5.552237782763218,84.72593786571099,20.871809730589387,0.1166207664892348,0.1337776123783634,0.10255167299407,-129.72140371429836,72.36855945680732,198.0946218857088,0.0703240057207299,2.1095998329832466,0.2018080535759697,-161.0785419848348,15.055253193384097,2.964143176174595,1.1974894818619084,1.0391681276246372,0.542122337658606,-149.819696508398,6.273182249061964,56.2047458216329,0.1767145498873799,0.0405867108323371,0.1559789906639635
1.93,-5.436124830065823,84.81645586019262,20.79095699936773,0.0832043811631422,0.2489966673026202,0.0949754770346849,-129.7449334297754,73.55428939087999,198.01071746061888,0.1466184235363193,2.2046553248245284,0.1747904258991184,-161.3782002215221,15.681086946855178,3.752777330351838,1.2685271036418349,1.2294750012813218,0.7556179655505914,-149.86120989085515,6.172286234458027,56.30500792816388,0.151913712047072,0.0400831189368155,0.1580994901651992
1.94,-5.323513860014688,84.9850227124896,20.684035439811403,0.0811397324571129,0.184112124627714,0.102917251218139,-129.67285613416246,75.95015850561003,197.18968827744055,0.1435608970911847,2.074635374036837,0.2312008735002967,-162.19087136671266,17.08193301019327,5.688244074520953,1.5210491245827369,1.3767868324243355,0.8791378283184668,-149.99727866111553,6.196025490462024,56.63491446193061,0.2539066635948548,0.0942550949894733,0.0318760952138565
1.95,-5.082228037106655,85.10870533915465,20.578467503919917,0.0900745366687109,0.0629620152757256,0.1303815977619185,-129.86855457467396,78.0053395710954,196.05560541658645,0.0339625460465766,1.8054369740075555,0.1381827738760226,-162.93888758799378,18.57028366469929,7.81319471412391,1.5822343284066445,1.442071019085394,0.8543274263582215,-149.99681888056182,6.304408654182456,57.13482479676418,0.6191156950105878,0.1362945201052937,0.28948520360037
1.96,-4.948236717694943,85.18932998598675,20.497639753168727,0.0486877635635494,0.0833878218719156,0.0848421930485719,-129.80261452172186,79.805891080948,195.5622915852603,0.1254218201932376,1.6444195858729216,-0.0070536894179176,-163.49307894962828,19.93835191143221,9.998537092432452,1.6854372939545643,1.306432822684834,0.6211794467343091,-150.49079292951248,6.061368544528206,57.87989120110815,0.6624326854848858,0.2060186888098493,0.4401674336327564
1.97,-5.018173468213232,85.21385993882558,20.464589244710925,0.1130234280300413,0.054504397114131,0.070658403344497,-129.96223207968598,81.77205030913268,196.6127060613588,0.2250215836512542,1.6885613662567964,0.048657663495694,-163.7937615095284,21.360087587138214,12.182182681166116,1.694348515866758,1.3962985992702426,0.4520837179459385,-151.04964614894308,5.797558600470364,58.6751858007661,0.7519871553804883,0.5221046896665315,0.3532564004549388
1.98,-5.056745193401048,85.23781654987641,20.43401406651877,0.1748419689296869,0.0398757662247805,0.0563069444181807,-130.11605064920548,83.75472935485222,197.62382818512623,0.28508231988407,1.705906586962854,0.1080401865781984,-164.1549238781468,22.802889855123176,14.37033297625014,1.7005147881311702,1.404275036270928,0.2867827869232476,-151.78975200796188,5.825394243331805,59.637779398028215,0.7551589846066633,0.6295994616347863,0.4546063816127255
1.99,-5.267281133756344,85.11432684243775,20.51293096251769,0.0829742503919268,0.3884921986002658,0.0490508654810778,-130.5501343200985,85.36951602051914,197.50188438478511,0.2094854131654939,1.3504937867093736,0.1062315803001094,-164.25109466103817,24.205796923590107,16.624199115835047,1.7178391766619023,1.4029218132146564,0.3379932633624267,-152.69115893886186,5.607612311963836,60.68401904457891,0.8489314364922944,0.545306446257549,0.452938836813878
2.0,-5.277527211539692,84.87510517609611,20.52006663871676,0.0491875090631095,0.2089869822742057,0.0261350860830917,-130.7582997209206,86.49722763830269,197.3654237267753,0.0057837760906721,0.9832396517956858,0.091556817331612,-164.83538304376896,25.58901648906108,16.615123043938855,1.6810609933539595,1.4741315508843091,0.362242919312672,-153.18504475831233,5.691343648221899,61.68409566663941,0.8493937946127097,0.4426529172863371,0.0999378617699232
2.01,-5.336488047413762,84.61567290656544,20.560154875092245,0.03420770761943,0.0191043999068318,0.0123951505576322,-130.617354716396,87.68536314924606,197.2275377639976,0.2092401427741474,1.349742918183634,0.1423607074895713,-165.4327534887943,27.00881319865615,16.610920786249686,1.6694177197677762,1.6297612865947235,0.3529139005385197,-153.30764033004178,5.876790051687044,62.665099553592015,0.8845328529286018,0.3583343811393966,0.0752459281186775
2.02,-5.330486738936471,84.68952808265597,20.62714556062993,0.0952993815557784,0.3474430749985145,0.0782679263173241,-130.69237803418406,88.3135025919732,197.12664841772312,0.0479678603868252,1.5234596370649012,0.1417321379132599,-165.49906318590882,28.505443660919088,18.863802009822937,1.6048376241917932,1.4669383310384414,0.1082318238360484,-153.43589476758228,6.042630888261928,63.64534768800471,0.8900772853102535,0.2817904250383017,0.0335684839235037
2.03,-5.3005419008378905,84.80824835643928,20.670602752053924,0.1196876827195169,0.0515877342456364,0.087953060326564,-130.81101551306782,88.57292401229466,197.11219501390232,0.0639196455365921,1.2632923582978068,0.0596275563493603,-165.4576420403845,29.940682501026256,20.98324217073,1.5318829262428937,1.481565029314766,0.0456560990257239,-153.4431652702993,6.254509308926808,64.61811683311288,0.8734746550419299,0.1817144190105556,0.1086152689063652
2.04,-5.292430981529102,84.73903184301466,20.71899205100968,0.1365068725542987,0.1081294265636449,0.0462347205712542,-130.84712592822953,88.15992754232653,197.15158930360104,0.0645311808341866,0.966819638511538,0.0506588700560037,-165.5333527357345,30.716809277664705,22.137114717553946,1.524665394301648,1.5840967539190791,0.1084601171639492,-153.3640644915747,6.447295384207649,65.08575970439335,0.8545911640784306,0.1595774346060741,0.2635761241684125
2.05,-5.254737997284024,84.70147608922814,20.74039520858399,0.1336528230610764,0.2078617496211429,-0.0071893326556072,-130.85800218784712,87.75486372397653,197.19248123106783,0.0973300458512121,0.6747054352499225,0.031462466271636,-165.628610798751,31.50751801085827,23.32017725867586,1.5185242655221738,1.694901184416834,0.1968831886450158,-153.32384627172036,6.684823226651228,65.55552740352903,0.8456117162353842,0.1149382262078572,0.4158698649454824
2.06,-5.137092027049459,84.62250776095485,20.746751795942185,0.0766004061915663,0.061310899537255,0.0311487468458939,-130.82171650555478,87.11505903142395,197.2590832777377,0.0997240042652937,0.721316906003081,0.0881309396341112,-165.43850602129262,32.99915217499984,25.231985301544057,1.3360569218916254,1.364681195638349,0.3113678292762678,-152.70259416945885,7.239079034976904,66.56458927164796,0.8935468986890301,0.0341183904235426,0.5475321361553878
2.07,-4.994302452975357,84.68492138015095,20.757631500658405,0.1116043808778875,0.1345609550582094,0.0171941744915293,-130.8202500287045,86.31151586374925,197.3669760514402,0.0564129906617059,0.8610455525899555,0.1352669307942675,-164.81254115527565,34.326019598075604,26.7970352649538,1.3208884303242288,1.0531662602326832,0.4289594774901415,-152.30361061467715,7.692300927318969,67.4981977704283,0.889503913429401,0.0473626901961071,0.4001146208341434
2.08,-4.879999092926652,84.81704188701947,20.758477622769508,0.1444054473210213,0.0480155794110625,0.006300367087114,-130.91124255047956,85.59066656152976,197.4669546608702,0.0829838160938599,0.6525190639885439,0.0568686858889097,-164.8963992148603,35.24657868255456,29.05864689468766,1.4533461236729572,1.2277776432600975,0.5618836349583453,-151.9261523470859,8.07277905378281,68.4265238633206,0.8093866993623202,0.0638674678576487,0.2488555864193521
2.09,-4.719294292572011,84.75248365820912,20.754916183996134,0.0949709496167506,0.0943938156753771,0.0273447459059609,-130.99724292301474,84.88940009339964,197.5734124089824,0.0992531199702701,0.4314973822219796,0.0459164038792838,-164.99348923681546,36.1850296272338,31.378555155396505,1.56521780747822,1.3965584167025158,0.7245201962645883,-151.37728658070728,8.496423828904364,69.24855348161545,0.7977912896758232,0.0012911428439491,0.4759421471185469
2.1,-4.561231120911351,84.68540998083235,20.747923364647423,0.030540561102444,0.1482158424563473,0.0054762834308607,-131.1312710354048,84.31235970418486,197.56558787384336,0.0370498711448661,0.5205009861058498,0.0256077655831999,-165.4426237114874,36.93436603371879,33.92769739984177,1.3613492134053224,1.1437554007887232,0.3022835962652955,-151.19722804305903,8.747702785520918,69.68659370510443,0.7770672099414019,0.0376350557547897,0.4439800984607774
2.11,-4.584360513907598,84.86183923597477,20.717294162141048,0.0396202109712134,0.4802434330923852,0.0170333341968641,-130.92626857435283,83.69858949936017,197.58036244198237,0.0953661569042558,0.4826180874114837,0.0701916674425943,-165.3521511840391,37.17750033312223,35.92062761669769,1.3823970227391733,0.8602364333779206,0.4852610169988466,-150.5634179127114,9.174993081335607,70.49681300577168,0.7282000674906951,0.0247632399002362,0.3329221688118147
2.12,-4.614641722384358,85.06031589963115,20.7487904279526,0.0252260476767429,0.2048125769724098,0.005322776329579,-130.74283891758955,83.05446728807344,197.57908088412503,0.1198879813136095,0.4244363372543016,0.0862562926003761,-165.2534534718542,37.43665815865622,37.90976960109448,1.4069730585533324,0.565193280144098,0.693225267443521,-150.29457329522597,9.465807929060018,71.2774322262462,0.6740431464312858,0.0398670147386876,0.4591241869553448
2.13,-4.733044186819118,85.12360624780761,20.75689428540305,0.0223932430840226,0.0710321361238681,0.0224412740131933,-130.68159072349607,82.68214249091972,197.4515572909757,0.005139040995042,0.0854977960814102,0.0022495851060882,-166.24114530508317,37.24313500084557,40.72874014524582,1.4641479242983553,0.8949856961610132,1.2733777855039377,-150.0041452980184,9.766274550872042,72.06706914923964,0.6035278650876524,0.0586321349587646,0.6223058830266505
2.14,-4.748801291874372,85.05499826586241,20.813596596332268,0.0214083399623225,0.0291066035844897,0.0482933334624217,-130.70690349191383,82.55120257216242,196.8686735114986,0.0648116931392737,0.4072111413015735,0.0704271291887235,-167.07710163650685,37.05532525516959,43.38571324491472,1.4176860735036427,0.7449741604392097,0.8131078867585715,-149.114007238864,10.417916199345022,72.61690410617098,0.5905038134404156,0.1037346629485804,0.5085180768553812
2.15,-4.8357765342163495,85.04657366938869,20.857404419244165,0.0881052925148121,0.2609188625623563,0.0343973540881009,-130.6466360992961,81.94836779981226,195.17994816194064,0.0027409070642152,0.7172650988053624,0.0465357196112838,-167.16866968037914,37.06867234491948,44.44324922466943,1.3719713558504567,0.6057759581748339,0.3140510272238364,-148.63469391532414,10.750325378310116,73.28533299590976,0.605301515661861,0.1756225353404982,0.3414048608151415
2.16,-4.939165436353648,85.0735015834742,20.902718754829877,0.1120640613771171,0.2750690903645223,0.0434906918767455,-130.65347555095357,81.56257694939765,194.52926944334217,0.1299319203414562,0.4648717089978898,0.0309004091715661,-167.1620628128628,37.18910115460219,45.42368056541258,1.3029862255849765,0.6139059893951879,0.2161170922078039,-148.36830077317336,10.903404003182834,73.60715518107044,0.6167640612490954,0.2323276563450147,0.2544096161428508
2.17,-5.052979910281186,85.10534703174564,20.938360067346423,0.1245519824322051,0.3077132502675335,0.0554008604017292,-130.69056906817934,81.19592265389593,193.88391103414827,0.2752311319830966,0.2347142249367919,0.0285132536775317,-167.1251148863059,37.29851534694888,46.423145652850735,1.2371780196601962,0.6532287184100809,0.1573681374614377,-148.12264232702765,11.073115520299996,73.92943753351929,0.6079197884767682,0.2680654002641103,0.1770265448360399
2.18,-5.2743205693642885,85.1200614347937,20.926380364843308,0.1259399063615973,0.0932991372784699,0.0417689862679563,-130.946202313231,81.11586561025541,193.13188351787767,0.2707732148427658,0.0925480944418337,0.0499685546597849,-166.69321831852602,38.07023154644125,47.94876182996372,0.9994007615103162,0.4601514562407124,1.0797925467132696,-147.55999288030102,11.211877516708558,74.49739000217835,0.5523021094229443,0.2836019161755151,0.1903378509774714
2.19,-5.447892059787594,85.06840977860276,21.00305786598476,0.1242249524102723,0.1798675635865773,0.0211864045338645,-131.04480362448712,81.33427144754717,192.8744530394188,0.1359830838655632,0.1102283483331121,0.0197493711903973,-165.03233196309836,39.45063562632565,48.73543684056485,1.233113666127034,0.3829845297914462,1.2146802418423257,-147.08273199687864,11.493702174227405,74.9352522484531,0.4767424686897706,0.2345749983213957,0.4451162931419866
2.2,-5.448919612444546,84.99669817497794,20.99415290372068,0.0297932282556781,0.0784773060334954,-0.0016675270713044,-131.06447904380843,80.93965626142926,192.5688935089561,0.0748669750840787,0.5193209401196364,0.0057076752208121,-163.69241721726215,40.57602628479281,50.28279368625102,1.362850245402647,0.604540359217744,0.7198710143099907,-146.3731634151207,11.874718827449891,75.42585219559584,0.6020326918613883,0.224724167637926,0.4360908083364535
2.21,-5.511468433232207,85.05175278969787,20.985456651255905,0.0312278121233031,0.2497544284060767,0.0095893615893439,-131.19154640257287,80.37110090145376,191.62470814996124,0.2363906873417675,0.5248932585083328,0.0140971246138275,-162.377856899269,41.69448002278461,51.86597422621294,1.5163527111216513,0.8627305899274144,0.2066857636405414,-145.8068670225412,12.246584717068773,76.0633100599395,0.7197957414331633,0.177919924105912,0.4317153443436415
2.22,-5.621017705453557,85.21212738314735,20.931171065688297,0.1341903965833866,0.2507947969563317,0.0311337150838765,-131.42540002530976,80.012562951797,190.3947765023152,0.3672684361789912,0.3037960011702044,0.065579321906752,-162.56042422602,41.79008976339552,54.59270651649159,1.5801225671880137,1.0524670527467812,0.6538973195270529,-145.44648145260766,12.252752404988302,76.74519432085233,0.5735824715355688,0.140761672303131,0.2030304103070735
2.23,-5.8790389426417375,85.18493885266503,20.928906383825268,0.2483441338201016,0.1307932504573889,0.0192811391543188,-131.62934691168437,79.81648456764557,189.4931768875056,0.2725889975239038,0.1733674575151382,0.0530076761943995,-163.03981551524947,41.55781232170008,57.97074903447308,1.945319786894867,0.97696304467957,0.8585461696510566,-144.95137243342955,12.51472821334223,77.36277645015582,0.6314129671137735,0.1236754763398644,0.2999099019145776
2.24,-6.05814119108051,85.18645475011161,20.928863289079757,0.2127967248928755,0.099670899466695,-0.020191093729899,-131.94636560759056,79.61505164049186,188.82457631145425,0.3990179728360425,0.19136404806636,0.0261618374942582,-163.11758218384475,41.18404857596303,61.37153465159592,2.2140697226634445,0.6856930416512824,0.6039413051943697,-144.66986354653173,12.636178961588785,78.17870660008548,0.6158321641816451,0.0548517164602557,0.1713611650069447
2.25,-6.248755482861979,85.18940889542058,20.939097680020907,0.1411702164304063,0.0625644957158584,0.0007268583266969,-132.179868043773,79.22837151125351,187.73510981396225,0.3294858866976999,0.4243273122360963,0.0825536807593576,-163.04915521731917,40.94758380221262,64.55305103112757,2.119556374706381,0.6117696224083047,0.4316217390728879,-144.37088659378236,12.761140984885142,78.99162833705564,0.6278375860587571,0.0515081764440899,0.0490414007106036
2.26,-6.511248955954361,85.19088118837668,20.94172599585617,0.2438319031056257,0.1762756393125874,-0.0095727849273875,-132.24236171790267,78.75540934581554,187.0036546251472,0.0740999811023728,0.3898711345655598,0.0670945954143103,-162.31773220466,41.053763285792186,67.18231713569747,1.9142192122492965,0.4659595623665877,0.2550436089875447,-144.44491927088453,12.610312903938906,79.69469384657,0.649207918807099,0.0393338953686334,0.2015132181975769
2.27,-6.761260918431716,85.17049942964695,20.945630153454506,0.153995938171121,0.1500510133539986,0.0563024542781876,-132.2433041475607,78.54599363866076,186.2880828247193,0.1126416549390248,0.2243857611024034,0.1286165774212851,-161.20241155020898,41.51383916405947,69.7902051226242,2.0092238042277137,0.5660456494642668,0.2878581500441107,-144.27833183761396,12.638658008325306,80.4359825980746,0.6772966629282607,0.0378377193074213,0.130864981042005
2.28,-6.851385575285153,85.16262890971244,20.963405850018827,0.1394097803861866,0.0998796519871717,0.0567410546086289,-132.24097357382112,78.45385259673647,185.97651314705865,0.130422428822402,0.1509858708497965,0.132920590837035,-160.76194983318098,41.69519802179192,71.26930887016093,2.045722302205169,0.6851931603309289,0.1828485736394484,-144.1998622699562,12.637666499473696,80.82849255287955,0.6890695754224495,0.0116211506155547,0.0991395573984081
2.29,-6.952645967650124,85.13763878674513,21.015972674779057,0.1133777333562383,0.0297789533468405,0.0666312225443921,-132.25648311460608,78.36939602834119,185.6477440036439,0.1530200464365562,0.0500620135050034,0.1671014411721931,-160.30052436585265,41.87668019836706,72.73367112556933,2.076317812998363,0.7916665559531019,0.0974637609626167,-144.1132733373259,12.638654270632752,81.20664466064405,0.7190780165195786,0.0091838738439546,0.0419961163162192
2.3,-7.111758152591456,85.06553143934372,21.07047442178523,0.140582535698822,0.0769997935407934,0.0330798819066004,-132.05196601049036,78.55643994218728,184.4963638857577,0.0412909243011405,0.1093645047954626,0.2371912681095744,-159.56230904925505,41.93153715779742,75.75489921200635,1.997522896471411,0.5228567243701314,0.0777327489222663,-144.18736334677516,12.441251869032454,81.95051590927818,0.679693502850343,0.0152538842371498,0.2082299160604261
2.31,-7.161719261630423,85.06109296124433,21.07265446212232,0.0513245810238693,0.0313903702292946,0.0276688038893049,-132.0111590873559,78.25418273394104,183.7915875152181,0.0583791327135549,0.2528332815254137,0.1217187284621076,-159.1343721364659,41.88162569362283,78.54572439874289,2.0658519311673045,0.6116506261506169,0.2883610304594011,-144.37035222406982,12.20552766917967,82.67858229082846,0.6001100721059555,0.030150598518592,0.0726538012709247
2.32,-7.129399614186249,85.10672672037339,20.998010027571745,0.0456119972105164,0.0256530708501429,0.0368386093712723,-131.96824454236054,77.93777350403883,183.1330550412864,0.0631682159556713,0.4436193107361147,0.0606376347038453,-158.93356381608277,41.31066618891375,81.92899839006418,2.2071422479349,1.1314854776772751,0.584758259679958,-144.19066032314043,12.253381348062227,83.32460581070303,0.624106284341544,0.0028756554205045,0.1209857338586048
2.33,-7.061178172434082,85.17504723892301,20.93366990911269,0.0324531362104985,0.100071809533448,0.0400157904073123,-131.80823298289502,77.9459845157195,182.31242492849057,0.0526777356042809,0.393527447550067,0.2272376094979821,-158.80204209818515,40.81100276073881,85.36998203686942,2.136154082542728,1.046884097196619,0.3584506664876711,-144.1114328023016,12.125374010179351,83.98711906250902,0.580377218769527,0.0587611491838372,0.2290480291572353
2.34,-6.999200192055142,85.258974793638,20.936345570761706,0.0108038368834182,0.0510278612585796,0.0533321622579434,-131.5111269094754,78.31027224473293,182.07833087414016,0.1581111351824044,0.2930672248844289,0.2248714553347551,-157.75128506490864,41.05466905719405,88.36323458987219,1.9157717877091904,0.6989864423008851,0.4746216829783623,-144.2592240456457,11.813814434457566,84.6832799641512,0.6420003670113177,0.1248008740824444,0.3451304204346114
2.35,-6.803203796265643,85.3690074797027,20.80956346307149,0.1124897106576582,0.0390851274903708,0.1607301836019821,-131.30611404702742,78.17480393279816,181.82528048803584,0.0180198875765505,0.2055468842584915,0.060057295915089,-156.05914458069168,41.88764714443075,91.18037742603468,1.8303724892303053,0.6962221119475565,0.8893704538322698,-144.3787355616501,11.367566602178394,85.43827417568217,0.7218307089561397,0.1443964779123062,0.322257368007438
2.36,-6.384565308032768,85.6312896472712,20.56554399777663,0.1895469483777604,0.1051690829250591,0.2392262834777415,-131.24821772662526,78.0597800952057,182.5726588715464,0.06413775947008,0.0296373601692805,0.1694809967736187,-154.55030178589058,42.7586613451425,93.93053034219614,1.7748291170972952,0.6864026762182464,0.939150062076355,-144.36820445394756,11.186082557288971,86.18312031850371,0.675479207863223,0.0491699183518378,0.1660383357981286
2.37,-5.938910445387656,85.80105957422717,20.377889575183467,0.1726389907381975,0.0730328561282571,0.1405260131681055,-131.06625919788647,77.98021898876314,183.4450486952628,0.0267004135315767,0.149332068549066,0.1684953257223173,-152.76352122912382,43.39433632524317,96.68775391296148,1.8939942963218608,0.516571595735851,0.5258370570543066,-144.71253775670667,11.066285465324652,86.92166238994717,0.6611902959004717,0.0890334056406303,0.0808452377576575
2.38,-5.763656893905931,85.94751286271158,20.26045044354623,0.0816547049761916,0.0186147751982684,0.0893882357918821,-130.8658027063234,77.68600023521333,183.8339958641792,0.226634132264488,0.1346255489862644,0.0651974820168428,-151.6759615726134,43.17675728345407,99.56191621822076,1.934376969168259,0.7837607789644611,0.182284316714145,-144.81468131960614,10.825920432253804,87.62862528527636,0.5953737127617441,0.0103060328842458,0.2818752833089419
2.39,-5.698358769393611,86.06487073090562,20.17612881537404,0.021886739590964,0.0921563368324811,0.0716116152045888,-130.5597236683711,77.54429057199862,183.94306331207463,0.1951083269050813,0.0367630266325369,0.0796385426464155,-151.23696130639252,42.74722502071205,102.36339799577976,1.7420169043614466,0.7824958514005562,0.2489091868648921,-144.82510622171986,10.510125177369533,88.36377894164407,0.728638753434951,0.2461780399118411,0.2292359044338687
2.4,-5.63193133735756,86.0880107126854,20.123963360497296,0.0158076158425447,0.0634656424242476,0.0596951835820277,-130.5259973271328,77.59644091600488,184.00946902267003,0.088162594504206,0.0444420397759276,0.0685830774184242,-151.01520575706706,42.5560455877593,103.76992213321128,1.6780525579496446,0.8202184288974902,0.2757176632064013,-144.56537589581458,10.523543997635144,88.73995223132496,0.6817804073208835,0.1941997627745067,0.2032650346655154
2.41,-5.582814926035063,86.11346407078973,20.05796717039789,0.0179532719976582,0.0005236410880789,0.1028300175816085,-130.495518210583,77.62793566909916,184.12366033293677,-0.0024416791719554,0.0335643255859173,0.0503251767433499,-150.80085586228216,42.30870604816244,105.18366283359872,1.587935467155243,0.8342369558896012,0.3137597840048877,-144.30612828528294,10.5505511598633,89.12849607208314,0.6164979453137233,0.1427892318478771,0.1821288667837352
2.42,-5.373849196637807,86.31532724315217,19.891911128383647,0.0182270099346225,0.014238695115477,0.1728467169257903,-130.44485967425783,77.3726545250057,184.23956219267308,0.0435565272924962,0.2716143599959678,0.0530269129019263,-149.31308945732735,42.83290251104815,107.68220618084996,1.4555076457418632,0.5053676760086468,0.8269069526846862,-143.95696458401696,10.739222803454014,89.75144013250332,0.5244390683967359,0.1037121313287054,0.0324094150591116
2.43,-5.252674660986859,86.55029030167681,19.690279635202437,0.1034551191052835,0.1820823147653118,0.200252863807689,-130.51119600675673,77.30880818479093,184.753783327875,0.2506558901652052,0.0240817246403347,0.0791155417591912,-147.33411090152248,43.495555536093406,110.01602144230854,1.3975663762397437,0.5005917866821457,0.8111008442514258,-143.99754282450505,10.69456989258908,90.30248064916024,0.5111158472653282,0.1344847393471913,0.1204789965850722
2.44,-5.06943285623354,86.79039942253698,19.35452444489,0.0906254003395933,0.0692543917573442,0.2671691007887519,-130.6131233082035,77.46222233273528,185.5015673494724,0.1747866623166392,0.0308055584345927,0.0647512684610451,-145.39028781430954,44.1999982569444,112.37187343043745,1.3128122335418235,0.5094380974910699,0.8185101647378769,-143.4321679721853,10.886902868506146,90.9310405870744,0.7491962677429462,0.2565622404422729,0.3370614367329966
2.45,-4.978605137325927,87.03536269467205,19.11576559955581,0.1430875696379831,0.0639590059821981,0.21615694108926,-130.7525607152076,77.61324833806665,186.25020501311892,0.0623483542465874,0.0797484075292448,0.0255560690675731,-143.63695282041897,44.7036733644284,114.62237168070838,1.351842051993818,0.3179733847558526,0.6755984558095324,-142.68263163048684,11.128741043470333,91.67830061020072,0.7535335736658094,0.2625319909650586,0.1771807643182801
2.46,-4.939872706328433,87.25237067797744,18.86238972219345,0.197367855808647,0.0576080600659472,0.1466119513793081,-130.8195682270696,77.55780539239787,186.0604516941333,0.0504316232608504,0.0970052316568421,0.0525600748906068,-141.99347091259946,44.80880673702297,116.61784024210112,1.3453137481735695,0.3997723867792433,0.1612221457956805,-141.69137264082894,11.790234866488095,92.6186598906744,0.0151335478109746,0.0016179729034611,0.0039191663436813
2.47,-4.923591062920587,87.44112189210823,18.757923230319484,0.1441128579967823,0.0522780648065294,0.116679796284782,-130.8514465502933,77.61939098125096,186.07198305876705,-0.0019726533732109,0.106505931663061,-0.0064646538883881,-141.92465257043435,44.12977942700376,118.48669914432688,1.1736080333308012,0.7957850888310769,0.3472262148980339,-140.65881262917586,12.464480024774394,93.56794086919378,0.0111989392396193,0.0024887677342436,0.0102018131842362
2.48,-5.011101024626611,87.54880893186348,18.62042595989521,0.212978918950713,0.1070770721695184,0.1063618341731244,-130.86820215457985,77.74000875289708,186.1917670440425,0.0624149564443601,0.1683563497606528,0.0116376075087153,-141.50882658399712,43.53608635114915,119.8711196437825,1.0284077795841775,0.362257092537646,0.2813802344131342,-139.64613366251345,13.138155262291844,94.47201782672477,0.0111358280316629,0.0056807753826765,-0.0020366882454216
2.49,-5.214367002755158,87.66983190789938,18.507192690791012,0.2211570742771488,0.0349405504586534,0.0848477246762212,-130.86871925326463,77.81494612788164,186.13038824782,0.0992524938535465,0.0330016167499166,0.0280974978017356,-140.29753237422068,43.6895616334208,120.94420029171232,0.6763302085299027,0.008774797169171,0.4016410657896843,-138.61215438312746,13.816360036304054,95.39202082855137,-0.0002319382755142,0.0011368042860314,0.0174883985357082
2.5,-5.194679875061549,87.76503628088972,18.495290879705056,0.1535420217473899,0.122511901562512,0.0536035037569849,-130.85770208919894,77.8134826789863,185.75776021582436,0.0923989942942344,0.0322272013832185,0.0532395420057754,-139.18412485581038,44.25584505899914,122.19378482761957,0.6154727206828907,0.2549956641992221,0.8434817094094637,-137.6100341801262,14.489610040042646,96.32580024610034,0.0023172444537846,-0.0073256168697425,-0.0025148293602585
2.51,-5.318825560381304,87.79182654067999,18.42157300248344,0.1140279422693488,0.2096680336569372,0.0093225850372983,-130.8706177799864,78.19019734015606,185.7600595406243,0.0440943104434906,0.4282238003976272,0.0036910122649876,-137.37565733157845,45.00372191382236,123.79221517179371,0.6514740546380686,0.1898702637252565,1.138920454910555,-136.58368734774203,15.165361587390889,97.24349150710086,0.0080814945750223,-0.0028581020843601,0.0018799305163126
2.52,-5.366886398021115,87.80644763218686,18.423746029085407,0.1093474657003929,0.1989991286580542,0.0257700577740808,-130.87747724816472,78.38377857798189,185.9453029601596,0.0400220624441259,0.3868729998918497,0.021185602677287,-136.6299699662885,45.49579982124049,124.490973149885,0.5027197862263467,0.0955321166149441,1.123921507868474,-136.08823331599496,15.510079625997156,97.73090125513218,-0.0288674417088708,-0.0217770225993704,0.0119024195773275
2.53,-5.437711446177593,87.82641642510988,18.421262175320205,0.0337953817759565,0.1904257014854639,0.0348574394737799,-130.8904412479454,78.63403124624861,186.13290845202536,0.0440253400292858,0.336447621838344,0.0224337714511313,-135.8705944110974,46.00885810735405,125.19069814722238,0.3904009716214237,0.0008548369094275,1.1060523976290615,-135.5777648947283,15.836579826069816,98.17731269286298,-0.0096786303560211,0.0172501938671961,-0.0098365738599663
2.54,-5.507280430274402,87.81586885499492,18.41472949238197,0.0173266289644931,0.166124926945179,0.0602170780566679,-130.75093978910752,78.86373503553251,185.8068919014032,0.1459053340220535,0.1856138603877785,0.0430072029061821,-134.61030897777263,46.56937010377256,126.044782206959,0.3348191611407536,0.0336834862899407,0.49199900540221,-134.5486707512826,16.51912974793569,99.10518769249197,-0.000437221164892,-0.0098643772116015,-0.0035929065765683
2.55,-5.625705745558617,87.7389931277474,18.385692003929144,0.0670657984794074,0.1909474575169688,0.0756284528446125,-130.74985456517135,79.24424887096674,185.83313819456464,0.0041660796045526,0.4622227286199404,0.0275615773295561,-134.43667101864514,46.30798381829815,126.80168840408204,0.3036202344542394,0.4409599106217504,0.036222757561268,-133.5330334931972,17.203283991198695,100.03305316103904,-0.0018765948092825,-0.0045571330666861,0.0153657636819152
2.56,-5.827367335955634,87.61803114696146,18.312601508399677,0.09980892591533,0.254767846048637,0.0438636158355918,-130.7169094566229,79.81425948614763,186.07727151402716,0.0294575746172963,0.3632963704957307,0.0326422196944101,-134.88336597814657,46.17755271001462,127.11665507316944,0.3343886112290718,0.1903977772593325,0.1911811298548784,-132.52397151174924,17.85697490165913,100.94431030596586,0.0074284727503321,-0.020707537801473,-0.0108298720123926
2.57,-5.848777612905443,87.51004274303475,18.280592068661434,0.0647959146377113,0.2376208150420872,0.0399876849576113,-130.69597735402695,80.38615754776957,186.380771840225,0.0455014024700209,0.2524892431273047,0.0179206139039991,-134.106644094857,46.37523729235563,127.73662450540868,0.3301922107226439,0.318221674510842,0.254230226194456,-131.4974784096946,18.51677491531389,101.8891420205278,-0.0114851834679568,0.0152758411999019,-0.0021078354062123
2.58,-5.867768399086288,87.36060144423374,18.237154535331527,0.0674663787762834,0.22583857291304,0.0471241653308554,-130.56502427861108,80.70331023511677,186.37124266386903,0.1302032452550747,0.3754150984828859,0.0061404708739292,-133.11827150487846,46.73523545014573,127.92716044851964,0.306125716897457,0.1438732827758973,0.0820814529599107,-130.47749179255229,19.20453546194241,102.81969515791072,-0.0110684199719524,-0.0175881299875508,0.0051976229545967
2.59,-5.887042782622748,87.18712372853282,18.18862368690552,0.0817485089557079,0.2516322434510694,0.053481168100603,-130.55280351874728,81.06459362733051,186.80866512567317,0.1534631528035482,0.8661570297638939,0.0934711011070992,-133.18557132739863,46.6073145076513,128.19085616993388,0.4390844723094897,0.1872267821805163,0.0360301556443179,-129.46614987358467,19.88787531463649,103.74270018204014,0.0055690479107496,0.0006870476608488,-0.0065839239340891
2.6,-5.874611242008395,86.99555785625344,18.101236710323253,0.0888404970782286,0.3034958812584297,0.0336111734773467,-130.56714614614776,81.9416646366846,188.3089577144029,0.0610512709517593,0.423830727653573,0.0344973859361765,-132.4508412212013,46.62322191645903,128.87911605087203,0.5228451721625473,0.2761678241797046,0.2034251093140727,-128.4449663490466,20.56028873215157,104.65517070096232,0.0098680022360517,0.0213647551165189,-0.0043646503433031
2.61,-5.819096420359364,86.744285871621,18.11343107709064,0.1067746851599083,0.2789899157733852,0.0453045351751984,-130.4936014485129,82.31428436439218,188.640473880961,0.0737932181883996,0.2676565802222345,0.0250359631727923,-131.56978894457748,47.01595581823333,129.1866902963146,0.4148153200538991,0.4018287939495251,0.1731483280591318,-127.41664526446824,21.23180983943639,105.59395591470114,-0.0015391368317948,0.007207483219076,-0.018883375201702
2.62,-5.751820769408363,86.55037091050454,18.048098715712666,0.0868199132235419,0.2766538185246321,0.0619518040669643,-130.42758790006943,82.7000016557425,188.8163277870013,0.0451649432371939,0.6949848763135381,0.0194847445104903,-131.07028219737313,46.88593987804138,129.10635318284196,0.4883478322069209,0.25006488659517,0.9056608196672972,-126.42142704977636,21.89854160167398,106.5152542793724,-0.0082530618454198,0.0040354482212599,0.0056929041597206
2.63,-5.755465023835883,86.21243395758624,17.986831572194276,0.1183547299218259,0.3268572374923663,0.0582810419551539,-130.4861054690994,83.5599264323439,188.8181133985334,0.1043333655990146,0.7192068897132358,0.0403103904022008,-131.50507079451967,46.04950191514981,129.2422517878083,0.416686766640408,0.3339300774211095,0.6313996962528861,-125.3994897544552,22.558652256595057,107.43375666122328,1.257125595101727,0.3958237602374791,1.5568067465180466
2.64,-5.694881386760335,86.13304998327753,17.965800421995475,0.1215278379436625,0.2693504699718012,0.0455023621209702,-130.4574959080871,83.76110097867935,188.7856660414252,0.1525916116832339,0.5656411424109258,0.0494254510438197,-131.36641393077667,45.994236115953576,129.354943504555,0.3864662030456969,0.3285658209394788,0.4534781848047011,-124.90542970300024,22.91729565382101,107.89886019212696,1.1942043727271023,0.4797194399829165,1.779396785163433
