0.01,-107.97,76.59,158.63,-0.17,0.14,0.1,0.27,0.24,0.48,-104.8,84.0,176.13,0.17,0.35,-0.09,0.17,0.39,0.21,-157.38,2.84,1.67,-0.12,-0.02,0.08,0.34,0.24,0.02,-157.52,2.95,15.7,-0.08,0.01,0.18,-0.31,0.14,-0.1
0.02,-108.11,76.6,158.56,0.24,-0.03,0.02,0.2,0.45,0.88,-104.95,83.77,176.12,0.06,0.26,0.13,0.97,0.23,0.52,-157.42,2.87,1.81,0.1,0.01,-0.04,0.07,0.05,-0.06,-157.77,2.87,15.73,-0.05,0.12,0.03,0.1,0.03,-0.12
0.03,-108.01,76.42,158.43,0.21,0.15,0.16,0.13,0.63,0.97,-105.18,83.46,176.15,0.08,0.45,-0.07,1.43,0.13,0.13,-157.27,2.93,1.75,0.15,-0.01,0.03,-0.02,0.02,-0.08,-157.64,2.72,15.66,-0.15,-0.05,0.07,-0.13,0.06,0.04
0.04,-108.2,76.6,158.9,0.15,0.21,0.04,0.05,0.6,1.28,-105.35,83.0,176.5,-0.03,0.65,0.08,1.24,0.06,0.38,-157.18,2.8,1.73,0.14,0.09,0.1,0.16,0.09,-0.02,-157.63,2.94,15.63,0.01,0.04,0.18,0.2,0.02,-0.01
0.05,-108.23,76.21,159.07,0.23,0.21,-0.05,0.19,0.41,1.48,-105.3,82.22,180.22,0.18,0.85,-0.02,1.33,-0.0,0.24,-157.66,2.79,1.68,-0.05,-0.07,0.16,0.11,0.02,-0.06,-157.57,2.71,15.64,-0.02,0.16,-0.09,-0.09,0.0,0.01
0.06,-108.56,76.09,159.79,0.17,0.08,-0.03,0.33,0.42,1.71,-105.1,80.36,180.11,-0.05,1.17,0.1,1.98,0.07,-0.01,-157.28,2.96,1.78,0.01,0.19,-0.02,0.1,0.29,-0.03,-157.66,2.84,15.69,0.0,-0.1,-0.02,0.08,0.09,-0.15
0.07,-108.92,75.89,160.56,0.27,0.18,-0.03,0.53,0.26,1.47,-105.07,79.04,183.5,0.15,1.55,-0.01,2.21,0.03,-0.05,-157.52,2.58,1.63,0.14,-0.07,0.12,0.16,-0.08,0.02,-157.63,2.82,15.42,0.01,-0.08,0.2,-0.06,0.03,0.09
0.08,-108.95,75.49,161.12,-0.04,0.24,-0.1,0.73,0.22,1.17,-104.89,77.45,186.22,0.07,1.52,0.13,2.3,0.33,0.28,-157.69,2.53,1.82,-0.08,0.11,0.03,0.08,0.16,-0.06,-157.67,2.79,15.63,0.02,-0.12,0.06,-0.07,0.1,0.13
0.09,-109.18,75.48,161.94,0.09,0.06,0.18,0.99,0.08,1.02,-104.99,75.97,188.78,0.24,1.49,0.19,2.38,0.21,0.38,-157.68,2.68,1.74,-0.09,0.2,-0.2,0.08,0.27,-0.29,-157.41,2.82,15.58,0.06,0.04,0.03,0.04,0.11,0.08
0.1,-109.71,75.08,162.56,-0.12,0.36,0.01,0.99,0.19,1.27,-104.92,73.76,190.61,0.2,1.81,0.07,2.15,0.19,0.1,-157.52,2.78,1.94,0.13,0.23,-0.05,0.14,0.15,-0.09,-157.65,2.9,15.69,0.01,-0.16,0.11,0.07,0.2,0.1
0.11,-109.58,75.06,162.96,0.07,0.23,0.18,1.22,-0.23,1.29,-105.06,72.86,191.35,-0.02,1.74,0.02,2.14,0.08,0.15,-157.63,2.65,1.89,0.12,-0.02,-0.09,0.01,0.12,0.04,-157.65,2.91,15.56,0.12,-0.14,-0.07,-0.1,0.0,0.1
0.12,-109.64,74.83,163.29,-0.26,0.64,0.23,1.18,-0.02,1.25,-104.77,71.89,192.36,-0.03,1.87,0.19,2.39,0.32,0.37,-157.58,2.48,1.88,0.2,0.17,0.05,0.31,0.35,0.19,-157.8,2.99,15.45,-0.12,0.12,0.01,-0.01,0.18,-0.09
0.13,-109.67,74.18,164.41,0.14,0.61,0.08,1.5,-0.0,0.88,-104.82,70.66,193.3,0.08,2.14,0.2,2.06,0.43,0.94,-157.59,2.68,1.85,0.14,0.17,0.16,0.13,0.12,-0.1,-157.81,2.85,15.64,-0.0,-0.02,-0.06,0.1,-0.02,0.09
0.14,-109.59,73.68,165.29,0.11,0.61,0.15,1.64,0.18,-0.0,-105.07,68.71,194.53,0.23,2.18,0.13,0.68,0.32,0.61,-157.73,2.74,2.05,0.24,0.02,-0.0,-0.17,0.16,0.09,-157.76,2.73,15.42,0.04,0.14,0.09,0.09,0.18,0.02
0.15,-109.68,72.73,166.33,0.22,0.78,0.25,1.85,0.54,0.18,-105.26,66.14,195.84,0.5,2.0,0.12,0.22,0.26,0.91,-157.74,2.75,1.84,0.11,0.12,0.12,0.23,0.09,0.02,-157.64,2.78,15.69,0.02,-0.04,-0.06,0.08,0.29,0.12
0.16,-109.4,71.71,167.67,0.06,1.23,0.17,1.41,0.83,0.21,-105.79,64.06,196.69,0.34,1.64,0.11,1.42,0.33,0.3,-157.45,2.72,1.95,-0.07,0.21,0.08,-0.15,0.49,0.22,-157.7,2.72,15.32,0.03,0.03,-0.16,-0.07,0.32,0.1
0.17,-109.71,70.45,169.04,0.07,1.25,0.33,1.12,0.72,0.17,-106.18,62.18,197.51,0.3,1.86,-0.17,0.48,0.26,0.05,-157.68,2.59,1.89,0.01,-0.04,0.03,0.09,0.28,0.11,-157.79,2.58,15.59,0.04,0.08,0.01,0.11,0.13,0.04
0.18,-109.86,69.16,170.66,0.07,1.25,0.25,0.92,0.6,0.02,-106.63,60.1,198.28,0.16,2.18,0.09,0.49,0.27,0.32,-157.6,2.93,1.87,0.19,0.19,0.28,0.18,0.11,-0.04,-157.66,2.75,15.41,0.17,-0.05,0.02,0.16,0.24,0.07
0.19,-110.54,68.06,172.37,0.18,1.16,0.2,0.41,0.5,0.27,-106.83,57.93,198.7,0.04,2.11,0.19,-0.04,0.18,0.58,-157.64,2.71,1.92,0.08,0.31,0.08,0.37,0.21,0.24,-157.48,2.78,15.43,-0.2,0.03,-0.06,0.33,0.58,0.05
0.2,-111.25,66.91,173.73,0.4,1.22,0.35,-0.01,0.06,0.37,-106.75,55.85,199.39,0.01,1.73,0.39,0.44,0.42,0.31,-157.49,2.43,1.78,-0.14,0.1,0.15,0.37,0.63,0.25,-157.49,2.86,15.33,0.03,0.26,0.11,0.5,0.49,0.09
0.21,-112.27,65.67,175.55,0.34,1.26,0.18,0.38,0.59,0.21,-107.41,54.17,200.07,0.31,2.05,-0.06,0.78,0.53,0.22,-157.78,2.49,1.73,0.04,0.01,0.19,0.6,1.03,0.07,-157.48,2.62,15.45,0.33,-0.0,0.19,0.59,0.82,0.21
0.22,-112.67,64.92,176.08,0.25,1.24,0.35,0.47,0.71,0.17,-107.6,52.95,200.35,0.49,1.96,0.19,0.95,0.18,0.3,-157.8,2.49,1.79,-0.19,0.11,0.03,0.61,1.01,0.03,-157.42,2.59,15.38,0.04,0.1,-0.05,0.76,0.99,0.01
0.23,-113.05,64.32,176.78,0.16,1.24,0.34,0.49,1.01,0.15,-107.96,51.86,200.61,0.41,2.16,0.0,1.24,-0.03,0.56,-157.45,2.4,1.57,-0.15,-0.12,0.18,0.69,1.18,0.36,-157.43,2.56,15.35,-0.08,0.11,-0.07,0.91,0.92,-0.01
0.24,-113.02,63.66,177.17,0.16,1.31,0.3,0.98,0.35,0.22,-108.41,49.9,200.82,0.29,1.57,0.2,0.3,0.21,0.06,-157.37,2.25,1.87,-0.01,-0.0,-0.01,0.68,1.33,-0.05,-157.13,2.52,15.27,0.02,0.25,0.06,0.78,1.28,0.22
0.25,-113.59,62.26,178.05,0.11,1.26,0.14,1.04,0.34,0.56,-108.9,48.24,201.5,0.17,1.51,0.3,0.55,0.31,-0.09,-157.44,2.2,2.06,-0.18,0.3,0.2,0.97,1.38,-0.14,-157.03,2.64,15.11,0.16,0.22,0.12,0.96,1.44,0.47
0.26,-113.95,61.11,178.63,0.08,1.05,0.26,0.4,0.69,1.05,-109.6,46.62,201.56,0.38,1.41,0.24,0.77,0.4,0.98,-157.15,2.26,2.05,0.13,-0.06,0.29,0.82,1.56,1.01,-156.76,2.37,15.38,0.0,0.08,0.14,0.84,1.43,0.44
0.27,-114.72,60.0,179.15,0.11,0.97,0.34,0.34,0.13,1.14,-110.15,45.02,201.94,0.3,1.42,-0.04,0.51,0.37,0.85,-156.58,2.28,2.17,0.17,0.06,0.72,0.91,1.53,0.88,-156.49,2.47,15.18,0.04,0.07,0.29,0.95,1.11,1.28
0.28,-115.09,58.91,179.65,-0.06,0.92,0.17,-0.01,0.65,1.32,-110.72,43.8,201.89,0.36,1.12,-0.13,0.43,0.53,0.76,-155.86,2.25,2.1,-0.07,-0.08,0.62,0.8,1.32,0.98,-156.06,2.54,15.09,0.1,0.01,0.57,0.89,1.38,1.33
0.29,-115.27,57.88,179.45,-0.02,0.85,0.13,0.91,0.75,0.74,-110.73,42.34,202.17,-0.12,1.26,-0.05,1.1,0.46,1.05,-155.29,2.3,1.8,-0.01,0.02,0.57,0.68,1.18,1.22,-155.52,2.76,15.19,0.08,0.06,0.52,0.75,1.25,1.39
0.3,-115.38,56.58,179.47,0.02,1.15,0.23,1.23,0.11,0.76,-110.58,41.4,202.15,0.27,1.0,-0.06,0.98,0.1,0.75,-154.32,2.21,2.02,0.11,0.15,0.79,0.49,1.0,1.67,-154.74,2.62,15.47,-0.19,0.17,0.75,0.47,0.82,1.47
0.31,-115.94,55.38,179.1,0.13,0.94,0.27,1.03,0.17,0.73,-110.49,40.65,202.04,0.18,0.8,0.08,0.87,0.04,0.07,-153.67,2.5,1.86,0.19,0.1,0.84,0.6,0.78,2.12,-153.75,2.48,14.92,-0.05,0.1,1.06,0.41,0.66,1.81
0.32,-116.38,54.46,178.67,0.05,0.79,0.08,1.17,0.16,0.62,-110.47,39.87,202.16,0.1,0.55,0.18,1.61,0.13,0.65,-152.6,2.25,1.89,0.23,0.11,0.93,0.22,0.7,2.55,-152.94,2.93,14.88,-0.2,0.27,0.78,0.55,0.47,2.43
0.33,-116.29,54.12,178.52,0.01,0.94,0.08,1.31,0.06,0.65,-110.38,39.75,202.2,0.13,0.7,0.08,1.35,0.24,0.61,-152.17,2.4,1.91,0.08,0.0,1.0,0.17,0.64,2.7,-152.57,2.81,14.95,-0.11,-0.04,0.74,0.19,0.37,2.36
0.34,-116.53,53.77,178.52,0.08,0.83,0.12,1.25,0.04,0.49,-110.33,39.48,202.07,0.07,0.44,-0.1,1.52,0.63,0.52,-151.59,2.54,1.67,0.33,0.05,0.95,0.03,0.85,2.8,-151.92,2.83,15.03,0.04,0.1,0.79,0.28,0.26,2.59
0.35,-116.71,53.1,178.12,0.14,0.42,-0.13,1.16,0.14,0.27,-110.32,38.79,202.13,-0.01,0.32,-0.0,0.67,0.52,0.86,-150.56,2.39,1.86,-0.08,0.05,0.8,0.02,0.39,2.8,-150.82,2.99,15.09,0.04,-0.21,0.58,0.05,0.18,2.74
0.36,-117.31,52.55,177.87,0.21,0.2,0.2,0.65,0.09,1.01,-109.96,38.32,202.27,0.13,0.24,0.15,0.84,0.08,0.85,-149.89,2.53,1.82,0.12,0.07,0.44,0.33,0.09,2.78,-149.83,3.15,15.06,0.16,0.0,0.42,0.3,0.38,2.74
0.37,-117.64,52.2,177.75,-0.02,0.1,0.06,0.64,0.19,1.04,-110.12,37.61,202.09,-0.12,0.23,0.04,1.24,0.28,1.14,-149.52,2.19,1.82,0.13,0.12,0.65,0.42,0.15,2.65,-148.82,3.62,15.45,0.27,-0.16,0.41,0.62,0.05,1.75
0.38,-117.68,52.05,177.5,-0.06,0.31,0.09,0.82,-0.02,0.84,-110.07,37.5,202.14,-0.04,0.04,0.19,1.57,0.3,1.61,-148.84,2.32,2.13,0.21,0.04,0.72,0.44,0.14,1.66,-148.41,3.88,15.3,0.12,-0.07,0.29,0.75,-0.01,1.05
0.39,-117.66,51.15,177.59,-0.16,0.2,0.16,1.56,0.13,0.17,-110.0,37.51,201.92,0.06,-0.06,0.15,1.57,0.26,1.17,-148.49,2.25,2.13,-0.03,0.16,0.2,0.75,-0.15,1.51,-148.32,3.93,15.45,0.06,0.12,0.16,0.68,0.58,0.69
0.4,-117.96,50.97,177.31,-0.08,0.2,-0.01,1.4,0.17,-0.03,-109.84,37.41,202.12,0.1,0.15,0.2,1.78,0.06,1.25,-148.39,2.06,2.43,0.25,-0.02,0.05,0.73,0.36,1.02,-147.8,3.95,15.52,0.32,0.19,0.09,0.79,0.46,0.05
0.41,-117.75,51.28,177.44,-0.05,-0.08,0.04,1.54,0.24,0.21,-109.68,37.67,201.93,0.05,0.27,-0.02,1.82,0.17,1.54,-148.34,1.91,2.99,0.48,0.01,-0.07,0.65,0.54,0.52,-148.21,4.07,15.79,0.21,0.08,0.31,0.88,0.2,0.2
0.42,-117.58,51.3,177.54,-0.03,-0.08,0.13,1.82,-0.05,0.52,-109.76,38.0,202.13,0.17,0.42,0.13,1.63,0.2,1.31,-148.5,1.9,3.44,0.43,0.0,0.27,0.71,0.28,0.27,-148.51,4.06,16.01,0.37,-0.05,0.45,0.64,0.11,0.23
0.43,-117.12,51.36,177.76,0.15,0.23,0.09,1.65,-0.08,0.15,-109.72,38.47,201.94,0.01,0.45,0.13,1.58,0.15,1.22,-148.68,1.88,4.34,0.72,0.07,0.17,0.66,0.13,0.39,-149.47,3.91,16.28,0.22,-0.05,0.6,0.64,0.23,0.39
0.44,-117.08,51.27,177.71,0.22,0.16,-0.07,1.44,0.06,0.22,-109.87,38.65,201.93,0.02,0.48,0.09,1.45,-0.03,1.08,-148.8,2.2,4.53,0.59,-0.09,-0.04,0.66,-0.04,0.13,-149.52,3.69,16.48,0.17,0.07,0.73,0.63,0.12,0.73
0.45,-116.97,51.56,177.82,0.18,0.08,-0.01,1.35,0.17,0.21,-109.7,39.11,201.85,0.29,0.44,0.02,1.14,0.09,0.87,-148.8,2.15,4.86,0.66,-0.04,-0.04,0.79,0.26,0.31,-149.85,3.9,16.8,0.28,0.15,0.57,0.51,0.01,0.76
0.46,-116.31,51.98,177.9,0.19,0.33,0.1,1.48,0.25,0.16,-109.66,39.73,201.94,-0.06,0.58,0.03,1.4,0.03,0.58,-149.36,2.22,6.16,0.58,0.1,0.07,0.82,0.33,0.55,-150.46,3.62,16.94,0.22,0.26,0.64,0.38,-0.0,0.65
0.47,-116.31,52.17,177.93,-0.09,0.14,0.07,1.64,0.13,0.43,-109.84,40.08,201.84,-0.11,0.54,0.08,1.44,0.33,0.8,-149.19,2.13,6.69,0.71,0.09,0.19,0.7,0.49,0.45,-151.07,3.61,17.19,0.4,-0.02,0.5,0.41,0.19,0.46
0.48,-116.21,52.48,178.31,0.16,0.45,0.13,1.59,-0.03,0.36,-109.82,40.9,201.88,-0.01,0.7,-0.11,1.18,0.56,0.72,-149.44,2.39,7.85,0.57,0.14,0.22,0.77,0.15,1.12,-151.77,3.35,17.47,0.35,-0.05,0.57,0.44,0.37,1.2
0.49,-116.0,52.85,178.16,0.11,0.49,0.01,1.58,0.33,0.13,-109.84,41.93,201.93,-0.05,0.88,0.08,0.55,0.6,0.63,-149.4,2.18,8.25,0.34,0.1,0.61,0.79,0.3,0.63,-152.17,3.24,17.89,0.44,-0.04,0.29,0.34,0.01,1.22
0.5,-115.94,53.62,178.32,0.27,0.6,0.14,1.61,0.15,0.18,-109.77,42.12,201.76,0.15,0.98,0.11,0.65,0.82,0.49,-149.06,2.16,8.47,0.36,0.12,0.28,0.47,0.49,1.11,-152.23,3.59,18.6,0.21,0.16,0.2,0.6,0.51,1.31
0.51,-115.49,53.96,178.47,0.04,0.56,0.2,1.12,0.46,0.12,-110.03,43.25,201.74,0.12,0.85,0.13,0.66,0.57,0.55,-148.66,1.98,9.01,0.43,0.02,0.44,0.58,0.56,1.56,-151.75,3.59,18.87,0.15,0.07,0.26,0.12,0.75,1.85
0.52,-115.27,54.65,178.54,0.03,0.67,0.26,0.96,0.57,0.05,-109.8,44.1,201.53,0.23,1.18,-0.03,0.47,0.41,0.47,-148.03,2.05,9.39,0.4,0.06,0.5,0.65,1.14,1.12,-151.41,3.73,19.08,0.3,0.06,0.49,0.65,0.98,1.45
0.53,-114.87,55.3,178.71,0.03,0.61,-0.02,0.89,0.63,0.13,-107.98,45.38,201.3,-0.01,0.96,-0.08,0.49,0.3,0.08,-147.59,1.67,9.81,0.1,0.06,0.35,1.11,1.1,1.39,-151.16,3.84,19.29,0.23,0.02,0.2,1.11,1.55,1.83
0.54,-115.01,55.89,178.98,0.02,0.67,0.09,0.98,0.6,0.34,-107.54,47.61,200.93,0.01,1.11,-0.13,0.62,0.37,0.76,-147.25,1.87,9.91,0.21,-0.11,0.07,1.35,0.57,1.68,-151.08,3.82,19.39,0.23,0.1,0.16,1.03,1.11,2.16
0.55,-114.73,56.23,179.18,0.02,0.66,0.18,0.77,0.34,0.09,-107.52,48.4,200.95,0.09,1.13,-0.0,0.51,-0.06,0.64,-147.01,1.61,9.99,-0.05,0.18,0.31,1.47,0.62,1.58,-150.62,3.77,19.3,0.21,-0.01,0.49,1.2,1.03,2.01
0.56,-114.67,56.55,179.36,0.14,0.76,0.01,0.46,0.12,0.4,-107.54,49.03,200.85,0.19,1.18,-0.06,0.26,0.18,0.78,-147.08,1.95,10.2,0.0,-0.01,0.26,1.24,0.78,1.56,-150.41,3.94,19.56,0.15,0.12,0.3,1.27,1.18,1.88
0.57,-114.17,57.46,179.63,0.13,0.75,0.33,0.42,0.06,0.29,-106.83,51.92,200.38,0.13,1.11,0.1,-0.08,-0.01,0.17,-146.58,1.64,10.31,0.05,0.11,0.23,0.79,1.62,1.89,-150.01,4.03,19.58,0.3,0.14,0.42,1.72,0.85,1.57
0.58,-113.72,58.32,179.67,0.2,0.77,0.2,0.48,0.02,0.16,-106.61,53.37,200.04,0.15,1.3,0.06,0.16,0.27,-0.03,-146.36,1.86,10.2,-0.09,-0.07,0.21,1.38,1.03,1.87,-149.69,4.23,19.93,0.27,0.17,0.41,1.88,1.21,1.93
0.59,-113.38,59.09,179.27,0.31,0.86,0.32,0.34,-0.06,0.24,-106.37,55.02,200.04,0.1,1.41,-0.05,0.59,-0.0,0.19,-146.48,1.72,9.74,0.36,0.04,0.03,1.45,1.11,2.11,-149.07,4.02,20.03,0.57,0.25,0.39,1.09,1.1,2.64
0.6,-113.28,60.18,179.07,0.18,0.79,0.12,0.18,-0.07,0.4,-106.36,56.62,199.61,0.23,1.43,-0.05,0.74,0.12,0.22,-146.53,1.88,9.55,2.54,0.14,3.12,1.49,1.17,2.66,-148.58,4.01,20.39,0.28,0.2,0.12,0.32,0.35,3.29
0.61,-113.06,60.99,178.88,0.05,0.81,0.22,0.15,0.06,0.16,-106.0,58.15,199.07,0.13,1.41,0.01,0.4,0.15,0.03,-148.22,2.4,10.65,0.33,0.11,0.45,1.86,0.36,2.34,-148.02,3.93,20.95,0.59,0.22,0.7,0.07,1.4,3.18
0.62,-112.94,62.24,178.47,0.09,0.88,0.14,-0.03,0.2,0.2,-105.68,59.77,198.82,0.18,1.47,0.23,0.72,-0.07,0.34,-148.46,2.68,10.22,0.37,0.2,0.2,0.1,1.08,3.18,-147.12,4.22,21.45,0.4,0.02,0.57,0.41,1.56,3.23
0.63,-112.66,63.37,178.23,-0.02,0.95,0.11,0.03,0.11,0.44,-105.29,61.6,198.37,0.27,1.55,-0.0,0.71,0.15,0.53,-149.13,2.63,9.68,0.41,0.14,0.66,0.29,1.86,3.12,-146.74,4.38,21.78,0.51,0.14,0.13,1.95,0.88,2.4
0.64,-112.59,64.45,177.7,-0.06,1.0,0.07,0.03,0.07,0.08,-105.2,63.12,197.75,0.23,1.48,-0.09,0.61,0.25,0.33,-150.07,2.93,9.01,0.48,0.17,1.0,1.57,0.46,2.67,-146.79,4.02,22.51,0.56,0.19,0.37,1.57,2.29,2.81
0.65,-111.96,65.26,177.17,-0.05,0.89,0.04,0.38,0.1,0.31,-104.86,64.86,197.54,0.22,1.51,0.02,0.88,0.32,0.23,-151.04,3.35,8.45,0.61,0.37,0.76,1.98,0.78,2.36,-147.0,3.87,23.01,0.7,0.24,-0.05,0.74,1.27,3.2
0.66,-111.99,65.62,177.11,-0.11,0.95,0.1,0.27,-0.06,0.52,-104.75,65.77,197.08,0.33,1.5,0.08,0.91,0.16,0.37,-151.11,3.68,8.16,0.86,0.21,0.35,1.7,0.5,2.17,-146.96,3.83,23.16,0.62,0.22,0.25,0.43,1.23,3.3
0.67,-112.04,65.92,177.17,0.16,1.04,0.09,0.17,0.21,0.32,-104.79,66.51,196.89,0.19,1.35,0.09,1.07,0.26,0.45,-151.44,3.87,7.81,0.85,0.37,0.17,1.49,0.23,2.28,-146.76,3.83,23.34,0.71,0.21,0.25,0.58,1.35,2.95
0.68,-111.87,66.97,176.67,0.24,0.93,0.21,0.25,0.13,0.19,-104.21,68.07,196.01,0.44,1.36,-0.01,0.63,0.15,0.68,-151.55,4.21,6.98,0.7,0.46,0.14,1.14,0.29,2.37,-146.16,3.89,11.53,0.79,0.24,0.26,0.17,1.15,2.74
0.69,-111.27,68.19,175.96,0.04,0.77,-0.01,0.36,0.15,0.19,-103.86,69.52,195.5,0.47,1.55,-0.04,1.34,0.55,0.44,-151.89,4.74,5.97,0.74,0.39,0.5,1.02,0.5,1.69,-146.07,4.17,11.69,0.82,0.24,0.26,0.1,1.06,2.5
0.7,-110.96,69.22,175.34,0.24,0.8,0.22,0.54,0.17,0.33,-103.73,70.4,195.14,0.34,1.33,0.0,1.22,0.42,0.4,-152.77,5.44,5.18,0.34,0.27,0.74,0.58,0.17,2.12,-146.48,4.31,12.89,1.08,0.52,0.14,0.65,2.7,2.46
0.71,-110.86,70.1,174.54,0.06,0.61,0.0,0.52,0.1,0.29,-103.51,71.89,194.48,0.27,1.15,0.23,0.96,0.51,0.33,-153.34,5.7,4.67,0.28,0.09,0.59,0.48,0.17,1.69,-146.76,4.62,14.1,1.09,0.41,0.29,1.0,2.62,2.29
0.72,-110.59,71.24,173.94,0.11,0.82,0.01,0.52,0.26,0.12,-103.33,73.03,193.89,0.24,1.09,-0.07,1.18,0.61,0.41,-154.12,5.74,4.32,0.4,0.17,0.89,0.1,0.38,1.31,-146.84,5.19,16.0,1.23,0.6,0.22,1.41,2.34,1.55
0.73,-110.08,71.87,173.3,0.4,0.81,-0.06,0.6,0.32,-0.08,-103.29,74.4,193.25,0.17,1.26,0.24,0.97,0.86,0.59,-155.22,6.04,3.52,0.3,0.17,0.99,0.13,1.35,1.11,-146.73,5.92,17.38,1.45,0.9,0.23,1.33,2.27,1.42
0.74,-109.62,72.59,172.19,0.21,0.63,0.19,0.96,0.66,0.3,-103.17,75.47,192.68,0.06,1.14,0.05,0.57,0.69,0.68,-156.32,5.86,3.38,0.31,0.32,1.04,0.5,1.72,0.96,-146.7,7.04,19.25,1.66,0.92,0.07,1.8,2.7,0.39
0.75,-109.23,73.2,171.3,0.02,0.7,0.09,1.37,0.47,0.39,-103.13,76.66,192.16,0.12,0.81,-0.02,0.19,0.72,0.81,-157.08,5.72,3.25,0.07,0.23,0.46,0.86,1.89,0.46,-146.55,8.15,21.02,1.72,0.9,0.29,2.04,2.92,0.01
0.76,-109.14,73.74,170.7,0.16,0.64,-0.11,1.06,0.7,-0.04,-103.3,77.33,191.65,-0.01,0.85,0.09,0.51,0.67,0.76,-157.49,5.54,2.83,0.18,0.26,0.65,0.92,2.19,0.33,-146.48,9.29,23.16,1.53,1.14,0.27,2.3,3.13,0.01
0.77,-109.22,74.11,170.58,0.17,0.29,0.06,1.12,0.6,-0.02,-103.08,78.02,191.49,-0.03,0.76,0.13,0.5,0.43,0.75,-157.67,5.16,3.31,0.21,0.32,0.49,0.98,2.11,0.52,-146.58,9.88,24.15,1.75,1.32,0.25,2.44,2.99,0.59
0.78,-109.19,74.22,170.67,-0.05,0.23,-0.1,1.06,0.7,0.06,-103.05,78.15,191.12,0.04,0.71,0.13,0.48,0.49,0.74,-157.84,5.19,3.29,0.31,0.39,0.38,1.25,2.2,0.63,-146.51,10.64,25.36,1.78,1.23,0.49,2.13,2.92,1.03
0.79,-109.2,74.48,170.59,0.05,0.21,-0.05,-0.07,0.56,-0.03,-103.23,79.28,190.62,0.04,0.82,0.15,0.42,0.4,0.92,-158.44,4.58,3.84,0.53,0.49,0.36,1.47,2.16,0.96,-146.17,11.89,27.44,1.96,1.53,0.48,2.32,2.92,0.9
0.8,-109.05,74.83,170.37,0.25,0.06,0.03,0.27,0.25,-0.15,-103.18,79.82,190.28,0.04,0.56,-0.12,0.28,0.34,0.79,-158.56,3.72,4.57,0.86,0.65,-0.06,1.38,2.26,0.68,-146.03,13.7,29.91,2.1,1.38,0.57,2.32,2.73,0.88
0.81,-108.88,75.12,170.35,0.07,0.18,-0.13,0.16,0.36,0.24,-103.62,81.22,190.33,0.05,0.5,-0.07,0.17,0.39,0.37,-158.75,1.98,7.0,1.09,1.07,-0.01,1.05,1.65,0.25,-145.54,15.37,32.35,1.96,1.52,0.56,2.29,2.61,1.55
0.82,-108.64,75.4,170.25,0.21,0.06,0.17,0.14,0.61,0.43,-103.93,81.87,190.42,0.09,0.4,-0.01,0.38,0.59,0.33,-158.56,0.55,8.36,1.26,1.08,0.17,1.07,1.38,0.33,-144.99,16.94,35.22,2.15,1.73,0.85,2.27,1.77,1.56
0.83,-108.71,75.57,170.3,0.1,0.23,0.22,0.03,0.73,0.25,-100.51,82.09,190.41,0.1,-0.06,0.15,-0.02,0.88,0.58,-158.71,1.11,9.82,1.57,1.31,0.39,0.83,1.18,0.9,-144.52,18.33,37.74,2.21,1.42,0.51,2.22,2.23,1.31
0.84,-109.0,75.66,171.11,-0.0,0.18,0.02,0.66,0.73,0.21,-100.31,81.99,189.77,-0.11,0.03,0.08,0.17,0.69,0.33,-157.49,2.66,11.7,1.59,1.36,1.63,0.76,0.94,0.68,-144.01,20.21,40.52,2.28,1.5,0.83,2.02,2.39,1.1
0.85,-108.95,75.99,171.41,0.12,0.21,0.12,0.63,0.13,0.38,-100.39,82.14,188.65,-0.06,0.05,0.11,0.04,0.99,0.23,-157.46,4.48,13.81,2.16,1.62,0.5,0.16,0.54,0.58,-143.58,21.1,42.07,2.45,1.51,0.97,1.62,2.03,0.7
0.86,-109.13,75.87,171.43,0.06,0.02,0.14,0.04,0.3,0.29,-100.02,81.85,186.24,0.08,0.11,0.22,0.33,0.88,0.89,-157.28,6.27,16.14,2.18,1.89,0.11,0.32,0.58,0.76,-142.91,22.57,45.02,2.5,1.61,0.99,1.54,1.66,0.41
0.87,-109.05,75.8,172.04,0.08,0.23,0.01,0.17,0.49,0.15,-99.71,81.93,185.26,0.19,0.11,-0.12,0.56,0.86,0.9,-157.06,8.56,18.52,2.04,2.01,0.47,-0.08,0.26,1.32,-141.92,24.65,48.09,2.33,1.67,1.1,1.27,1.26,-0.11
0.88,-109.35,75.96,172.23,0.07,0.01,0.04,0.09,0.29,0.14,-99.29,82.2,184.12,0.04,0.08,0.03,0.14,0.87,0.62,-156.98,9.9,19.88,2.26,2.07,0.38,0.03,0.13,1.15,-141.46,25.72,49.7,2.19,1.67,1.16,1.12,1.24,0.33
0.89,-109.23,75.7,172.76,-0.03,0.02,0.01,-0.11,0.22,0.1,-99.11,82.06,183.29,0.1,0.17,0.14,-0.13,0.7,0.51,-156.7,11.06,21.06,2.09,2.13,0.48,0.14,0.12,0.97,-140.84,26.66,51.04,2.49,1.5,0.9,0.96,1.12,0.56
0.9,-109.53,75.85,173.46,-0.02,0.04,0.12,0.16,0.32,0.27,-99.13,81.88,182.54,-0.06,0.06,0.14,0.58,0.01,0.39,-156.29,13.39,23.65,2.45,2.12,0.33,0.02,0.52,0.53,-139.78,28.33,54.28,2.48,1.57,1.18,0.63,1.14,0.57
0.91,-109.56,75.87,174.03,-0.08,0.07,0.22,0.49,0.25,0.37,-98.8,82.12,181.37,0.12,0.19,0.05,0.62,0.24,0.13,-155.55,17.83,23.74,2.38,2.2,0.67,0.66,0.43,0.57,-138.61,30.47,57.33,2.22,1.53,1.2,0.26,1.07,0.59
0.92,-109.67,76.07,174.55,0.15,0.08,0.25,0.35,0.14,0.45,-98.67,81.89,180.65,-0.04,0.18,-0.02,0.61,0.19,0.3,-155.14,20.41,26.49,2.14,1.74,0.52,0.84,0.76,0.56,-137.16,32.12,60.68,2.13,1.47,1.18,0.17,0.18,1.27
0.93,-109.83,75.65,175.15,0.24,0.17,0.21,0.06,0.21,0.58,-98.34,82.05,181.33,0.01,0.42,0.05,0.24,0.06,-0.09,-154.38,23.41,30.54,2.25,1.88,0.73,0.76,1.49,0.16,-135.93,34.08,63.94,2.25,1.44,1.26,0.1,0.18,1.43
0.94,-109.75,75.87,175.75,0.3,0.27,0.03,0.07,0.07,0.53,-98.18,82.0,182.22,0.03,0.44,0.04,-0.09,0.08,0.11,-153.79,25.68,33.45,2.19,1.95,0.39,0.96,1.24,0.2,-134.55,35.51,66.8,1.83,1.28,1.17,0.06,0.6,1.73
0.95,-109.52,75.73,176.06,0.37,0.13,0.42,0.12,0.21,0.37,-98.06,81.85,182.73,0.32,0.34,-0.07,0.08,0.22,0.03,-153.58,27.55,36.79,1.98,1.82,0.49,0.62,1.28,0.37,-133.19,37.17,70.04,1.82,1.49,1.52,0.56,0.65,1.91
0.96,-108.88,75.68,176.14,0.41,0.01,0.07,0.32,0.01,0.26,-97.67,82.01,184.3,0.18,0.34,0.22,0.34,0.72,0.14,-153.19,29.34,39.41,2.1,1.75,0.4,0.43,1.2,0.27,-132.07,38.78,73.23,1.65,1.68,1.25,0.45,0.69,1.4
0.97,-108.26,75.65,176.01,0.62,0.22,-0.01,0.63,0.12,0.36,-97.32,81.97,185.34,0.19,0.47,0.08,0.18,0.94,-0.04,-153.22,30.67,42.56,2.04,1.67,0.38,0.45,1.17,0.32,-130.66,40.16,76.48,1.59,1.49,1.27,0.45,0.49,1.86
0.98,-107.45,75.3,175.52,0.79,0.15,0.18,1.03,0.59,0.46,-96.24,82.04,187.59,0.51,0.52,-0.01,1.24,1.31,0.32,-153.11,32.41,45.44,1.81,1.71,0.76,0.36,0.45,0.26,-129.51,41.35,79.49,1.67,1.47,1.08,0.71,0.81,2.18
0.99,-106.83,75.59,175.23,0.49,0.17,0.0,1.08,0.56,0.26,-95.87,82.06,188.24,0.54,0.53,0.21,0.83,1.25,0.27,-152.66,33.18,46.68,2.03,1.64,0.63,0.33,0.44,0.05,-129.09,41.68,81.19,1.33,1.31,1.05,0.99,0.77,1.81
1.0,-106.51,75.42,174.94,0.47,0.18,0.02,0.94,0.39,0.34,-95.81,81.93,188.8,0.42,0.74,0.2,0.34,1.05,0.3,-152.38,34.17,48.27,1.97,1.48,0.62,0.31,0.44,0.16,-128.81,41.97,82.73,1.47,1.38,0.87,1.6,0.45,1.43
1.01,-105.99,75.29,174.64,0.4,0.01,-0.02,0.47,0.74,0.01,-95.2,81.96,190.37,0.32,0.51,0.21,0.31,0.83,0.33,-150.75,37.35,52.92,1.54,1.48,0.84,0.61,0.94,0.17,-128.31,42.75,85.37,1.06,1.14,0.69,1.36,0.92,1.37
1.02,-105.48,75.16,174.51,0.29,-0.03,-0.12,0.73,0.93,0.6,-95.1,82.09,191.02,0.38,0.41,0.26,0.74,0.46,0.49,-149.79,38.89,55.84,1.55,1.32,0.67,0.13,1.22,0.37,-125.39,44.56,85.3,0.97,1.01,1.32,0.89,0.9,1.71
1.03,-104.98,75.36,174.36,0.4,0.17,-0.02,0.56,0.77,0.62,-94.76,81.8,192.5,0.45,0.41,0.4,0.79,0.82,0.15,-148.98,40.34,58.39,1.42,1.42,0.83,0.01,0.57,-0.03,-124.12,45.82,88.13,1.19,1.03,1.34,0.26,0.6,2.09
1.04,-104.87,74.96,174.15,0.28,0.03,0.09,0.51,0.3,0.94,-94.43,81.92,194.2,0.12,0.63,0.1,0.55,0.83,0.62,-148.18,42.14,61.24,1.6,1.43,0.58,0.31,0.62,0.57,-121.64,47.21,93.42,1.09,0.93,0.81,1.49,1.38,0.61
1.05,-104.33,75.1,173.93,0.48,0.3,0.09,0.53,-0.08,0.91,-94.35,81.68,195.82,0.43,0.68,0.22,0.8,1.07,0.89,-147.51,43.24,64.09,1.56,1.38,0.54,0.55,1.08,0.76,-121.06,47.75,95.25,0.71,0.84,0.72,1.26,0.89,0.45
1.06,-103.9,74.87,173.72,0.2,0.15,0.05,0.16,0.18,1.03,-94.25,81.95,197.87,0.52,0.57,0.35,1.51,0.73,0.25,-146.9,44.73,66.61,1.48,1.21,0.97,1.26,0.19,0.34,-120.6,47.83,97.09,0.6,0.71,0.74,1.42,0.61,0.04
1.07,-103.54,74.56,173.61,0.13,0.14,-0.05,0.03,0.44,1.14,-93.83,82.02,199.91,0.49,0.87,0.54,1.74,0.74,0.3,-145.65,46.42,69.33,1.66,1.26,1.09,0.89,-0.02,0.22,-120.11,48.21,98.81,0.5,0.53,1.1,1.14,0.1,0.56
1.08,-99.61,74.12,173.59,0.46,0.08,0.17,-0.1,1.1,0.68,-93.39,82.11,201.82,0.62,1.05,0.29,1.88,0.82,0.44,-144.4,47.56,71.86,1.65,1.24,0.85,1.0,0.45,0.24,-119.49,49.01,100.91,0.38,0.76,1.23,1.21,0.96,0.42
1.09,-99.39,74.23,173.11,0.57,0.05,0.01,0.2,1.58,0.79,-93.15,81.88,203.61,0.71,1.31,0.38,1.79,0.9,0.24,-144.79,47.45,73.75,1.43,1.21,0.47,0.93,1.73,0.36,-117.98,49.85,102.59,0.44,0.46,1.26,1.33,1.76,0.62
1.1,-98.7,74.32,173.0,0.58,0.02,0.04,0.02,1.59,0.87,-92.62,81.95,204.41,0.73,1.34,0.42,2.1,0.79,0.3,-144.12,48.22,76.58,1.47,1.11,0.39,0.82,1.44,0.21,-117.47,50.24,103.27,0.54,0.6,0.88,1.24,1.07,0.33
1.11,-98.11,74.36,172.43,0.67,0.06,0.04,-0.06,1.61,0.88,-92.36,81.83,205.19,0.55,1.52,0.47,2.27,0.72,0.25,-143.39,49.02,79.6,1.62,0.96,0.42,0.33,1.3,0.1,-116.96,50.42,104.32,0.52,0.38,0.58,1.41,0.58,0.23
1.12,-97.07,74.21,171.99,0.65,-0.08,0.06,0.24,1.45,1.29,-92.02,81.95,206.59,0.49,1.37,0.58,2.3,0.66,0.14,-142.86,49.29,82.3,1.45,0.88,0.29,0.56,1.36,0.19,-116.65,50.78,106.44,0.15,0.52,0.43,1.37,1.41,0.95
1.13,-95.97,74.47,170.73,0.97,0.09,0.11,0.69,0.38,1.41,-91.75,82.13,207.8,0.48,1.71,0.63,0.95,1.23,0.59,-142.8,49.52,85.08,1.32,0.87,0.2,0.67,1.33,0.41,-117.14,50.63,107.74,-0.04,0.38,0.59,1.7,2.44,0.39
1.14,-94.7,74.43,169.87,0.71,0.09,-0.04,0.69,0.2,1.23,-91.15,81.97,208.98,0.52,1.82,0.44,0.48,0.98,0.82,-143.43,49.28,85.74,1.08,0.93,0.35,0.53,0.81,0.38,-117.64,50.45,108.66,0.05,0.24,0.08,1.29,0.24,1.65
1.15,-94.11,74.91,169.46,0.76,0.28,0.16,1.18,0.45,0.64,-90.86,81.93,209.77,0.28,1.86,0.42,0.84,0.64,0.22,-142.4,50.0,87.87,1.04,0.69,0.8,0.4,0.04,0.76,-118.16,50.39,108.04,0.33,0.05,0.26,1.71,0.7,1.66
1.16,-93.23,75.17,169.35,0.65,0.02,0.36,1.86,0.57,0.05,-91.1,81.94,210.79,0.13,1.99,0.33,0.87,0.74,0.27,-142.38,50.35,88.74,0.62,0.37,0.72,0.78,0.74,1.19,-118.57,49.77,107.8,0.16,0.05,-0.11,1.43,0.41,1.45
1.17,-92.67,75.3,170.01,0.7,0.03,0.42,2.02,0.52,0.65,-91.58,82.07,211.75,0.02,1.95,0.49,1.06,0.7,-0.05,-142.32,50.68,89.71,0.65,0.57,0.8,0.82,1.04,1.11,-118.93,50.08,107.86,0.02,0.3,-0.02,1.41,0.03,1.44
1.18,-91.98,75.26,170.7,0.63,0.16,0.53,1.07,0.3,0.2,-92.33,81.82,212.94,0.13,1.86,0.54,1.7,0.29,0.69,-141.31,51.21,91.4,0.7,0.47,0.7,1.02,1.72,1.26,-118.74,50.32,108.05,0.16,-0.01,0.49,1.54,0.69,1.79
1.19,-91.76,75.11,172.77,0.39,0.39,0.18,0.13,0.57,0.35,-92.81,82.0,212.55,0.33,1.84,0.35,0.26,0.35,0.3,-138.2,53.13,94.1,0.85,0.47,0.43,1.3,1.62,1.21,-118.34,51.06,108.16,0.25,-0.1,0.49,0.87,0.4,2.06
1.2,-91.81,75.09,174.31,0.31,0.24,0.64,0.05,0.77,0.5,-93.98,81.86,211.48,0.74,1.65,0.32,0.3,0.1,0.47,-137.5,53.64,95.57,0.4,0.17,0.69,0.57,1.02,1.61,-118.76,51.24,108.32,0.21,0.02,0.56,1.17,0.39,2.33
1.21,-91.45,74.57,175.48,0.22,0.74,0.43,0.68,0.46,0.67,-94.95,81.83,210.86,0.65,1.76,0.47,0.72,0.22,0.58,-137.16,54.1,96.25,0.69,0.28,0.69,1.0,0.77,1.35,-118.75,51.57,108.24,0.23,0.13,0.49,1.32,0.33,2.1
1.22,-91.11,74.1,176.38,0.3,0.91,0.33,1.85,0.23,0.84,-95.91,82.1,210.2,0.62,1.65,0.22,0.99,0.43,0.8,-137.04,54.47,96.82,0.65,0.35,0.56,1.04,0.59,1.28,-118.53,51.72,108.42,0.28,0.08,0.39,1.44,0.05,1.9
1.23,-91.18,73.4,178.19,0.05,1.14,0.4,0.19,0.17,0.47,-98.21,81.95,209.06,0.71,1.7,0.15,0.76,0.43,0.32,-135.03,54.98,99.01,0.29,0.38,0.52,1.27,0.97,1.13,-118.91,52.1,108.41,0.17,0.14,0.47,1.6,0.62,1.62
1.24,-92.83,70.95,182.89,0.22,1.18,0.27,0.15,0.31,1.13,-100.42,81.86,208.0,0.65,1.67,0.37,0.34,0.08,0.42,-134.06,55.47,100.09,0.37,0.17,0.47,1.26,1.06,1.32,-118.74,52.49,108.55,0.32,0.16,0.52,1.4,0.94,1.89
1.25,-93.63,69.94,184.63,0.21,1.0,0.1,0.59,0.37,1.26,-103.13,81.8,206.71,0.78,1.42,0.35,0.47,0.12,0.85,-133.43,55.57,101.44,2.05,0.07,0.35,0.8,0.32,1.24,-118.18,53.0,108.8,0.27,0.1,0.55,1.59,0.73,1.9
1.26,-94.25,68.87,185.54,0.41,1.06,-0.09,-0.08,0.15,1.08,-105.67,81.75,205.69,0.9,1.3,0.4,0.16,0.36,-0.02,-132.64,56.29,102.13,0.21,-0.04,0.56,1.04,1.17,1.08,-118.6,53.48,108.79,0.5,0.03,0.61,1.34,0.16,1.52
1.27,-94.77,67.58,186.57,0.54,0.82,-0.08,1.12,0.77,0.73,-108.79,81.87,204.53,1.0,1.03,0.2,0.66,0.71,1.07,-132.34,56.52,102.77,0.33,0.11,0.61,0.86,1.07,0.89,-118.41,54.03,108.48,0.41,0.33,0.19,1.09,0.02,1.57
1.28,-95.95,66.5,187.2,0.66,0.81,0.2,1.05,0.56,1.28,-108.85,81.94,203.57,0.96,1.09,0.24,0.75,0.91,0.6,-133.63,55.87,101.94,0.24,-0.03,0.48,0.47,0.22,0.77,-118.89,54.36,108.06,0.28,-0.08,0.38,0.9,0.2,1.4
1.29,-97.51,65.74,188.91,0.76,0.67,0.3,0.81,0.05,0.71,-109.41,81.83,202.53,0.93,1.12,0.14,1.27,0.65,0.32,-133.13,56.12,101.87,0.11,0.34,0.16,0.76,0.58,0.62,-118.84,54.61,107.96,0.26,0.16,0.07,1.27,0.07,1.13
1.3,-99.4,65.17,190.46,1.05,0.44,0.24,1.08,-0.03,0.09,-109.98,82.03,200.42,0.92,0.95,0.27,1.41,1.17,0.48,-131.45,56.98,103.58,1.95,0.08,1.45,1.23,0.48,0.52,-118.91,54.66,107.46,0.14,0.39,0.18,1.39,0.23,1.18
1.31,-103.18,64.31,189.75,0.84,0.26,0.23,0.8,1.73,1.24,-110.41,82.0,199.33,0.94,0.67,0.06,1.25,1.38,0.71,-130.9,57.3,103.8,0.14,0.17,-0.15,0.44,0.81,1.14,-119.34,54.94,106.94,0.27,0.05,0.05,1.37,0.36,0.76
1.32,-104.15,64.01,188.88,0.82,0.36,0.25,0.7,1.73,1.0,-110.61,81.87,199.02,0.83,0.85,0.02,1.03,0.93,0.48,-131.21,57.46,103.56,0.03,0.09,-0.04,0.6,0.47,1.11,-119.28,55.2,106.73,0.02,0.17,0.19,1.12,0.61,1.18
1.33,-104.92,64.05,187.98,0.72,0.25,0.32,0.54,1.55,0.78,-110.89,82.0,198.53,0.98,0.57,-0.02,1.02,0.88,-0.05,-131.49,57.62,103.34,0.13,-0.02,-0.0,0.48,0.27,1.08,-119.16,55.25,106.73,0.11,0.25,0.14,0.58,0.55,1.29
1.34,-108.25,62.96,186.11,0.54,0.34,0.14,1.35,0.04,0.68,-111.03,81.99,197.78,0.93,0.74,0.05,0.79,1.07,0.62,-130.06,58.82,103.5,0.25,0.22,0.09,0.81,0.23,0.71,-119.01,55.55,106.17,0.16,0.18,-0.15,0.67,0.74,1.1
