0.01,-109.16,77.69,173.58,0.23,0.68,-0.04,0.51,-0.01,1.6,-98.39,85.48,175.32,-0.03,0.21,0.17,0.38,0.18,0.14,-149.97,0.59,4.12,0.04,0.0,0.05,0.03,0.02,0.12,-118.46,13.48,9.3,0.08,0.08,-0.03,1.15,0.98,0.15
0.02,-109.52,76.96,174.09,0.39,0.52,-0.02,0.19,0.13,0.85,-98.3,85.22,175.4,0.39,0.2,0.2,0.61,0.15,0.41,-149.87,0.55,4.59,0.11,0.3,-0.03,0.11,0.18,0.08,-117.97,13.6,9.19,0.14,0.1,0.24,1.1,0.54,0.07
0.03,-109.87,76.44,174.68,0.32,0.54,-0.02,0.95,0.47,0.93,-98.26,85.02,175.0,0.36,0.72,0.17,0.5,0.43,0.68,-150.03,0.25,4.52,-0.09,0.13,0.23,0.28,-0.02,-0.01,-117.73,13.61,9.47,0.15,0.04,0.03,1.2,0.42,1.04
0.04,-109.99,75.88,174.85,0.15,0.42,-0.03,1.03,0.2,0.96,-98.77,84.4,174.69,0.54,0.5,0.09,0.13,0.18,0.44,-150.37,0.36,4.51,0.05,0.2,-0.06,0.56,0.17,0.07,-117.61,13.34,9.56,0.06,-0.0,-0.03,1.61,0.25,1.67
0.05,-109.97,75.24,175.1,0.01,0.53,0.08,1.65,0.08,0.42,-98.87,84.37,174.83,0.24,0.35,-0.02,0.83,0.28,0.14,-150.35,0.24,4.38,0.21,0.34,-0.09,0.36,0.38,0.2,-117.51,13.35,9.46,-0.25,0.21,-0.02,1.16,0.36,2.22
0.06,-109.61,74.23,175.45,0.01,0.74,-0.03,1.95,0.12,0.31,-99.29,84.21,174.74,0.36,0.48,0.01,1.65,0.36,0.25,-150.42,0.37,4.14,0.21,0.13,0.1,0.53,0.95,0.33,-117.35,13.22,9.14,0.08,0.31,0.15,1.11,0.52,2.85
0.07,-109.45,73.15,175.46,0.35,1.04,0.2,1.19,0.05,0.05,-99.34,83.73,174.86,0.15,0.72,0.15,1.62,0.31,0.13,-150.64,0.05,3.78,-0.01,0.02,0.19,1.11,1.44,0.14,-116.94,13.08,9.12,0.06,0.29,0.37,0.83,0.61,2.81
0.08,-108.92,72.03,175.49,0.13,1.12,0.15,1.64,0.14,0.4,-99.52,83.0,174.77,0.32,1.01,0.03,1.81,0.25,0.06,-150.42,0.02,3.84,0.23,0.09,0.08,1.1,1.75,0.06,-116.81,12.95,8.74,0.05,0.35,0.35,0.8,0.36,2.63
0.09,-108.38,70.55,175.45,0.2,1.27,0.03,2.46,0.28,0.39,-99.65,82.43,174.68,0.3,1.0,0.16,1.57,-0.09,0.48,-150.39,0.18,3.73,0.13,0.0,0.39,1.38,1.82,0.59,-116.52,13.01,8.74,0.23,-0.01,0.26,0.63,-0.1,2.69
0.1,-108.11,69.26,175.72,0.11,1.26,0.31,2.5,0.32,0.37,-99.91,81.55,180.79,-0.03,1.15,0.03,2.09,0.03,0.35,-149.87,0.32,3.76,0.35,0.15,0.24,1.32,2.25,1.54,-116.03,12.8,8.37,0.36,0.19,0.64,0.46,0.07,3.05
0.11,-107.75,67.52,175.9,0.27,1.59,-0.1,2.0,0.05,0.36,-99.73,80.28,186.25,0.06,1.24,0.06,1.95,0.27,0.9,-149.51,0.34,3.42,0.09,0.25,0.44,1.22,1.76,1.74,-115.82,12.52,7.85,0.25,0.16,0.29,0.09,0.32,3.44
0.12,-107.03,65.4,176.13,0.38,1.76,0.17,1.48,-0.05,0.23,-99.34,79.05,191.04,0.09,1.82,0.17,2.28,-0.11,0.78,-148.18,0.82,3.22,0.03,0.07,0.32,0.78,1.38,2.41,-115.24,12.2,7.54,0.12,0.29,0.2,0.0,0.41,3.89
0.13,-106.56,61.36,176.81,-0.03,1.92,0.17,1.3,0.29,0.64,-99.65,75.94,198.58,-0.08,1.67,0.06,3.92,0.53,0.33,-146.83,1.04,2.9,0.51,0.21,0.57,0.75,1.06,2.51,-114.62,12.0,7.11,0.32,0.05,0.33,0.05,0.18,4.03
0.14,-106.72,59.34,177.19,-0.02,2.0,-0.22,0.81,0.11,0.94,-99.3,74.12,200.91,0.05,1.63,-0.1,4.33,0.39,0.68,-145.96,1.47,2.59,0.28,0.23,0.43,0.96,0.77,3.19,-114.7,11.94,6.56,0.24,0.22,0.28,0.18,0.19,3.8
0.15,-106.96,57.07,177.46,0.22,1.77,0.22,0.28,0.07,0.13,-99.31,69.7,205.13,0.12,2.48,-0.05,3.05,0.2,0.11,-145.58,1.55,2.45,0.01,0.25,0.69,0.76,0.23,3.5,-114.03,12.0,6.21,0.17,0.11,0.61,0.53,0.5,3.4
0.16,-107.07,54.9,177.99,0.18,2.05,0.14,0.8,-0.02,0.13,-99.47,66.93,206.64,0.24,2.21,0.04,2.82,0.18,0.27,-145.06,1.63,1.96,0.49,0.14,0.34,0.94,0.23,3.9,-113.43,11.89,6.01,0.15,0.27,0.56,0.58,0.56,3.73
0.17,-107.45,52.56,178.43,-0.01,1.97,-0.01,0.14,0.29,0.8,-99.72,61.73,208.95,0.21,2.36,-0.07,2.78,-0.04,0.7,-144.38,1.77,1.7,0.29,0.09,0.55,0.73,0.11,4.09,-112.68,11.64,5.62,0.31,0.13,0.33,0.4,0.57,3.38
0.18,-107.49,51.7,178.16,0.19,2.05,0.05,0.1,0.53,1.48,-99.94,58.91,210.31,0.26,2.58,-0.01,2.36,0.46,0.29,-143.02,2.1,0.82,0.3,0.12,0.82,0.26,0.79,3.52,-112.56,11.41,5.06,0.32,0.14,0.35,-0.09,0.46,2.85
0.19,-107.07,49.58,178.33,0.17,1.96,-0.12,0.22,0.35,1.4,-99.53,57.23,210.67,0.05,2.7,0.0,1.55,0.14,0.66,-142.1,2.13,0.82,0.36,0.09,0.88,0.48,0.75,3.35,-112.23,11.13,4.81,0.13,0.2,0.25,0.13,0.2,2.23
0.2,-106.84,47.53,178.33,0.02,1.77,-0.07,0.58,0.25,0.92,-99.24,54.47,210.9,-0.14,2.21,0.15,1.82,0.05,0.04,-140.75,2.35,0.49,0.18,0.15,0.51,0.67,0.44,3.46,-111.87,11.07,4.64,0.3,0.3,0.48,0.28,0.21,1.72
0.21,-106.35,45.46,178.25,-0.02,1.86,0.11,2.51,0.48,0.68,-99.06,51.84,211.75,0.35,2.72,0.07,0.52,0.22,0.09,-140.0,2.61,0.36,0.29,0.11,0.28,0.08,0.24,2.72,-111.26,10.96,3.99,0.24,0.16,0.25,0.08,0.21,1.53
0.22,-109.64,43.25,178.19,0.03,1.85,0.07,2.59,0.13,0.64,-98.57,48.64,212.1,0.31,2.77,0.01,0.07,0.36,0.57,-139.49,2.49,0.06,0.07,-0.15,0.48,0.08,0.32,2.38,-111.0,10.88,3.52,0.41,0.14,0.29,0.14,0.42,0.09
0.23,-109.91,41.16,177.95,0.24,1.46,0.04,0.28,0.17,1.88,-98.34,45.6,212.27,0.02,2.63,0.07,0.54,0.23,1.05,-138.95,2.43,0.21,0.36,-0.05,0.47,0.05,0.38,2.01,-110.42,10.57,3.26,0.46,0.15,0.53,0.04,0.34,0.37
0.24,-110.07,39.58,178.3,-0.09,1.28,0.2,1.54,0.55,2.03,-98.38,42.62,212.83,0.24,2.65,0.15,0.05,0.3,0.21,-138.31,2.45,-0.1,-0.06,0.07,0.97,0.09,-0.21,0.83,-110.45,10.77,2.62,0.4,0.01,0.43,0.19,0.16,0.77
0.25,-109.86,36.12,178.41,0.17,1.87,-0.03,3.26,0.73,1.0,-98.23,34.03,213.93,0.38,2.09,0.03,0.11,0.37,2.95,-136.85,1.99,0.22,0.13,0.34,0.37,0.56,0.0,0.37,-110.09,11.03,1.74,0.26,0.08,0.15,0.51,0.8,1.68
0.26,-109.73,34.01,178.38,-0.03,1.75,-0.01,1.86,1.19,0.63,-98.03,31.84,214.15,0.13,1.94,-0.02,0.24,0.51,2.68,-136.31,2.09,-0.05,0.17,0.39,0.38,0.65,0.53,0.5,-110.21,11.04,1.52,0.06,0.14,-0.11,0.45,1.07,1.39
0.27,-109.84,32.4,178.57,0.05,0.96,0.17,1.04,0.47,1.2,-98.12,29.34,214.51,0.07,2.31,0.06,1.17,0.82,0.35,-135.82,1.49,0.07,-0.14,0.11,0.51,0.5,0.51,0.52,-110.01,11.25,1.42,0.08,0.15,0.25,0.11,1.04,1.26
0.28,-110.19,31.3,178.13,0.11,1.14,0.12,2.05,0.21,1.36,-97.76,26.62,214.4,-0.01,2.33,-0.09,1.82,0.61,0.32,-135.97,1.39,0.17,0.13,0.19,0.43,0.61,0.2,0.84,-109.94,11.62,1.45,-0.01,0.24,0.39,0.79,0.46,1.47
0.29,-110.35,29.75,177.92,0.04,1.74,-0.07,1.91,0.25,0.36,-98.06,24.46,214.41,0.01,1.87,0.09,0.92,0.56,1.68,-135.21,1.1,0.29,0.03,0.26,0.48,0.86,0.07,1.51,-109.28,11.76,1.14,0.08,0.34,0.25,1.16,0.58,1.51
0.3,-110.51,27.98,178.24,0.11,1.26,0.0,1.95,0.35,0.83,-97.74,23.7,214.28,0.03,1.53,-0.11,1.02,0.41,1.13,-134.83,0.67,0.44,0.32,0.51,0.5,0.7,0.43,1.16,-109.24,12.26,1.12,0.18,0.21,0.35,0.62,0.59,1.42
0.31,-110.57,26.63,177.89,0.23,1.24,0.23,1.36,0.05,0.44,-97.87,21.76,214.76,0.02,1.67,0.07,0.98,-0.05,0.66,-134.04,0.22,0.7,-0.05,0.42,0.79,0.81,-0.03,1.24,-108.74,12.46,1.11,0.08,0.14,0.37,0.5,0.38,2.21
0.32,-110.43,25.54,177.53,0.41,1.0,0.02,1.54,0.97,0.55,-97.77,19.78,214.62,0.11,1.8,0.08,1.3,0.93,1.16,-133.47,0.12,1.13,0.19,0.34,0.79,1.14,0.55,1.09,-108.35,12.74,1.28,0.04,-0.06,0.13,0.69,0.03,2.47
0.33,-110.34,24.12,177.36,0.04,1.38,-0.09,1.82,0.18,1.35,-97.71,18.1,214.67,0.17,1.44,-0.01,0.79,0.87,1.83,-132.4,0.13,1.12,0.21,0.0,0.79,0.58,0.37,1.43,-108.27,12.74,1.18,0.03,0.21,0.09,0.88,0.04,2.64
0.34,-110.74,21.32,177.74,0.25,0.62,0.28,1.79,1.29,0.22,-97.92,16.47,214.8,-0.14,1.3,0.09,0.54,0.36,2.09,-131.58,0.33,1.26,0.14,0.38,0.58,0.77,0.32,1.67,-108.46,12.96,0.92,-0.04,0.05,0.19,0.44,-0.01,4.27
0.35,-110.67,20.37,178.17,0.01,0.75,0.13,1.31,0.3,0.19,-97.93,15.07,214.77,0.03,1.44,0.06,0.99,0.43,1.39,-130.87,0.54,1.62,0.35,0.19,0.45,0.88,0.06,2.27,-108.6,12.94,1.06,0.01,0.07,0.24,0.85,0.81,3.62
0.36,-110.97,19.54,178.07,0.21,0.62,0.26,1.46,1.35,-0.01,-97.74,11.95,215.22,0.16,1.39,0.02,1.24,0.22,2.35,-130.37,0.6,1.97,0.33,0.15,0.76,0.99,0.36,2.08,-108.97,12.99,1.2,0.16,-0.04,0.52,0.58,0.22,3.1
0.37,-111.05,17.77,178.38,0.09,0.75,0.07,1.72,0.23,1.22,-97.87,10.25,215.23,0.28,0.64,-0.01,0.38,0.69,2.73,-129.65,1.65,3.07,0.57,0.25,0.03,0.79,1.07,4.11,-109.88,12.76,1.83,0.32,-0.01,0.31,0.55,0.19,3.56
0.38,-111.36,17.15,177.93,0.13,0.49,0.18,1.51,0.16,0.4,-97.84,9.63,215.17,0.09,0.74,0.07,0.7,0.47,1.23,-129.41,1.89,3.48,0.3,0.05,0.03,0.82,1.06,2.82,-110.24,12.68,2.04,0.25,0.03,0.32,0.36,0.05,3.42
0.39,-111.4,16.59,178.01,-0.03,0.53,0.02,1.24,0.2,0.93,-97.63,8.63,215.2,0.15,0.44,-0.07,0.63,0.15,1.22,-129.45,1.7,4.02,0.52,-0.0,0.13,0.53,0.95,3.19,-110.23,12.96,2.48,0.13,0.38,0.08,0.29,1.67,3.47
0.4,-111.63,16.36,178.43,0.13,0.08,0.09,1.01,0.35,0.65,-97.81,8.06,215.69,0.12,0.53,-0.06,1.12,0.23,2.39,-129.43,2.11,4.56,0.25,0.02,0.04,0.77,0.65,3.41,-110.27,13.08,3.19,0.21,0.35,0.41,0.98,3.77,4.12
0.41,-111.35,16.03,178.58,0.11,0.23,0.15,1.8,1.09,2.1,-97.82,8.19,215.4,-0.06,0.08,0.04,0.46,1.43,3.16,-129.34,2.33,4.74,0.02,-0.05,0.02,0.6,0.26,3.36,-110.66,13.36,3.43,0.27,0.49,1.07,1.07,2.49,4.18
0.42,-111.69,15.65,178.47,0.27,0.15,0.02,1.65,1.05,1.63,-98.05,8.27,215.28,-0.06,0.13,-0.06,0.31,1.43,3.1,-129.65,1.95,4.91,0.4,0.12,0.11,-0.16,1.38,3.54,-112.7,14.05,4.75,0.15,0.36,0.59,0.72,1.8,3.0
0.43,-111.87,15.73,178.25,0.05,0.12,-0.02,0.67,0.46,0.66,-97.99,8.32,215.45,0.04,0.15,0.14,0.26,0.13,2.12,-129.57,2.15,5.22,0.09,0.09,0.15,0.38,1.39,3.19,-112.86,14.28,4.99,0.4,-0.13,0.34,0.8,0.33,2.49
0.44,-112.18,16.71,177.71,0.13,0.26,0.18,1.08,0.41,0.74,-97.78,8.63,214.8,0.19,0.31,-0.03,0.49,0.06,0.68,-130.58,2.31,5.61,0.38,0.23,1.1,0.49,1.84,3.76,-113.13,14.27,5.13,0.18,0.39,0.55,0.15,3.07,2.23
0.45,-112.24,16.67,177.82,-0.02,0.11,-0.04,1.02,0.12,2.31,-97.67,9.26,214.72,-0.06,0.43,0.11,0.08,0.19,2.7,-131.65,2.62,5.61,-0.09,0.26,0.91,0.26,1.69,3.86,-113.77,14.74,5.93,0.35,0.6,0.31,0.91,0.63,3.26
0.46,-112.24,16.75,177.87,0.12,-0.06,0.04,1.34,0.04,2.13,-97.73,9.8,214.81,0.03,0.61,-0.01,1.06,0.3,2.62,-133.56,3.43,5.6,0.08,0.24,0.66,0.82,1.19,2.16,-113.42,15.18,5.99,0.27,0.23,0.58,0.93,2.8,4.11
0.47,-112.13,16.55,177.91,0.11,0.09,0.06,1.42,0.75,1.36,-97.8,10.07,214.73,-0.22,0.17,0.11,0.59,-0.3,1.44,-134.34,3.39,5.31,0.02,0.08,0.4,0.37,0.89,2.03,-113.06,15.45,6.14,0.24,0.64,0.4,0.61,1.55,4.3
0.48,-111.84,16.88,177.92,0.09,0.25,0.04,1.22,0.42,0.66,-97.8,9.91,215.15,0.02,0.15,0.14,0.99,0.14,1.7,-134.51,3.28,5.27,0.2,0.13,0.15,0.25,0.07,2.53,-113.24,15.89,6.41,0.24,0.39,-0.16,0.8,0.54,3.85
0.49,-112.1,17.55,178.0,-0.02,0.18,0.08,1.93,0.03,1.32,-97.8,10.41,215.26,0.2,0.51,-0.08,0.47,0.57,2.02,-134.76,3.4,4.73,0.24,0.2,0.21,0.65,1.44,4.0,-112.89,16.55,7.52,0.47,0.15,0.12,0.49,1.15,2.86
0.5,-112.45,18.19,177.98,0.12,0.6,0.02,1.5,-0.04,1.06,-97.84,11.49,215.52,0.22,0.35,0.12,1.04,0.28,1.98,-135.4,3.55,4.41,0.31,0.17,0.74,0.66,2.41,4.17,-112.49,16.83,7.96,0.6,0.53,0.28,0.17,1.09,2.82
0.51,-112.6,18.81,177.87,0.14,0.64,0.25,0.86,0.43,0.14,-97.87,11.7,215.62,0.31,0.62,0.11,0.85,0.17,1.72,-136.19,3.59,3.97,0.38,0.27,0.64,0.73,0.04,3.52,-111.82,17.56,8.67,0.53,0.52,0.68,0.35,0.51,2.57
0.52,-112.67,19.5,178.03,0.28,0.53,0.05,1.36,0.39,0.22,-98.21,13.91,216.1,0.13,0.79,-0.07,0.18,0.44,1.12,-136.2,3.57,3.38,0.46,0.1,0.01,1.04,0.48,3.06,-111.22,18.24,9.14,0.59,0.5,0.38,1.03,0.09,2.21
0.53,-112.83,20.77,177.88,0.02,0.81,0.06,1.7,0.05,0.18,-98.06,14.63,216.06,0.17,0.9,0.2,0.57,0.35,2.07,-135.88,3.63,2.83,0.48,0.12,0.23,0.79,0.27,2.59,-110.82,18.91,9.67,0.62,0.75,0.25,0.75,0.19,2.04
0.54,-113.19,21.81,177.88,0.18,0.9,0.1,2.32,0.08,0.42,-98.27,15.57,216.16,-0.0,0.86,-0.13,0.62,0.13,1.22,-135.62,3.39,2.09,0.66,0.16,0.14,0.5,0.61,2.17,-110.31,19.61,10.19,0.55,0.53,0.48,0.83,0.27,1.7
0.55,-113.3,22.95,177.88,-0.09,0.9,0.07,1.15,0.84,0.36,-98.14,16.8,216.0,0.04,1.17,-0.08,0.61,0.44,0.69,-135.44,3.51,1.93,0.53,0.15,0.24,0.04,0.98,2.86,-110.02,20.48,10.85,0.68,0.62,0.38,0.42,0.28,1.78
0.56,-113.39,24.45,177.51,0.44,1.38,0.04,0.91,1.24,0.3,-98.04,18.21,215.97,0.23,1.16,0.11,0.23,0.96,1.2,-135.18,2.82,1.15,0.62,0.11,0.0,0.57,1.05,2.57,-109.81,21.45,11.76,0.64,0.4,0.35,0.57,1.51,1.27
0.57,-113.61,25.71,177.2,0.06,1.21,-0.08,0.71,0.99,0.44,-98.22,19.42,215.84,0.24,1.23,-0.09,0.61,0.83,0.72,-135.38,2.99,0.61,0.58,0.11,0.45,0.42,0.37,1.88,-109.47,21.99,12.31,0.51,0.68,0.88,0.75,0.49,2.23
0.58,-113.87,26.92,177.59,0.12,1.14,0.06,1.47,0.72,0.25,-98.19,20.7,215.75,0.18,1.21,0.29,0.71,0.24,0.96,-136.0,3.68,-0.14,0.58,0.2,0.54,0.29,0.1,1.46,-107.99,24.2,12.96,0.49,0.99,0.18,0.18,0.59,1.37
0.59,-114.0,28.17,177.38,0.35,1.39,0.03,1.67,0.56,0.21,-98.28,23.47,215.1,0.32,1.31,0.02,0.48,0.18,1.52,-136.59,3.56,0.34,0.19,0.24,0.6,-0.02,0.26,1.67,-108.1,24.9,13.82,0.67,0.83,0.31,0.46,1.8,0.93
0.6,-113.86,31.05,176.85,0.13,1.27,0.11,1.24,0.38,0.09,-98.32,25.34,214.97,0.19,1.47,0.23,0.37,0.28,1.28,-138.15,4.19,1.15,0.66,0.14,0.59,0.22,0.86,1.46,-107.38,25.79,14.25,0.57,0.8,0.83,0.51,0.55,2.09
0.61,-114.08,33.22,176.49,0.25,1.7,0.03,1.77,-0.09,0.41,-98.03,28.73,214.96,0.05,1.51,0.17,0.06,0.15,0.59,-138.54,5.52,2.51,0.54,0.31,0.13,0.27,0.85,1.3,-106.42,28.1,15.02,0.7,1.03,0.34,0.62,0.19,1.18
0.62,-113.95,35.48,176.26,0.27,1.76,0.19,0.02,0.17,0.56,-98.22,30.17,214.67,0.17,1.66,0.07,0.37,0.33,0.09,-138.76,5.72,2.84,0.33,0.49,0.27,0.04,0.65,1.06,-105.92,29.38,15.48,0.61,1.36,0.67,0.88,0.14,1.48
0.63,-114.46,37.4,175.86,0.01,1.89,0.11,0.08,0.31,0.91,-98.18,31.23,214.57,0.16,1.73,0.25,0.41,0.07,0.13,-138.92,6.51,3.55,0.48,0.65,0.13,0.53,0.24,1.39,-105.43,30.91,16.1,0.34,1.3,0.65,0.33,0.26,1.07
0.64,-114.36,39.68,175.87,0.16,1.54,0.06,1.48,0.1,1.28,-98.45,33.48,214.48,0.15,1.61,-0.07,0.57,0.34,0.28,-138.74,6.98,3.88,0.17,0.82,0.3,0.15,0.57,0.79,-105.19,32.76,16.89,0.56,1.77,0.1,1.15,1.63,0.57
0.65,-114.49,41.18,176.07,0.12,1.66,0.28,1.24,0.3,0.9,-98.17,35.45,213.87,0.12,1.72,0.11,0.75,0.15,0.22,-139.3,7.77,4.31,0.42,0.41,0.25,0.74,0.91,0.11,-104.54,34.43,17.57,0.76,1.69,0.54,1.27,1.87,0.73
0.66,-114.47,43.51,176.04,-0.0,1.82,-0.01,0.32,0.78,1.85,-98.07,37.5,213.98,0.21,2.09,0.13,0.31,0.66,0.7,-139.44,8.48,4.6,0.18,0.75,0.44,0.86,0.76,0.36,-103.7,36.84,18.21,0.84,1.82,1.02,0.51,0.83,0.39
0.67,-114.57,45.58,175.57,0.21,2.14,0.22,0.29,0.93,1.39,-98.09,39.69,213.58,0.21,1.9,0.11,0.08,0.61,0.87,-140.1,9.27,4.63,0.11,0.72,0.79,0.48,0.02,0.06,-102.51,39.2,18.59,0.46,1.88,0.67,0.59,0.74,0.47
0.68,-114.44,47.79,175.01,0.27,2.06,0.03,-0.14,0.51,1.4,-97.9,41.8,213.38,0.3,2.16,-0.07,0.44,0.66,0.27,-140.77,10.41,4.84,0.39,1.01,0.82,0.36,0.15,0.58,-102.12,41.45,19.53,0.82,1.94,0.58,1.0,0.61,0.93
0.69,-114.5,49.91,174.43,0.14,2.12,0.07,1.47,0.29,1.05,-98.03,44.49,213.11,0.31,2.11,0.02,0.52,0.34,0.49,-141.47,11.33,4.65,0.16,0.94,0.53,0.24,0.15,-0.03,-101.33,43.57,20.37,0.55,1.97,0.72,0.34,0.44,0.31
0.7,-114.63,52.15,174.07,0.24,2.13,-0.03,1.5,0.34,1.21,-98.01,48.96,211.92,0.15,2.1,0.16,0.38,0.1,0.89,-142.08,12.76,4.39,0.06,1.23,0.78,0.59,0.94,0.25,-100.35,46.31,21.09,0.68,2.11,0.94,0.5,0.43,0.38
0.71,-115.28,57.16,173.13,0.04,2.4,0.1,1.71,0.32,2.07,-98.01,51.53,211.28,0.19,2.44,0.07,0.81,0.34,0.35,-142.76,14.13,4.28,0.15,1.17,0.5,0.57,0.97,0.93,-99.77,49.01,22.37,0.81,2.31,0.66,1.26,0.27,0.92
0.72,-115.26,59.48,172.6,0.19,1.94,0.05,0.65,-0.08,1.68,-97.73,54.37,210.57,0.25,2.56,0.21,1.07,-0.02,0.7,-143.19,15.59,4.09,0.39,1.13,0.78,0.37,0.2,1.61,-99.11,51.6,23.89,0.85,2.41,0.75,1.1,-0.06,0.32
0.73,-114.97,62.39,171.23,0.28,2.1,0.06,0.23,0.48,1.37,-97.57,59.17,209.13,0.41,2.13,0.0,1.19,0.21,0.73,-145.06,19.73,2.29,0.37,1.22,0.61,0.68,0.25,2.38,-97.74,57.59,27.75,0.86,2.45,0.31,1.49,0.56,1.21
0.74,-114.78,64.7,170.63,0.28,1.92,0.1,0.76,-0.03,1.36,-97.08,61.35,207.88,0.35,2.25,0.17,1.41,0.21,0.52,-145.84,21.42,1.26,0.5,1.45,0.9,1.42,0.24,1.72,-97.4,60.07,30.25,0.75,2.58,0.38,0.7,0.92,1.12
0.75,-114.71,66.88,169.39,0.32,1.89,0.05,0.96,0.49,0.61,-96.93,64.13,206.69,0.47,2.29,-0.19,1.8,0.42,0.55,-146.89,23.0,0.08,0.77,1.29,1.35,1.41,0.37,2.22,-96.91,63.17,33.42,0.9,2.69,0.38,1.04,0.98,0.97
0.76,-114.75,68.77,168.73,0.27,1.86,0.24,1.27,0.01,0.64,-96.53,66.25,205.6,0.41,2.25,0.06,2.13,0.37,0.66,-148.23,24.46,1.43,0.88,1.33,1.2,0.77,1.06,1.73,-96.35,65.95,37.38,0.91,2.71,0.3,1.12,0.35,1.86
0.77,-114.98,70.7,168.11,0.11,1.6,0.02,1.06,0.04,1.03,-96.53,68.42,204.04,0.37,1.96,0.16,2.08,0.12,0.64,-148.93,24.97,2.42,1.06,1.19,1.27,0.74,1.09,1.91,-95.9,68.85,37.61,0.94,2.78,0.45,0.84,0.22,1.81
0.78,-115.05,72.54,167.19,0.19,1.42,0.2,0.85,0.28,0.75,-96.24,70.55,202.79,0.23,2.06,-0.11,1.54,0.4,0.85,-150.25,26.43,4.38,1.3,1.07,1.26,0.71,1.09,2.61,-95.24,71.44,44.39,1.0,3.08,0.31,1.18,1.01,0.92
0.79,-114.83,74.08,165.89,0.35,1.45,0.21,2.02,0.21,0.1,-96.35,72.7,200.7,0.28,1.96,-0.21,2.14,0.33,0.35,-151.53,27.46,6.71,1.25,1.28,1.61,0.2,1.65,2.61,-94.46,74.01,53.2,1.07,3.0,0.49,0.95,0.03,1.24
0.8,-114.87,75.56,164.65,0.35,1.11,0.08,1.65,0.09,0.16,-96.13,74.43,198.35,0.39,1.52,-0.03,2.33,0.29,0.19,-152.66,28.8,9.22,1.81,1.24,1.44,0.4,2.19,2.39,-94.16,74.79,58.52,1.01,3.0,0.55,0.93,-0.01,0.75
0.81,-114.89,76.84,163.42,0.1,1.02,-0.07,0.66,0.76,0.06,-95.81,76.27,195.06,0.24,1.56,-0.07,1.09,0.3,1.28,-153.66,29.94,12.17,1.85,1.44,0.97,-0.02,0.88,1.76,-93.12,76.52,58.68,1.03,3.05,0.51,0.99,0.6,1.12
0.82,-114.95,77.77,162.36,0.05,0.97,0.1,0.58,0.72,0.25,-95.71,77.7,192.23,0.33,1.39,0.08,0.75,0.35,0.87,-154.64,31.24,15.01,2.09,1.48,1.09,0.39,1.21,1.5,-92.09,77.58,74.22,1.01,3.17,0.46,0.73,0.06,1.69
0.83,-115.14,78.71,160.91,0.04,0.93,0.12,0.73,0.27,0.97,-95.54,78.97,188.74,0.27,1.36,-0.13,0.6,0.48,0.23,-155.79,32.39,18.23,1.92,1.6,1.08,0.43,1.64,1.8,-91.1,77.22,90.01,1.0,2.86,0.23,0.46,1.34,0.79
0.84,-115.0,79.59,159.29,-0.1,0.83,0.06,0.32,0.02,1.24,-95.31,81.5,188.72,0.28,1.37,0.08,0.63,0.61,0.48,-156.49,33.52,21.49,2.0,1.2,1.22,0.02,1.8,1.57,-90.08,76.6,103.97,0.89,2.81,1.03,-0.01,0.5,-0.05
0.85,-114.87,80.99,156.92,0.1,0.39,0.23,-0.03,0.51,0.66,-95.21,83.77,185.49,0.31,1.03,0.07,1.32,0.29,0.44,-157.33,35.71,28.85,2.31,1.64,0.52,0.79,1.38,0.29,-85.93,71.52,133.65,1.03,2.25,0.36,0.4,1.04,0.11
0.86,-115.28,82.14,154.31,0.18,0.47,-0.0,0.87,0.49,1.02,-95.05,84.22,185.71,0.09,0.89,0.15,1.51,0.76,0.85,-158.03,37.74,28.89,2.69,1.59,1.09,0.55,0.22,0.82,-85.02,69.73,133.66,0.86,2.1,0.81,0.13,0.67,0.41
0.87,-115.05,82.1,153.06,-0.03,0.13,0.08,0.71,-0.11,0.51,-95.23,84.69,185.73,0.02,0.81,0.02,0.75,0.59,0.5,-158.41,38.59,33.05,2.48,1.56,0.64,0.26,0.03,0.68,-81.14,66.44,143.13,1.09,1.47,0.78,0.65,0.01,0.53
0.88,-114.5,82.58,150.84,0.02,0.19,-0.09,0.52,0.31,0.39,-95.53,84.89,185.85,0.12,0.71,-0.03,0.61,0.28,0.1,-157.91,40.58,40.81,2.61,1.8,0.02,1.57,0.59,1.22,-78.79,64.98,146.82,0.88,1.39,0.76,0.88,0.39,0.22
0.89,-114.41,82.46,149.95,0.04,-0.04,-0.05,0.73,0.5,0.02,-95.67,84.86,185.83,0.12,0.66,0.07,1.25,0.44,0.57,-157.13,41.86,44.73,2.6,1.73,0.24,0.73,1.57,0.95,-76.83,63.57,149.54,0.74,1.02,0.7,0.77,0.51,0.09
0.9,-113.83,82.64,149.25,0.07,-0.03,-0.02,0.61,0.28,0.31,-95.45,85.1,185.6,-0.05,0.65,0.18,1.31,0.89,0.2,-156.55,43.55,48.94,2.67,1.49,1.08,0.25,3.05,0.28,-75.54,62.45,152.44,0.59,1.26,0.83,1.26,1.26,0.11
0.91,-113.48,82.53,149.13,0.44,0.26,0.06,0.38,0.88,0.28,-95.75,84.91,185.4,0.2,0.57,0.17,0.48,1.67,0.76,-154.42,45.19,52.4,2.34,1.66,1.04,0.37,2.21,0.43,-73.47,61.4,154.39,0.62,0.94,0.81,0.89,2.09,0.34
0.92,-113.08,82.85,148.9,0.41,-0.01,0.07,0.52,1.29,0.77,-95.68,85.02,185.12,0.32,0.02,0.17,-0.11,1.73,1.58,-152.52,47.18,55.96,2.29,1.62,1.32,0.72,0.96,1.19,-71.78,60.39,155.81,0.6,1.0,0.78,1.13,1.45,2.07
0.93,-112.43,82.65,149.11,0.23,0.16,-0.06,0.34,1.13,0.89,-95.37,85.11,184.73,0.04,-0.01,0.02,1.0,0.71,1.33,-150.43,49.3,59.57,2.28,1.51,1.41,1.38,0.6,0.13,-69.49,59.64,152.97,0.52,0.93,1.44,1.84,2.03,0.77
0.94,-112.06,82.12,150.01,0.13,0.36,0.21,0.26,0.14,1.24,-95.26,84.87,184.53,0.16,0.42,0.09,0.23,0.09,0.78,-148.45,51.09,63.53,2.34,1.55,1.34,1.68,0.56,0.28,-67.84,58.48,151.16,0.06,0.88,0.86,1.87,-0.06,0.19
0.95,-112.33,81.95,151.12,0.16,0.45,0.11,0.29,0.91,0.96,-95.39,84.84,184.35,0.06,0.32,0.3,0.67,0.18,0.75,-146.32,53.24,67.45,1.92,1.3,1.13,2.32,0.06,0.48,-67.71,57.72,150.62,-0.05,0.83,0.2,0.93,3.49,1.16
0.96,-112.23,81.42,152.6,0.24,0.42,0.03,0.35,0.44,1.64,-95.48,84.76,184.26,0.07,0.2,0.16,0.69,-0.02,1.64,-144.1,54.66,71.61,1.79,1.58,1.08,2.73,0.13,0.8,-67.46,56.8,150.45,0.01,1.08,0.37,0.81,2.39,1.81
0.97,-112.78,80.25,155.77,0.44,0.48,0.02,0.26,1.3,1.62,-95.81,84.8,183.85,0.15,0.1,0.14,0.27,0.02,0.24,-140.17,57.7,84.23,1.74,1.4,0.57,1.3,1.21,0.01,-64.97,54.75,148.3,-0.04,0.91,0.41,1.76,2.1,0.72
0.98,-112.93,79.63,156.24,0.17,0.51,0.04,0.33,1.4,1.37,-95.83,84.75,183.65,0.12,-0.07,0.25,0.63,0.08,0.29,-139.27,58.08,89.06,1.68,1.66,0.39,1.12,0.09,0.85,-64.43,53.93,148.06,0.31,0.62,0.18,1.67,0.76,0.11
0.99,-113.18,79.06,157.18,0.19,0.61,0.12,0.65,0.43,1.48,-96.1,84.63,183.61,0.21,-0.09,0.0,0.66,0.54,0.81,-137.83,58.16,93.58,1.6,1.26,0.52,1.78,1.22,0.36,-65.06,53.14,148.13,0.41,0.69,0.04,1.6,1.59,0.57
1.0,-112.99,78.38,157.51,0.34,0.42,0.25,0.4,0.7,1.16,-96.31,84.83,183.65,0.04,0.02,0.07,0.49,0.98,0.5,-136.88,58.66,97.76,1.34,1.13,0.77,1.95,0.76,0.52,-65.86,52.6,148.63,0.48,0.43,0.41,1.44,0.5,1.7
1.01,-113.43,78.06,157.8,0.46,0.18,0.22,0.12,0.99,1.16,-96.46,84.99,183.59,0.04,0.13,-0.13,0.16,1.3,0.22,-135.18,59.0,102.3,1.42,1.5,0.93,0.44,0.29,0.08,-66.27,51.84,148.59,0.47,0.53,0.34,1.77,1.36,1.61
1.02,-113.59,77.95,157.85,0.35,0.19,0.04,0.19,1.85,1.35,-96.48,84.91,183.33,0.07,-0.02,-0.02,-0.18,1.09,1.02,-134.06,59.24,104.75,1.45,1.19,0.86,1.8,0.69,0.48,-66.84,51.16,148.81,0.57,0.43,0.14,2.02,0.61,1.19
1.03,-113.85,77.74,157.76,0.08,0.08,-0.03,0.76,1.73,2.23,-96.58,84.86,183.25,0.08,0.11,0.26,0.71,0.99,1.45,-132.96,59.52,108.97,1.22,1.2,0.77,2.06,0.39,0.16,-67.91,50.69,149.16,0.66,0.34,0.21,2.53,1.26,0.39
1.04,-113.77,77.83,157.8,-0.02,0.09,0.09,0.48,0.9,1.78,-96.69,85.02,183.47,-0.03,0.13,0.07,0.14,0.68,0.83,-131.3,59.69,113.04,1.02,1.24,0.74,1.64,0.45,0.2,-68.81,50.67,149.33,0.65,0.22,0.44,2.64,0.86,1.17
1.05,-113.46,77.44,158.08,0.13,0.24,0.16,0.11,0.56,2.0,-96.75,85.16,183.34,0.05,0.1,0.09,0.24,0.64,0.64,-130.29,59.6,116.97,0.91,1.29,0.58,1.56,0.91,0.06,-70.03,50.2,149.6,0.68,0.27,0.49,3.03,0.95,1.15
1.06,-113.95,76.84,159.02,0.18,0.24,0.0,0.25,0.56,1.43,-97.04,84.85,183.43,0.18,0.16,-0.26,0.92,0.72,0.24,-129.36,59.63,120.74,0.85,1.1,0.87,2.02,0.36,0.14,-71.29,50.16,149.81,0.61,0.16,0.22,2.58,0.92,1.05
1.07,-114.2,76.86,159.97,0.18,0.38,0.03,0.03,0.75,1.13,-97.18,84.94,183.36,0.14,0.04,0.02,0.54,0.77,1.17,-128.21,59.19,123.79,0.63,0.86,0.48,2.95,0.31,0.75,-72.37,50.14,150.38,0.89,0.05,0.16,2.61,0.26,0.94
1.08,-114.56,76.41,161.11,0.29,0.39,0.14,0.92,0.36,1.16,-97.14,85.04,183.39,-0.03,-0.01,0.12,0.1,0.8,0.81,-127.57,59.15,126.16,0.63,0.83,0.5,1.95,1.12,0.23,-73.84,50.11,150.94,0.6,0.29,0.23,2.87,0.75,1.37
1.09,-115.15,75.95,162.34,0.51,-0.04,-0.01,1.06,0.71,1.25,-97.27,85.15,183.18,0.1,0.09,0.02,0.86,0.08,0.2,-126.85,58.76,130.45,0.22,0.78,0.4,2.39,0.5,0.54,-76.05,49.87,151.51,0.65,0.12,0.05,2.59,0.56,0.34
1.1,-115.95,75.91,162.96,0.56,0.15,0.14,1.19,0.72,1.4,-97.2,85.21,183.03,0.14,-0.03,0.03,0.32,0.37,0.32,-126.72,58.39,131.95,0.17,0.59,0.34,1.76,0.35,0.13,-77.14,49.75,151.78,0.57,0.06,0.45,2.63,0.07,0.27
1.11,-116.25,75.71,163.35,0.33,0.18,0.17,0.25,0.44,0.6,-97.74,85.19,183.18,0.21,0.1,0.19,0.3,0.49,0.36,-126.77,58.12,133.07,0.11,0.72,0.31,1.29,0.77,0.13,-78.52,50.04,151.66,0.48,-0.12,0.46,1.7,0.31,0.32
1.12,-116.39,75.44,163.01,-0.21,0.32,0.25,0.59,0.8,0.09,-97.8,85.46,183.15,0.25,0.11,0.01,0.18,0.41,0.08,-127.01,58.11,133.79,0.06,0.58,0.22,1.13,0.81,0.76,-79.36,50.03,152.06,0.43,0.36,0.14,1.87,0.13,-0.23
1.13,-116.36,75.13,162.83,0.05,0.11,0.11,0.24,0.08,0.36,-97.78,85.77,183.04,0.04,0.32,0.14,0.1,0.11,0.51,-126.98,58.16,134.47,0.36,0.18,0.61,0.76,0.25,0.1,-80.69,50.2,152.17,0.58,0.34,0.41,2.1,0.78,0.74
1.14,-116.67,74.87,163.83,0.15,0.33,0.1,1.65,0.76,0.19,-98.58,86.05,183.1,0.15,0.14,0.21,0.49,1.01,0.79,-127.7,58.16,134.75,0.47,0.02,0.36,0.93,0.25,0.34,-81.69,50.93,151.97,0.64,0.42,0.48,2.07,-0.14,1.01
1.15,-117.86,74.45,165.32,0.81,0.31,-0.0,0.78,0.96,0.54,-98.81,86.38,182.74,0.53,0.22,0.22,0.74,0.82,0.02,-127.81,58.13,135.46,0.33,-0.1,0.5,1.63,-0.0,0.21,-82.92,51.47,152.42,0.51,0.32,0.45,1.49,0.76,0.84
1.16,-118.64,74.19,166.64,0.54,0.2,0.08,-0.0,0.23,0.61,-99.69,86.65,183.03,0.55,0.24,0.09,0.03,0.75,1.01,-127.41,58.31,136.0,0.08,-0.02,0.47,2.18,0.49,0.37,-84.55,52.08,152.83,0.32,0.73,0.06,1.38,0.43,0.43
1.17,-119.28,74.31,167.56,-0.01,0.06,0.14,0.36,0.27,0.3,-100.08,86.82,182.89,0.35,0.37,-0.04,0.32,0.79,1.45,-128.28,58.54,135.96,0.24,-0.07,0.23,1.16,0.74,0.23,-85.46,52.48,152.97,0.4,0.46,0.28,1.26,0.64,1.18
1.18,-119.7,73.99,168.46,0.07,0.36,0.18,0.67,0.4,0.57,-100.45,86.95,182.8,0.47,0.11,-0.2,0.23,0.31,1.08,-128.69,58.84,135.45,0.27,0.01,-0.05,0.49,1.8,0.41,-87.29,53.26,153.56,0.55,0.65,-0.07,0.92,0.42,1.53
1.19,-120.39,73.95,170.12,0.42,0.22,0.34,1.16,0.35,0.32,-100.78,87.23,182.94,0.18,0.23,0.0,0.28,0.37,0.43,-129.46,58.64,134.5,0.16,0.17,0.41,0.42,1.01,0.8,-88.8,54.0,154.18,0.66,0.65,0.09,0.15,0.44,0.68
1.2,-121.8,73.75,172.19,0.49,-0.01,0.14,0.4,0.55,0.33,-100.94,87.6,182.88,0.23,0.2,0.03,0.28,0.35,0.02,-130.08,58.87,133.72,0.41,0.22,0.15,0.45,0.03,-0.04,-89.45,54.31,154.6,0.35,0.84,0.36,0.37,0.88,1.3
1.21,-123.4,73.72,175.16,0.41,0.36,0.23,0.04,0.14,-0.04,-101.91,88.02,182.63,0.26,0.43,0.22,0.52,0.82,0.05,-131.15,59.18,132.6,0.31,0.36,0.1,0.29,0.23,0.27,-91.33,55.37,155.16,0.48,0.67,0.14,1.21,0.36,1.12
1.22,-124.05,73.55,176.25,0.13,0.04,0.4,0.04,0.46,0.65,-101.63,88.3,182.54,0.15,0.5,0.11,0.32,0.64,0.27,-131.29,59.69,132.42,0.28,0.24,0.23,0.45,0.5,0.72,-91.28,56.12,154.8,0.44,0.42,0.54,0.97,1.41,1.06
1.23,-124.84,73.27,177.76,0.06,0.12,0.42,0.66,0.21,0.2,-101.9,88.29,182.51,0.09,0.59,-0.0,0.06,0.7,0.83,-131.96,59.74,132.08,0.23,0.1,0.38,1.09,0.32,1.14,-92.98,56.58,154.91,0.43,0.49,-0.02,0.86,1.53,0.76
1.24,-124.89,73.22,178.38,0.21,0.3,0.5,-0.12,0.11,0.48,-102.17,88.17,182.77,-0.04,0.3,0.14,0.14,0.56,1.06,-132.16,60.16,131.89,0.27,0.19,0.39,0.45,0.23,0.09,-93.87,57.24,155.32,0.38,0.42,0.48,1.11,2.03,0.81
1.25,-125.34,72.89,178.91,0.07,0.26,0.1,0.6,0.38,0.03,-102.28,88.09,182.74,0.17,0.07,-0.04,0.3,0.41,0.62,-132.01,60.38,131.81,0.11,-0.04,0.11,0.18,0.8,0.59,-94.49,57.72,155.04,0.49,0.56,0.66,0.74,1.06,0.86
1.26,-125.46,72.77,179.47,0.08,0.43,0.04,0.73,0.08,0.56,-102.29,87.96,182.89,0.18,0.4,0.03,-0.06,0.22,0.43,-132.38,60.61,131.98,0.05,0.04,0.16,0.36,0.12,0.85,-95.1,58.24,155.23,0.42,0.21,0.19,0.3,0.07,0.65
1.27,-125.58,72.58,179.99,0.23,0.04,0.09,0.55,0.0,1.03,-102.28,87.67,182.94,-0.08,0.41,-0.01,0.36,0.67,0.9,-132.07,60.8,131.95,0.3,0.25,0.13,0.31,0.57,0.29,-95.81,58.46,155.72,0.35,0.26,-0.05,1.45,1.07,0.98
1.28,-125.63,72.25,179.86,-0.09,0.13,0.11,0.3,0.21,0.09,-102.54,87.59,183.18,0.15,0.27,0.04,0.18,0.16,0.8,-131.8,61.08,132.18,0.04,0.24,-0.11,0.66,0.29,0.96,-96.61,59.03,155.37,0.42,0.41,0.61,0.71,0.67,1.29
1.29,-125.63,72.41,179.44,0.06,0.14,0.03,0.23,0.34,0.34,-102.56,87.47,183.15,0.02,0.09,0.12,0.23,-0.02,0.86,-131.57,61.33,132.32,0.17,0.05,0.34,0.81,0.91,1.39,-97.08,59.17,154.8,0.4,0.28,0.42,0.32,0.92,1.51
1.3,-126.09,72.07,179.01,0.18,0.11,0.16,0.28,0.27,0.85,-102.73,87.17,183.19,-0.11,0.27,0.11,-0.01,0.15,-0.0,-131.22,61.78,132.76,0.11,0.04,0.36,0.25,1.01,0.34,-97.81,59.72,155.03,0.32,0.25,-0.03,0.83,1.67,0.63
1.31,-126.36,72.07,178.66,0.0,-0.13,0.15,0.31,-0.01,0.8,-102.58,87.14,183.31,0.13,0.35,0.1,0.13,0.75,0.89,-131.4,61.8,133.21,0.07,0.08,0.13,0.12,0.87,0.49,-98.51,60.14,154.99,0.6,0.53,0.26,0.6,0.62,1.15
1.32,-126.71,71.94,178.22,0.1,0.07,0.07,0.2,-0.01,0.47,-102.66,86.61,183.55,-0.1,0.1,0.27,0.1,0.67,1.52,-131.1,61.9,133.26,0.26,-0.02,0.29,0.83,1.35,1.31,-98.75,60.5,154.4,0.43,0.36,0.52,0.42,0.62,1.58
1.33,-127.04,71.65,177.29,0.25,0.19,0.13,0.41,0.4,0.28,-102.81,85.94,183.7,0.17,0.5,0.03,0.18,0.2,0.44,-130.01,62.36,134.79,0.09,-0.04,0.38,0.42,1.45,0.73,-101.01,61.93,154.71,0.49,0.44,0.02,0.63,0.38,1.74
1.34,-127.53,71.28,176.86,0.13,0.02,0.04,0.49,0.15,0.78,-102.74,85.52,183.59,0.12,0.28,0.0,0.16,0.7,0.47,-129.68,62.76,134.84,0.04,0.32,0.04,0.18,0.19,1.16,-101.67,62.45,154.86,0.45,0.59,0.31,0.47,0.93,1.61
1.35,-127.73,71.07,176.42,0.08,0.13,0.13,0.48,0.12,0.76,-102.99,85.19,183.81,0.25,0.26,0.01,0.37,0.5,1.16,-129.62,62.98,134.82,-0.1,0.03,-0.02,0.49,0.38,0.74,-102.39,63.19,155.28,0.46,0.65,0.21,-0.06,0.52,1.23
1.36,-128.09,70.98,176.16,0.11,0.18,0.21,0.01,0.56,0.57,-103.18,85.0,183.91,0.06,0.17,0.08,0.18,0.34,1.08,-129.06,63.29,135.42,0.13,0.1,0.15,0.77,0.6,1.14,-103.11,63.76,155.83,0.36,0.63,0.01,0.23,0.75,1.06
1.37,-127.99,70.7,175.99,0.11,0.06,-0.09,0.0,0.38,-0.03,-102.98,84.61,183.66,-0.01,0.45,-0.02,0.52,0.11,0.17,-128.92,63.52,135.21,0.21,0.17,-0.04,0.58,1.25,1.21,-103.33,64.21,155.65,0.32,0.5,0.14,0.36,0.48,1.27
1.38,-127.84,70.93,176.18,0.15,0.2,-0.04,0.12,0.04,0.22,-103.08,84.46,183.6,0.13,0.01,0.2,0.93,0.57,1.25,-129.1,63.56,134.99,0.06,0.12,0.12,0.18,1.13,0.31,-103.65,64.51,155.52,0.35,0.35,0.21,2.53,1.83,3.51
1.39,-127.93,70.79,176.24,0.16,-0.01,0.07,0.37,0.06,0.45,-103.27,84.17,183.65,0.01,0.1,0.02,0.19,0.19,0.58,-128.87,63.8,134.9,0.18,0.27,0.22,0.19,0.37,0.53,-104.17,64.8,155.72,-0.04,-0.03,0.16,1.34,2.59,0.8
1.4,-128.08,70.6,176.0,-0.19,0.15,0.09,0.29,0.13,-0.02,-103.03,84.06,183.69,0.3,0.19,0.16,0.48,-0.01,0.13,-129.16,64.09,134.97,0.13,0.12,-0.05,0.97,1.31,0.25,-104.03,64.79,155.69,0.09,0.17,0.17,0.32,1.88,0.87
1.41,-128.19,70.44,175.58,0.26,0.26,0.02,0.54,0.18,0.12,-102.86,83.72,183.4,0.21,0.3,0.29,0.41,0.45,0.37,-128.82,64.28,134.56,0.15,0.21,0.05,0.78,0.74,1.6,-103.85,64.78,155.61,0.1,-0.03,0.1,0.05,0.4,1.23
1.42,-127.9,69.97,176.02,0.04,0.16,0.25,0.54,-0.04,0.6,-102.8,83.81,183.37,-0.06,0.11,-0.1,0.22,0.02,0.47,-129.2,64.17,134.06,0.06,0.17,0.25,0.19,0.71,0.54,-104.07,64.78,155.57,0.22,0.09,0.39,0.05,0.87,1.68
1.43,-127.76,69.88,176.3,0.12,0.21,0.08,0.43,0.28,1.04,-102.72,84.04,183.45,0.09,0.25,0.13,0.08,0.07,0.61,-129.61,64.29,134.04,0.15,0.15,0.31,1.09,1.64,0.4,-104.08,64.62,154.92,0.37,0.13,0.37,0.08,1.22,1.97
1.44,-127.65,69.59,176.41,0.16,-0.13,0.29,0.55,0.04,0.71,-102.5,83.91,183.26,0.03,0.09,-0.14,0.26,0.46,0.98,-129.21,64.51,134.48,0.25,0.61,0.84,-0.04,1.25,0.84,-104.44,64.83,154.67,0.02,0.04,0.22,0.8,0.52,2.17
1.45,-127.44,69.76,177.05,0.06,0.11,0.33,0.21,0.41,0.27,-102.02,84.46,182.99,0.04,0.42,0.11,0.29,0.17,1.18,-126.75,66.26,135.43,0.15,0.14,0.1,0.55,0.8,1.97,-104.35,64.91,152.58,0.17,-0.03,0.39,0.57,1.51,2.31
1.46,-127.37,69.98,177.69,0.14,0.03,0.17,0.21,0.36,0.56,-102.03,85.01,182.8,0.09,0.55,0.18,0.89,0.38,0.8,-126.08,66.71,135.54,0.22,0.24,0.34,-0.03,-0.07,1.41,-104.13,64.4,152.45,-0.15,0.17,0.06,0.75,1.05,2.55
1.47,-127.27,70.1,177.96,-0.1,0.43,-0.01,0.1,0.09,0.22,-101.61,85.39,182.9,0.04,0.35,0.04,0.5,0.38,1.09,-125.69,67.04,135.79,0.14,0.35,0.26,0.17,0.63,1.23,-104.29,64.34,153.43,0.24,0.28,0.48,0.81,0.78,2.51
1.48,-127.05,70.2,177.84,0.02,0.27,0.12,0.37,0.15,0.3,-101.36,85.66,182.59,0.19,0.43,0.08,0.34,0.92,0.56,-124.79,67.53,135.92,0.06,0.12,0.18,0.57,2.83,1.92,-104.68,63.76,155.07,0.13,0.09,0.23,2.33,0.12,3.15
1.49,-127.14,70.6,178.16,0.41,0.31,0.35,-0.02,0.58,0.4,-101.27,85.93,182.45,0.24,0.32,0.13,0.18,1.35,0.58,-124.98,67.73,135.8,0.1,0.22,0.35,0.68,2.24,2.34,-104.75,63.87,155.43,0.38,0.04,0.21,2.38,0.72,2.83
1.5,-126.93,70.76,178.86,0.07,0.02,0.3,0.19,0.46,0.16,-101.09,86.33,182.35,0.03,0.52,0.36,0.19,1.01,0.6,-125.18,67.55,134.79,0.18,0.15,0.45,0.7,0.83,2.06,-103.08,63.62,155.48,0.67,0.03,0.2,2.25,0.1,2.85
1.51,-126.43,70.88,180.1,0.03,0.21,0.2,0.08,0.6,0.02,-101.27,86.76,182.32,-0.02,0.58,0.06,0.92,0.53,2.05,-125.35,67.7,134.04,0.0,0.17,0.38,1.41,1.68,2.33,-102.1,63.58,154.92,0.74,-0.02,0.05,3.76,0.5,2.09
1.52,-125.55,71.23,177.96,0.07,0.19,0.34,0.13,0.24,0.68,-101.02,87.2,182.15,0.12,0.59,0.05,0.81,0.88,1.45,-125.69,67.74,132.35,0.29,0.44,0.59,1.93,2.74,1.91,-100.95,63.55,154.49,0.89,-0.06,0.11,3.95,1.52,3.1
1.53,-125.31,71.56,176.75,0.19,0.31,0.26,0.02,0.23,0.44,-101.1,87.24,182.04,-0.01,0.36,0.32,0.68,0.21,0.21,-126.54,67.45,129.92,-0.18,0.47,0.77,2.28,2.45,2.2,-100.16,63.52,154.35,1.2,-0.12,0.67,3.22,0.15,3.19
1.54,-125.2,71.79,175.64,0.13,0.48,0.34,0.28,0.71,0.03,-101.04,87.33,181.75,-0.0,0.18,0.09,0.95,0.09,1.98,-126.82,67.45,127.57,-0.08,0.63,0.62,1.28,1.42,2.15,-99.22,63.33,154.69,1.35,0.07,0.79,2.79,0.52,2.38
