0.01,-162.9250037083169,37.18405821244491,169.36659162978506,0.3995422759426408,2.00608878068178,0.03041854263193053,1.0326782914380852,0.15171444908004114,2.855763994855588,0.10969068109211659,0.9396741016145278,-0.04037101810217651,0.33031547867483013,-171.68283843354928,67.79840003340276,50.483985430183075,0.047802086754072506,2.3639139458003418,0.1831234501978299,3.480390543562525,0.4772985562501547,1.5504277490884233,-0.4784098846793889,0.39017013827186636,-0.7302900734090354,0.2893761202853682,-186.58485162530334,1.059055782306994,8.188474205526516,0.032207116388809014,0.2190404442802212,0.2580431169375772,0.4183253115570774,0.27472167372344936,0.20978364055961488,-0.009889770320171458,0.07007036417588924,-1.0000809861301632,-0.05958806095653554,-129.83041475879273,26.703685866148234,14.668425607948159,0.14939147002857098,0.16555345651594103,0.4564133857470569,0.10070778999893736,0.5392145993803785,2.7007191203233214,-0.15963929796013623,0.20964559986326545,-0.8601493961506554,0.4403008648035106
0.02,-163.71015081503174,41.91818521518304,170.7388862514169,0.44628235610731487,1.967811754082596,0.18781204867279475,1.1757437563156992,0.35864587725226416,2.526168832365399,0.1040474867925002,0.9229230668478393,-0.026359122047036568,0.36473492009114544,-170.8236007898916,64.95144103372516,50.85847817538523,0.07912405868490362,2.2775433797102265,0.1773446831642042,3.0820371668040214,0.43936903541531624,1.4631349104592595,-0.45429235661830414,0.3992492328166061,-0.739254060477322,0.28827174700138886,-186.11316892022091,2.1666622023060844,8.238107878303031,0.024466593328887357,0.2148268883099384,0.2696119818928492,0.35027119304331406,0.3366263409658726,0.21137474529541853,-0.02021544786538299,0.07010609445959536,-0.9997008608820674,-0.054562569415228704,-129.20782549044756,27.01123493824394,14.705098207816498,0.22051653994298887,0.15368861470600217,0.43384693510052597,0.1371215216288551,0.5320496577656392,2.8175297084339235,-0.15978209542845656,0.211566106754462,-0.8574117347186307,0.4436710346240845
0.03,-164.4150081556947,46.53486971700385,172.01896625343682,0.48967711314468104,1.9208960058888136,0.338116103600691,1.3185918675960244,0.5648968569103628,2.2062722436039346,0.09871863098142455,0.9065011767322322,-0.012839891025397471,0.3983381749939785,-169.9778624165636,62.15790387825337,51.22238004419076,0.10852686139314943,2.1931884523397374,0.1711511319419482,2.6865657871939477,0.4035529192546506,1.372424748339457,-0.43062729963628116,0.4081346376434,-0.7480439979685363,0.2872205553675798,-185.6600522019791,3.2982103750515743,8.280902448551155,0.020252002879487772,0.21061250463918377,0.28029683303641156,0.2874114327787935,0.39584541511408006,0.21115902968652756,-0.030706679436161552,0.07008433886086073,-0.9993022406344085,-0.0497023014976716,-128.61567421902788,27.312636762864635,14.770364325430824,0.2894517357874613,0.14152807867348108,0.41088832426961525,0.1718627159000104,0.5236527972283993,2.919774573662419,-0.15984538194981845,0.2136660840350303,-0.8547359726903283,0.44690473295772093
0.04,-164.9611638498358,50.92480771788935,173.10703361270768,0.5264149987359741,1.8584055271358995,0.47362874859167026,1.461061119111483,0.7691379376243657,1.9067707994086684,0.09395162371456212,0.8907202838334387,-0.0003559328588077162,0.43036830914535446,-169.1586373829727,59.44005078027051,51.56642150181689,0.13458566252249604,2.1113716575529,0.16441890500298867,2.301660058913857,0.37284346879546076,1.2825091925118626,-0.4076198528964451,0.4166471839504279,-0.7565603321758558,0.2861594173717227,-185.23638821490076,4.474707514724295,8.317064179250128,0.021579334086033134,0.20588063950836896,0.28918869709912365,0.234598752590902,0.44994644032950537,0.2116967681875581,-0.0415159861030731,0.07001116656234757,-0.9988469564983504,-0.045094748529775665,-128.07891340018443,27.59861068037931,14.89039842716174,0.35390668110500567,0.12967668195167412,0.38776041794166766,0.20375245801463562,0.5149192121822763,2.9951185154315145,-0.15973426203800623,0.2160919484748619,-0.8521690343650038,0.44990239090893736
0.05,-165.28451204675508,54.991300863122206,173.91567122226957,0.5538059943100422,1.7759298168228952,0.5879190201663639,1.6037022983865599,0.9704164512413909,1.6373469102729135,0.08992633770576156,0.8758671751543421,0.010598645571258903,0.46015711158056244,-168.37868489208628,56.816088184264125,51.8822397170016,0.15623665028163508,2.032715295720573,0.15712814170585127,1.93529908042107,0.3503883329422029,1.1977578112742828,-0.38544485204601037,0.42462349137982486,-0.7647235104182045,0.2850160578771056,-184.8513849544343,5.708962814287154,8.347858971578013,0.030015488238142273,0.20027554154988025,0.29570257660674687,0.1959641776638987,0.49765701861691936,0.2153159633542897,-0.0527324466529641,0.06990255213526338,-0.9983007752521409,-0.04081244157871717,-127.6182805666971,27.860788537601582,15.086450387593409,0.4116492751004281,0.11872856884192808,0.364804669874227,0.23196567356872325,0.5069675319536573,3.0329863972356015,-0.1593674616076583,0.21895872596335764,-0.8497507242748072,0.45258008717402937
0.06,-165.34064697778985,58.65547536375336,174.37567617814935,0.5699864561889697,1.6721112944596022,0.6763090622872723,1.7475750084137094,1.1679295659725912,1.4059908156382963,0.08673563074250006,0.8621907864843085,0.01960516581608107,0.4871606984813816,-167.65015721130285,54.29929446696928,52.16289408457853,0.17286398994828808,1.9579253118971716,0.149384124118098,1.595603609884069,0.3394232036285086,1.1224954525955466,-0.3642396670884217,0.43192354947709116,-0.772478436698865,0.2837105331153422,-184.5120455084681,7.002843267693925,8.375586293828407,0.04653622679934947,0.1936719126743114,0.2996849190793284,0.17461295701510343,0.5390743888785439,0.2239774989049965,-0.06435924509546526,0.06978456395883367,-0.9976366691129848,-0.03690890852175575,-127.24866840967316,28.092060658597465,15.372837816297494,0.46058129051910784,0.10924076712848148,0.3424904278675024,0.25610628145493214,0.5010515082254604,3.025295686618828,-0.15868245717194973,0.2223375907575087,-0.8475120307595895,0.454875929779719
0.07,-165.10799565966218,61.86012569078985,174.44064444925664,0.5740169608183018,1.548658188950481,0.7361255990707385,1.893802818721703,1.3606385784015507,1.2184309123048582,0.0843797929445294,0.849890839957637,0.026345206356868912,0.5109850095318411,-166.9840683365658,51.897357815825195,52.40330559073505,0.18432955570356296,1.8877399502092607,0.14141400650013713,1.290562320059245,0.3431266413725052,1.060932228355861,-0.34409744201808773,0.43843730240953144,-0.7797963432836293,0.282158097039086,-184.22269031986258,8.346107828363536,8.403478117854402,0.07142118974444356,0.18619443520373283,0.30144917243483116,0.17240096267994057,0.5756258624336966,0.23923772740907512,-0.0763038082404794,0.0696925726626237,-0.9968371512655934,-0.0334153860294256,-126.97801176608306,28.286792942554577,15.755593940211373,0.4988490822284079,0.10171869372569327,0.32139011112943516,0.27621179832602977,0.49844082528542244,2.9670247740572457,-0.1576391001874627,0.22624767578799498,-0.8454737780946986,0.45675495592052984
0.08,-164.5884189298491,64.57193645281642,174.0898499757211,0.565883802805383,1.409919225427985,0.7667276193783077,2.0429996426709303,1.5467961531122107,1.0777516981333795,0.08277474417172005,0.8391084985744474,0.03062084375786939,0.5313996575818472,-166.38963837769123,49.612055435971655,52.60059370158405,0.1909441725919976,1.8228417766608709,0.13354537969685304,1.0276491022637053,0.36439149697663853,1.0171914930172907,-0.3250618831675721,0.44408978959594214,-0.7866738043816964,0.2802735722252402,-183.98459199115405,9.717034239346585,8.435510100570315,0.10419677068427677,0.17818560442441314,0.3017246183051831,0.18981160077117779,0.609784506963506,0.26231061462010974,-0.0883825068985092,0.06966930183693296,-0.9958954556454882,-0.030338632921042056,-126.80680311078079,28.440904334200848,16.23190863755737,0.524981749282487,0.09661045682387605,0.30213412798412015,0.29269963862829657,0.5002911254824995,2.8565918899503293,-0.15622141588825128,0.23065287266052392,-0.8436458846819117,0.45821187838983674
0.09,-163.80540110966575,66.78197428467459,173.3290652621481,0.5464209398744725,1.2621437535407587,0.7693460306236258,2.1946948406856777,1.7235159021675217,0.9842362458269488,0.08177108094939317,0.8299198458558831,0.03236731357704878,0.54833969278083,-165.87361772699674,47.43937662852413,52.75429304560962,0.19338896571135852,1.7637380744915068,0.12617428946747078,0.8133771671888563,0.40552652219397956,0.995357350912914,-0.3071248311561752,0.4488444133747522,-0.7931290429507475,0.2779769966402971,-183.79579990814247,11.084777174438432,8.476110491865184,0.14363596894721414,0.1701298708754229,0.3015190695501997,0.22594434439764402,0.6445901487895477,0.29421528095666416,-0.10033959125556226,0.06976158541979763,-0.994815519377091,-0.02766029319136571,-126.7282759305702,28.55181098819814,16.790417341642854,0.5380393512969163,0.09430572372634706,0.2853633920965035,0.30627927342317324,0.5075316559414235,2.6960300429981667,-0.15443735149557433,0.2354637857371844,-0.842027492258053,0.4592712822043343
0.1,-162.80028707648265,68.50448658001689,172.18918388520578,0.5171662588143445,1.1125665820860624,0.7467843637299305,2.346883605391534,1.8865350441678972,0.9354302339421757,0.08117933377206807,0.8223330908234336,0.03165559704199673,0.5618959492693641,-165.4397123343384,45.3701320021201,52.86643749161918,0.19260313420976824,1.7106222702691076,0.11972769279998371,0.6528583316240634,0.4679208302083485,0.9994423934270239,-0.29022760866885544,0.4527040060273392,-0.7991960835950995,0.2752000020961753,-183.65122462108872,12.413072221441299,8.52975730252072,0.18782144276094573,0.16255063196292802,0.3019162976169979,0.27861621292763245,0.6830604119326565,0.3359778292715155,-0.11187724357869594,0.07001582598380632,-0.9936109435415608,-0.025338272325424162,-126.72921852197103,28.618260318606218,17.412299455438983,0.5377460358280187,0.09513519149328274,0.2716906409915998,0.31785511366824737,0.5207947193230468,2.490948870426965,-0.15231641372114987,0.24054449811585776,-0.8406081307443088,0.45998525346674884
0.11,-161.62723472822591,69.7741896543725,170.72279398710788,0.4801653415979035,0.9684566134170111,0.7030316994156717,2.495814904124973,2.030288596365842,0.9264013309322887,0.08079652744972152,0.8162901829177412,0.028683906256111582,0.5722956384723654,-165.08821552765096,43.391023614801114,52.94150090432815,0.18965774201575578,1.663237350015696,0.11462272086563231,0.5494391366625296,0.5517164559612672,1.0331892983997026,-0.27426668590563213,0.45570954544242365,-0.8049175868160762,0.2718921949065727,-183.5430236652771,13.664616006365339,8.600468616155439,0.2342738365596941,0.1559022345864201,0.30384753075781695,0.34456671235579683,0.7275934771027966,0.38884057636064984,-0.12269117959972377,0.07047239395974578,-0.9923032960813513,-0.02331046037048789,-126.79131260083535,28.640091243338095,18.0730567003084,0.5245785855206738,0.09936713615125198,0.26167003132779965,0.3284363261881178,0.5403952388523154,2.2502779224845524,-0.14990537623476227,0.2457233871195667,-0.8393698797650344,0.46042875355666407
0.12,-160.3476123551019,70.64235485749367,168.9991370633599,0.4377431883888851,0.8362541188589516,0.6428354068851195,2.636086610945949,2.1483364605421027,0.9501599589366302,0.08043002402673495,0.8116730251542668,0.02375890416860286,0.5798755564953544,-164.81591337349252,41.486091538459135,52.98618597005089,0.18563340300931788,1.620770679046725,0.11122514581966689,0.5044675051396093,0.6555380708393636,1.0996674645734592,-0.259103630432751,0.45793657032087576,-0.810337321882353,0.26802678721124773,-183.4612881811437,14.805337066124492,8.691213823349765,0.280142269752792,0.15047980895232924,0.3078850622574722,0.4197449414282262,0.7794609932876053,0.4544208627798322,-0.13250524354165213,0.07115950687089116,-0.9909201821224884,-0.021500843599771117,-126.89283971150802,28.617964169431332,18.74476519724361,0.49978340400029464,0.10719790658222869,0.2557661138570731,0.3390580350058428,0.5663494082818962,1.985790891552198,-0.14726251064255566,0.250806899571447,-0.838290243897686,0.4606932683219709
0.13,-159.02450628980498,71.17208616611681,167.09808119962403,0.39227415712672,0.7208937553716837,0.5712760192803066,2.7610470366512185,2.234090330827651,0.9982068800082977,0.07991605440647664,0.8083138705880984,0.017269076079707204,0.5850506130205292,-164.6162842061603,39.63840624270816,53.00905946542956,0.18151481075847928,1.5818144716028497,0.10981118064594986,0.5172108101778548,0.776327188226068,1.2006968623869267,-0.24457866825720828,0.45948951662999554,-0.8154932108458418,0.26360483402517676,-183.39498375180625,15.807885840296514,8.803301637269085,0.3224471925506691,0.14636488729830308,0.3141007928792517,0.4996480665942849,0.8384696931314602,0.5347610719495263,-0.14109943218941043,0.0720873573978493,-0.9894933994303632,-0.019827638571668905,-127.01056940459999,28.553105220582214,19.39854623463289,0.46530685096148866,0.11873391883500634,0.2543133462558764,0.3507101021297481,0.5984087926298406,1.7114219656945262,-0.1444510197076787,0.2555949854994303,-0.83734526891613,0.46087936997900736
0.14,-157.71785606412865,71.43321862438758,165.1037941183059,0.3459826610303442,0.625375773286144,0.49338075503322687,2.8634295748353025,2.281706867034863,1.061168466646658,0.07913178377316862,0.8060089498620616,0.009653546378322343,0.5882804375200074,-164.47997103254352,37.831848143261844,53.02004452054766,0.1781096001685249,1.5444219966764554,0.11053747033915043,0.5849125545450564,0.9093244928008466,1.3362024826975005,-0.23052660293147895,0.4604943368563512,-0.8204117392684444,0.2586575983590552,-183.33305756425398,16.6539423597657,8.935828848456314,0.3583569765017303,0.14341608616461768,0.32201595109243436,0.5796773037711964,0.9028435052462477,0.6322270302293663,-0.14832810482418107,0.0732433483197505,-0.9880572873884745,-0.01821266238107596,-127.12163953248294,28.447104954740677,20.00698926557267,0.4236424729872916,0.13396386744821603,0.25746414140197416,0.36426888239817806,0.6360860802350422,1.4424054998790459,-0.1415324783346744,0.2598968245854307,-0.8365123504110235,0.4610888577226879
0.15,-156.4805518151064,71.49725809356715,163.0987304234705,0.300797649487807,0.5506129363167998,0.4138044051891813,2.936102253163386,2.2869714098633125,1.1294685319157851,0.07800090401726431,0.8045340091048412,0.0013697368478945452,0.5900366786991558,-164.39547432906105,36.05281071004446,53.029794321967465,0.17599502187559393,1.5062746167877406,0.11342240137008633,0.7029534836312461,1.0482361224700538,1.5036480779664065,-0.21679347734356158,0.46108990415193446,-0.8251043149430515,0.25324675909725974,-183.26559158202468,17.335231191097176,9.08529383401026,0.3854699437806504,0.14130406242448845,0.33064699392182045,0.6554799255778057,0.9693520917912885,0.7492434430748806,-0.15412761157724625,0.0745892534742442,-0.9866471875184016,-0.0165908310263309,-127.2052589719727,28.301803901341792,20.546288353059907,0.3776167814423606,0.15272169575765734,0.2651314880638088,0.38043368868971056,0.6786596313717853,1.194290897714143,-0.13856111678619867,0.26354555485457565,-0.8357722340281928,0.4614171173843761
0.16,-155.35565756628023,71.43273834862948,161.1584043512763,0.2582674443246963,0.49554638450149435,0.3365943383839778,2.9728096541418934,2.2480030015948844,1.1939783295734625,0.076493504259136,0.8036602881855877,-0.007137206993375404,0.5907733173460543,-164.34999275299262,34.29167877993717,53.04898392661362,0.17549369597006975,1.4649518729557385,0.11833879520920855,0.8650781687087702,1.1856007865341793,1.6977035535643155,-0.20325228231102294,0.46141883365717923,-0.8295658954230591,0.2474623960038503,-183.184861019372,17.85335440337936,9.245479864101217,0.40206683552904726,0.13958031578270902,0.3386336415228028,0.7232488481291475,1.0336839076232975,0.887892548265369,-0.15851442367412744,0.07606098674024418,-0.9852978485636058,-0.014918515657466394,-127.24410070513326,28.11928569398955,20.997913107032485,0.33014621882773765,0.17464380560911208,0.2769374446363765,0.39967777365901835,0.7251598582943075,0.98189916732704,-0.13557970698667715,0.26641088266623864,-0.8351098661983494,0.4619462780949809
0.17,-154.37479163036386,71.30130198542444,159.3472625630379,0.21952752677451287,0.4574900133791496,0.26504117244452613,2.9688144726005268,2.165661159602295,1.2465971022623292,0.0746213730298777,0.8031695381272282,-0.015461025477468067,0.5909018469909179,-164.330329499569,32.54395746418808,53.087566811169104,0.17667785882371448,1.4182710489239834,0.1250162433385998,1.063655693472662,1.3133421547234914,1.910268270003473,-0.18981614905047978,0.4616184244752623,-0.8337759263533595,0.24141890353474849,-183.0861542055891,18.21868314157285,9.407686295700811,0.407298604657534,0.1377621039995995,0.34442310748111876,0.7799543353236831,1.091024472326468,1.0494326173552695,-0.1615758906889324,0.07757142726669027,-0.9840416574653585,-0.013179501511184535,-127.22530153936874,27.901981435943647,21.34971352256323,0.28399986373587977,0.1991279364143392,0.2921805767611213,0.4222253674137295,0.7743531405340587,0.8182988086342979,-0.13261759837998952,0.26840868667031925,-0.8345140079203651,0.4627396526307149
0.18,-153.55760276645745,71.1547297422741,157.71582652349204,0.18530858020140714,0.43263486446558846,0.20160411688827665,2.921386201323049,2.0436084101327885,1.2807379508020735,0.0724300150086882,0.8028668901970877,-0.023255554233210414,0.5907725903220467,-164.32378294158022,30.810950406355843,53.15405156236988,0.17939851806319151,1.3646395130826985,0.13305207126254656,1.2899545934890682,1.4234542492488018,2.130910818652645,-0.17644771247044858,0.46181241304347825,-0.837701360929226,0.2352491354748978,-182.96823128416122,18.448600594905642,9.561331643994707,0.40128194581677246,0.13541322739925285,0.34648112018185023,0.8234889335450102,1.1367569883605866,1.2338092713330338,-0.1634560969466216,0.07901640604013824,-0.9829067362518874,-0.011387507107944804,-127.14103640332893,27.652865712883806,21.596437441925996,0.2415970409836919,0.22530462478187768,0.3098340476376997,0.4480578246927998,0.8247413443537673,0.7138867411865382,-0.12969107846435932,0.2695070214933646,-0.8339758325279059,0.4638378261887895
0.19,-152.91221169073486,71.03305866497561,156.29913640497824,0.1559737826475083,0.4166291282535401,0.14789582532716483,2.830109468348235,1.8880519505336104,1.2917067030830656,0.06998860352164095,0.8025906602214472,-0.03024979831284304,0.5906628354396875,-164.31895127991334,29.099912390780208,53.2548613584892,0.18333247199909583,1.3033494124302267,0.141931557464112,1.5344208707874942,1.508739940610131,2.347704150972064,-0.16316366802474497,0.4621041453840699,-0.8413012907857359,0.22909715454976368,-182.83335022085762,18.565387671663466,9.694884988435087,0.3850886412540792,0.1322042607082222,0.3435015928111995,0.8527176677489021,1.1671695818642986,1.4392338020752895,-0.16433915783859013,0.08028351737870208,-0.9819151321695457,-0.009584677916954627,-126.9886808956649,27.37569958885525,21.739703211701578,0.20485955625527316,0.2520333383836805,0.328581894927976,0.4769380686668687,0.8745869419231338,0.6756544191100529,-0.12680577066497797,0.26972825501428016,-0.8334870024258112,0.4652565989752196
0.2,-152.43643037394116,70.96384065663642,155.11640265689704,0.13157679518276733,0.4051479203400901,0.1047148648256517,2.6969949330218803,1.7072307590630469,1.2769551812375632,0.06737895054597609,0.8022184935153589,-0.03625672352040967,0.5907719507175347,-164.30639742946795,27.423640232310404,53.39384115856398,0.18803859474259313,1.2347474285830398,0.15105790534097702,1.78695638573695,1.5635081550022423,2.5483477399438526,-0.15003399070290452,0.4625716454982376,-0.8445325351519399,0.22311001826988922,-182.6868643509508,18.594011268470336,9.797021868924217,0.3606315876382772,0.12794452928954955,0.33458797192955747,0.8674378787121462,1.180044713763212,1.661890769221334,-0.16443193415235086,0.08126294772233655,-0.9810814275097813,-0.007836171652325398,-126.77060717442563,27.07525600432636,21.787509538539425,0.17512816707958673,0.2779338216453327,0.34689489195645823,0.5084330697443211,0.9219646709983629,0.7066957042351488,-0.12396036555892997,0.2691473724500873,-0.8330378404152552,0.4669868003862904
0.21,-152.1195307295097,70.96249112149988,154.17168616878004,0.1119319152149342,0.39437813695403434,0.0721183493593415,2.526394566303707,1.5107283143642967,1.236178485347717,0.06468450325531448,0.8016696705610776,-0.04117601361075151,0.5912230953156392,-164.27913550225333,25.799521056362416,53.571970173145594,0.1930158747592287,1.1602360063285906,0.15979035493468466,2.0372113690314664,1.5841320234424194,2.7213959092840545,-0.13717585285422906,0.46326489442695,-0.8473554348986134,0.217429126526792,-182.53647652613898,18.56003019200122,9.857863976050636,0.33046645111492534,0.1225875513257651,0.3193812236831378,0.8682642253858146,1.1750212082613476,1.895819267847775,-0.16394773270747826,0.08185912570077845,-0.9804120420724529,-0.006221743162183491,-126.49367243548521,26.757454469817823,21.753379567935653,0.1531441203442516,0.30145918146715195,0.3631409882532016,0.5419165887852317,0.9648397580500024,0.8059849230309754,-0.12115074853189982,0.2678866952996182,-0.8326161160267631,0.4689958313795122
0.22,-151.94432027529956,71.033568671354,153.45540306906756,0.09668709178023549,0.38136504031374135,0.04952838790444317,2.324757585515754,1.3086880536569079,1.1712285571086818,0.06198042790533975,0.8009038551506961,-0.044991237451002725,0.592070534363105,-164.2329112967229,24.248120300178908,53.78731784943161,0.1977574665976399,1.0821013862395297,0.16748730078588575,2.2749223486263905,1.5693838684258659,2.857375919241577,-0.12474290431840422,0.4642054418046461,-0.84973910681881,0.212181767889087,-182.39129307594376,18.48778270250435,9.870152625868048,0.2975395750898187,0.11621763192433783,0.2981175593555383,0.8564618294256048,1.1536547890906894,2.13299934401127,-0.16309216491601425,0.08200178245867497,-0.9799053388014529,-0.004825817181525295,-126.16845877736739,26.42934022964356,21.65523152194953,0.1390887755870408,0.32101001926948003,0.3757204149198828,0.5765489776167938,1.0011751642875677,0.9684348189204715,-0.11837361434679859,0.266107396150121,-0.8322067097479396,0.4712307353230769
0.23,-151.88929701941834,71.17273598772499,152.94646782364944,0.08539121643105728,0.3641962742314296,0.03586412233473448,2.1002900995461085,1.1110025958603147,1.0858378117042686,0.059325903562095966,0.7999169260471546,-0.04776196946320339,0.5933110140207684,-164.16625984831956,22.79144916662311,54.035251853883,0.20179594417088273,1.0032047022169823,0.17355188673497687,2.4903209042034224,1.520500584107228,2.9495985769802684,-0.11291113516773028,0.46538824561226705,-0.8516655405675776,0.20747357261789046,-182.2608370348562,18.39896437393924,9.830218782544422,0.2649176685571011,0.10902633707144775,0.27161382529095124,0.8337530143261669,1.1191608902403765,2.3636691257833786,-0.16205193921190394,0.08165501110182233,-0.9795524689162523,-0.003727684152521316,-125.8083147812684,26.098871678588665,21.514051083852053,0.13266706623772834,0.3350782935649272,0.3832120767796882,0.6112485681212587,1.0290632602282828,1.1852318470659922,-0.11562893939042865,0.26399829743742614,-0.8317921279213407,0.4736226478299874
0.24,-151.93069219732783,71.3691043110868,152.61491123803822,0.07754964800613917,0.34203028292371457,0.029688783552361004,1.8625756619841498,0.9265473400555985,0.9851768325318873,0.056759622822099176,0.7987346890294758,-0.04961152496943535,0.5948973551733139,-164.08033902700308,21.45109204511599,54.308871869120914,0.20473588780652996,0.9266018100617713,0.1774783999189164,2.674600725938058,1.4409843582046562,2.9945386132737837,-0.10186292483170568,0.46678538895143906,-0.8531321437894086,0.20338257122411213,-182.15415653515606,18.311648658012093,9.73864059390904,0.2355323168193396,0.10128534375749944,0.24119245346507673,0.802122889905436,1.0758950308900233,2.5768848740087744,-0.16098696880360833,0.08082315268183117,-0.9793387708344309,-0.0029931926227922023,-125.42824477054262,25.774523752256716,21.35242438826123,0.1332157501896158,0.3423993809575304,0.3845140242085561,0.6446783378550751,1.0468623336336684,1.4444289651684366,-0.1129211088313732,0.26176259218303927,-0.8313536452845887,0.4760925006079681
0.25,-152.0442592228846,71.60766813045214,152.42481632923096,0.07266517629469431,0.31500069623639254,0.02936018607919909,1.6221772914721513,0.7625340134479379,0.8752987698860496,0.054299086696272834,0.7974052640780368,-0.05071114802743494,0.5967524882263066,-163.97856055027955,20.246391763331964,54.599611921068934,0.20627204984232614,0.855166503687281,0.17889665936461607,2.8203860055081638,1.3361882878012743,2.9917698286397467,-0.0917710445354435,0.46835111412629454,-0.8541526135080301,0.19995544223718764,-182.07912070412314,18.23975164296737,9.600518794249272,0.21196365456903216,0.09331958724727048,0.20856430967484324,0.7636476403133665,1.0286822385635503,2.761300192379778,-0.16002581433997168,0.0795527982408392,-0.979245479187027,-0.0026688451464272774,-125.0437046577602,25.464758052338368,21.19299219445771,0.13981748451729734,0.342087201819528,0.37895685631867454,0.6752684585440719,1.053313513366013,1.7317502513026124,-0.11025887481895102,0.25960335487027736,-0.830872807510485,0.4785577120920171
0.26,-152.2067229487302,71.87158139240255,152.3374097836886,0.07026416070161279,0.284039306313721,0.033173901011815644,1.3902040742607824,0.6240582646140272,0.7625439193243894,0.05194369166689587,0.7959909037923588,-0.05126169272088239,0.5987825132472738,-163.86606345954263,19.192880027458894,54.897934900364184,0.20619428086831085,0.7912782197200422,0.17760939771255949,2.922124683861072,1.2127621467697942,2.943547751765117,-0.08278429733806432,0.4700275325699307,-0.85475627416177,0.19720629369041884,-182.04195229190117,18.192903685759536,9.4253459318835,0.19627599545474492,0.0854833358351746,0.17568740625201873,0.7203636959180741,0.9821222459252623,2.9060895276077985,-0.15926418732229145,0.07793076234219821,-0.9792514944488506,-0.002778725291944225,-124.66939276571496,25.177435580331206,21.056911903257358,0.15140643767698397,0.33373240589479025,0.3663690449099766,0.7012856911723353,1.0476262159299778,2.0315361673299837,-0.10765448328053281,0.2577089876563207,-0.8303330801672707,0.48093932268118245
0.27,-152.39685748430688,72.14409079789245,152.31414680252598,0.06990910306540672,0.2506587490862579,0.039490418922538,1.1778183531010717,0.5138937613343437,0.6529833769813951,0.049681057253741674,0.7945599948303952,-0.05147400685200348,0.6008878633984598,-163.74909266897743,18.301103027560345,55.19404003472931,0.20438316402185336,0.7366080104322303,0.17361669811925373,2.9763472225392418,1.0780391772672873,2.854205974355583,-0.07501616921539729,0.4717504473396452,-0.8549862047501268,0.19511799087073237,-182.0470113162491,18.176666302570066,9.226489223557492,0.1899083816164161,0.07814125904900708,0.14461664759265927,0.6741839838308774,0.9399767946931041,3.0019013099686047,-0.15876603575693596,0.07607837317555481,-0.9793349951221109,-0.003324273272187398,-124.31814993881132,24.91925057644038,20.962449322914523,0.16685789938601583,0.3174529712495003,0.34708128333609994,0.7209502940976807,1.0295342979717859,2.3277473280182344,-0.10512224713861604,0.25623996446781316,-0.8297214730126352,0.48316880785861
0.28,-152.59620634422996,72.41000821634377,152.31963922614685,0.07120026741355806,0.21672850337143035,0.04684015233526131,0.9956812893171784,0.43254329166942135,0.5519650689449712,0.047495663905680996,0.7931799902933183,-0.05154930563474377,0.6029721046623702,-163.6343522207882,17.57593436074976,55.47851552900399,0.20080195528813788,0.6920112178692511,0.16712240029144598,2.981775796628882,0.9394350503390102,2.729546819155475,-0.06853739755351983,0.4734548876415813,-0.8548965373144293,0.1936457051667663,-182.0968141116619,18.193020033134324,9.020341356514697,0.1936176442001391,0.07165554371028367,0.1173570388532014,0.6268540716195012,0.9047164407812915,3.0417166674784286,-0.15856662419469572,0.07414274418749468,-0.9794747293284826,-0.004286587485008461,-124.00008402343296,24.695252696517205,20.923841088982268,0.18506084748177826,0.29389438904486415,0.3218718674696607,0.7325923487229297,0.9993269488600338,2.6049521554418735,-0.10267672108567562,0.25531827140103763,-0.8290299464086491,0.48519375541491694
0.29,-152.78949117253123,72.65666612458968,152.3242922982364,0.07377032116249228,0.1842692036075179,0.05400299347915354,0.8533552213427517,0.3785105879253833,0.46379510765301185,0.04537865070168705,0.7919119241140077,-0.05166080221671625,0.6049482165849546,-163.52839938644647,17.016399134038583,55.74288882310216,0.1954897897443133,0.657519363308709,0.15851942364624608,2.93930984120049,0.803911959829413,2.5763669513771585,-0.06337281179603414,0.47508007934423535,-0.854549266336449,0.19272210968625947,-182.1922448286577,18.241043053206084,8.825216276119493,0.20747006459188838,0.06637847911248011,0.0957303257544442,0.5799347652356117,0.8772822678813327,3.0215091071697118,-0.1586769986534519,0.0722858827656476,-0.9796508891179068,-0.005630651158228053,-123.72200521939709,24.508510957980562,20.95055649727565,0.20497723297753978,0.26418169319099366,0.2918702392067422,0.7348331447475511,0.9578544406917343,2.849235134936829,-0.10033060483091188,0.25502073448888324,-0.8282563556791382,0.48698171561528997
0.3,-152.96477402100217,72.87435569309247,152.3065261266731,0.07727657621407531,0.15528118609734692,0.060062394558949905,0.7586855801075759,0.3487242664797416,0.39155768765749827,0.04333752292869167,0.790806921154088,-0.05193776859843122,0.6067423500875725,-163.43713351644655,16.615970098494415,55.980048674928604,0.18855773182602778,0.6324133075815781,0.14835429999167143,2.851921986066494,0.677540615962835,2.4021890550214353,-0.05950224234026886,0.47657359964878493,-0.8540108084558471,0.19226355569596634,-182.3328962897941,18.317698622933282,8.660080547444638,0.2308778061533029,0.06264842376558423,0.08126288955682984,0.5348016322717106,0.857094452284182,2.940636751169402,-0.15908927588659627,0.07067261278225996,-0.9798455388094953,-0.007310704709220668,-123.48721279569098,24.359961169050628,21.047046861943144,0.22569368497307526,0.22983048591765215,0.2584429321832321,0.726771768976166,0.9065099303423035,3.0489634520741995,-0.09809258963078661,0.25537700662474355,-0.8274046665260458,0.48852178142956504
0.31,-153.11344540059133,73.05629390466798,152.254466895155,0.08139502378704583,0.13161368335452725,0.06443694044665557,0.7171897274527704,0.33903725191746653,0.3370572881981,0.04140453989415011,0.7899047960277121,-0.05245306602712133,0.6082951167095386,-163.365414443304,16.363253537431458,56.18453012718297,0.18018519408523287,0.6153528977385644,0.1372755787093052,2.72447991187652,0.565177447922791,2.2151865746522668,-0.05686483842309571,0.4778944348690201,-0.853348446806948,0.19217662897631907,-182.5174714006994,18.41865310888545,8.543219196705566,0.2626760365026606,0.06078652660152675,0.07510114110884168,0.49265959259023334,0.8423021701253024,2.801940131538918,-0.15978229218544715,0.06945832892236088,-0.9800426303433201,-0.009275974063105655,-123.29562553382661,24.248465878398687,21.213013091655867,0.24646948501044064,0.19263009793108374,0.22308178341149662,0.7081477167315812,0.8471916870196037,3.195349037325632,-0.09596547644411209,0.25637244952612354,-0.826484210740107,0.4898237962179028
0.32,-153.2301090756849,73.19820102321691,152.16700629449244,0.08581951053727618,0.11487299958328674,0.06689414908038928,0.7314986637564935,0.34473605713459776,0.30085695215043073,0.03964266106600651,0.7892345359479359,-0.053215024857220024,0.609560541100449,-163.31682319589743,16.242958774245743,56.352663403296,0.17061308501705233,0.6045383826371711,0.12597406692832175,2.5634949523971855,0.4702672638512855,2.024204504742787,-0.05536585942898456,0.47901468603462877,-0.8526267673511025,0.192364599151364,-182.7441867007418,18.539056935171608,8.490940197035465,0.3012352226425033,0.061092279667004645,0.07795913424039543,0.45457340239970045,0.8302218538432004,2.611556158817298,-0.16072726152753533,0.06877754093501148,-0.9802276881110089,-0.01147613780423503,-123.14420832643448,24.1710977489317,21.44415877158621,0.2667792486199664,0.1545168536496167,0.1873036080943108,0.6794394300885147,0.78224553082561,3.2827601185724946,-0.09394494541064013,0.25795558555737236,-0.8255078578756008,0.49091545020740424
0.33,-153.3124267186838,73.29759272780574,152.05414584241362,0.0902685454802478,0.10636344323093166,0.06755127676363433,0.8009177684255819,0.36101081130804,0.2823833779316686,0.03814805586951202,0.7888162569133931,-0.05416437084434868,0.6105029703461727,-163.29355879382115,16.2370315521774,56.48259380145838,0.16013272859057193,0.5978844087949896,0.11512312825555002,2.3767986067769624,0.3947776844674234,1.838734817235601,-0.05488490867837412,0.47991981043818843,-0.851904283384328,0.19273332456632686,-183.01114008533156,18.6742372723313,8.516423415292033,0.3446004780335691,0.06383725555152227,0.09010071749125323,0.4215104089688164,0.817871152598787,2.378486379368328,-0.16189319690347329,0.0687340524303622,-0.9803872791808056,-0.01386617859662841,-123.02761958896862,24.12363306733288,21.733334703089657,0.28634261156475543,0.11745570934102442,0.152562581513936,0.6418603024903697,0.7143747969880395,3.308774945587069,-0.0920193120971642,0.2600492602174032,-0.8244891590847822,0.4918378217949101
0.34,-153.36097162375148,73.35290325074183,151.93656489590109,0.09450143864153022,0.10705387729152463,0.06686632235669063,0.9211783915288525,0.383351079308008,0.2800743441494171,0.03704834285877447,0.7886641205847592,-0.05517667665423219,0.611092441414025,-163.29645259465076,16.325830508174814,56.57418498708357,0.1490728937249205,0.5931926653778268,0.10532507416678233,2.173154404330314,0.33926213345913786,1.6687281966783005,-0.05528464804170221,0.4806075051001971,-0.8512305533835984,0.19319619339056704,-183.31662609286377,18.820269563952607,8.628814295941499,0.39064663763159685,0.06925708604797615,0.11135524896197017,0.3943849630282212,0.8024904917800149,2.1139735866901175,-0.16325191281245788,0.06939351099325622,-0.9805084001856138,-0.016410476333982616,-122.93898917067551,24.10121482913344,22.071930904050372,0.30513096374400767,0.08334334770988999,0.12017535262524678,0.5972391409750502,0.6464984686573277,3.2740134248834263,-0.09017045570078637,0.26256419805421977,-0.8234387536180005,0.4926400890730129
0.35,-153.37912123013805,73.36255675605422,151.84438171383255,0.09834426930422759,0.11756367160587887,0.0656196410607921,1.0844438976032746,0.4078462567410678,0.29155605973608006,0.03649604217645556,0.7887896856773532,-0.05607054621247416,0.6112991739456622,-163.32507494048284,16.489246540105388,56.62882305510401,0.1377874956433518,0.588312937218523,0.09706729269943827,1.9618215039434004,0.3030317836619698,1.5241854384930325,-0.05641923908017996,0.48108553577767255,-0.850644096784145,0.19367780128679976,-183.659397312973,18.974410684917327,8.832643656456263,0.43723491937716996,0.0775414678500433,0.14116271430374683,0.3740901574968159,0.7819578701508217,1.8307479416498316,-0.16478242749114613,0.07077892976369034,-0.9805779090016373,-0.019086081550135834,-122.87073400195602,24.09911914154588,22.45134404470065,0.323345138702956,0.05393760620183984,0.09126125184567195,0.5478119933015559,0.5815502849054968,3.1818104259928,-0.08837586134787273,0.26541333405432044,-0.8223605440399027,0.4933741756614009
0.36,-153.37299513606575,73.32409464599141,151.8151220312436,0.10172359971340929,0.1381629808008312,0.06488334050946867,1.2796172323243074,0.43138490873372776,0.3138517724840855,0.03665726778619254,0.789205219975257,-0.05662139703498831,0.611087928750818,-163.37790536107713,16.707700838696294,56.64914243801361,0.12664369246156099,0.5812871022001631,0.09069046492763416,1.7520974146511188,0.2844010867405183,1.4145248322975432,-0.058142016730027335,0.48136893242038997,-0.850171288964535,0.1941163145540913,-184.03887640857496,19.135387339663076,9.127617536062841,0.48235591775782416,0.08882160861578425,0.17864184929191124,0.3615052059087292,0.7550382736821225,1.5422054935280298,-0.16647452284976244,0.07286950874431677,-0.9805821088279997,-0.021885084894644156,-122.8153266680923,24.113540403892085,22.864347687298388,0.34136548756691104,0.030810790401673907,0.06670090900515871,0.4959824056841251,0.5222377288642474,3.0377996688231232,-0.08661145583883156,0.26852523674840284,-0.8212482377335474,0.4940900189738105
0.37,-153.35142163662513,73.23345015632998,151.89096897298688,0.10470173563262682,0.16878384328488522,0.06597301813249987,1.4929689020036834,0.4517598877706635,0.3436304292798066,0.03769633568303735,0.7899265921952145,-0.05658027925459337,0.6104129571411049,-163.45253753251512,16.96298903469428,56.63869785050901,0.11600738454797276,0.5704762266256667,0.08637045532520027,1.5528686024111338,0.2809651707482491,1.3477622700274094,-0.06031210938383115,0.48147700177184877,-0.8498262547768696,0.19446471123967143,-184.4553210149058,19.30354023340612,9.50876781444759,0.524245170964889,0.10315521868525614,0.22267360450596116,0.35747496556515473,0.7214522187240842,1.26158083552066,-0.16833115487201372,0.07560264776501403,-0.9805065569207696,-0.02481596266610295,-122.7659466806868,24.142304850721892,23.306216345700705,0.3596827410846466,0.015320530941006398,0.04711470850043556,0.4441114687092631,0.4708007142096186,2.8494622766086684,-0.08485473949581125,0.2718551172186821,-0.8200827689184306,0.4948319748053102
0.38,-153.32589462844726,73.0844428217144,152.11543396946814,0.10750351680117118,0.2090416791369487,0.07037560211503713,1.709061969329113,0.4676891290958509,0.37750058077527787,0.03975754017532873,0.790975470179304,-0.055696662839406816,0.6092141944992605,-163.54589480603187,17.23895730889614,56.60161057197396,0.10622324452109237,0.5546731625423634,0.0841141261367347,1.3721828016975393,0.28987347536283564,1.3295897274217559,-0.06279984558936773,0.481430567205076,-0.849611650777355,0.19469120981010415,-184.90993766253413,19.480830519563117,9.966899602175948,0.5614612908322566,0.12051100011611507,0.2719918160573963,0.3627676662510633,0.681785093901236,1.001172321481074,-0.17036942803152186,0.07887856924323083,-0.9803361239466364,-0.027903795770882523,-122.71696311914697,24.18542935272846,23.77549386183458,0.37882208945884643,0.008591326233863507,0.0328595103853833,0.39438088807267513,0.4288133872908865,2.6256679535427554,-0.08308769404654522,0.27539226927013777,-0.8188309165198263,0.49563661542035187
0.39,-153.31046668956805,72.86854543122732,152.52965109274624,0.11052381234427397,0.2582708012276035,0.079648815631528,1.9119042974128366,0.4787581218456434,0.41234126960500583,0.042945775865155106,0.7923806450648071,-0.05374358040009618,0.6074152585776967,-163.65444015994117,17.522008590353284,56.54222171972128,0.09758936008435247,0.5331987507320667,0.08376750221682895,1.216841608706926,0.3080772597366178,1.3624875669415697,-0.0654908729498243,0.48124975540230247,-0.849520149954541,0.1947791902623489,-185.40493638369406,19.670722110425515,10.489234201635913,0.5929215277033084,0.14075644573692228,0.3252736120333378,0.3780230445502438,0.6372839717139569,0.7716715007080721,-0.17261999106355871,0.08256663783661637,-0.9800552779823428,-0.031189338999827915,-122.664220242362,24.245459304892375,24.27434308790738,0.3992735879080728,0.01150109939391253,0.0240396692135977,0.34874553819226584,0.39706277379812976,2.376212103661971,-0.08129907236880574,0.2791632194221302,-0.8174452334967468,0.49653187395105014
0.4,-153.32151580024,72.57495361283375,153.16854972560853,0.11430810230677817,0.31557999129148606,0.095291948582279,2.086222409930073,0.4852889721232976,0.44564394125479556,0.047307969246840664,0.7941783543923522,-0.05054304434372404,0.6049237146327989,-163.774372359311,17.801446870131894,56.46478588687622,0.09033025134150542,0.5059710361420109,0.08503373970490757,1.092016065854898,0.33254000962468194,1.4450284972251097,-0.06828898216037146,0.48095252842218766,-0.849536412865945,0.19472682061822708,-185.94351864112858,19.877961176123343,11.06013780497371,0.6178950493670491,0.16365335827927818,0.3812242165471214,0.40370425286463324,0.5895996432441294,0.581636114484878,-0.17512490906386916,0.08651237080652867,-0.9796485162831502,-0.034727045061644875,-122.60512334064052,24.327541344200377,24.808460021620864,0.4214398737247127,0.024668495495067076,0.020527121672965228,0.3089669787318152,0.37552402136984664,2.1113413917470614,-0.07948587197318335,0.28323032812127424,-0.8158652826123743,0.4975372174426132
0.41,-153.377324692904,72.1909628680304,154.0571977544552,0.11950416780426618,0.3799328783056937,0.11859357556628036,2.218732698972876,0.48814770054302614,0.4758245455560173,0.05281742317325704,0.7964114867296281,-0.04598940719844157,0.6016339348218085,-163.9018054506126,18.069668884771783,56.373232326120146,0.08457413036596148,0.47353086973507497,0.08749899982355305,1.0009084752696482,0.360405343190338,1.571517005260008,-0.071117679540593,0.48055402564902017,-0.8496393338613981,0.19454642227230648,-186.5297972222618,20.108280153176388,11.661843686337669,0.6359599892467923,0.18886436239701607,0.43865331910667504,0.44006476669669925,0.5405278761685474,0.437128958771412,-0.17793421714956084,0.0905442674420638,-0.9791008262234708,-0.03858228856946487,-122.53854671667425,24.4392105442005,25.386576322769535,0.4456082181177166,0.04843790810532726,0.02198545977907158,0.276699796020304,0.3634369849040769,1.8412674685206372,-0.07765394822440808,0.28768605027822275,-0.8140201388894175,0.498664403282346
0.42,-153.49742502840584,71.70263249026422,155.20762664552743,0.12678873717822486,0.4502525144048902,0.15046882570570524,2.2992829771919103,0.48851098664399145,0.5024584164063655,0.059363125590147,0.799127561622868,-0.040068361957904496,0.5974326521054375,-164.03293134740704,18.322204827281166,56.27100848305056,0.08033995770796362,0.4370102324151929,0.09066559293130602,0.9445022550682116,0.38912133618758626,1.7320687862098882,-0.07392061061513819,0.48006664879148847,-0.8498043782641846,0.19426339900673117,-187.16865331679693,20.368055294496806,12.2751091682962,0.6469356358626155,0.21597118335583604,0.49654096223075544,0.487136875649498,0.49178911414456755,0.3415291128034817,-0.1811014440800649,0.09447988046954281,-0.9783980339295855,-0.042828116244037255,-122.4646044639321,24.589897029279808,26.019608204141765,0.4719490231555681,0.08286097751871097,0.02789459684265117,0.2535898751914911,0.3594722808336905,1.5756869670115363,-0.07581778044331758,0.29264350531288974,-0.8118321050427159,0.49991843894350607
0.43,-153.7016847450194,71.09569532724697,156.61644945507064,0.13677778695186318,0.5255409810491041,0.19130509436778986,2.321746330692252,0.48762028014297587,0.5263931178194448,0.06674580558102144,0.8023754655903241,-0.0328695185270991,0.5922069921849451,-164.16416597066956,18.557604910763203,56.16100566293684,0.0775379791139384,0.3980408058229837,0.09399217524737283,0.9214473285795121,0.41652796210435633,1.913179962989228,-0.07666101849535663,0.47950070830645797,-0.8500058643207119,0.19391445196304982,-187.86553875298443,20.663943292127072,12.87978770740412,0.6508045544625574,0.24450241967864184,0.5540894931919367,0.5447408103577398,0.4448696927815016,0.2955129750310832,-0.1846784708308453,0.09813091219163042,-0.9775269062674886,-0.0475418178907544,-122.38433430505214,24.79018450643679,26.71953898757594,0.5005376696885888,0.12767623993836144,0.03757522217360768,0.2413409811439081,0.3619580576742787,1.3233424612874956,-0.0739994170572791,0.29822439718232807,-0.8092214969775715,0.5012985591739932
0.44,-154.0091545542452,70.35666163487676,158.26355851499366,0.14993244092350147,0.6049946143163395,0.24083812434241234,2.28456631800872,0.4865552843594278,0.5497046316376607,0.07468203800510384,0.8062011024594357,-0.02459086804399621,0.5858544599292207,-164.29227912747095,18.77717488351621,56.04555237587567,0.07598518868930908,0.3586128047773806,0.09694015590930449,0.9281219443686448,0.44092097990609824,2.098771266271681,-0.07932047953105963,0.4788653634261793,-0.8502190820721425,0.1935448747219387,-188.62622991687687,21.00251512327235,13.455333403922138,0.6476402690586023,0.27396574122034406,0.6107565940102309,0.6125052726426983,0.4009370637686294,0.29719729714613863,-0.18871018802438683,0.10130745939329087,-0.9764749217378993,-0.052801500976368425,-122.29934508766164,25.05088300259696,27.498148960188836,0.531392052125252,0.18229238826292976,0.05021452548723936,0.2417154445463997,0.36912597084846466,1.091663489221298,-0.07222667966315435,0.3045456343862529,-0.8061121572560734,0.5027992366937168
0.45,-154.43673226952453,69.47406621799168,160.11213002578333,0.1664731663814745,0.6880863349151733,0.2980787348235945,2.1908785721673465,0.48606015821289844,0.5754805961556909,0.08281698591743179,0.8106422885765211,-0.01553397627836089,0.5782941686407852,-164.41450826865014,18.984578136875037,55.92645030289793,0.07543477667215902,0.3209024669857128,0.09902435323572573,0.9588949927810592,0.46110224834489655,2.27162494620494,-0.08189715814730765,0.4781695408892726,-0.8504221716114544,0.1932049132457501,-189.45653760901342,21.38989657893067,13.981284369431219,0.6375548355312526,0.3038774405316461,0.6662649290518385,0.6898846560487083,0.36083476721500923,0.3424275489589184,-0.19322947844401217,0.10382181850792853,-0.975229728716222,-0.058682737794737004,-122.21147258293459,25.3820071249764,28.365728511555343,0.5645154736068623,0.24578363557511776,0.06489578379332851,0.2564531300877001,0.3793314573735294,0.8865161262655105,-0.07053080128847815,0.31170618730443705,-0.8024371242773108,0.5044113612629508
0.46,-154.9977421479135,68.4398173483906,162.11005771383643,0.18631320993513908,0.774582182849055,0.36130474149277114,2.0481735194357427,0.48644982209749354,0.6074404437509424,0.09074541032853531,0.8157232620260354,-0.006089475703350599,0.5694785603014569,-164.52865687517703,19.185338544580986,55.80502374142474,0.07561577471676131,0.28709017883166604,0.09986434250291416,1.006586005679201,0.4764140059557173,2.415069518682066,-0.08440379528944209,0.4774225187276243,-0.8505976992911959,0.19294541487746467,-190.3619780587478,21.83141745828815,14.437788302987551,0.6206776049540066,0.3337818015624271,0.7205868674220747,0.7761560600549354,0.3251541071267416,0.42518217119584995,-0.19825301275548535,0.10549247882060288,-0.9737784532778204,-0.06525528140428993,-122.12247939584988,25.791774034531755,29.32992555462322,0.5999345082143189,0.31690627778712227,0.08063417633586993,0.2871129915856574,0.39121235310245966,0.7120682605115813,-0.06894372781297255,0.3197757574918846,-0.7981437418881526,0.5061237216103389
0.47,-155.70055332729856,67.25061462016919,164.1927913549069,0.20901948987239968,0.8644630334382949,0.4281239139839447,1.8675189507002206,0.487608314612632,0.649429201394008,0.09803946333160678,0.8214490580816013,0.0032866744244278937,0.5594049328163645,-164.63317805181512,19.386291779535277,55.68215743889375,0.0762762589478347,0.2591905393743369,0.09923078715605765,1.0630872006334564,0.4867453782703435,2.5147175383535387,-0.08686562664911138,0.4766339191250614,-0.8507338685569302,0.19281323718848778,-191.34741669413447,22.331267573202247,14.806235461395199,0.5971715224079308,0.36325501414848427,0.7739070710927376,0.870380013981495,0.294365885607194,0.5380538181134706,-0.20377822659202505,0.10614902246337926,-0.9721071413717016,-0.07257981870680032,-122.03382457365994,26.285746594240653,30.39488133268381,0.6377234738115323,0.3941432422525837,0.09641997076404758,0.33485722747953195,0.4037683407792132,0.5707558924190242,-0.06749526959422088,0.32878671741713533,-0.793197480716018,0.5079248166179625
0.48,-156.54737348472042,65.90939847171173,166.28739133419566,0.23380682929644217,0.9577381703664505,0.495603513584394,1.6624211507141606,0.48907038687712434,0.7048411205739342,0.10428074517557649,0.8277998630216437,0.01210471822639897,0.5481261881863111,-164.72724112228724,19.595038924588284,55.55830844269765,0.07722184879288718,0.23891146499071247,0.09707916612643426,1.1200819444815808,0.49250163140221587,2.560036029314944,-0.08931839268918952,0.47581297551128116,-0.8508252807322755,0.19284705968072666,-192.4167073977717,22.89215984835913,15.070049949319076,0.5672866828470537,0.3918935890107067,0.8265698182868891,0.9713156991974541,0.26898023898691087,0.6727665208233101,-0.2097817112934535,0.10563854866057018,-0.9702006287898456,-0.08070475052267369,-121.9465169720623,26.866242312891583,31.56079349497306,0.6780103512184117,0.47577884369807344,0.11126865108698099,0.4002071433386588,0.41636362442150837,0.4633256423012699,-0.06621020331068424,0.3387304956732099,-0.787583821221924,0.5098048736835739
0.49,-157.53335113301875,64.42676492285582,168.31746089215125,0.2595690030073409,1.054166172833946,0.5604530886127848,1.4474570939367575,0.4901576980184152,0.7760415646391489,0.10909340248905024,0.8347254796811138,0.01987805267710831,0.5357602170275857,-164.8107737265233,19.819452567645122,55.433491009779516,0.07834172656780777,0.22755400649583074,0.09356303033879042,1.1697742344617246,0.4945346557982076,2.5455378159769233,-0.0918065276633029,0.4749671258431152,-0.8508731248256397,0.19307424503923584,-193.57236230856955,23.515009695407734,15.21566132994204,0.5314438249512351,0.41929333693244075,0.8790195670468159,1.0772963379782685,0.24969225386617777,0.8206887852030345,-0.21621913416137786,0.10383393337704133,-0.9680429914190519,-0.08966305628005501,-121.86105454565053,27.532103584203508,32.82400482380768,0.720962720549051,0.5600002907238243,0.12427637325182564,0.48280339224309254,0.42866927527667603,0.3889347304269155,-0.06510539095566355,0.3495591011573863,-0.7813076960567592,0.5117578631011647
0.5,-158.6461047400844,62.8222208379164,170.20851424346782,0.2849463182695521,1.152934130797067,0.6192430061508171,1.2368480824961607,0.4901287090691162,0.8638651138338044,0.11217483127526684,0.8421402963666205,0.026162449122752028,0.5224971131851034,-164.88446665374997,20.067274447467508,55.30724573854126,0.07961687951632411,0.2259593075037031,0.0890211171554704,1.205539482022849,0.4940371374861982,2.4714238266244024,-0.0943815368474242,0.4741002139164659,-0.8508846502665046,0.19350922799247913,-194.81529526461668,24.198653048638942,15.233638802229777,0.49033428788658623,0.4450288409545968,0.9317412288411034,1.186088818795724,0.2374713200524189,0.9733032943924232,-0.22302670935830543,0.10064378084177593,-0.9656185140841035,-0.09946937352885968,-121.77744192039165,28.27887667585903,34.17764776659252,0.7667560219433904,0.6450170154681084,0.1346786601715653,0.5812036309601432,0.44056736252115897,0.34530341578852053,-0.06418704445612473,0.3611917986909874,-0.7743902389675019,0.513783312921558
0.51,-159.86577098123095,61.12507907388436,171.8932946706109,0.3084245385567214,1.252374307989453,0.668641398777762,1.04315808413566,0.4883034455035682,0.9672696688793859,0.11332083237617233,0.8499195514979312,0.030593869381593294,0.5086029784186357,-164.94972702611486,20.345827380000504,55.17861255705622,0.08110898549569802,0.23450292925033162,0.08393734690615388,1.2224229164962006,0.49240395211813814,2.3435738955935013,-0.09710052521803153,0.4732107786238856,-0.8508718172543027,0.19415364387171635,-196.14468063702353,24.939637841011994,15.119924855720642,0.4450184020047584,0.4686433030829316,0.9852021505782453,1.294776389145487,0.2335647395901483,1.122598808894535,-0.23012417813684583,0.09602341736695989,-0.9629129582250516,-0.11011745264356756,-121.69527235051768,29.099378986912388,35.612785970281756,0.8155293267955588,0.7291847498213369,0.1419099385880193,0.692749716432821,0.45203798647662763,0.3289226192631714,-0.06344835552679368,0.37352612703964316,-0.766862967852206,0.5158877884232725
0.52,-161.16562794840712,59.37472869949018,173.31656094032917,0.3284561259345568,1.3498044078990743,0.7056536946675702,0.8762798547868383,0.4841408715826946,1.0832094100209864,0.11244270978466407,0.8578980385697453,0.03292097506080369,0.49441865387220285,-165.00857004104466,20.66184312371939,55.046131009700126,0.08293244950761043,0.25312960263899714,0.07887876064142763,1.2174456291199802,0.49107023758577867,2.172872112098681,-0.10002479517412094,0.4722909699181608,-0.8508491616924071,0.19499810913231083,-197.55795625836063,25.732129629255564,14.877060414077787,0.39700196151505474,0.48965516384789454,1.0397937042516527,1.3997095774127581,0.23940763593505943,1.2613653253928745,-0.23741923595321127,0.08998583213449682,-0.9599148820803876,-0.12157813836452633,-121.61385581631772,29.984559127859157,37.119902558088164,0.867335182263231,0.8111188822561225,0.14566047989888806,0.8135342721580352,0.4630467304862905,0.3353158879515575,-0.06286770841347168,0.3864516192997021,-0.7587599915486489,0.5180859125024176
0.53,-162.51330303180666,57.61999995770945,174.4388943025218,0.3435942998991688,1.4415589161777387,0.727849895697654,0.7428189888281976,0.4772678060065012,1.206754253575594,0.10957460447518974,0.8658725103783826,0.03302855733588872,0.48035162309828605,-165.06344988083654,21.021385458740887,54.9078897476026,0.08521558599855773,0.2814163760311889,0.07442149418750549,1.1897154056500248,0.49134601507265285,1.973954112906964,-0.10321835358069006,0.47132649730636855,-0.8508311038756858,0.1960252694922651,-199.05097531648283,26.567967289950584,14.515255846063623,0.3482710661472929,0.5075825706389097,1.095768903601849,1.4965658509756823,0.25645432781430194,1.3833953575807718,-0.24481332212054416,0.08261118399427682,-0.9566168459171241,-0.133798014448044,-121.532370146579,30.92449503852033,38.69051934449927,0.9220902145447399,0.8897811867893397,0.14592553424015275,0.9384898730885879,0.4734469332521854,0.35934550599793214,-0.06240752944173626,0.3998639793595673,-0.7501092253303,0.5204007600344112
0.54,-163.87252351348937,55.91740447991504,175.2391400751968,0.352632427299845,1.5232393533675535,0.7335654516571622,0.6459129003411616,0.4674736116974419,1.3314438278676195,0.10487018715310513,0.8736087890493895,0.030948679181046785,0.46685978887954216,-165.11704329500031,21.429831912610418,54.761639918525866,0.08805877046379823,0.3186512164619385,0.07107680876290978,1.1403657148711153,0.4942724174145177,1.76355427858169,-0.10674610943295616,0.47029775007233315,-0.850829064554209,0.19721350128866616,-200.61828033960217,27.436887368152412,14.053139155536718,0.3012696181302125,0.521981380203131,1.1531742342923992,1.5805425614328303,0.28596280296433807,1.483610818087808,-0.25220857760175713,0.0740534203798364,-0.9530164351764563,-0.14669882494021874,-121.45000711215003,31.909354830062536,40.318719412646125,0.979532810451856,0.9645262048960912,0.14304015994462607,1.061610738287991,0.4829082234373664,0.3955447196158615,-0.062013567324445996,0.413677367576776,-0.7409237473883015,0.5228634356892619
0.55,-165.2053137145171,54.328175755053294,175.71520568175893,0.35474119299017526,1.590161006065008,0.7220614419680351,0.5854482427756144,0.4546910056976071,1.4498315010903498,0.09858870311523285,0.8808539402095105,0.026857440276701967,0.45442685398271104,-165.17201083760457,21.891874924683826,54.60497522120834,0.09149700371887833,0.3639162251528643,0.069227834071347,1.0723567059263468,0.5005180137658393,1.558683038428792,-0.11067159470681054,0.4691819418829298,-0.8508487754959949,0.19854057887079382,-202.25343752475703,28.326907475524646,13.518011046635724,0.2588110755802802,0.5324883388376576,1.2117780192457404,1.6466836352727825,0.3287689959787143,1.558140744461806,-0.2595155223897504,0.06454269083562983,-0.9491171012438927,-0.16017772786051993,-121.36608295425948,32.93017022162378,42.002391692630916,1.0391936626337417,1.0350990529435153,0.13769362791941694,1.1762997885270179,0.49087939106134576,0.43845459829695577,-0.06161421138121261,0.42783295388007575,-0.7311942705934469,0.525511687432334
0.56,-166.4744843779608,52.914244098824256,175.88310871916568,0.349590157778527,1.6379253011298547,0.6936277221556684,0.5585845305232744,0.43898057439492094,1.5541512255019043,0.09107138917307275,0.8873529200353427,0.02105699210130606,0.4435304909355707,-165.23076812325618,22.41151455919128,54.43556715930283,0.09547244097646616,0.4161675639799697,0.06908458665689877,0.9901683950012746,0.5103198432456721,1.374869415306971,-0.11505423287881682,0.4679559088654804,-0.8508881169131626,0.19998674128327437,-203.94934126187286,29.22482693883443,12.945461734707939,0.2239260852759614,0.5388592044449625,1.271002558557235,1.6903141680676725,0.38508265314803075,1.604372164855451,-0.2666606495961944,0.05438255401746645,-0.944928854440913,-0.17410835155019339,-121.28008397937266,33.979327165745936,43.744091522199106,1.1003841298657075,1.1015846306355448,0.1309189757428207,1.275820531368181,0.49659181806935365,0.48294542266808294,-0.06111948912776849,0.4423027804013723,-0.7208833827054514,0.5283874789737162
0.57,-167.64619872711754,51.733508710933855,175.77439425322606,0.3374313508481208,1.6630122719635074,0.6496100674007593,0.5604624087020028,0.420526423140319,1.637028494306741,0.0827105177339841,0.8928680740398759,0.013944569568645145,0.4346060859229279,-165.2953011671898,22.992034650269222,54.25143055981241,0.09982053211682555,0.4743063424380697,0.07066158512499712,0.8994058401720076,0.5234631659968813,1.2246724470609522,-0.11994643331364167,0.46659906239958127,-0.8509357324100232,0.2015368316154859,-205.69839202395434,30.11677829765851,12.378257747812357,0.19965856945764637,0.5409923090106757,1.329871854757189,1.7075347651559665,0.4543281392704079,1.6209875364359205,-0.27359282713481975,0.04394143527690212,-0.9404688489573532,-0.18834257473168148,-121.19162259132726,35.05073770909469,45.55147846277696,1.1622064199568523,1.1643169980970804,0.12405466277882167,1.3538256493846308,0.499109060214391,0.5245075470836525,-0.06041963353934488,0.457088858689614,-0.7099219195267925,0.5315334994502882
0.58,-168.69235005196356,50.83495751724502,175.4322724524179,0.3191185690147295,1.66327674355178,0.5923436396091377,0.5849711786444086,0.3996383346825934,1.692159203836539,0.07391454647540564,0.8971990554553022,0.005972408415601312,0.4280101896847454,-165.36705520920185,23.63597286615159,54.05118456771944,0.10427222492097662,0.5372354677648962,0.0737795950482701,0.8063329425825181,0.5392929609144621,1.116612628070336,-0.12539096458220558,0.4650959765210222,-0.8509705861520515,0.20318141507660997,-207.4924789405902,30.98875754030858,11.86448346896677,0.18883204521377944,0.5389315955453652,1.386990299639605,1.6957122569284213,0.5350487373639977,1.6079901353916042,-0.28028732886054303,0.03363833816039236,-0.9357618494240157,-0.20271300651099808,-121.10028823679149,36.13970580214781,47.43733593339976,1.2235887207047857,1.223764412344212,0.11867561390228465,1.4049251376084977,0.49742425475932195,0.559501330766675,-0.05938340637559117,0.47221805545463347,-0.6982076554947281,0.5349886476550797
0.59,-169.5924750669104,50.254283885042376,174.9070020072813,0.2960437138645402,1.6382528196193802,0.5249845477170558,0.6254684963480391,0.3767492358544692,1.714892168007876,0.0650735936949327,0.9002003868378038,-0.0023961001824564848,0.42398851612841404,-165.44691644387987,24.345104178569375,53.83427018857737,0.1084734115565574,0.6038983180216828,0.07809062050833421,0.7173625803277739,0.5567554581791413,1.0546120386993403,-0.13141906045081264,0.4634381798864684,-0.8509625392633666,0.2049169175665869,-209.32275971675278,31.827077509591476,11.455012071004333,0.19381347323007,0.5328488376667865,1.4405686744945614,1.6538954243932342,0.6248942283829759,1.566708159036237,-0.2867466034721345,0.023923394165298574,-0.9308404616265735,-0.21703630132815047,-121.00539188278562,37.242534176142904,49.41920121078481,1.2833466042959445,1.2804084987514732,0.11649189268927441,1.425240173370711,0.49059890188724625,0.585356528084342,-0.057856543376147346,0.4877336579900768,-0.6856063956671544,0.5387826274086204
0.6,-170.33497608577596,50.01063042320677,174.25111594461066,0.2699900317945841,1.5892217765284968,0.45124890004866924,0.6753821778111312,0.35239859014800823,1.7026620430684594,0.05652932086352662,0.9017941047257408,-0.010728238584783447,0.42265315071715,-165.53529336989567,25.120454605142964,53.60108812703037,0.11202047145207586,0.6732981329190512,0.08312291970670851,0.6385461382089348,0.5744714694662754,1.0379657044908905,-0.13804955252633525,0.4616249069015027,-0.8508739319483438,0.20674485275051213,-211.17930394851052,32.618719796962935,11.20047493644826,0.21630342484166987,0.5230106596767007,1.4885096075649158,1.583085879535777,0.7207138829955374,1.4997614282421183,-0.2929974862274631,0.0152544272102749,-0.9257449057351311,-0.2311176071638036,-120.90561951589625,38.355941968257326,51.51864654509878,1.340267878920387,1.3346354915386474,0.11921706459177037,1.4128714364260508,0.4779302936374751,0.6007103140014112,-0.055660737818281715,0.5036846479151976,-0.6719554910978471,0.5429299268943987
0.61,-170.9175254369032,50.10494537549176,173.51504485856276,0.24292318650348577,1.51905799829898,0.37508921470102535,0.7286694078862834,0.32719961108101164,1.6552284564876714,0.048552305654698424,0.9019756573087067,-0.018656717115583064,0.42397249227777783,-165.63229120752055,25.962351735780704,53.353030157551764,0.11450778072507353,0.7445014792235444,0.08834034784926097,0.5751115194599835,0.5908419059366725,1.0618012871096056,-0.145289091249273,0.459662775437781,-0.8506620646045695,0.20867018656960024,-213.050721040689,33.35159163246926,11.147990420229721,0.2571791584727254,0.5097397717008102,1.5285542088658017,1.4863098384452895,0.8187711162070924,1.4109696487607917,-0.2990852707457933,0.00807130436694868,-0.9205220876376066,-0.24475645360468717,-120.79862521613869,39.47637745728284,53.760255741546636,1.393211950321994,1.386654607978946,0.12841478500593617,1.3682071103480296,0.4591341857432977,0.6054735111686507,-0.0525936030394513,0.5201137538019075,-0.6570697385073783,0.5474236049374834
0.62,-171.3466414689005,50.52018468897698,172.7435620932571,0.2167551033861434,1.4319088352584208,0.3003529480480679,0.7801441153758998,0.30179551926737114,1.5746949991577497,0.04132858446078701,0.9008123144961417,-0.02590389355525025,0.42777550868382963,-165.73795998032665,26.870506758246492,53.092391944931634,0.11558058924337643,0.8166323577476402,0.09320804899378543,0.5310923231233855,0.6041824937260716,1.1179270309178242,-0.15313331563501464,0.45756450283473565,-0.8502823774285004,0.21069892447814756,-214.92390878741085,34.01471464127125,11.337989633067124,0.3164114169782555,0.49338031922583064,1.558477764270476,1.3684656085010096,0.9150758381858376,1.3051792544454401,-0.3050656578691245,0.0027703937826351506,-0.9152238067815555,-0.25775412050044877,-120.68060500660278,40.59931942323733,56.17033884381216,1.4412093622562259,1.4364539215224903,0.145338281666557,1.2940132728465248,0.4345291661726179,0.6008169026690211,-0.04843013204278041,0.5370453503748445,-0.6407495256023192,0.5522294448679932
0.63,-171.63652135882478,51.223291430295134,171.9733007908621,0.19311901341591403,1.3327767044831702,0.2304709007701697,0.8256952406875151,0.27681309135843496,1.4653116021573456,0.03495573338046799,0.8984345386276525,-0.03229394555702944,0.433769584029382,-165.85258546688766,27.8441159334267,52.82217197039973,0.11498514113623502,0.888864194286908,0.09725530291052024,0.5090759308438453,0.6128808935615346,1.1959306141640849,-0.1615687425325289,0.45534680709969566,-0.8496920387898915,0.21283514422322258,-216.78402862696757,34.59837813499793,11.80151619089187,0.3930664233542974,0.4742750392910172,1.5763101787133473,1.2359568054520542,1.005799924324693,1.1879940918843053,-0.3109959408923107,-0.00031818512519165643,-0.9099040928958826,-0.2699220215231095,-120.5459000723518,41.718662410180386,58.77542712336917,1.483545217701781,1.4837973949107874,0.17078013160810546,1.1952810350671128,0.40520272419441195,0.5890739283476485,-0.04292627220026405,0.5544742360653708,-0.6227909509718965,0.5572811250186211
0.64,-171.8072839588372,52.16861465713505,171.23142012369274,0.1731897193025638,1.227064855187481,0.16821428753290357,0.8624091214438613,0.25282009384190146,1.3330930282323137,0.029447815660972994,0.8950217681129126,-0.03775325339676466,0.4415691576114136,-165.97698406369622,28.881970661425154,52.54577686331063,0.11260737965571127,0.9604151267316036,0.10012686486353277,0.5100804255422751,0.6155639771990263,1.2843815713093256,-0.17057517168989042,0.4530276329176146,-0.8488535766182329,0.2150778705496309,-218.614750333228,35.094283066780875,12.558350639364257,0.48539214753564947,0.45275820732692973,1.580549547853454,1.0961555393737712,1.0877124212013314,1.065417535205264,-0.31692683534251287,-0.0009478663480851278,-0.9046158466911407,-0.28109010509770527,-120.38668433344486,42.82627045225405,61.60059951663221,1.5198123224485376,1.5282588099554133,0.2049483837838954,1.0788391307132623,0.3731269183000117,0.5735653369670884,-0.03582521170371615,0.5723562676676563,-0.6029975353693954,0.5624770603972074
0.65,-171.88282740374137,53.30225129478283,170.53535667390062,0.15757406894971196,1.1201350502844276,0.11554330604388073,0.8885930181213406,0.2302907121038215,1.1853034984802697,0.024747670631414247,0.8907847127850625,-0.042300564686053484,0.4507309605965472,-166.11275889034883,29.982570615864674,52.266665797157614,0.10849282415090743,1.0305481614666585,0.10161636906289499,0.5335566093624016,0.6112564765507248,1.3720026109408487,-0.18012845521261225,0.45062288992223076,-0.8477381368733599,0.2174182809364774,-220.39873642293844,35.49568961828651,13.616201862918452,0.59097414331654,0.4291637044639605,1.5703351572424913,0.9567688539554361,1.1585544837555795,0.943441360755355,-0.3228961324005175,0.0010345612849137324,-0.8994071360416297,-0.2911140041143474,-120.19279692528545,43.911756789775644,64.66771528017509,1.549925009112591,1.5692813711210987,0.24738138047391547,0.9527722762578308,0.34118310472162605,0.5583640345625989,-0.026866680770202565,0.5906017694845336,-0.5811930690158233,0.5676794681830503
0.66,-171.8885430111787,54.56672615490783,169.8934956967379,0.14628466799866166,1.0169128027258454,0.0735528026809655,0.9036907612097649,0.20958306454257503,1.0298637103613262,0.020744330099984828,0.885946516479734,-0.046029375326704966,0.46079116812352033,-166.26247520422336,31.144237549366363,51.987973900066415,0.1028439710707164,1.0985741970076235,0.10167868029207897,0.577505327950284,0.5995067703136859,1.4486972817307384,-0.19020347095695359,0.44814300708581417,-0.8463279456996396,0.21983768159085176,-222.1182827231029,35.79756837400962,14.971031504796127,0.706934661756207,0.4038427704646036,1.5455499703706983,0.8251993319081689,1.2172737193741332,0.8276345607273555,-0.3289248864330486,0.005687574481494297,-0.8943176172830651,-0.2998798264536312,-119.95178203324996,44.96250645904829,67.99366052353679,1.5740911221577665,1.6062478017278217,0.29691016882002097,0.8257138867867448,0.3130624295283939,0.5480242425749428,-0.015799026578885534,0.6090725166497294,-0.5572350788999747,0.5727159957252825
0.67,-171.84913552194945,55.90545949877593,169.30653414885737,0.13879647662962655,0.9215655236861171,0.04250618312931176,0.9080939909157028,0.1909338028662327,0.8747362724171186,0.017292946902659128,0.8807250365128556,-0.049085464811896434,0.4713001997194337,-166.42971804370882,32.36522628711782,51.71215541404855,0.09599694671574571,1.1638552676199434,0.1004216460810392,0.638698194188025,0.580453424486351,1.5063446110213934,-0.20077706914961554,0.445589716933953,-0.8446176079148232,0.22230654152315552,-223.75601344079507,35.996746556329896,16.60838199075933,0.8301436176669796,0.37718326028409255,1.5068342516699544,0.7079877735567837,1.2640574266351885,0.7227855103582821,-0.33501625154746434,0.01298144695801193,-0.8893755579752016,-0.30730601434435895,-119.64919089959307,45.96391641708119,71.5887344628573,1.5927461967223682,1.6385454023270702,0.3516759008344734,0.7061017473305361,0.29303477175229486,0.5472888740832308,-0.0023932902883218535,0.6275828241801802,-0.5310283657075601,0.5773839814432167
0.68,-171.78676917871425,57.26658528456162,168.76927897558,0.13417290125323286,0.8372704944293545,0.02193936081566108,0.9028772746577955,0.17447304312427261,0.7273410554132075,0.014234632050252095,0.8753180637218995,-0.05164269487111239,0.48185197074360997,-166.61900404370098,33.64382588114661,51.44068161788308,0.08838392809984225,1.2258066277176771,0.09808077723674247,0.7129853550774565,0.5548126593633348,1.5393000830688164,-0.21183068345507688,0.4429535178844143,-0.8426140144110243,0.22478471649841741,-225.29554453085802,36.092037092589464,18.505424186153757,0.9574133756952572,0.3496232099353586,1.4555105588017891,0.6103980189362987,1.3001467738833228,0.6326370269948343,-0.34115655478597684,0.022810879606976614,-0.8845958300745114,-0.3133423820824008,-119.26917728643741,46.89980099682284,75.4552767355042,1.606459263966732,1.6656134601427133,0.40920947547226355,0.6014874172018672,0.28561014105241694,0.5607680453594143,0.013541705933163182,0.6459048132905854,-0.5025381012836738,0.5814572002330679
0.69,-171.71969481945945,58.60584032286091,168.27262578417083,0.13123749128231332,0.7660824050837012,0.010812391904904371,0.889506810831507,0.1602576727051875,0.5940444023794601,0.011414028354832205,0.8698926467805638,-0.05387999259155806,0.49210570502233825,-166.83553265268247,34.978438629219355,51.17381824455469,0.08049027421072434,1.283896172768508,0.09498246244012094,0.7956634613152533,0.5237871942499432,1.544583642882541,-0.22335223964492762,0.4402122078061064,-0.8403348541253178,0.22722288445781982,-226.7220632842233,36.08433729726413,20.633366162070182,1.0856591387407566,0.3216551180567668,1.3934391222478826,0.5361601367024232,1.3274681591627435,0.5597329950817773,-0.3473178985737994,0.03501112885081527,-0.879979069145907,-0.3179670213200218,-118.79537813178045,47.752909071234775,79.58657772431815,1.615823343102902,1.6869661532737767,0.46657856528941705,0.517970218731152,0.2951345653109627,0.592569980255079,0.032144147061517796,0.6637773811147012,-0.4718020216260451,0.584694829903194
0.7,-171.66143185873207,59.88840572650396,167.8054897420055,0.1287619286053689,0.708903082513313,0.007685795354899553,0.8695770834693423,0.14831463147086024,0.4797567015960844,0.008693180840225443,0.8645789351272338,-0.05596189503152836,0.5017995983388442,-167.08477921192053,36.367618182021964,50.91049533361487,0.0728149216924269,1.3376386599100152,0.09150211301855245,0.8818638207227618,0.48892368778447914,1.52178141815062,-0.23533695932200843,0.4373307453692171,-0.8378059819478588,0.22956511496057794,-228.02280786650812,35.976683902286446,22.95987431518117,1.2120180611234954,0.2938204044604883,1.3228328713035986,0.48734804570664697,1.3481597339441405,0.5053741038848636,-0.35346154574865324,0.04937491589886055,-0.8755120044506484,-0.32118208814892824,-118.21202593825423,48.50551830460594,83.96607346174224,1.6213455576957745,1.702191657508365,0.5205997284347383,0.45979235359599124,0.32536204506102756,0.6458803717597452,0.05348462708508839,0.6809179926080721,-0.43894109109862306,0.5868523241856671
0.71,-171.62049859150133,61.089716300806856,167.35650819314648,0.1256421131355421,0.6655460366986855,0.010899835808188797,0.8446137754765943,0.13868117850224498,0.3876628185417189,0.00596110460226804,0.859468291443579,-0.05802420124127314,0.5107564976394775,-167.37195258763822,37.81004428873207,50.64827202024817,0.06584000344835343,1.386584128136245,0.08802304034380495,0.9669158355188527,0.4519605149862672,1.4727194432562667,-0.24778667499429158,0.43426250625176493,-0.8350580966688721,0.23175237164440515,-229.1874535604072,35.7742516115952,25.451231435877418,1.3339287485262648,0.26669420254173937,1.2460601249339087,0.46434982955913023,1.3640849866730702,0.46966629626584205,-0.3595414690676117,0.065667864272386,-0.8711687903663828,-0.32300949521237604,-117.50520266663472,49.14009565865506,88.56685187087004,1.6233517345571433,1.71093507558882,0.5681014566213597,0.42909884349908683,0.37903466847040357,0.7225215744530255,0.07755300222420834,0.6970363105055155,-0.40416756384690006,0.5876937999905708
0.72,-171.6006188931098,62.19534373531341,166.9153981581102,0.1210406005953424,0.6348761799052555,0.01873809048340305,0.8159521922554535,0.13142928384206917,0.31910035856060004,0.0031391966500680492,0.8546149996164647,-0.06016531241464492,0.5188823131399357,-167.70136121603528,39.304415733784104,50.38339121179334,0.06001191200878672,1.4303045819426452,0.0849001379681134,1.0466511171352895,0.41469809174016947,1.4009778033348754,-0.26070740778154883,0.430951823865023,-0.8321232783383705,0.23372663026716617,-230.20841392917293,35.48428416950694,28.074065206769053,1.4491771357191832,0.24086006678735594,1.1654552823017232,0.46589902639625735,1.376416667846991,0.4516430669292979,-0.36550765680068875,0.08364106341853106,-0.8669130559685292,-0.3234872245621466,-116.66412308636743,49.64002765074379,93.35157497943692,1.6219177171676344,1.712876225985714,0.6062132652454543,0.4258484743021958,0.4574967520711987,0.8225531381519194,0.10424789624507695,0.7118488437257823,-0.3677888326921999,0.5870053688429995
0.73,-171.6012926854301,63.20010736584658,166.473920922428,0.114482164412152,0.6149983527011256,0.029561708034826783,0.7846760539897109,0.1266667461469028,0.27359131962668326,0.00018312928453067092,0.8500407486053092,-0.062442965396914296,0.526158203753315,-168.07575023317847,40.84925395123295,50.11091429748682,0.05573219619846609,1.4683847693154237,0.0824302829636848,1.1176310332583599,0.37889840099199285,1.311314204018499,-0.27410522145010474,0.42733758650649195,-0.8290319255977289,0.23543522194431574,-231.08104717448538,35.115951543424686,30.796597801208915,1.5559158956982169,0.21687458413827573,1.0831511986487314,0.48916219737299743,1.3853555560898307,0.4494477042826143,-0.3713090043565971,0.10304036443434932,-0.8627003770218584,-0.32266645796757215,-115.68232672457955,49.990423027416554,98.27299325918639,1.6168347664768397,1.7077123183647975,0.6326506100732969,0.4478625807513728,0.5603733679329225,0.9439822285227006,0.13337043397090503,0.7250940247355052,-0.33020518806258015,0.584608586541343
0.74,-171.61860422626495,64.10659109272166,166.02646444101055,0.10589699430663245,0.6034732261254421,0.04190722425643023,0.7515970495861355,0.12451549675401288,0.2490224244278306,-0.002917969378072858,0.8457410921688773,-0.06487546770865997,0.532627829743695,-168.49568545929256,42.442622153796314,49.82492280452384,0.05335363173013461,1.500419364617667,0.0808297266230373,1.1772917832857737,0.3461987913572413,1.2090671722152786,-0.2879806810270854,0.4233575844383267,-0.8258105415096334,0.23683496007378907,-231.80373551298018,34.68013462461357,33.58946282135682,1.6526642009108574,0.19522453116998578,1.0009453863335007,0.529902953792426,1.390026172801956,0.4605652970641473,-0.37689581218469276,0.12361287230271423,-0.8584809491689489,-0.32060923472241615,-114.55866107579148,50.1789752323153,103.2752321271491,1.6076109487939976,1.6951516798844937,0.6459643087246361,0.4910082604705223,0.6853575765417341,1.0826428533270684,0.16462381009449592,0.7365472079760785,-0.2918998992623209,0.5803729933478072
0.75,-171.64615090968326,64.92326555369675,165.57029070927533,0.09561234102048245,0.597549593853282,0.0545470520110062,0.7172680111413751,0.125073757982883,0.241957796758527,-0.006144323822588849,0.8416931094855764,-0.06744625690953301,0.5383812444838592,-168.9590652846277,44.081776253838015,49.518771155375894,0.053175470070416876,1.5260151487372786,0.08021818646187699,1.2240051344215575,0.3180214907242131,1.0996056231213882,-0.3023225317641445,0.4189532256926503,-0.822480659250672,0.23789556406175882,-232.3777983922396,34.189147862576384,36.426182845009095,1.738294160215805,0.17628352291858287,0.9202148453197084,0.5827508761140434,1.388569802296833,0.4820919084327335,-0.3822219682558904,0.14511149878058804,-0.854202335812481,-0.31738614258237685,-113.2979590796186,50.19684547500568,108.29593307197598,1.5935057888693118,1.6749203800755605,0.6457232141501033,0.5495189690153556,0.8281621586093827,1.2322916499555,0.19761974730078888,0.7460349194446033,-0.2534210066279127,0.5742267006494329
0.76,-171.67599509127618,65.66243110978179,165.10550986664438,0.08429880881655705,0.5944054425227603,0.06651648018888462,0.6820330029697294,0.12837156511130013,0.24805458837309893,-0.009449743956268054,0.8378634757088474,-0.07011054236209384,0.5435372378722355,-169.46083735938555,45.76277782267068,49.18537223387939,0.05543307190119759,1.544797620332342,0.08060970233295223,1.2570578476423653,0.2954727178542201,0.9878756850060302,-0.31710145867858436,0.4140741737249655,-0.8190589997888833,0.23860190606817488,-232.80721935155043,33.656416327815805,39.28339924277531,1.8120102608258115,0.16027841899439643,0.841895665849873,0.6415928616575929,1.3784361804041707,0.5110213465885349,-0.3872468308998526,0.16729834611480182,-0.8498122155702005,-0.31307367364983846,-111.91135203800391,50.03949657070628,113.26914869554155,1.573592135808454,1.6467803751369077,0.632600795621552,0.6164519354167991,0.9826852212118089,1.3849555291443028,0.2318918207158195,0.7534473764212629,-0.2153557483018692,0.5661641540275165
0.77,-171.69956208342165,66.33819584369697,164.63484409113116,0.07288186294312882,0.5913828947545137,0.07711378080435555,0.6461123320637566,0.13432941380202457,0.2625389617528291,-0.012766829739120723,0.8342161558707917,-0.07280285805305035,0.5482260055327712,-169.99298071872795,47.48011773110403,48.817496146914934,0.06028066429047926,1.5564240974935153,0.08191100235538813,1.2765611450565586,0.2792415623259022,0.8780727250365169,-0.3322649682378436,0.4086824302841081,-0.815558732528859,0.2389547322984762,-233.0982035091556,33.096123292060646,42.140927755528615,1.8733280372912415,0.1472748390208831,0.7665363298384581,0.700080066573155,1.356851237592163,0.5445237597003725,-0.39193674836795933,0.18994742674924736,-0.8452610386120396,-0.3077511594149203,-110.41620495493774,49.707385279916544,118.12869444052403,1.5468375198238886,1.6105560212816818,0.6083432068517663,0.6842692297111016,1.1414086015412026,1.531538707759943,0.2669143982220163,0.7587480665723129,-0.17830017535412815,0.5562504582386099
0.78,-171.70842388610387,66.964674779458,164.163240319008,0.06243168656277183,0.5861933216691334,0.08588101002273725,0.6097043934996258,0.1427284708716067,0.2806900906607601,-0.016012755796295595,0.8307190095432557,-0.07544452508405158,0.552573819072522,-170.5447835060022,49.22641554122686,48.408063282468625,0.06777007691841314,1.5606043074861602,0.08392862508247674,1.2833069087584175,0.26951886395339564,0.7734492672061873,-0.34773445326261526,0.40275542183834495,-0.8119915003103095,0.23896971852291288,-233.258617921431,32.52283855134471,44.98170638169242,1.9220562738575417,0.13718547371824022,0.6944165029886419,0.752212459870703,1.3213987081186094,0.5801892416301996,-0.39626612807962136,0.21284711217623323,-0.8405044394196908,-0.3014974335719948,-108.83569728454029,49.206416539199736,122.81154312823023,1.5121980060112121,1.5661650786267205,0.575609955898978,0.7455101866978013,1.2960014083489,1.6626465857607595,0.3021250859083604,0.7619792037774314,-0.14282757200786442,0.5446218703192136
0.79,-171.69492236418466,67.55454705051348,163.6973849312646,0.054045053287499714,0.5770689496173482,0.09257261079102884,0.573074345728376,0.1531981053930522,0.298277848744209,-0.019095295206304857,0.8273487366010853,-0.07795027264348231,0.5566909514079952,-171.10340518223305,50.99226331192323,47.95041539183398,0.07783091895817978,1.5571251304050182,0.0863858572282543,1.2785857740942412,0.2659575129277399,0.6762607146322309,-0.36340525887050257,0.39628776603606874,-0.8083697389794282,0.238674932527295,-233.2973842541428,31.95113253851285,47.79169954875079,1.958282554544007,0.12979793003170145,0.6257046217205874,0.7929323615898904,1.2706057604382517,0.6162134100463847,-0.4002179952965906,0.23580270572133574,-0.8355052069727248,-0.2943874851849458,-107.19808410851142,48.54807767328643,127.26086513418058,1.46872031125249,1.513650045539188,0.5376980685767914,0.7934980617717045,1.4380546703301365,1.769525989302783,0.33694846032228615,0.7632621589389385,-0.10945930861863697,0.5314822142621467
0.8,-171.65260287185177,68.11804938543416,163.24516628743464,0.04873179728652979,0.5628471687138354,0.09711749114508555,0.5366018470872237,0.16522284953091418,0.31190777512845563,-0.021918796844555364,0.824093792406909,-0.08023358537389587,0.5606635783084483,-171.6546703965603,52.76626899018058,47.438551420194024,0.0902579773525225,1.5458739206535237,0.0889492990466898,1.263979610042528,0.26768930292403154,0.5878392524193681,-0.3791500984257824,0.3892915636945442,-0.8047088142922586,0.23810694925459872,-233.22389147258457,31.3951831195981,50.55980096147212,1.9823568910464515,0.12481462520070252,0.5606186380825313,0.8186393049933053,1.2043981636989403,0.6515063016785453,-0.4037840323680105,0.2586393645260612,-0.8302346485355685,-0.2864894050714781,-105.53566048665107,47.74920041864685,131.42844475620316,1.4156503709916841,1.4532058157545826,0.4981839969828231,0.8229969550658619,1.5598432072123147,1.8449830261050857,0.3708194778779295,0.7627923919552996,-0.07864076211280237,0.5170951129198638
0.81,-171.57645250538485,68.66242754061022,162.815122902499,0.04731619070920531,0.5429869701079046,0.0995787700559386,0.500775380227356,0.17816739821809724,0.3192429939035166,-0.024389890383760774,0.8209551349351654,-0.0822107078243838,0.5645498359264565,-172.18401112661599,54.53533021314198,46.86731652833686,0.10471031970331424,1.5268570217632895,0.09126295883258016,1.2411442885345398,0.2734024995950905,0.5087647413257624,-0.3948256355520239,0.3817952173206392,-0.8010285876278237,0.23730600414975844,-233.0474850442104,30.86839196697754,53.27773180457515,1.994866045570673,0.12189653321064976,0.49955729862203047,0.8275424304914113,1.1243188502401038,0.6857087217995932,-0.40696415133537667,0.2812051396660994,-0.8246733119547583,-0.277861957762384,-103.88343395200603,46.83134003723511,135.2763642198867,1.3525458810319344,1.3852008411234866,0.46053693056497824,0.8307207903853799,1.6550059620734667,1.8841390731355627,0.403205772697806,0.7608289229915519,-0.05072352280336922,0.5017721911731529
0.82,-171.4629632763555,69.19181708485809,162.41590758353,0.050360460154131634,0.517527114179868,0.10011469327828268,0.4661398230737188,0.19131587484107457,0.3190917050179633,-0.026422745679638798,0.8179449167704412,-0.08380356581140457,0.568379723992497,-172.67745867563028,56.28514015226493,46.23253410516883,0.1207247575622208,1.5002133834519398,0.09298631163033479,1.2116066324061385,0.2814728165749924,0.43908085221101195,-0.41028156536232047,0.3738409123486715,-0.7973541581601091,0.23631070179338537,-232.7770737030675,30.383040346293427,55.939882650427634,1.99659377895619,0.12070376200160296,0.4431782245451001,0.8197944295663785,1.033479770244472,0.7191059004035093,-0.40976570087665715,0.3033734023653657,-0.8188111945970413,-0.2685531218866576,-102.27751728090271,45.8198088768787,138.77796507355643,1.2793860391730467,1.3101911596727338,0.42776285899969646,0.8156144609985757,1.7190531643369675,1.884918965318967,0.43362847557361944,0.7576789732189414,-0.025953979720755877,0.4858578312798479
0.83,-171.31006302672634,69.70748324036305,162.05579190892493,0.05811437327546978,0.48700070329894374,0.09894416941894292,0.4332170655188175,0.20392062165303088,0.3113653714150729,-0.02794372028205748,0.8150834875785918,-0.08494205911838022,0.5721581391349387,-173.12258354839358,58.00089098768122,45.531075014908325,0.13774463589574315,1.4662238132321976,0.09383236128645994,1.1766040630526746,0.29013211228053176,0.3785025664377571,-0.4253711006947369,0.36548106522445534,-0.7937156942536787,0.2351529231608811,-232.42087251850998,29.950021325869944,58.54302690089547,1.988467936344072,0.12092780905717022,0.3924088160110712,0.7973903930254563,0.9362961355990858,0.7524435489873079,-0.4122024213128474,0.3250437511197177,-0.8126476776421564,-0.2585998544927467,-100.75330489763034,44.742446994919796,141.91814176945465,1.196666422208684,1.2289283233354635,0.4021274655795551,0.7788799681278714,1.7496403445604007,1.8482188343602992,0.4616809538354607,0.7536790417966708,-0.004467934889083996,0.46971157824091414
0.84,-171.1169692040453,70.20832025450426,161.74223051824728,0.07049190473928353,0.4523221394342227,0.09631983871602812,0.4024231259984678,0.2152563300454966,0.296925619245529,-0.02889518061427036,0.812395290915647,-0.08556618315280437,0.5758700435584273,-173.50928521214158,59.66809958406446,44.76086689114406,0.1551631669214636,1.4253147125131367,0.0936018960329661,1.136991639334271,0.2976546941433233,0.32657990709361195,-0.439961442818235,0.35677423971040484,-0.7901474367322115,0.23385364391156402,-231.9862732505418,29.578679253525312,61.08585610547039,1.9715008063571706,0.12231241765482197,0.348387569724535,0.7638515987254675,0.8380904230827113,0.7866733478106397,-0.41429324927175254,0.34614079363144973,-0.8061914258168419,-0.24802911560651494,-99.34357598834907,43.62824538864357,144.69301350420133,1.1054647130592965,1.142361787252019,0.3849841813085603,0.7237792111993148,1.7465916422897745,1.7777584093482592,0.4870442562112202,0.7491742335288285,0.013708978187677516,0.4536897445113565
0.85,-170.88401838554688,70.69150017093777,161.4814998621877,0.08707377505489405,0.4146616081068832,0.09250985045403731,0.37400263575059156,0.2246773255937386,0.2773486378067544,-0.02923824562169881,0.8099043548077411,-0.08562825567803964,0.5794866840438126,-173.83034841502405,61.27345051220293,43.9208546517863,0.17237794179272,1.3780542258373911,0.09221012490730329,1.0932300117839178,0.30254018196502014,0.28280769614783136,-0.453942744999216,0.34778114235623997,-0.7866860773413142,0.23242030089111868,-231.47981208635142,29.276765947460774,63.56834264712515,1.9467321204353873,0.12466150442564028,0.3123477144974703,0.7237435102753208,0.7446472366028342,0.8226697997559806,-0.4160610512215633,0.3666107957246093,-0.7994603856292077,-0.23685994095739407,-98.07673011626805,42.505952513836725,147.10900513720395,1.0074655523190066,1.0516335042239098,0.3767115831414986,0.6552756116927492,1.7117016013608866,1.679665998619689,0.5094976171407484,0.7444979243783917,0.028655090844551014,0.4381279955545697
0.86,-170.61250866601358,71.15317066278304,161.27842178744433,0.1071331842048083,0.3753195665245635,0.0877872772636834,0.34799716275729814,0.23167787810709506,0.2546441034775434,-0.028954247350605023,0.8076300468744176,-0.08509522046057615,0.5829719108206286,-174.08171271683577,62.80555047217844,43.01092685806872,0.18884974964502543,1.3251401781363614,0.0897019463833499,1.045453200891011,0.30367439598715895,0.2466874523787752,-0.46723436259934065,0.33856121302051084,-0.7833687544353404,0.2308460894301469,-230.90720243650256,29.050492445221476,65.99099763203034,1.915183225917746,0.12783343764017263,0.2854672192469951,0.682098844700949,0.661776964752882,0.8609590305239682,-0.41753131474636973,0.3864167998551175,-0.7924818332380933,-0.22510622262481375,-96.97536909308172,41.40278964510519,149.18138375375037,0.9049379124930779,0.9580590159319712,0.3767490265253755,0.5795715387747206,1.6483797621254932,1.5618629167906892,0.5289225411526768,0.7399537454738869,0.04054085782266594,0.42332660667932304
0.87,-170.30457013145883,71.58912458082796,161.13618001514064,0.12968125838337585,0.3356097284366236,0.08242466927861297,0.3242585240289497,0.2359546796540349,0.23096883627846587,-0.028044821886027,0.8055836318350615,-0.08395069685978548,0.5862879333061347,-174.26244391960017,64.25551322450904,42.031821755654605,0.20415578619638963,1.2673814854233216,0.08625293762267111,0.9936002089929573,0.3004541055312554,0.21775294782020807,-0.4797877419915654,0.3291700631668592,-0.7802308923075685,0.22911121300213116,-230.27341295828785,28.904627935998136,68.35413710017771,1.8778264927088015,0.13172197121656443,0.26871282648749756,0.643826554220892,0.5949253937259582,0.9014900893670834,-0.4187307489583133,0.40553322114463536,-0.7852922196419538,-0.21277988399199405,-96.05538997534501,40.34337577679607,150.932347186828,0.8006631996273098,0.8630889420033098,0.38371301619865966,0.5035797053081882,1.5612148049970296,1.4333180217400037,0.5452997279574838,0.735801434006603,0.04961202094467415,0.4095396554678072
0.88,-169.96306058943773,71.99538847699102,161.0562367962101,0.1535285447917288,0.2967557895379294,0.07669119373809138,0.30250966965209286,0.23746553342222437,0.20837193686471886,-0.026530681358961743,0.803766021426189,-0.0821963008523715,0.5894001318087156,-174.3744392177315,65.61732884549552,40.98502600732723,0.21802664283391757,1.205675466077683,0.08215492011755131,0.9375815072234167,0.2928635249701875,0.19557128854943723,-0.49158593539023765,0.3196577569346629,-0.7773040887434108,0.22718576589326675,-229.5827824851845,28.84258705554079,70.65728244379096,1.8355679127272757,0.13622616940530166,0.26270011931292153,0.6131819008939219,0.5488468715951293,0.9434755196045181,-0.4196857071762367,0.4239410147513443,-0.7779364398720631,-0.1998942138954876,-95.3256699648858,39.348924392054315,152.38882235481162,0.6978165978838449,0.7682507573549724,0.39557606363862213,0.4343592325150747,1.4555310397344985,1.3032503118537793,0.5586991173987121,0.7322474808947346,0.056169049939112425,0.39696875712333873
0.89,-169.5914760015759,72.36869561817926,161.03835432351067,0.17735915229075772,0.25980645437989375,0.07085058223232009,0.28244274675720155,0.23647158513538022,0.18859843174167168,-0.0244492498434869,0.8021669839116868,-0.07985186195507459,0.592280716643795,-174.4219310361781,66.88800192093788,39.872680575382994,0.23035913243850087,1.1409822502131397,0.07778722569528256,0.8774431819457147,0.28148884859157186,0.17973065288237783,-0.5026402570360357,0.31006781373687003,-0.7746142401913972,0.22503370289794458,-228.83916272282002,28.86645900413197,72.89879672364542,1.7892364306597002,0.14121427183651208,0.2675816997434395,0.5933545573681832,0.5273388742540611,0.9853327534263469,-0.42042040615417464,0.44162426940965593,-0.7704662283662502,-0.18646713423812075,-94.78832670484088,38.43673211620117,153.58017868928914,0.5998086077332897,0.6750808217211528,0.4098895231176068,0.37855463540463574,1.3369985823804678,1.180365807045836,0.5692643449882977,0.7294408235052292,0.060544647488589204,0.38576124080007856
0.9,-169.19386757198677,72.7068201536645,161.08071740333378,0.19981433207652569,0.22557430811379814,0.0651588960803206,0.26383008119073764,0.23354785984483534,0.17296451475341393,-0.021851479025499606,0.8007659335843177,-0.07695442601210697,0.5949111101509212,-174.41087177688982,68.06746622253425,38.697510722573796,0.24120245664970968,1.0742960969849467,0.07357707426279134,0.8134919212070019,0.26745802621075604,0.16982386198782942,-0.5129849145655025,0.3004368280404476,-0.7721800709865222,0.222617276984699,-228.04607120754318,28.97696078914166,75.07580453588936,1.7395732262198984,0.14648885663000955,0.2829675179656902,0.5862095343714202,0.5330240381060098,1.0247578061642042,-0.4209550473603111,0.45856861990579423,-0.7629376511450695,-0.17252411168232978,-94.43944624585424,37.61994081003342,154.5360755599068,0.5100967879543644,0.5850628809273848,0.4240303143802473,0.3418840157119565,1.211338792099908,1.0722066005567117,0.5771936977194595,0.727473188832463,0.06308133797422427,0.37601207637923284
0.91,-168.77476440021354,73.00875815141514,161.18014115389892,0.21958182564808953,0.19460390263143243,0.05986147465579043,0.24661579684887303,0.22955145069200822,0.1623030876257583,-0.01879827188758817,0.7995342001064543,-0.0735562003325828,0.59728299118716,-174.34828293283934,69.15830006660839,37.46279780503091,0.250721443666813,1.0066135504233529,0.06995432288922816,0.7463559780604677,0.2523038976265427,0.1654334630210132,-0.5226705424499672,0.29079466300845974,-0.770012188471027,0.21990139988964308,-227.2068355799354,29.173327914628814,77.18437611210716,1.6872178662760593,0.15176237971054324,0.3078790728267207,0.5921959819265519,0.5671679272836784,1.0589461488349454,-0.42130406370575413,0.47476133846171825,-0.7554079771026339,-0.15810041655619628,-94.27010802209477,36.90752705597097,155.2846347329212,0.4319781403112739,0.4995862357882924,0.43545034910345803,0.32871897878981654,1.0841374517089053,0.9846619662278466,0.5827200671675797,0.7263831963805725,0.06411104052619651,0.36776851730172816
0.92,-168.33910490093248,73.27475397412206,161.33233505038305,0.23548598269700807,0.1671714943111576,0.055188461267991845,0.2309589802919771,0.22554570369328658,0.15696792071064622,-0.015356979118507436,0.7984384204971916,-0.06972176286121351,0.5993980256234241,-174.24164118302343,70.16527916291497,36.17240720309673,0.2591451495284606,0.9388998052725694,0.06730672609052062,0.6769781406984294,0.23776818243900208,0.16612048834926385,-0.531757478159297,0.28116521354859625,-0.7681127027652522,0.21685754241058147,-226.32472162068433,29.453176886801906,79.21989960295565,1.6326934074217991,0.15665240146328305,0.34074234084437827,0.6104203112238634,0.6295327020670739,1.084945030583183,-0.421474765505634,0.4901925279722058,-0.7479323957217427,-0.14324257267344861,-94.26751992644319,36.304463720407334,155.851068738716,0.36837261381857617,0.4199268132027355,0.4419084215535288,0.3417831990343977,0.9607460346538746,0.9216581685760952,0.5860922912913399,0.7261630641859762,0.06393811443096944,0.3610363743611398
0.93,-167.89217888514028,73.50618793572087,161.5321877055707,0.24657193435069438,0.14331416967816032,0.05134843789676862,0.2172140282935462,0.22268740357905792,0.15688079286742357,-0.011598366513492574,0.7974444927596801,-0.06552492361282483,0.6012664327836327,-174.09835654343365,71.09481314248676,34.83087893967179,0.2667105804048985,0.8720560001532839,0.06594140202265157,0.6065567022640771,0.22558084633356879,0.17141693218269724,-0.5403094253651382,0.2715677318512722,-0.7664753287918977,0.21346694910194955,-225.4030505475962,29.812382993215877,81.17753985834577,1.576395700836204,0.16070323551724533,0.37942936613765754,0.6388576297848547,0.7182793449466568,1.1000868736165186,-0.4214666373335152,0.5048566591339183,-0.7405610388105813,-0.12800901821508595,-94.41610689655121,35.81200776429454,156.25682404270208,0.3216107877416185,0.3472441931839961,0.4416666070439909,0.3819762549187811,0.8462280902347717,0.8850186440256115,0.5875597060080165,0.7267667390091234,0.06282681540777292,0.3557870121128128
0.94,-167.43957769224173,73.70535857971365,161.77403767993127,0.2521760786040222,0.12288172864987207,0.048520167318348545,0.2058542426263462,0.22209004325525572,0.16160712710969413,-0.007594309856767957,0.7965214394644202,-0.06104561736923949,0.6029047072544168,-173.92537798468928,71.95431769909725,33.44357606867017,0.2736099490468546,0.8068903526840401,0.06605649165522363,0.536458736126161,0.21725434613683814,0.1808209701323226,-0.5483879123354809,0.2620186655727137,-0.765085786993944,0.20972303949488208,-224.44531070216897,30.245019483321165,83.05269209854539,1.5185916996600932,0.16343476599221773,0.4213606447194985,0.6746501918912942,0.8299381670655726,1.1024246313431125,-0.421271459694938,0.5187538196618875,-0.7333366127576113,-0.11247001200193825,-94.69845340111904,35.42808571476985,156.51923242446873,0.293243007352942,0.2825822487994599,0.43363569706583377,0.44831364777425614,0.745304727128809,0.8744762041315234,0.5873609245180231,0.7281184406674814,0.060993570439563737,0.35196441673633433
0.95,-166.98714567761783,73.87520397772533,162.05190361569586,0.2519758773176724,0.10560185104123325,0.046843006539605124,0.19736153481431346,0.22467995759442988,0.17044843756638672,-0.0034162982102049085,0.7956445630717549,-0.05636711571295188,0.6043329701325333,-173.7289427015984,72.75157592873461,32.016871541836245,0.27994737376132767,0.7440951803855792,0.0677245822245946,0.4681250888601495,0.21392459436592892,0.1937933817066967,-0.5560477435011837,0.25253387714198683,-0.7639223227391718,0.20563291084580246,-223.45525418582764,30.743403657392676,84.84136942688517,1.4594291454041641,0.1644112173247746,0.4636751576680548,0.7144271287838532,0.9594665705480323,1.0910794306218883,-0.4208743156129869,0.5318903549033707,-0.7262927665049076,-0.09670666358204978,-95.09606170880114,35.14776135977014,156.65161453325283,0.2838897945443945,0.2268614036172173,0.4174573947161097,0.5379710381242406,0.66226746434602,0.8878222790612453,0.5857170683684787,0.7301208904112697,0.058604038969754704,0.34949190501745897
0.96,-166.54092419981563,74.0190077431077,162.35965932703715,0.24601453083150707,0.09114767277979256,0.046406829252830295,0.1921115086285748,0.2310640786511546,0.1825416602404814,0.0008653478176461926,0.7947974226454744,-0.05157368546080555,0.6055724739293215,-173.51446718286488,73.49414057366002,30.558337881603308,0.28570908793719607,0.6842307731779219,0.07088737595296975,0.4029772345741085,0.21625639427523116,0.20975395508470376,-0.5633335143589882,0.243130995368393,-0.7629562977836476,0.201217874080428,-222.43695372097957,31.2982876498018,86.5404943370206,1.3989584126731691,0.1633160015179754,0.5034608817515086,0.7545934476504607,1.100404231527695,1.066428898893484,-0.4202554111278581,0.5442788985564304,-0.7194531871159473,-0.08080884872065891,-95.58994187425357,34.96377677361227,156.6637493758007,0.29315276489901115,0.1808553084204186,0.39351652043017915,0.6464303316190589,0.6008425394390983,0.9211825339723937,0.5828289927073849,0.7326627998378482,0.0557745863583931,0.3482781976584961
0.97,-166.1070790934483,74.14012749635842,162.69115238036747,0.23469922411609478,0.0791967899684299,0.047242239416930315,0.1902788921929223,0.24142832323747704,0.19695545648137489,0.005181773393121875,0.7939724093030237,-0.046748657250133545,0.6066436801555937,-173.28656180623761,74.18882488171886,29.076888656879753,0.2907506067510851,0.627716435841549,0.07536028583889387,0.3423314699055448,0.22441683551441619,0.22807823724677492,-0.5702772411134228,0.2338315223471144,-0.7621529931251331,0.19651297503882378,-221.39479186697469,31.899212073760395,88.14808704645607,1.3371671685553972,0.160016507804957,0.5380208419649976,0.7915757974825697,1.2451258792469941,1.0301061279569141,-0.4193925092409371,0.5559380109727031,-0.7128313433816622,-0.06487186567938248,-96.16108675895289,34.867159007143975,156.56261054694792,0.3196016661419152,0.14515211029138633,0.3628846588029486,0.767735418436171,0.5640037081473988,0.9694023335168619,0.5788775226334426,0.7356254535685571,0.05257754440749573,0.34822268121301403
0.98,-165.691804493391,74.24176982210018,163.04027465474474,0.21877387349271654,0.06947240802755987,0.04931196851609051,0.19177798643109195,0.2554834810855919,0.21277295675189642,0.009465707985948299,0.7931700097675384,-0.04197278218157575,0.6075650910236364,-173.0491375944631,74.84132370911497,27.58281349472627,0.29480372377714653,0.574828516596586,0.08084599450137071,0.287326418730343,0.23810893274096692,0.24809662418675493,-0.5768972122302988,0.22466225395421108,-0.7614728698233146,0.19156551180931283,-220.33336608393617,32.535010733474486,89.66335767399957,1.274027915933138,0.15460530095787503,0.5651366222605188,0.8220488537720737,1.3851935239763238,0.9848229270323677,-0.4182636685932772,0.5668917031698402,-0.7064307783240423,-0.048991958651880885,-96.79089504237055,34.84787839678927,156.35326687251336,0.3608461668415001,0.12010728036829439,0.3272052685002107,0.8948636840745823,0.5537503652145658,1.0265131612131282,0.5740254432897114,0.738888379866617,0.04904944476305015,0.34921975537074096
0.99,-165.3011995465166,74.32682123057452,163.4009981854837,0.19926846106450632,0.06176140126523125,0.052505004897262474,0.19624209419256122,0.27247063671944394,0.22915185748159778,0.01365170989102856,0.7923971390649441,-0.037322766114958626,0.6083527431217587,-172.8055669857801,75.45599500163502,26.087658950877437,0.2975041086634014,0.525704332997159,0.086956230592177,0.23887020541133755,0.2566506506665413,0.2690978525086467,-0.583198204210047,0.21565567122255946,-0.7608734852264829,0.18643266580035028,-219.25731336413352,33.194422069414266,91.08671578556644,1.2095554790879421,0.14740936779146538,0.5832878316197808,0.8431708687344924,1.5118228075509819,0.93405945566047,-0.41684991210515676,0.577169008645028,-0.700245870358512,-0.033261142424629304,-97.46158695698227,34.89552961404455,156.039844550659,0.4136910909278807,0.10579756216709803,0.28853636904842045,1.020205985845519,0.570892170213223,1.0862436181170265,0.5684200286606007,0.7423341832400476,0.0452012304887496,0.3511622370560913
1.0,-164.94111902712146,74.39773350283684,163.76738907797912,0.17742813259445891,0.05590985021893717,0.056635692951134985,0.20303835406478876,0.2912312294052618,0.2453584324994233,0.017676754176566736,0.791665080002531,-0.032869936741616236,0.6090200914113648,-172.55886227876013,76.03581103162553,24.603941880688765,0.29843653653522784,0.48035003629029277,0.09324019682248381,0.1976103297834565,0.27908125536353146,0.2903376952669606,-0.5891731228982022,0.2068492456077729,-0.7603120925479399,0.18117849142257192,-218.17108059570808,33.86673663570865,92.41970995472256,1.1438667086157408,0.13896468033222514,0.5917918385665248,0.8528291283851734,1.6164782192329534,0.8816752925172953,-0.4151374496355047,0.586803547600296,-0.6942630166115693,-0.017762012955497085,-98.15662799263237,34.99998979761346,155.6264501668084,0.4743629882712918,0.10198355336302566,0.24916940854170333,1.1361313496219707,0.6148918261117471,1.142539769930035,0.562195179047906,0.7458526688288808,0.041029272593289236,0.35394388577699154
1.01,-164.61700290083795,74.45645599081644,164.13360894223925,0.15462680671566484,0.05180209288757783,0.061449840711419165,0.21131125943501466,0.31033854481905393,0.26078008845954903,0.021481227684542158,0.7909875301036586,-0.02867906593538514,0.6095779991435839,-172.31184503357727,76.58246101047413,23.14473255778481,0.29719113647591683,0.43865081159989366,0.09921686677430659,0.16392362248120967,0.30427680878348173,0.3110525292467628,-0.5948059151080615,0.1982839517237023,-0.7597487567298687,0.17587062561367026,-217.07868631961415,34.54239622770595,93.66490538284394,1.077231212162749,0.12995930970104774,0.5908404214192919,0.8498589072000537,1.6915780217874892,0.8315017776586845,-0.4131191631958367,0.595832865818539,-0.6884622193735945,-0.002563370568874405,-98.86115252080249,35.151998671768204,155.11796471002566,0.5387859880620036,0.10808526950962702,0.2114419755086526,1.2355954247054508,0.6838051336711098,1.19006162173347,0.5554726210903894,0.7493444369776056,0.03652593407996696,0.35746119611735544
1.02,-164.33369267224245,74.50440646732756,164.49391119621535,0.13227146500532272,0.049332246194912915,0.06663862134029415,0.2200490941255391,0.32827829744515147,0.27492683428151954,0.02501023694577578,0.7903790786681494,-0.02480741077657815,0.6100346632724699,-172.0672926765658,77.0965619799656,21.723190163841853,0.2934225183547438,0.4003836657601306,0.10440803878054478,0.13792006057754533,0.3310585635510388,0.33047678697472954,-0.6000753288558958,0.1900025164919225,-0.7591496660003916,0.17057716002817605,-215.98352957981194,35.21346375869084,94.82570628198191,1.0101022305336194,0.12115441861979431,0.58142720824128,0.8341797385155131,1.7312349118173438,0.7869739261040591,-0.4107952323286424,0.6042973416924412,-0.6828190603386003,0.012282568704587124,-99.56236623509791,35.34360830387008,154.52064012348796,0.6028771827748837,0.12317401826020832,0.17755830700899405,1.3127296904926324,0.7743326447901856,1.224616136345636,0.5483620097567595,0.7527241093954695,0.031688549500972656,0.3616146221320206
1.03,-164.0952437527049,74.5424741213355,164.84264083126175,0.11170398261019472,0.04837699938946356,0.07185946010374727,0.22817013193113656,0.34365672729460234,0.2874322840247864,0.028215038260585523,0.7898542250213941,-0.021304034868326636,0.6103954485905285,-171.82805878999523,77.57792366694957,20.352151160038478,0.2869046791545329,0.3652350212477976,0.10836990542439884,0.11945519875384691,0.35828111488426045,0.3478629153673111,-0.6049589245172318,0.18204796159795464,-0.7584902260184927,0.1653641242389163,-214.88829444826777,35.873905143674214,95.90613587236865,0.9431204777331934,0.1132966219174664,0.565179689879948,0.8068040151692982,1.7319204839710942,0.7508494384626149,-0.40817298011911385,0.6122386247595287,-0.677307006074089,0.026740912093651002,-100.24989921994062,35.5684641648534,153.8424577336477,0.6628293471927776,0.14598441611952725,0.1494274776058658,1.3633293418060612,0.8819750574265616,1.2434760700409804,0.5409601021022901,0.755923218739392,0.0265260292647859,0.36630934588766545
1.04,-163.90474313023472,74.57105116929819,165.17424980633135,0.09410760118018743,0.04877631482647638,0.07676193475411763,0.2346253122864247,0.35540590818494955,0.2980594298964096,0.031054399497784803,0.789426878610926,-0.018209411748913728,0.610662710389292,-171.5971670205354,78.02581817933367,19.043853356249038,0.2775768201077106,0.3328258910495343,0.11072216003907584,0.10814942378646725,0.38489081486317145,0.3625034046595477,-0.6094367430777163,0.17446284752278063,-0.7577574918280233,0.16029391424678843,-213.79497379811158,36.51965992480526,96.91059678654746,0.8770887037714544,0.10703571988971788,0.5441262756969246,0.769708138318936,1.6929413850406052,0.7250405033193927,-0.40526617174739377,0.6196977722325044,-0.6718999059855083,0.0407928098195311,-100.91607871016028,35.821899826660335,153.09323558111413,0.7153539425129338,0.17494957069237813,0.1285275561527283,1.3851629884797068,1.0012710813567043,1.245535561700943,0.5333493890436954,0.7588926022696015,0.021062722026301117,0.3714556317710192
1.05,-163.76414043757092,74.59009157903972,165.48334455078157,0.08042514885319722,0.05032571774384353,0.08101626820559514,0.23850873912644557,0.3629490548255423,0.30670729210453856,0.03349579849699123,0.7891101744916359,-0.015555196262353166,0.6108357386004142,-171.37787577964525,78.43922202981882,17.809834175048092,0.26557669243019744,0.302746603571473,0.11117443312677242,0.10341436389964517,0.40994997415578294,0.3737576506474206,-0.6134941971745521,0.16728938846959285,-0.7569515215908343,0.15542477630505794,-212.70500464968694,37.14851348570947,97.84363993109372,0.8129194149271983,0.10285949290028816,0.5204361644078748,0.7255946257627776,1.616638996669469,0.7105541931065001,-0.40209404463766263,0.6267133574376349,-0.6665744622714068,0.05443261171700762,-101.55609331326583,36.10084914179199,152.28449484723058,0.7578671487079847,0.2082595373749581,0.11580429642615961,1.3780633756913192,1.1260916357664021,1.231280056918547,0.5255966464883279,0.7616039956489539,0.015339518481597885,0.37696878309520854
1.06,-163.67409903486984,74.59919567950807,165.7647854694379,0.07129548470560726,0.05278084960385295,0.0843420054636746,0.23916009998436485,0.36628790544727385,0.31340664266494495,0.035516497465285284,0.7889163908564271,-0.013363929302892878,0.6109109626922575,-171.17370648008023,78.81701771993342,16.660989330718238,0.25125797538366573,0.27460149419228685,0.10954975269043495,0.1044863390372604,0.4326303351673695,0.381089694482289,-0.6171239681336498,0.16057035632205358,-0.7560853279554812,0.1508111994491968,-211.61948419295604,37.75980894229453,98.70976618501679,0.7515622654115385,0.10105376514424047,0.4961682723560049,0.6775955231969099,1.5082549352680146,0.7075107359010996,-0.3986802986417765,0.6333198058083381,-0.6613124096746166,0.067664088481474,-102.16802691286227,36.40359802815774,151.42911347496823,0.7886098632863988,0.24394024455850166,0.11161191116021817,1.3438028060347251,1.249967475365407,1.2025883087249012,0.5177518375596444,0.7640504900931616,0.009412405424880645,0.38276875618628486
1.07,-163.63387384281944,74.59771807063333,166.0138567204098,0.06701320994992392,0.05587231932855455,0.08653435331216043,0.23624052093324419,0.3659858624396193,0.3182933825297634,0.037104603908839996,0.7888567601911434,-0.011648414568941222,0.6108825261035314,-170.98842649618666,79.15815731088173,15.607737185606847,0.2351874550015514,0.24806112142614534,0.10580378424982255,0.11046520821086231,0.45218850620814766,0.38412164214096095,-0.6203268719518323,0.15435048234962293,-0.755183262919379,0.14650488424067692,-210.53942347935032,38.354050057936966,99.51327636916034,0.6939208688374868,0.10169158247921185,0.47306049590512006,0.6289666729068276,1.3754476743052166,0.7152022441717348,-0.39505215590922077,0.6395461469875263,-0.6561021516533988,0.08049632038075373,-102.75274747291003,36.72941199924917,150.5408092743267,0.8066971509442509,0.27994856684748287,0.11570015493100362,1.2857866553716766,1.366437734709032,1.162411901449592,0.5098477220918068,0.7662455835890926,0.0033488352639573114,0.38877956186959245
1.08,-163.64122569735883,74.58489387379655,166.226512691737,0.06751470231690646,0.059326979007647926,0.08748494852135662,0.2297680264804382,0.3630451332357318,0.32155896279800883,0.03826016172054896,0.7889410125506503,-0.010410643187881088,0.6107432814714078,-170.8259803645445,79.46179613782121,14.660216981608386,0.218118252574925,0.22291523680684075,0.1000372443371344,0.12035601111243222,0.4679417505874769,0.38269936670625454,-0.6231117526602759,0.148677943432253,-0.754277902363142,0.1425559051920377,-209.46598960274383,38.93245389900825,100.25817666589249,0.6407704550193161,0.10464982263429617,0.45238357481079167,0.5828066413968335,1.2275094217019789,0.73217264444294,-0.3912394612370643,0.6454153325120905,-0.6509396519663149,0.09293981731880097,-103.31364439600559,37.07808526764959,149.63350625128425,0.8120973823400646,0.3142777669684939,0.12724821880709816,1.208615728166271,1.4694182507411913,1.1143811885686787,0.5019004307705902,0.7682206905543753,-0.0027775800351110985,0.3949286527833714
1.09,-163.6923870387076,74.55997547399181,166.39968537572415,0.07239113355047608,0.06289096144094661,0.08719277900077636,0.22010703772179563,0.35870462564934197,0.32339100668094284,0.03899614644915454,0.7891765672410125,-0.009640403553688576,0.6104861831861182,-170.69036701036808,79.72740077648373,13.828456788662269,0.20093785705858763,0.19911633804588125,0.09249791043164254,0.13311077044145847,0.47926255765903053,0.3769557695836112,-0.6254944869316398,0.14360552250472808,-0.7534057755250818,0.13901375407620684,-208.4006874776748,39.49651491071438,100.948141277657,0.5926874004839393,0.10964588576356744,0.4348720050898471,0.5418186396130273,1.0743974153391778,0.756325691269121,-0.3872737166470827,0.6509442434575146,-0.6458284678177195,0.1050034180088314,-103.85622158231367,37.44946174736749,148.72064565332812,0.8055488466655758,0.34506529164583083,0.14494312309092064,1.1175840319628736,1.5535900170115926,1.0623803205689921,0.49391112367183776,0.7700211704354165,-0.0088934171749503,0.40114651956901237
1.1,-163.78209804417716,74.52236898467866,166.5316119771778,0.08092660398328079,0.06635019131243397,0.08576104944028869,0.20791401490354805,0.35420525564220656,0.3239233741957172,0.03933909121464822,0.7895673855051822,-0.009313966403530912,0.6101059720086451,-170.58546516461777,79.9548263177328,13.122468745777248,0.18459353657782931,0.1768040507874681,0.08356893325949237,0.14766837359718865,0.4856055717056641,0.3673507111582148,-0.6274961817284456,0.13919115009018743,-0.7526025383515887,0.1359280637217422,-207.3454463772697,40.047635106186256,101.58652991805899,0.5499994319531458,0.1162836574603783,0.42072968985531967,0.5081282614595666,0.9257277908078926,0.7850788431768855,-0.3831869845191041,0.6561444363915779,-0.6407789255724862,0.1166923932720132,-104.38757196853778,37.842977537554084,147.8145062604782,0.7884287051227734,0.3706940806139811,0.1670975824687716,1.0181872446199782,1.6147926700075914,1.0101373268016103,0.48586866773395476,0.7717011914555432,-0.014932129311499986,0.4073666741959304
1.11,-163.90373312769827,74.4717576337291,166.6221258440276,0.09215770761471459,0.06954508443594991,0.08337860847987273,0.1940479002220598,0.35057358687226003,0.32321034251310204,0.03932903833882573,0.7901125982115071,-0.009393356682886135,0.6096009682478515,-170.5148134068738,80.14435101321641,12.552250745890385,0.1700018286556165,0.15630485877272401,0.07374202953447748,0.16299157092969532,0.48657089420975036,0.3546707241927891,-0.6291406557686574,0.1354976865417206,-0.751898309869293,0.13334890429639792,-206.30260422459278,40.58685602576717,102.17645238958433,0.5127619539676199,0.12409861671891947,0.40969764305146483,0.48317027798415496,0.7898726655783331,0.8155710735752473,-0.3790107138905622,0.6610235327074524,-0.6358065726735109,0.12800788646397324,-104.91577888275317,38.25727030159842,146.92559712121908,0.7625917978319339,0.3898805910361635,0.19179870144237748,0.9157071034685336,1.6503799389592475,0.9608843189025321,0.47775306631571335,0.7733180015941041,-0.020840367293599348,0.41352608650418443
1.12,-164.04953359978342,74.40819924857306,166.67285311412473,0.10495029280076315,0.07237727439443534,0.08028960835179048,0.17945990059026568,0.3484642622260865,0.32123060644272017,0.03901858364202083,0.7908051146957507,-0.009826670872455156,0.6089747265207333,-170.48135582786526,80.29665607028117,12.127686749526296,0.1579526637668442,0.13810729432203597,0.06357709594057331,0.17810166305039873,0.4819951477226497,0.3399824003167284,-0.6304513533417169,0.1325919092884378,-0.7513138219905866,0.13132661200947437,-205.27481062303917,41.11470458922705,102.72086604708062,0.48076235569717074,0.1325960436882625,0.40116789275865905,0.4676537415204818,0.6732674008877764,0.8449146123784683,-0.37477465217656875,0.6655870103941603,-0.6309301604437983,0.1389474854402717,-105.44930554772387,38.68989407946519,146.06218020874283,0.7301957241610306,0.4017449248314969,0.21707451624393057,0.8149114120571336,1.6594701166999188,0.9171360200652781,0.46953921773282187,0.774926340990296,-0.026583284088738265,0.4195660015893939
1.13,-164.21095318923233,74.33218750485638,166.68727035712934,0.11808921322330862,0.0748075212733365,0.07675912791104636,0.16508079796935032,0.3480825098103126,0.31791987020905454,0.0384708858218568,0.7916304868281334,-0.010549704326483406,0.6082372681772519,-170.487169028732,80.4127447616664,11.858342878267607,0.14902153950575883,0.122816973178438,0.053652789277013745,0.19211224957635734,0.47205060090764267,0.32454338549338996,-0.6314479620492852,0.13054272009682155,-0.7508578276395156,0.12991116781788076,-204.26488376476448,41.63114613276181,103.22268776540945,0.4535511885143195,0.14128045478290963,0.3943262037198196,0.46160319818571727,0.5799946035029971,0.870463918158458,-0.3705060358328718,0.6698400950492289,-0.626169464584224,0.14950650877094337,-105.99644118803663,39.13716615738658,145.22996875984686,0.6935265731592873,0.40585780575374164,0.24106132624982965,0.7198811838991515,1.6430242754817337,0.8806020425525843,0.46120052945497936,0.7765737359530263,-0.032148287671730794,0.42543295301790396
1.14,-164.37911009036068,74.24467099754551,166.67059688444766,0.13037602383816996,0.07684556349538603,0.07304285560433216,0.15172356836808815,0.34918800597299704,0.31322550758330614,0.037756611686032844,0.79256633081695,-0.011488908856818237,0.6074056091828722,-170.5331907322121,80.4938053390797,11.753158016521063,0.14350368039319814,0.1110977422510682,0.04451467287853556,0.20426239604969748,0.45732557726890455,0.30968095117855926,-0.6321431495833256,0.12941863176979407,-0.7505259741992995,0.12915117252042432,-203.27565659470235,42.13562532150693,103.68490352264944,0.4304969992125921,0.14967635414835426,0.38830182329646074,0.4644613773958613,0.5116726981795948,0.8900616519093673,-0.36622919693967776,0.6737894981928938,-0.6215431949471919,0.15967956225861027,-106.56486218893131,39.59415473972426,144.43202919838808,0.6548373462006937,0.40225759405851624,0.26215267363135264,0.6339528370984986,1.603713247728396,0.852207351815856,0.4527120005141987,0.77829725275419,-0.03754686566865904,0.4310797232095333
1.15,-164.5453235185057,74.14702920418218,166.62951283076828,0.1407272541479541,0.07853412859012322,0.069366201994849,0.1400150910698134,0.351167246623696,0.3071699784180726,0.0369498860903656,0.7935825831883758,-0.01256550511377886,0.6065033537539879,-170.6189746050419,80.54103393152549,11.820028877116616,0.14138110827168265,0.10360525462402424,0.036628050887493,0.21394737789458868,0.43885602956161696,0.2966525552519511,-0.6325399201109546,0.1292846415243091,-0.7503011491047687,0.1290924409291581,-202.30984263979747,42.6271662424719,104.11066470667241,0.41085960567158714,0.15734125228643212,0.38229929752365427,0.4752326191412868,0.4676390616935374,0.9022172634752088,-0.3619656073671269,0.6774448692695677,-0.6170671308724367,0.16946201147936288,-107.16133524211244,40.054797564539584,143.6688944252225,0.6162077926978028,0.39143227783225537,0.2791128584377317,0.5597452570664444,1.5455773512339792,0.8321744069491459,0.44405258684249727,0.7801219897774452,-0.04281426150284583,0.43646599337803554
1.16,-164.70169546375175,74.04100893872464,166.57171029562375,0.14826321116690436,0.07993013834435296,0.06591489279746401,0.13036506901516542,0.35315565491263223,0.29990318503898206,0.036123438698357276,0.7946427725897534,-0.013700451982296668,0.6055592389955113,-170.74249919293894,80.55544452722339,12.065291833688951,0.1423274071117476,0.10091853965226226,0.030341485625113396,0.22074351505107803,0.41808179105814125,0.28650719464512864,-0.6326300732229191,0.13019862095233004,-0.7501551586741299,0.12977618837450813,-201.36994525342362,43.10449750006645,104.5033657991179,0.3938741014691808,0.1638735443801385,0.3756919677201207,0.4926473105858974,0.4453798561694404,0.9061883221382524,-0.35773426983473666,0.6808199342664191,-0.6127525440626914,0.17885112573538958,-107.79154646337169,40.512129350042734,142.93887811321707,0.5794304579711197,0.37426675515706925,0.2911442063497805,0.4992297661228404,1.4735252393125797,0.8201284192296565,0.4352069096917917,0.7820612301252583,-0.04800691957844662,0.4415584827558286
1.17,-164.84168072694516,73.92862878891133,166.50530327550226,0.15237636805565094,0.08108634833850867,0.06283656685077751,0.12297402637475871,0.3541901168113899,0.2917236904619074,0.03534330749634699,0.795706316815851,-0.014819870042684844,0.6046046998364933,-170.90005902134746,80.537700548774,12.4931105355463,0.14574795921328812,0.10347421544398817,0.025864661301080543,0.22442344089475905,0.39671697266402106,0.2799677558119433,-0.6323941325299409,0.1322073503249265,-0.7500515022019707,0.13123676110782273,-200.45822320271333,43.56617029418853,104.86669955421543,0.3788353680361448,0.16891968345634642,0.36806811814562235,0.5153301422173452,0.441124634735694,0.9019633311632245,-0.35355231481679655,0.6839333368062163,-0.6086049814634071,0.18784673397871066,-108.46000847259951,40.958590745624214,142.23856286499796,0.5459246537431688,0.35196097719165376,0.29790517680412243,0.45379874136857085,1.3927542810673899,0.815207010033052,0.42616653782981,0.7841178753321646,-0.05319777955681512,0.4463304936018455
1.18,-164.96057368194082,73.81206284421633,166.43814483240322,0.15277075459375272,0.08203643442178069,0.06025075889920603,0.11787531012613246,0.3533724016269666,0.2830576665353614,0.03466366021444678,0.7967316220163111,-0.015860382963164023,0.6036707578990275,-171.08626150916533,80.48800381981266,13.104792262690964,0.15084820367956567,0.1115071215006054,0.023261594107648675,0.2249589936023871,0.37654991547888544,0.277350795994501,-0.6318029243941614,0.13534232343694863,-0.7499489395777789,0.1334988852224072,-199.57671073473585,44.01064766215078,105.2046834352988,0.36517131286319293,0.17218513345150604,0.35923217138487634,0.5419527121499336,0.450500689276314,0.8901694209886087,-0.3494356749841649,0.6868091796619324,-0.6046235308701704,0.19645130527947627,-109.16999322770815,41.38638878667203,141.5634168791618,0.516678807773763,0.3259272523203364,0.2994834303358617,0.42429966271602615,1.308195218292765,0.8161689349827168,0.41693107378500543,0.7862866109877765,-0.058469729298631326,0.45076091693951453
