0.01,-148.46179643593254,43.15649420861283,166.40151161137362,0.41028052179187324,0.11295958500003965,0.11993653078076771,0.6820958567630759,0.07326558265652515,1.1196556314027977,0.21041021174293723,0.899748743890325,-0.0096360850451187,0.38011672304969846,-98.46437140408925,28.416133503059346,177.18337316793853,0.4807327534190548,0.46640006081335106,0.08889319565449691,1.5302296157922743,0.774771627992379,2.1127713292530683,0.6298157749750406,0.739880032423241,0.14007160373686434,0.20019528714064433,-177.8301184720252,5.172040621278036,2.6264660488799443,0.1780943731960774,0.1713067757478933,0.14991009299643274,0.17464524410033613,0.34035960209407695,0.794112546389228,-0.04051349127001437,0.020038549757383062,-0.9999123458817661,0.019957625051921887,-137.16773640417668,34.27436332546008,36.15871583742224,0.5959378568802086,0.2901288974627072,0.4287235691313447,0.7673581880133952,1.2906813390006315,1.5994654980188923,-0.1501940726948533,0.38080572103590654,-0.808475140983215,0.42078779482826484
0.02,-147.84999336981645,43.44747312113549,166.7722271955323,0.38436607910485504,0.18174449542094034,0.11685001597758293,0.7756456220209429,0.15335048043612773,1.0657775261173008,0.21582594591178986,0.8977249648509051,-0.0034112104636456744,0.38156189751163827,-98.37150549629152,29.13850881010602,176.68818151476543,0.43455934140113633,0.4707126737045898,0.08313774337892763,1.360127971206573,0.7582168435518335,1.8930342145216599,0.6278214514348279,0.7381699155587814,0.14181793269330256,0.20744396107836943,-177.86837091496557,5.0790431431081435,2.285955660308294,0.20552327955439004,0.154585313645883,0.14318993292614202,0.26057706872462494,0.4386285295700476,0.8910183771246777,-0.040298063234501524,0.017714866424342522,-0.999880300973676,0.0198410959467521,-136.79891605287736,34.75034287016748,36.828669078138134,0.5953910919504376,0.2914610005118747,0.4095897027343205,0.7158484978114017,1.1345210768374712,1.5085056807416843,-0.14999737342741815,0.38653860102691284,-0.8042753579573427,0.4240365499064217
0.03,-147.23435443177132,43.75281833827596,167.1336097483447,0.3577926068183494,0.24895627240253893,0.1144419020172719,0.8595205893077681,0.22766180040543343,1.0098793088372404,0.22120897001918002,0.8956342386575856,0.0027885339018720624,0.3831296522157286,-98.28156290578221,29.84333981140942,176.20419327448718,0.3888532993653068,0.47191808903596727,0.07783439826537078,1.1965183598382743,0.7389380716175016,1.679595786641226,0.6258802799771489,0.7364955520626362,0.14348878454927802,0.21451712034772072,-177.90096069011997,4.985862112356488,1.951433595112453,0.23490863773925624,0.1380215187361843,0.13789435902077377,0.3413825592315943,0.5303942263144392,0.9810410295209633,-0.040055778615547454,0.015417749703894215,-0.9998531989147837,0.01976643252165587,-136.4396247130748,35.20971083345227,37.482544619114265,0.5945244508639139,0.29395517494254947,0.39189145768956674,0.6674115329163925,0.9840507502697952,1.4154809910013073,-0.14980691626199633,0.39215290741582925,-0.8001895611997683,0.42722467869752556
0.04,-146.60656614804955,44.08921145169428,167.48103001770377,0.33029799225066,0.3124135156309231,0.11323984349154115,0.9255740279070617,0.2925930638282478,0.9526386208707799,0.22657584288803423,0.893397369057768,0.008998184967268608,0.3849477506614618,-98.1997010084893,30.517422684208405,175.74154453019284,0.34410068745409417,0.46778416718134075,0.07348158267120765,1.0452622374601872,0.7155255820194895,1.4782246177155505,0.6240097167990741,0.734910653946099,0.14503228208753013,0.2212827566194115,-177.92693225954625,4.896868888070734,1.6379535640442024,0.2664583512141056,0.12243409228848914,0.1348020315275128,0.4133314673931966,0.6097335543534532,1.0575370381750073,-0.03979612729724009,0.01325570897887052,-0.9998354267972408,0.0197336195084485,-136.08478550496542,35.660822411163515,38.120855101269306,0.5929873894121481,0.29907643512961013,0.3769999548642884,0.6243334674064588,0.8443874012116016,1.3193748073114808,-0.14967251521736905,0.39769334990281463,-0.7961034031949974,0.4304379549313989
0.05,-145.96074020122708,44.47018882401038,167.81079867281002,0.30183074522831077,0.3700144380022079,0.11371523978349321,0.967520276692456,0.34556794699047705,0.8950509327596361,0.23193213433659332,0.8909521344389886,0.015245314041388354,0.3871180630191765,-98.13076710725574,31.149373827776397,175.30921507245517,0.3008380189402304,0.4567458430652592,0.07046285987304574,0.9108226689978612,0.6872855316590905,1.2937470761000385,0.6222228326814611,0.7334680690979437,0.14640737349870342,0.22762786923190748,-177.94621290982212,4.816160951393759,1.3612391690284804,0.29996410855724076,0.10862934605607165,0.13450898195926966,0.4734348832625466,0.6724211625581168,1.114910644321882,-0.03953175469546833,0.011347385604230278,-0.9998315132487484,0.019735091349123997,-135.72857418136076,36.113839261036446,38.745689251626025,0.5905851057503598,0.30820171738947705,0.3661488650413832,0.5883419596311713,0.7199855978838148,1.2196552410766954,-0.14964305325192467,0.40321398339927444,-0.7918945295037747,0.4337642066518192
0.06,-145.29433064220754,44.90487266398184,168.12044243423514,0.2726002698514216,0.419861955214024,0.11625046179553362,0.9815206563103327,0.38530311122396005,0.8384078830705133,0.2372685884919544,0.888259246820447,0.02154528466857162,0.38970671849252847,-98.07906483641669,31.730339981432568,174.9145583832715,0.259657175160154,0.4381135104409675,0.06899923518873345,0.7958553676416148,0.6543530106669448,1.1296744190864654,0.6205276702034228,0.7322168260480405,0.14758722255075576,0.23346460229052815,-177.95980496009412,4.747455933021653,1.137121281555521,0.3347665973153879,0.09736386148100779,0.13738868055863748,0.5196795583271994,0.7163362439786105,1.1490479227304997,-0.039280168620397925,0.009818039217758822,-0.999845656815385,0.019755086006589633,-135.36460920677547,36.58056494976861,39.3607858825145,0.5873078192321182,0.32253999492524527,0.3603704050976634,0.560430747740838,0.6143742896701594,1.1164204366108395,-0.14976381773809433,0.40877582481223596,-0.7874360540042507,0.4372891528677297
0.07,-144.6085384337608,45.39718854632896,168.40889738626058,0.24308790812461314,0.46039905228828604,0.12109836604065354,0.9664546395115989,0.4119171530260232,0.7842723410591506,0.2425605018769196,0.8853055915155557,0.027898367519324008,0.39273839479366623,-98.04814463800203,32.25453237092704,174.56295488754387,0.22118560900465056,0.41216261634739065,0.06912673835435292,0.7010798732319756,0.6176794334284833,0.9879490299684311,0.6189268075349479,0.7311989573607113,0.14856130330480158,0.23873439232970212,-177.96990684808534,4.694073472225247,0.9806980770828859,0.36978215407312826,0.0893171331309764,0.14356603017594816,0.5511259164570894,0.7414752928859886,1.1576200129374858,-0.0390651493183702,0.008792970729739748,-0.9998811598855025,0.01976958738257713,-134.9861332584532,37.07416466769262,39.97149712517333,0.5833257564785764,0.34304802290871866,0.36043934215914974,0.5407688115961702,0.5299581306177182,1.0104933467816415,-0.1500739437836684,0.4144444765735313,-0.7825997043663662,0.44109319749726583
0.08,-143.90817439029342,45.94564866765881,168.67658590144842,0.21401590600338563,0.4905396783429692,0.12834262359903204,0.9238667883565578,0.42687286129045365,0.7344384488120016,0.24777019819811572,0.8821044920109209,0.03428898806249925,0.3961953337036421,-98.0406311596411,32.71953991005562,174.25761225116798,0.186043799413224,0.3801010511355077,0.0707015962180151,0.6254199988201028,0.5789149386824102,0.8688621577477842,0.6174171912932687,0.7304464506045713,0.14933593912565377,0.2434098918349439,-177.97992565178458,4.659001759765506,0.9052499176708525,0.4035827004055715,0.08507325901100281,0.1529095556687626,0.5678794887457245,0.7496362059097236,1.1402387509752434,-0.038917638401265074,0.008388076089281993,-0.9999398035510972,0.01974700638205066,-134.58621006219929,37.608734091981425,40.58462222609534,0.5789496041493299,0.37035033361087183,0.3668243181281485,0.5287020402348737,0.4679043742812245,0.9034451573102267,-0.150604084227781,0.4202875746705389,-0.7772589239392391,0.44524898592837553
0.09,-143.20103313123673,46.54371996208247,168.92535873638212,0.18627889779547835,0.5097756683243625,0.13786965421209918,0.8576261542685901,0.4327605458647011,0.6908642250002314,0.2528519558241986,0.8786930365366947,0.040687159044311236,0.40002105969905405,-98.05810060008808,33.12639773466581,173.99952036119743,0.15478762553106679,0.3439269007799967,0.0734304817641701,0.5663596389534761,0.5402181804640007,0.7711713753243601,0.6159902130333846,0.729978673414289,0.14993326260672046,0.2474946891990402,-177.994350222837,4.645031672493416,0.9210057375825191,0.4345146751699854,0.0851084744931277,0.1650446747061589,0.5709731524002244,0.7438927531943686,1.0984498955496655,-0.038875928309310935,0.008698413217400286,-1.00002121408763,0.01964974427007844,-134.1579636937317,38.198698020250355,41.20810898496203,0.5745627486780339,0.404673471658756,0.379648278794448,0.5228431921239101,0.4281257306466524,0.7975305402077996,-0.15137444632850605,0.4263718853638166,-0.7712922712887237,0.44981938537239585
0.1,-142.49690122730823,47.1807277583427,169.15830277089768,0.16084735748069745,0.5182398039023381,0.14936059714130345,0.7733656224722847,0.43295114430233833,0.6555666186691042,0.25775835263124264,0.8751268116463433,0.04705188142599648,0.40412815914260086,-98.10101802153191,33.47941053492493,173.78755346353296,0.12784667348327314,0.3062011701820668,0.07691900734271281,0.5204372633312087,0.504018948688801,0.6924050084363227,0.6146319727825187,0.7298005176659365,0.15038880221857862,0.251021081403665,-178.01847275534595,4.6549285806243565,1.0339097300547213,0.4608435636694969,0.08978001975879023,0.17938779894217016,0.5622065674881318,0.7279887633937359,1.035553868820488,-0.0389850429528976,0.009786242038179854,-1.0001222852726552,0.019436696753794273,-133.6948808239245,38.85804356021639,41.850637346970736,0.570537554029818,0.44580331582474986,0.3986624994166944,0.5212390748561756,0.40935785076682624,0.6955265913752431,-0.15239334022569873,0.43275998401705357,-0.7645873885043917,0.45485554356009494
0.11,-141.8063734407064,47.84317691493891,169.37943089872843,0.13865562588974376,0.5167110280031323,0.16230696825753776,0.677790614486279,0.43116356181544985,0.6304702241114089,0.2624467736282849,0.8714727417059973,0.053335976573549417,0.408408972136915,-98.16873862959552,33.785753240406024,173.6187005846247,0.1054707243863716,0.2697697709321303,0.08072873403603456,0.48379588776471777,0.47275036638289236,0.6292981632280014,0.6133237411047879,0.7299013954547391,0.15074806300825905,0.25404630746462453,-178.05797320298925,4.6916032947822455,1.244563612122579,0.4809144448908359,0.09931193029002294,0.19519775523289,0.5439788042071689,0.7057637193890202,0.9562600772075688,-0.039295287833276966,0.011670283551060895,-1.0002367305469277,0.019066562800020427,-133.19118204841837,39.59942159974586,42.521116975831234,0.567151295671123,0.49307185009690463,0.4232405256623366,0.5215999219820548,0.4093190819078247,0.6004814354920684,-0.15365635485594537,0.43950662673449253,-0.7570455967843429,0.46039478765972613
0.12,-141.13966981175412,48.51631826144477,169.5932830950412,0.1204894959903419,0.5065594829800253,0.17604921331221154,0.5779572457369081,0.4309985911619076,0.6172031236592493,0.2668848401380544,0.8678010394457353,0.05949155157376392,0.41274775709121814,-98.25956966355224,34.05489373089205,173.48839801229906,0.08769568222931487,0.23747438285399225,0.08443233728248611,0.45271064177740816,0.4485708300209088,0.5782776202996184,0.6120427383207542,0.730255149944068,0.15106255346937197,0.25664769643962515,-178.11840915532898,4.758241040334861,1.547512599008235,0.4933208212987962,0.1137751723651485,0.211639682153278,0.5191291794833778,0.6806908456589984,0.8662069630217907,-0.03986004669230099,0.014317849908436526,-1.0003548429192104,0.018501578342974563,-132.64224855673183,40.43318016300253,43.228145252294425,0.5645169660893573,0.5453772023782136,0.4523990813852127,0.5215684429127957,0.424929988683958,0.5153979921134185,-0.15514619581154848,0.44665509777778944,-0.7485868733013684,0.46645831191242126
0.13,-140.50562561665916,49.185764293878975,169.80447858551392,0.10688872498098571,0.48964186264888454,0.18983418760214527,0.48061125527872683,0.43549414270671527,0.6168440449298374,0.27105380219260505,0.8641773848456282,0.06547523747049645,0.41703285815090535,-98.37088349512776,34.297900764470924,173.3909330227704,0.07433633391576144,0.21188917898253157,0.08765850992452359,0.42402956262946523,0.43310716718761166,0.5359107170843223,0.6107633809362347,0.7308209175382454,0.15138573146672174,0.2589171568431144,-178.20467706051798,4.858351607013914,1.9310037141827157,0.49707139188602334,0.13306321576532687,0.22785729690182357,0.490780669847976,0.6555740677841133,0.771406492640885,-0.040733000210297444,0.017641088905932297,-1.0004635364918395,0.017711120524745348,-132.04506786260615,41.366420119770524,43.97948199488334,0.5625404282225395,0.6012386284091703,0.4848517042069172,0.5189948602952034,0.45256435706969633,0.4428980094320571,-0.1568330912224511,0.4542339273198504,-0.7391546809419834,0.47304882754268657
0.14,-139.9109728253557,49.838970395765074,170.0172671317933,0.09807731051694916,0.4681656955473519,0.20288482626794935,0.39165297554864087,0.44675432179258806,0.629648621980515,0.2749494263394643,0.8606563069510739,0.0712525007675526,0.4211676113629865,-98.49927013825435,34.52671026614658,173.31988531125833,0.0650071294461688,0.19511045249090575,0.09012202731103021,0.3954812838801048,0.4272565862007475,0.4992546397508834,0.6094590391240586,0.7315449703529128,0.1517693122161654,0.26095538084565795,-178.32052375229748,4.995715621983327,2.3772845196724446,0.4917384939753374,0.15686893025512538,0.24305008903801623,0.46216787057817604,0.632414281503986,0.6776872145107873,-0.04196502466123243,0.021498038128090896,-1.0005467298595911,0.0166745901273888,-131.39864189001116,42.40218290985033,44.78160155199064,0.5609101477522068,0.6588857123608945,0.5190965422523669,0.5121782641079802,0.4883061091518089,0.38492183496099425,-0.1586755513696189,0.4622544266636283,-0.7287199633511927,0.480148566201276
0.15,-139.3599647508615,50.46643870315267,170.23512840679248,0.09392982098866422,0.44454184728858004,0.21447257444299983,0.31576179252684605,0.4656964277817526,0.6548096382656171,0.2785804402932787,0.8572764097398226,0.07680061306250101,0.42507907080183893,-98.64071894656144,34.75342090174287,173.2685716623169,0.059165708394201426,0.18861388615040756,0.09163856721564068,0.36582416514187394,0.431080205115838,0.46607494044121184,0.6081041560157568,0.7323635528699338,0.15226030994628872,0.26286610149092987,-178.46818598465194,5.1742204827743645,2.863444384838145,0.4775669014827327,0.1846724982963748,0.2565505479505438,0.4364317560672196,0.6124210292619007,0.590206426898448,-0.043601074064839436,0.025698642323147627,-1.0005861073898654,0.015383062290787756,-130.70428795547465,43.53888625605049,45.63938178065494,0.5591208747101692,0.7163774796290099,0.5535331861203441,0.5000411147046199,0.5281953954578992,0.34251435227680804,-0.1606212428288523,0.4707095018501817,-0.7172836053686251,0.4877181891684716
0.16,-138.85433346836064,51.06255537305335,170.46046010307737,0.0939770269318456,0.4212391915027685,0.22398189221147988,0.2561855114649703,0.49194570842909136,0.6903183460295204,0.28196501365931304,0.8540576917819879,0.08211015012136663,0.42872400373326913,-98.79082255082177,34.989676371456284,173.23046096873884,0.05616953817322581,0.19318367259457944,0.0921267323356249,0.33483511791029136,0.4438082766548778,0.4349308656300363,0.6066764079843376,0.7332066797869167,0.15289907633075558,0.2647507420818632,-178.64821747815483,5.397600877479106,3.3627411043662896,0.455521985055974,0.21575034434322418,0.26789316583228306,0.4163771183283744,0.5961213988461929,0.5130805013324565,-0.04567733638633387,0.030015391297411844,-1.0005622594855896,0.013839366040610205,-129.96576245240826,44.77011247570729,46.555982062860444,0.5565287147398724,0.771742519910935,0.5865969999552489,0.48222011259247083,0.5684539540273014,0.3157298990012333,-0.16260784219254332,0.4795741660911338,-0.7048767493711947,0.49569720749708573
0.17,-138.3935217640135,51.626023283502214,170.69438111714817,0.09744933783449702,0.4006479219478338,0.23095777133118464,0.21468039393809313,0.5238905694554516,0.732981584978974,0.28512603471759795,0.8510008909776065,0.08718511349574307,0.4320919150925665,-98.94499807274882,35.24617123547229,173.19953184567228,0.05533525065831284,0.20890957570530294,0.0916007864785478,0.3031612388102491,0.46396005568201,0.4051445485763879,0.6051585141617882,0.734002763177821,0.1537184523476782,0.26670378742544804,-178.85952937412858,5.669117089801297,3.8463091006816805,0.42726288505362625,0.24921097029366068,0.27686386049129974,0.4042104466643371,0.5835122390352443,0.44915369961149226,-0.04821887948711229,0.03419778092537462,-1.0004561586079237,0.012056505742910747,-129.1891506418825,46.08482208621553,47.53294642151735,0.5524313590376919,0.8231269940037736,0.616895201342052,0.45907486300565886,0.6056799729289101,0.3036670283320686,-0.16456389358901272,0.48880803475477014,-0.6915585086014948,0.5040064157828905
0.18,-137.97510075663914,52.15989240613633,170.9366617469836,0.10335226013376524,0.3849527367309273,0.23513131334292867,0.1915771880292109,0.5588929312055568,0.778618435563611,0.2880861134591502,0.8480885946225815,0.09204191698534793,0.4352051013129608,-99.09872027959013,35.53229442119994,173.17055383185118,0.0559928872086626,0.23524179222605054,0.09015754087929759,0.27207748458809905,0.4895608313899854,0.37668474792889545,0.6035393593189854,0.7346837750649585,0.15474396417124778,0.2688091227810703,-179.09962880801314,5.991215054079862,4.285113891512548,0.39503685419526113,0.2840566079808407,0.2835184082073481,0.40129592705899764,0.5742134994300402,0.39990297389248547,-0.05123790921418714,0.037989424483735774,-1.0002508768913445,0.01005466449654112,-128.3824942435959,47.46801360576956,48.570539932343394,0.5461634841605183,0.8689352743112331,0.6433277116263659,0.4316300223267257,0.6370000693712299,0.3046232525137482,-0.16640978672195758,0.4983598186594097,-0.6774108408170836,0.5125525625423643
0.19,-137.59527208279067,52.67121849747079,171.18578163148257,0.11056454734144362,0.3760165721494822,0.23642310818723994,0.1859442241454299,0.593630242659408,0.8224241970995007,0.2908632672207691,0.84528775122072,0.09670757087368911,0.4381159216007323,-99.24775962410641,35.85590512566239,173.13928337803495,0.05753120206017767,0.27108925827060953,0.08796013990409277,0.24320196221905324,0.5184175039386584,0.350004285802577,0.601814257989972,0.7351904451022191,0.15599478549611992,0.27113744126332506,-179.36500342251435,6.365214583500093,4.652001348384711,0.36150247542907055,0.3192628046809337,0.28816313061743004,0.40797568906022896,0.5675996625396734,0.3654658190139504,-0.0547327210250129,0.04114642117261763,-0.999933398159366,0.007857372230950944,-127.55516922243785,48.901784731146,49.66828740033968,0.5371943335333801,0.9079490899930656,0.6651773112731821,0.40147425479324717,0.6601678605591506,0.3163420811623919,-0.1680589370523791,0.5081734215469419,-0.6625306826765872,0.5212350608483981
0.2,-137.2493605074591,53.170400908716935,171.43910695760283,0.11794747434002066,0.3752782637015522,0.23492754687327805,0.19581707904060136,0.6245274786522973,0.8594594238815063,0.2934680687268508,0.8425531576929361,0.10121742801963295,0.44090163096470025,-99.38841619842113,36.22322349690103,173.10257453047055,0.05943278214723183,0.31494502566150934,0.08522038947438541,0.2182158803503696,0.5483980317049888,0.3258683660589726,0.5999843870468718,0.7354768191406084,0.15748502328021763,0.2737447005792789,-179.6515774335723,6.79106835708208,4.923688149051431,0.3295000187840337,0.35386398187227863,0.2912994556044348,0.42349438409291207,0.5629027593450694,0.3447768965118765,-0.05868745375526812,0.043455565323149314,-0.9994963284070587,0.005487665877947204,-126.71707284746442,50.36668304800648,50.825640641639424,0.5252135382762803,0.9394152803810877,0.6821571678528264,0.37063943544271644,0.6736079282424318,0.33631181695759904,-0.1694191352970449,0.5181947627093644,-0.6470199017596475,0.5299540867972148
0.21,-136.93222787309597,53.67026509124848,171.6931680660273,0.12445302744257812,0.3836700547177276,0.23088277163401874,0.21846518224714678,0.648220384534867,0.8852007655276438,0.2959026797819148,0.8398314909873864,0.105612798645089,0.4436572645750185,-99.51773906530391,36.638813908492374,173.05840976797705,0.06129806485705243,0.36502257675732713,0.0821802889311783,0.19862372284202764,0.5776565715313067,0.30519766642088536,0.5980555464899066,0.7355134782793836,0.15922485455169041,0.27667156487281913,-179.9551618912059,7.267226728566078,5.082548568533718,0.3017949696260117,0.3870321045490831,0.29354246341102946,0.4460509846421348,0.5592899943284502,0.33579786927583716,-0.06307277593832036,0.04475109233621698,-0.9989392724790954,0.0029651043382717666,-125.87772078107393,51.84318351413882,52.04266889005003,0.5101929142237334,0.9630978286101943,0.6944087774128412,0.341477945133627,0.6764169474587307,0.36207055411891487,-0.17039395045881917,0.5283780712028981,-0.6309741188961833,0.5386190507915705
0.22,-136.63857612013175,54.184966004235214,171.94400642847145,0.1292196089931209,0.40156161842082444,0.22463156404004495,0.2506699654409345,0.6619807839302296,0.896077580475537,0.29816176517027726,0.8370655251455675,0.10993858439760153,0.44648720041631906,-99.63371972390398,37.10563995668034,173.005858764311,0.06285674578230134,0.41938969942928417,0.07909306593383944,0.18557653942537183,0.6047600911057112,0.2889338828510694,0.5960364282129309,0.7352889058420877,0.1612211838357958,0.27994375524376475,-180.27183550230959,7.790633485237809,5.118068511782033,0.2808247083022951,0.41813671261586577,0.2955279270227074,0.4729785275736022,0.5559227038804536,0.33581835431333296,-0.06784757672956238,0.04492877788292459,-0.9982696304014637,0.0003042934872842573,-125.04537888038917,53.31311046746191,53.32065873704431,0.4924158262818186,0.9792942105385415,0.7024495657021045,0.3165483612588513,0.6683426962050638,0.39147489238449407,-0.17088408644431888,0.5386903476632927,-0.6144718296398024,0.5471562688408582
0.23,-136.36314434599348,54.72879687846951,172.18754985676065,0.13164580096552086,0.4287366887020324,0.21657889748352188,0.288995187262296,0.6640392298337903,0.8899151880432614,0.30023488290058015,0.8341982779008379,0.11424090096539975,0.44949611933727285,-99.73544892949823,37.62517483870149,172.94497297756078,0.06396551123246494,0.4760911525073876,0.07620413205818106,0.17976884190474066,0.6287012444855375,0.27792585783688933,0.593936541590837,0.7348088485300079,0.16347772615402742,0.2835732003775547,-180.59821456428628,8.356864962110581,5.027858156956678,0.2684784994890413,0.4467770055531693,0.29782082556920025,0.5010321836182677,0.5520033919052968,0.3417974319328689,-0.07296160754388067,0.043956281763686135,-0.9975025854382845,-0.002484798567733278,-124.22635148626944,54.76083925656296,54.662529581134095,0.4724706584154324,0.988817843637708,0.7070766786088433,0.29851275751771666,0.6497612521776146,0.4228982665795906,-0.1707886720360171,0.5491130436270573,-0.5975653345761952,0.5555147535852084
0.24,-136.10083163688395,55.31499592699936,172.41997164239976,0.1314353902020936,0.4644068366029704,0.20715192842174346,0.33003506263651866,0.6537617014938006,0.8662157897619039,0.3021096485195638,0.8311769035360554,0.11856457825332431,0.45278010377274075,-99.82322714691976,38.1975555941862,172.87662382428863,0.06459296368056522,0.5332557696280328,0.07373258244056016,0.1814072740943936,0.6488155174792136,0.2728338810059453,0.591763956243461,0.7340939299193149,0.1659946186535212,0.2875598355408194,-180.93159184663622,8.960408740444558,4.818139836959103,0.2659374919724781,0.47278087281945425,0.30083347191180104,0.5267532738600932,0.5468143234115362,0.3507113057406961,-0.07835889256414909,0.04187874227346307,-0.9966601188785768,-0.005394849895267444,-123.4245182822924,56.17415917866413,56.07301072345008,0.4512097604729621,0.9929482944568369,0.7092409688480613,0.2900423308309098,0.6216639965396604,0.45533531874288224,-0.17000652641027666,0.5596406377104884,-0.5802746996605523,0.5636693314581304
0.25,-135.84678776850492,55.95465089181588,172.6379955803123,0.1286097490354578,0.5072638225143643,0.1967674930495804,0.370629095704347,0.631667541290406,0.8262319628217443,0.30377486601157555,0.8279561702932434,0.12295051061474455,0.4564186024308267,-99.89861917854438,38.82177224562504,172.8022935269613,0.06479480780869865,0.5891861753483658,0.07185388841684129,0.19023807596012388,0.6646444899613183,0.2740537778023899,0.5895230860143199,0.7331761046547799,0.16876774830833643,0.2918938684937052,-181.2699403346923,9.59505891908436,4.503658584576619,0.2735942017398353,0.4961715110599624,0.30475853473122777,0.5468726707737177,0.5397471077724036,0.3598756911461797,-0.08398163303061054,0.038818897416528976,-0.995769005215232,-0.008417917141581726,-122.64116575201044,57.544738489153815,57.55857342142122,0.4296788417605582,0.9933509564877114,0.709910711361404,0.29372207726748095,0.5856538211739005,0.48839999364825065,-0.16843744769060318,0.5702764338261319,-0.5625854173151635,0.5716206623058803
0.26,-135.5965075260776,56.65580202514598,172.83912347829252,0.12348670640705607,0.5555673398430612,0.18581070817848455,0.4080357822179401,0.5993048458836012,0.7728199220394419,0.3052229834817309,0.8245013355861222,0.12743302441182516,0.4604679622072316,-99.96444203888649,39.49588220480965,172.7238312460273,0.06468353828103587,0.6424298698578182,0.07068429505603904,0.2056129828910117,0.6757943957733217,0.2816656512628081,0.5872127799764576,0.7320946763481466,0.1717879796138965,0.296558304767327,-181.61179084268045,10.254384270662126,4.1069989510588965,0.2910605038000973,0.5171076732390467,0.3095237919514392,0.5587160745565579,0.5303235656757342,0.36721849711666976,-0.08977426080912676,0.034971454949309415,-0.9948579224607366,-0.011541452569028011,-121.87511211155821,58.86818683010675,59.12715386528163,0.40902357981466997,0.991969812917567,0.7099457212643311,0.3119411750171085,0.5439375824784893,0.5222183710827355,-0.16598353781226652,0.5810263603570756,-0.5444498377743198,0.5793921184695526
0.27,-135.3459478934804,57.42283101398422,173.02177929780322,0.11662855465666566,0.6072607120218426,0.1746258073736363,0.4400614813018743,0.5590199777521768,0.7100926811168179,0.30645158448025855,0.8207901902804219,0.13203760807691248,0.46495714152713497,-100.02467340393927,40.2172372417009,172.6431924776018,0.06439696136339199,0.6918298983521273,0.07026767667586108,0.22657243141256883,0.6818323030387654,0.2954120276698873,0.5848249590334822,0.7308925063476552,0.1750404556867404,0.3015314949552994,-181.95600643164406,10.932206604732535,3.657332379043892,0.3172612042351731,0.5358069496360535,0.3147784201304548,0.5605701883515669,0.5182141620944615,0.3714854174736842,-0.09568722525274274,0.03059196891497705,-0.9939540373538691,-0.014744270520637901,-121.12308822428716,60.143750507936886,60.78773687052927,0.39038093994106643,0.9909006515620074,0.7099986582303712,0.34675556237779726,0.49929173815019595,0.5572346370980672,-0.16255053096213704,0.5918917707310002,-0.525791943127862,0.587023839905254
0.28,-135.0916720109248,58.25619384400221,173.18537601514447,0.10876579089347052,0.6601053041247723,0.16351697224243242,0.4651440851540979,0.5136663991175741,0.6429214065325417,0.3074639320319121,0.8168140546939555,0.1367793784216605,0.46988601724200274,-100.08426989422108,40.9827062987162,172.5621852974262,0.06406953708333735,0.7365526318102771,0.07056662445892047,0.2519308019670412,0.6822469652028578,0.3147071822857019,0.5823439758709251,0.7296127923255369,0.1785041621256223,0.30678945733816815,-182.3014921259744,11.623015323724589,3.188662754229328,0.3505988800290386,0.5524632643835184,0.31992050484701606,0.5519639921161938,0.5032629859337048,0.37236616680501405,-0.10168002300022526,0.0259809926407102,-0.9930796221401612,-0.017993215391882245,-120.38031580406003,61.373699147022165,62.549894857440975,0.37476397229191705,0.9922559813479166,0.7104534174166077,0.39971340744838313,0.45497469862125933,0.5939679078865548,-0.15804902536374732,0.6028623068447566,-0.5065146820349187,0.5945645751776026
0.29,-134.8310158781451,59.152513658975,173.33031336756815,0.10070675231793838,0.7118243930143214,0.15275424883028382,0.48239245892052407,0.466296258599102,0.5763539779454995,0.30826869677427104,0.8125776245874182,0.1416624948880561,0.47522640584659764,-100.1488933856217,41.78887407983563,172.48225016033294,0.06380993470197122,0.7760906484997696,0.07146056623847366,0.28035677066903864,0.6764823459222676,0.33867604257639145,0.579746820777998,0.7282965257331152,0.1821519321962873,0.3123077612505201,-182.64689312905648,12.322248309621926,2.737680836252823,0.38916642492614545,0.5671713167851199,0.3241706348924821,0.5338202210906675,0.48552130459414883,0.3705333099137694,-0.10772295922651272,0.021464693268815734,-0.9922493223325568,-0.021241291154678456,-119.64121648394492,62.56247022495154,64.42338989656548,0.3629512090779956,0.998034837907574,0.7114037609592786,0.471643269427897,0.41456789912907055,0.6327712491745376,-0.15239539786474807,0.613909851329536,-0.486508863323745,0.6020621041191454
0.3,-134.56226900705352,60.10500311405294,173.45791177368372,0.09324524752999892,0.7602463862700023,0.1425794825075049,0.49158402501170617,0.4198721209423236,0.5150306358755852,0.3088790040065796,0.808097748368183,0.14668048271580025,0.4809256110391717,-100.22455879692404,42.632194803838196,172.40429845170868,0.06368711955813841,0.8102411612737385,0.07275346102053647,0.3104481087977903,0.6640340647544865,0.3662186761367854,0.5770042222367433,0.7269805410043185,0.18595098217028977,0.3180628208577625,-182.99034378416556,13.026392041790533,2.34137864203963,0.43097770520709483,0.5798711462104933,0.3266880042240131,0.5084448502272401,0.46527904873789966,0.36759128085176157,-0.11379725009072367,0.01737341751821208,-0.9914685701128735,-0.024427848619078905,-118.90018700312383,63.71563507897987,66.41794177124366,0.3553935414079191,1.0100097527292657,0.7126704512223652,0.5624202249004463,0.3817478804849949,0.6736436313908167,-0.14551203758926212,0.6249844793281635,-0.46566254196606316,0.6095531134211725
0.31,-134.28485198073807,61.10414347407016,173.57028814911524,0.0870779464160213,0.8034353596112798,0.13320926379412362,0.4931262273948359,0.3770297432468128,0.46267550723896117,0.3093109792970812,0.8034013807867706,0.1518172415772858,0.4869120249455983,-100.31723363293722,43.50908495893234,172.3286285727294,0.06372585469115091,0.8390638999728905,0.07419197773499155,0.3408030944406199,0.6445870844401131,0.39609366240895466,0.5740825760778981,0.7256959868500019,0.18986393344237612,0.3240325223052688,-183.32932725025435,13.732887959149748,2.0346111857378166,0.47418487735760956,0.5903226157535391,0.3267157125989764,0.4793472037962028,0.44307570792241696,0.3659398498333794,-0.1198933583287469,0.014019914310493287,-0.9907333810024997,-0.02748108801615414,-118.15238259067408,64.83874300045663,68.5432355871825,0.3521504969718098,1.0296397979882481,0.7138517669716695,0.6707441833850286,0.36001480800694863,0.7161283558545781,-0.13732649533934363,0.6360131186789267,-0.44386994851884076,0.6170533747564896
0.32,-133.99946309795584,62.13851928316145,173.6701850737333,0.08274108445014731,0.8397969384755448,0.12483416402149965,0.4879898151875556,0.33991376644882665,0.4217296422507864,0.3095820760321145,0.7985230499159085,0.15704846447540088,0.4931020632819458,-100.43243196379592,44.415949117636174,172.25492811855443,0.06391117581439484,0.8628249009485376,0.07549319449014757,0.3700907233816559,0.6181667199605089,0.42701004752097327,0.57094652226848,0.7244670891403847,0.19385018948286017,0.33019618449513216,-183.660689787254,14.439864379540419,1.8478214584892174,0.5172541413556722,0.5981120590392978,0.32373439375836843,0.4509139358673446,0.41967705058136606,0.3685603557087122,-0.12600778106057128,0.011679060172538967,-0.9900314907371601,-0.03032272867341211,-117.39445791179527,65.9360983539755,70.80918649374057,0.3528642549693416,1.058013756792417,0.7143993701358127,0.793978000533059,0.3524163012485048,0.7593052309070688,-0.12776934098971285,0.6469013302329524,-0.42103928994291356,0.6245489853752352
0.33,-133.70815997118268,63.19570067881789,173.76077038720695,0.08057280787730906,0.868151606390128,0.11761467898624334,0.47761780605207865,0.3100941113506717,0.3931684166839022,0.30970951688401205,0.7935021906314793,0.16234323161335,0.49940754919116337,-100.57484892709363,45.3491475592667,172.1823578677003,0.06420036216151258,0.88193370316191,0.07637945247684927,0.39711968565733735,0.5852716134817592,0.4577155609571411,0.5675619180867149,0.7233102121115469,0.19786752808333746,0.3365339600622441,-183.98082763680483,15.145735116268252,1.8051550682617874,0.5590805105918515,0.602685697632824,0.3176013626613716,0.427985515254847,0.3960197134222061,0.378733184948928,-0.132138732241926,0.010570964175509706,-0.9893445605373302,-0.03287435659987704,-116.62521857759926,67.00953668116989,73.2264017224728,0.35677542304754445,1.0958221686532568,0.7137087388251234,0.9280936295085579,0.3613036237192999,0.8018610356216949,-0.11677097300638181,0.6575382257373128,-0.3970991173285318,0.6319893343952114
0.34,-133.41434522007813,64.26308069260523,173.84542406858577,0.08070359070780499,0.8877733615882817,0.11167442002382295,0.46380554273485847,0.2885549220521937,0.37651799618554427,0.30970908712328116,0.788380658876856,0.16766561133614954,0.5057426528311039,-100.74807417739473,46.30492984659277,172.10969919227824,0.06454007369754491,0.8968814394141161,0.07661664059552295,0.420902261082926,0.5469569536100934,0.4870699274212089,0.563898914034798,0.7222333812893017,0.2018738001217638,0.3430259260160026,-184.2860368329231,15.848717296202233,1.9231694543572169,0.5990356131669047,0.6034011951276822,0.3086565650483883,0.41539397369393927,0.37314082847542446,0.39969501037462574,-0.13828125396662455,0.010849157746530638,-0.9886510257754323,-0.03506475138907582,-115.84613574991648,68.05728815560833,75.8066953923581,0.36278070595749673,1.1433523837208441,0.7112117198779411,1.0677624591007284,0.388145044153043,0.8422116523795573,-0.10425821109975765,0.6678040764989419,-0.37200333674325586,0.6392823926102934
0.35,-133.12263767429084,65.32860238904092,173.92752295137245,0.08307275406131757,0.8983952149174054,0.1070909836653498,0.44854463238450576,0.27573712770387615,0.3700562795135664,0.3095943266643844,0.7832006678719738,0.172976160134391,0.5120296715343876,-100.954404669487,47.2793683897328,172.0355337262445,0.0648857673112188,0.90818568037898,0.07605044899167682,0.4407051861607468,0.5048427182898721,0.5140944396995732,0.5599348109733019,0.7212364942217997,0.20582863249665936,0.349651219621441,-184.57299341727483,16.546326036441833,2.210280343394201,0.636956682162624,0.5995902275399313,0.2977832438840102,0.4175132961158535,0.3521145734145084,0.4342484046857985,-0.14442233139905783,0.012595106152911095,-0.9879290855440078,-0.0368374023742962,-115.06167531387243,69.07303981063936,78.56344260507062,0.36952887494542175,1.2004978691367336,0.7064593606994675,1.2066054161921729,0.43340703310800727,0.8786492657759872,-0.0901520002339021,0.677579717817898,-0.34573525745129596,0.6462928559290606
0.36,-132.83862741850058,66.38133757474155,174.01022570589802,0.08746505248051813,0.9001835403569183,0.10388518060086056,0.4338335224130037,0.2716139192408691,0.37115667577217376,0.30937600295546636,0.7780032980690456,0.17823325322547134,0.5182032229035043,-101.19475312585018,48.26832465865048,171.95841642849754,0.06522036724352327,0.9163444398526998,0.0746337736966585,0.4560772660362235,0.46103701223414745,0.5379910805341991,0.5556564129620186,0.7203123535470655,0.20969500768928398,0.3563875415164742,-184.83931564384363,17.234905583730292,2.666991923639354,0.6730939119981895,0.5906283651250075,0.2864167318808627,0.4378560185826135,0.33401092903239055,0.4843460232415758,-0.15053662495686385,0.01581952639297986,-0.9871593260417598,-0.0381574164191167,-114.27939545608457,70.04531896878414,81.51153182790877,0.3755476930163749,1.2667724848604167,0.6991859234440594,1.3375944235049448,0.49650330408393767,0.9094939267624006,-0.0743677365043924,0.6867565486280276,-0.31831126007669536,0.6528435511952076
0.37,-132.56853008795295,67.41189900987652,174.09625465265202,0.09355877832818352,0.8936839489084389,0.10201001653138785,0.42147384629136225,0.2757826345044062,0.376712374458433,0.309061678436235,0.7728276412463092,0.18339419045551555,0.5242127017264592,-101.46862694641095,49.267468137708704,171.87700335122656,0.06556920102045628,0.9217992657050912,0.07243897947529666,0.4668459106484975,0.4179835918506239,0.5581292120587729,0.5510617188908539,0.7194484600524673,0.2134405839291589,0.3632111809155846,-185.08415029409417,17.909255557744476,3.2868497766362204,0.7080340234306167,0.576011155562585,0.2764984116696301,0.4787327426078622,0.31987995090906435,0.5506869053693246,-0.15658343743713357,0.020470119375998446,-0.9863265378217667,-0.03901709704129977,-113.5097743470914,70.95731188437965,84.66670369985704,0.37939106248262555,1.3413222515014929,0.6893485058053621,1.4535739718509055,0.5758059603800609,0.9332355446454921,-0.056819489710407886,0.6952458446568412,-0.2897846695181915,0.6587203280247177
0.38,-132.31877055273904,68.41268348283803,174.1876683235094,0.10097631721382344,0.8797445297431284,0.10134158552561076,0.41288176531885296,0.28756125836235075,0.3835704900968298,0.3086551957950805,0.7677105558180162,0.18841600675974773,0.5300230618906898,-101.77414241055862,50.2723515712213,171.7901035958735,0.06600829279722081,0.9249086766678902,0.06965173039020113,0.4730830036797357,0.37825590749216315,0.5740070939795301,0.5461609338167213,0.7186293047702119,0.21703866078922068,0.37009754404717543,-185.30872063261754,18.562405824938278,4.057963461945655,0.7426126122396696,0.5554353118220278,0.27037398618081787,0.5409840573530682,0.3107545391330624,0.6323811824213355,-0.1625054512253346,0.026444525754464782,-0.9854204264953066,-0.039439644181563004,-112.7657435910739,71.78720275614239,88.04414882374955,0.3797930591647949,1.4229306518863691,0.6771398607009022,1.547852801295433,0.6687113850136599,0.9486575029794483,-0.03742878692331037,0.7029862288099658,-0.26025018539519856,0.6636804266583363
0.39,-132.0955376430269,69.37795699528992,174.28561807065128,0.10932904795721698,0.8594264392170987,0.10167424579021404,0.40894146149213323,0.30608128530918205,0.38891334595678895,0.3081559520437682,0.7626869412407241,0.19325587756931364,0.5356141539865628,-102.10804487756752,51.278533932271955,171.69663904892008,0.06666367948259946,0.9259362246145129,0.06654740122301027,0.47505018630845613,0.34432356161792427,0.5852039134640052,0.5409768150120531,0.7178387705843637,0.2204687584260675,0.37702208420373845,-185.51677103048036,19.185582872313788,4.964885786584503,0.777822020969244,0.5288804833483435,0.2706354497249645,0.6237984897843242,0.30765982783693635,0.7267525577870265,-0.16822958309367406,0.03360672596515181,-0.9844351271629637,-0.03948064288715998,-112.06192324959429,72.50907172994681,91.65636320525928,0.3758138641778091,1.5100178684541203,0.6629745300165439,1.614802269308174,0.7717544382002643,0.9549361888030129,-0.016137762311211494,0.709948408208023,-0.22984875715614136,0.6674640545136535
0.4,-131.9043585925884,70.30380553151875,174.39008318512782,0.11825036115697049,0.8339137809177142,0.10272193773531009,0.409918299035932,0.3303729692607727,0.39054434909577745,0.3075579055620941,0.7577903862534772,0.19787097665845033,0.5409790158143349,-102.4657231886909,52.28173728076902,171.5955126295305,0.06770101693645766,0.9250571553861202,0.06345481022602036,0.47313773228248857,0.31831626565475923,0.5913389023895353,0.5355443050703523,0.7170622161654299,0.22371681767418777,0.3839615208995753,-185.71484061772676,19.768394010887697,5.9906123198785375,0.8147182934201957,0.4966815243917404,0.2799063675319617,0.7246410016665492,0.3116166501248688,0.8293441578588191,-0.17367003539117404,0.041804780252940855,-0.9833676913940108,-0.03922720584232146,-111.41358007877275,73.0943310215189,95.51040882553903,0.36696200212434454,1.6006386760949618,0.6474504044624003,1.6503908335515933,0.8807663165255474,0.9517122731078662,0.0070744669206032375,0.7161366451930484,-0.19877220117237698,0.6698086495969063
0.41,-131.74974127293606,71.18798299200598,174.49958492222677,0.12741320041714438,0.804432997705249,0.1041268920967203,0.41543963174177906,0.3594445687358603,0.3870599811079716,0.3068483649026439,0.7530540066084338,0.2022176822185181,0.5461216362091363,-102.84122633497336,53.278021533366,171.48540251716133,0.06930729242816107,0.9223827896245462,0.06071417541791688,0.4678090125696505,0.3018111128658341,0.5920495404518348,0.529909359018514,0.7162878664517791,0.22677503072926952,0.3908952363718447,-185.91229824565704,20.29923454341537,7.11847407776556,0.8543299561401304,0.4595768645963815,0.30057527993051775,0.839326507564288,0.32362665679046104,0.9341695102915106,-0.17873333653906964,0.050887774340588075,-0.9822159487298401,-0.03879477346045475,-110.83536065188612,73.51361238636154,99.60487744670911,0.3532779463227407,1.6924871827619399,0.6312894978457436,1.652584635109601,0.9910725341268558,0.939130306798535,0.03217421621874542,0.7215868358259335,-0.167266333904173,0.6704650490994569
0.42,-131.63492042860892,72.02968998610496,174.61089530924625,0.1365316344791149,0.7721873620321177,0.10547696711595271,0.4245451228103117,0.39236046991217793,0.3779115363200079,0.30600675013011297,0.7485112571757867,0.20625020201532523,0.5510547003110061,-103.22730446255538,54.263958280819644,171.36451241902813,0.07166899905156249,0.9179959612430053,0.05863676501893614,0.459559867453207,0.2956711725118652,0.586997218555233,0.5241269215604625,0.7155072699010504,0.22964129255151214,0.39780672385243504,-186.12108174039378,20.7658991950882,8.33373255697794,0.8975716220390081,0.418718470325995,0.3344953559739281,0.9622724908517305,0.3446271716075654,1.034212418027956,-0.18332493028118366,0.060720112686812565,-0.9809762485880493,-0.03832166955680457,-110.33988248500486,73.73895562477786,103.92698594111336,0.3353663741277692,1.7829185593775043,0.615263330196007,1.6215545610211597,1.0977266156114338,0.9178438736873737,0.05905716318063769,0.7263614541458022,-0.13563108754201755,0.6692144921129178
0.43,-131.56172125203437,72.82931368071662,174.71878230953374,0.14534897919416212,0.7383069324093101,0.10633311715764635,0.43580426301135217,0.4283190932810611,0.36337683731958365,0.3050036790428168,0.74419647545251,0.20991898712198528,0.5557976460627087,-103.61550131734333,55.236781396786824,171.2303136810138,0.07495229771869694,0.91198791454797,0.057472770027039204,0.4489009062660129,0.29996308055466225,0.5759055060792824,0.5182581263999619,0.714714796353577,0.23231823381776134,0.4046849296752934,-186.35511260288803,21.15635469919904,9.62474215116218,0.945166036269104,0.3756333811857686,0.38268581937562335,1.0869453778250735,0.37540704043380374,1.122134725244936,-0.18735671337518636,0.07119184437266952,-0.9796415154053868,-0.0379615920575495,-109.93629504005123,73.74609762019914,108.45031673589041,0.3143685248563061,1.8689978154864082,0.6001099990575028,1.5596528878429678,1.19577149108319,0.888985047352029,0.08753693861087257,0.7305419207721464,-0.10421602162635459,0.6658851027665198
0.44,-131.5305273277408,73.58815253225443,174.81585991491187,0.1536175751088553,0.7038111583868064,0.10626765434088113,0.4474935745746673,0.4667197661047255,0.3444693608473115,0.30380084327568535,0.7401448994969936,0.21316959040707034,0.5603750945838014,-103.99632263533547,56.1944915040212,171.07931359791863,0.07928981437594554,0.9044879629949945,0.0573916650056155,0.43636656040827615,0.31397511488970864,0.5586280843787793,0.512366889237414,0.7139064111897195,0.2348117750866515,0.41152529838472346,-186.62940054470144,21.459608198358524,10.98361021408436,0.9975782747087898,0.33213419820082957,0.4450825724987569,1.2064760500036895,0.416481075879358,1.191105736424272,-0.19075480938521472,0.0822244115536122,-0.978199863573612,-0.03787431383411576,-109.62894358554139,73.51663586469544,113.13372674520656,0.2918724970391464,1.9475832790281364,0.5864515195546777,1.4711585695298042,1.2805150626127824,0.8541002326524298,0.11734146844741858,0.7342191585503586,-0.07340986951440785,0.6603663172367076
0.45,-131.5403222632072,74.30814412775716,174.89262384999108,0.16107749690110518,0.6695811856465791,0.10491109767938019,0.4578181410385419,0.5071946372588131,0.3228093060745374,0.3023521042225805,0.7363919423293965,0.21594270636984353,0.5648154897048373,-104.35949748198412,57.13589641401834,170.90687751778046,0.08477621963128737,0.8956806766902612,0.05847648896969497,0.4225461484036734,0.3363450492143456,0.5352315898046714,0.5065160899451906,0.713078191797381,0.2371291514577779,0.41833035218288633,-186.95889921373052,21.66659012205663,12.406347321877732,1.0549643680820673,0.29018405941999553,0.5203841847323035,1.3143722022500064,0.46792910841487545,1.23563246110105,-0.1934667848177046,0.09377191075187774,-0.9766338387597754,-0.03821499448390711,-109.4162774320181,73.03984645688253,117.92184761532364,0.2697677417913112,2.015447775004217,0.5747206666873292,1.3618332381739282,1.347802297463436,0.8150599912575489,0.14811935382448316,0.7374832266136702,-0.043623379604789056,0.6526197120043312
0.46,-131.5887732157904,74.99161125441556,174.93773822313685,0.16744287835610902,0.6363404132695358,0.102001362254297,0.4651526873021101,0.5495779997119725,0.30047248994662923,0.30060601475242205,0.7329716326217635,0.2181759006240679,0.5691496940983941,-104.69433911552625,58.06058096255184,170.70712301840524,0.09147146298084805,0.8858090702160419,0.06073093301099949,0.4081236608062043,0.3652910931777005,0.5060715297942128,0.5007634979862369,0.7122251406869731,0.2392764124417026,0.42510974669138946,-187.35721248412307,21.770964550079814,13.892549992773883,1.117134273219216,0.25172920295855816,0.6060253013349255,1.4052172406215013,0.5292170909235412,1.2522607153837737,-0.1954674864279087,0.10581846772313147,-0.9749202630462284,-0.03912266234250345,-109.29013609686093,72.3139727283908,122.74737466512997,0.2500593762944419,2.069434120652966,0.5651060306402326,1.2383628637038073,1.3942669599755182,0.7739563870892159,0.17945697297677726,0.740412984693718,-0.015265823377876266,0.6426849035644494
0.47,-131.67233819909725,75.64103919616345,174.938596446075,0.17240424043806188,0.6046429102323551,0.09742603092603487,0.4682700211361277,0.5938002256808009,0.27982378561058596,0.2985096324969023,0.7299143248780563,0.2198070891473316,0.5734093598546258,-104.99019951973536,58.968814104447745,170.4728948427523,0.09940736414611351,0.8751644593669122,0.06409614042667197,0.39390870228228403,0.3989208922093343,0.4718424814061554,0.49515755228047126,0.71134074150964,0.24125551793130723,0.43187988743400535,-187.83527269183898,21.76978653148512,15.44469204726748,1.1835277996434506,0.21851842285390205,0.6982892226621302,1.4752319071231872,0.5990329271135232,1.2400380119308994,-0.1967627525254315,0.11837255165733,-0.9730306730743947,-0.04070860518532285,-109.23552061967271,71.34685891953397,127.53502916257182,0.23466589984616937,2.106634661349947,0.5575226720625363,1.1077655492668301,1.4175495813853318,0.7330037404743959,0.21090493297209892,0.7430667316620817,0.011283027003834628,0.6306796361114425
0.48,-131.78639820209008,76.25889400889501,174.88212464471235,0.17565236003192086,0.5748695283939252,0.09124839398818328,0.46652352074930215,0.6397245902147648,0.26333607669953907,0.2960131659320429,0.727243963121377,0.22077936452097963,0.5776250572086563,-105.23699739928874,59.861412848996096,170.19582078624967,0.10859139527744498,0.8640648791802314,0.06847265464072066,0.3808421332214646,0.43557346786737683,0.4335926048010679,0.48973312027366717,0.7104174567823647,0.2430613227948992,0.4386632618913699,-188.4001177649471,21.66394269301097,17.067121038305483,1.2532028163058981,0.1919327104445619,0.7925515299482772,1.5225925157633533,0.6751829341359985,1.2006692745183272,-0.19739046092239831,0.13145906868802693,-0.9709323891697693,-0.04304558080125999,-109.23091417517107,70.1558740894922,132.20676278736332,0.22522732814503849,2.1245787367816837,0.5516136408854373,0.9768276150885421,1.416466675621771,0.6944533784124082,0.24201060922108164,0.7454747095082216,0.035702343460261805,0.6167938149108838
0.49,-131.9254295082783,76.84748743083371,174.75574547483902,0.17692370307810115,0.5472317908387792,0.08371121960323899,0.45995773711023696,0.6869747578393399,0.2533964116886666,0.293074790182454,0.7249752885773177,0.22104644832770604,0.581824309210564,-105.4257834628832,60.73958688867968,169.86644224405512,0.11900224833382904,0.8528258817139975,0.07374221622042744,0.36996609551908183,0.4741308751277352,0.3926996022302003,0.48450744714828275,0.7094480922749288,0.24467890453018604,0.44548759182661024,-189.05388678856707,21.45833473937859,18.764867311347743,1.3248370313549913,0.17284894695414757,0.8836304622523888,1.5474461247384401,0.7545958892034321,1.1383442010965144,-0.1974187055074995,0.1451100486789846,-0.9685902415484889,-0.04615888314939224,-109.24916190973072,68.7671451366179,136.687540646764,0.22294779308291635,2.1214087846867433,0.5467839732737256,0.8516112617102986,1.3911080107737301,0.6605194966534321,0.2723523232900694,0.7476342815195901,0.05775725677271174,0.6012779844413577
0.5,-132.08323426651404,77.40889038694687,174.54838945551148,0.1760601964418568,0.5217838040463234,0.0752175985814636,0.44933423437782044,0.7348091749923518,0.25210749610953337,0.28966493947190164,0.7231114123148467,0.22057792634058954,0.586029769968453,-105.54929219613012,61.60478461003514,169.4744095889316,0.13057561058441672,0.8417297569058608,0.07978450725490457,0.36235784301388696,0.5142292783041411,0.35080942303081347,0.4794766361250787,0.7084277346067106,0.2460817434481097,0.4523847932419241,-189.7931373908562,21.161790915287156,20.542380481161352,1.3967466886647784,0.1615576200824067,0.9662081650669277,1.5516275040536878,0.8334663441168264,1.0592659569815823,-0.1969412727558111,0.15935477845739437,-0.9659688671877545,-0.050020321443258034,-109.25886248385068,67.21418386873329,140.9109420214864,0.22848873379298937,2.0960268785737886,0.5422639494371,0.7370716127920173,1.3428376689943138,0.6332987336622491,0.3015704683969076,0.7495084380318227,0.0773196109891479,0.5844274734393279
0.51,-132.25323610674985,77.94489341126685,174.2514379182804,0.17306929702607962,0.49844173151386106,0.06629356193912446,0.4360721958445608,0.7820826138574579,0.26109911457204105,0.2857695388523901,0.7216421475717553,0.21936350117002396,0.5902577796400645,-105.60242211520931,62.45855424074241,169.00873281997406,0.14318398658149273,0.8309993919640903,0.08648553503469124,0.3590368857655004,0.5563119944214586,0.3097435955563103,0.4746131056989188,0.7073558366062315,0.2472311555097691,0.4593896540504686,-190.60856557744097,20.786715058304104,22.402314179390977,1.4669272090715297,0.1577463206311606,1.0352797510323313,1.5381497838578317,0.9075428060282013,0.9709554960074566,-0.19607094461012628,0.17421031372483,-0.9630353475108969,-0.05454602727932547,-109.22617182228946,65.53604159918028,144.82386535394798,0.24192009344137658,2.0481995241200144,0.5371942480496581,0.6368170516696048,1.2741939938788793,0.6146632844010382,0.32939154262032655,0.751027998364729,0.094379374943136,0.5665640038528704
0.52,-132.4288252844538,78.45700819111585,173.85950600042557,0.16816685909134396,0.4770092107888061,0.0575404697164493,0.42211232644926827,0.8273061394486589,0.2813655939338704,0.2813919358761882,0.7205434029625415,0.21741578196189082,0.5945174393194734,-105.58259170335816,63.30242646903732,168.45808182484248,0.15661825045763314,0.8207803902003498,0.09373679535191783,0.3608616699049019,0.601498363220572,0.27138602165050113,0.46986447735559816,0.7062379872495863,0.2480771227464537,0.4665381598717405,-191.48517816705996,20.34850482535602,24.34448102418348,1.5331218231371648,0.16055016226414215,1.0865838082953354,1.510591305729327,0.9725368234255221,0.8814304847871414,-0.19493143892556813,0.18967332256162137,-0.9597618872423483,-0.05959865908180494,-109.11688237548721,63.775150087606484,148.38978768770227,0.2627307230457052,1.9786171167151188,0.5307232043381296,0.5530276433586444,1.1887117905134852,0.6061221289972715,0.3556423230126708,0.7520974915771195,0.1090448779228808,0.5480168631809924
0.53,-132.60371230285335,78.94650103168784,173.37101487762564,0.16178737519114467,0.4572067597499854,0.049585519262705414,0.4097204149669813,0.8687880543857519,0.31314334425513396,0.2765536342646185,0.7197777650918347,0.21477155783753302,0.5988101992699212,-105.48993530587003,64.13781822966443,167.8111358772578,0.1705781308030667,0.8111316153017798,0.10142714904198731,0.3684329366248673,0.6512790891866618,0.23756176324410544,0.4651542397853962,0.7050869639502545,0.24856036060419232,0.473865480035046,-192.4029281143089,19.864789317954916,26.36508733784914,1.5929234746265435,0.16866017042398318,1.1169684780131341,1.472515809502324,1.024600513209535,0.7983618041601951,-0.19364896438242876,0.20571409106726377,-0.9561282633574698,-0.06499405717311992,-108.89862633492653,61.975010601650276,151.5902571673196,0.28989505898586443,1.88891066933105,0.5221049225705536,0.4865153240064103,1.0907004435634724,0.6086672624479468,0.38025294132535925,0.7526043231504541,0.12153145860853033,0.5291057048218974
0.54,-132.77223088166875,79.41444757133493,172.78854171578587,0.1545537194053811,0.43870342982867516,0.04303675593703775,0.4012538319527542,0.9048183871498346,0.3558415079396226,0.27129420028583284,0.7192961907085744,0.21149187037773898,0.6031298198244376,-105.3273266389036,64.96595174002802,167.05698507476868,0.1846741240157239,0.8020219275831365,0.10943177531754911,0.38201596340630345,0.7070799763059734,0.20991786211833457,0.4603843508767542,0.7039228254007485,0.24861523940339808,0.4814037057982759,-193.33777547857062,19.354550587929566,28.456326709252842,1.6439113848002096,0.18047332014404893,1.124651949978621,1.427033383656024,1.0607975567685723,0.7283049525201984,-0.19234434799037062,0.2222732526868504,-0.9521238409237762,-0.0705118403769343,-108.54305827664452,60.17788044240879,154.42453775605054,0.3219885756634163,1.7816288892199725,0.5107858771023607,0.4368857983580909,0.9849979582756255,0.622635811370547,0.403249069912089,0.7524305531869767,0.13213942545379,0.5101266906419405
0.55,-132.92952977132265,79.86179762879433,172.11895849103328,0.14720900508586968,0.42114825026614355,0.03844607142540871,0.39891694959043145,0.9338520805240892,0.40803977872765623,0.2656708173809375,0.7190405606375372,0.2076613027665716,0.6074625352228573,-105.10024068606631,65.78777851990374,166.18558500254306,0.19843781648359676,0.793330237816665,0.11760355115705588,0.40148644715417575,0.7697621188979191,0.18981275218758703,0.4554397217297396,0.7027720399750295,0.24817312062684035,0.489179480134599,-194.2630875282891,18.8372008200216,30.606367808983737,1.683816908186328,0.19426363571711439,1.1093461856601934,1.3765507046075889,1.0794824174199764,0.6760921276002448,-0.19112647332646157,0.23926146582750032,-0.9477490117360577,-0.07590896213461071,-108.02789016417394,58.422588529449776,156.90754374775187,0.35733887485905896,1.6601741518712938,0.49646749240565424,0.40275871559579285,0.8767042943236253,0.6476175700450818,0.4247346136007455,0.7514664072318201,0.14122332429664963,0.4913430981509877
0.56,-133.0716115406179,80.28943791726378,171.37337325044572,0.1405227090441818,0.4041975673508765,0.03628088186578815,0.4045293744306989,0.9546505708800069,0.46756574220558605,0.25975786948724566,0.7189467632634882,0.20338672799850963,0.6117873242301973,-104.81648227184166,66.60389608803186,165.18826021133677,0.21133549301831978,0.7848474982941422,0.12577084464513705,0.42630044480427154,0.8391493375724942,0.17821905414835865,0.45019431582007524,0.7016658826533747,0.24716575417435635,0.49721165873741174,-195.15124929176855,18.331684648484924,32.799724773018255,1.7107059916465213,0.20835203807794717,1.0722295242006088,1.3227016900158268,1.0805091071181612,0.6444479239348707,-0.19008742892614777,0.2565619430201185,-0.9430159679785323,-0.0809349227287606,-107.3386632687895,56.74259711030936,159.06638495082703,0.3941944270824903,1.5286897977707419,0.47913411965049385,0.38201510343910955,0.7708947158606687,0.6824245650971634,0.44486723252017407,0.7496244497837934,0.1491554531761158,0.4729807753517029
0.57,-133.1952105476642,80.69823874600077,170.566877343589,0.13518857599844053,0.3875343645534567,0.03690300445445349,0.4193272214269072,0.9663544144272613,0.5316546004540517,0.25364667942622476,0.7189479694169191,0.19879548487712562,0.6160762778819603,-104.48581736924962,67.41444737038746,164.05824335393135,0.22278261948042255,0.7762823399674708,0.13374247727546063,0.45549039441194467,0.9136841851249524,0.175644577787572,0.444518444931674,0.7006384643072945,0.2455285326085655,0.5055091010926903,-195.97533157833746,17.85566399944018,35.01795757358005,1.7231604492174393,0.22125407783167844,1.0157775937501234,1.2664172967680862,1.065217252903816,0.6338570834017347,-0.18929943465308122,0.2740354764161393,-0.9379487845441083,-0.08534718465261021,-106.47013762320029,55.16441863719567,160.9359881450103,0.4308905600316741,1.3918875291088193,0.45904058683015697,0.37205579722324983,0.6723221080500593,0.7251244228746043,0.4638297578957073,0.7468531512635548,0.15628738950865034,0.45522806180034703
0.58,-133.29754172279365,81.08907103225582,169.7180913123144,0.13173195580788719,0.3708781279182644,0.04055209064299417,0.4438144208266096,0.9684780146346538,0.5971782690018289,0.24744521200019837,0.7189778091814931,0.19403274737373016,0.6202951006815266,-104.11953932955622,68.21900051964191,162.79122558004562,0.23216172363105608,0.7672743034295597,0.1413175074984722,0.487694065677483,0.990300249755312,0.18207741372112654,0.4382867909541571,0.6997247262473242,0.24320354956876208,0.5140686669390497,-196.71066579208497,17.42482459059561,37.24062280134422,1.7204387420483493,0.23179051650046112,0.943487217898575,1.2080882844539689,1.0361896603435787,0.6426752758828045,-0.18881337200413437,0.29152744236590705,-0.9325828272009445,-0.08892540571054339,-105.42716534855744,53.70649145272632,162.55435787191516,0.46599245355257246,1.2548064085342352,0.43666115027849073,0.37006227893424193,0.5851281822037832,0.7731333376647689,0.4818010696546987,0.7431484120860496,0.16291387721964198,0.4382391533098165
0.59,-133.37598548337544,81.46278383018561,168.84849881328333,0.1304404572741076,0.3539872737897759,0.04733109954665529,0.4776775557098547,0.9608395731356234,0.6609159055563316,0.24127726662517524,0.7189732421063162,0.18925776595998253,0.624403814157725,-103.72998960091542,69.01641758267506,161.38588038244717,0.23884923418979256,0.757417816221205,0.14829634985327406,0.5212263941982732,1.064560717468113,0.19696200743170694,0.43138669245048006,0.6989585938048605,0.24014250537824317,0.5228735510029409,-197.33620278490847,17.05232436157871,39.446385636694394,1.7025982777399307,0.23915440852325812,0.8595447136568748,1.147784578433076,0.9968316905799594,0.667444248530529,-0.1886586127232011,0.30887620099796587,-0.9269635104596546,-0.09148340602317263,-104.22490928119139,52.378605357448905,163.95807125718295,0.4983975172604851,1.1225059272221474,0.4126107244476002,0.37324962001133344,0.5125948445414676,0.8233698147183355,0.49893012026899564,0.7385615464618887,0.1692435060250372,0.422139492460866
0.6,-133.42779380320667,81.82013982130862,167.9815651922542,0.13132653377704448,0.3366582779177467,0.0571925704127112,0.5197726663508226,0.9434618766390126,0.719830168012308,0.23528050657902538,0.7188770094335502,0.18463868026745442,0.628357780093776,-103.3300391070677,69.80473046514656,159.84430939670995,0.2422554886827596,0.7462968837285477,0.15449069588619024,0.5542019812757464,1.1310640749588274,0.21921247740186653,0.4237262230317048,0.6983713414623265,0.23630948551305714,0.5318922025712053,-197.835573431997,16.74839021839828,41.6142075188899,1.6705637343311586,0.2429357802303235,0.7684905128067968,1.0855053024182335,0.9508663006538539,0.7033576944657787,-0.18884380658633676,0.3259222739681014,-0.921144410136157,-0.0928782150411702,-102.88829486741386,51.18193928192518,165.17855051361323,0.5273847802280074,0.9997122204937435,0.3875561959573389,0.3790932559155073,0.4569743440445753,0.8724753637001109,0.5153163710258231,0.7332023590577569,0.1753799879460317,0.40703166575269456
0.61,-133.44990421125453,82.16171488102655,167.1416543273611,0.13412556038237308,0.31872550469501354,0.0699263502693304,0.5681841213201964,0.916495248635131,0.7713135934591823,0.22960267513584512,0.7186396605769835,0.180345737436871,0.6321091975540635,-102.93253118946369,70.5810494869366,158.17234890620196,0.24187686863327185,0.733526975803385,0.15973152204311264,0.5847066451607585,1.1840709835513985,0.24726624366463076,0.41524151901655393,0.6979901497930308,0.23168351081635224,0.5410781373959963,-198.19780351350087,16.520064368649777,43.72453193516663,1.6261289159684496,0.2431084549691157,0.6749170177738504,1.0214357249174018,0.9018508424501664,0.7448228158565714,-0.18935833044477088,0.3425176371591914,-0.9151847200195975,-0.09301591351145197,-101.45065093049628,50.10972699521878,166.23952397752998,0.5526065686302545,0.8904528194413067,0.36213662485179826,0.38550523453703156,0.41943123671550553,0.9170986619132773,0.5309989470448646,0.7272363512982691,0.18131650078315514,0.39300046992444143
0.62,-133.43893263657054,82.48777619905765,166.35278038945793,0.13832849045315407,0.30006427465783697,0.0851513106573142,0.6203444846950564,0.8802127546851601,0.8133751735396882,0.22439557226009563,0.7182212490248487,0.17654298809196803,0.6356092052953992,-102.54969397606348,71.34153250395956,156.37967532915715,0.23735289137017482,0.7187979046925472,0.16387570695518916,0.6110009569893787,1.2182667682733932,0.2791760492994984,0.4059027179113347,0.6978368435542258,0.22626061860747976,0.5503708809266737,-198.41765309799237,16.3711052105052,45.76039572527856,1.5718840294314393,0.23998358397174183,0.583214274746847,0.9561786563785205,0.8528019507183154,0.7860662469332681,-0.19017418810625208,0.3585344355814842,-0.9091460590367259,-0.0918541604428549,-99.95159562896225,49.148509525047984,167.15589428726935,0.574026598175797,0.7977260974998002,0.3369053493399742,0.3909394192107474,0.40010830289096766,0.9542148665529289,0.5459554468503608,0.7208758006860702,0.18694375849765088,0.38011623185714777
0.63,-133.39138596093932,82.79816100440213,165.63725494766965,0.1432442577043921,0.2805987491504989,0.10231484651530266,0.6731974856931009,0.8351023127112689,0.8447472323024615,0.21980675293106566,0.7175928702875822,0.17337881696618596,0.638810627111438,-102.19254629936498,72.08144051075887,154.47966049153453,0.22851783505168843,0.7019102787627297,0.1668114736880671,0.6317232904171962,1.2295417149830412,0.3127338745268988,0.39571780469311363,0.697926856191421,0.220055182242813,0.5596981159620074,-198.4955535651475,16.30205493602792,47.708395240210535,1.5110671398927866,0.2341337999517819,0.4973603340455604,0.8909159361025952,0.8059761874311148,0.8217345216004747,-0.19124825288751224,0.37387246102281574,-0.9030887057758439,-0.08940129249260156,-98.43433451521153,48.27987277935434,167.9340178596105,0.5918169718478663,0.7232537929889986,0.31229817980725944,0.394418950553058,0.39829973245696326,0.9814260488586593,0.5601098294452489,0.7143653596878841,0.19207054129283205,0.3684360209178034
0.64,-133.30409478592804,83.09218463149867,165.01431241924286,0.148083930982086,0.26031626492789844,0.1207041362843611,0.7233913582108729,0.7820353915084733,0.8649068254410636,0.2159693541449684,0.7167381997408391,0.17097595018258357,0.6416712481087372,-101.87033935345802,72.79529915153562,152.48895197505303,0.21543792599465386,0.6827996027515912,0.1684614081068583,0.6460522711084834,1.2156525232635507,0.34561808181322884,0.3847337000481145,0.6982684995518212,0.2131002266399025,0.5689789351959228,-198.43712049259915,16.310488246365086,49.55944105205293,1.4473480307385742,0.22629398166090978,0.4207491166448913,0.8274560321122802,0.7628131741678532,0.847439934255905,-0.19252482915395158,0.38846482303506247,-0.8970674571429033,-0.08571185947441458,-96.9426263463625,47.48251316424077,168.5732063557121,0.6062328676611803,0.667356781998563,0.2886255305781435,0.395495418752116,0.4126867341835815,0.997180744626914,0.5733475246851641,0.7079636646746094,0.1964537563766246,0.35800289778939365
0.65,-133.17481942838134,83.36861068894616,164.4988219000987,0.15205621404881361,0.2392888081732345,0.13947228589321314,0.7675013935807569,0.7224477312644678,0.8740213586869726,0.21299092161892424,0.7156550114135511,0.1694218613659597,0.6441573254684132,-101.59008801423664,73.47717559577569,150.4267832215757,0.1984298228283687,0.6615462446890562,0.1687811853563042,0.6537926652645282,1.1766370539780298,0.3755549709502489,0.3730341200388352,0.6988625767338155,0.20544659282764885,0.5781279794468249,-198.25224767269046,16.391447342145817,51.309246813311695,1.3845632779716044,0.21725019879383073,0.35605638379697363,0.7681438952478189,0.7240193863983848,0.8602063580065368,-0.19393854423808782,0.40228137490958354,-0.8911274358566377,-0.08087861641882982,-95.517715683692,46.734432114055814,169.0681212924849,0.6174866419948626,0.6289758032958889,0.2660843641140176,0.39415975835558703,0.4415713812610883,1.0008695071956069,0.5855351505126147,0.7019229821687806,0.19983399151823433,0.348843664421181
0.66,-133.00293298758723,83.6257136098484,164.1002204298973,0.15446213019361996,0.21769826361690484,0.15768123588395955,0.8022829387168124,0.6584500039984172,0.87283808350091,0.21094257761603893,0.7143563609377281,0.1687607537834091,0.6462468669660363,-101.35624528756867,74.1210660195227,148.31404378058224,0.17806082041753996,0.638373476447012,0.1677540190380267,0.6553636874378201,1.1148993048894589,0.40048531707316554,0.3607340858790065,0.6997022936925557,0.19716089005907161,0.5870601699056552,-197.95384352731608,16.538046379039752,52.95851631853586,1.3264300497200767,0.20773353741816686,0.3051520596028187,0.7156408502050589,0.6897585944346907,0.8587741754173942,-0.19541754272910933,0.4153296367883495,-0.8853002562033282,-0.07502142484729708,-94.19552969724735,46.015042869273195,169.41165531243703,0.6256421000563527,0.6058343366043126,0.24478533690012882,0.39072709916141735,0.48304565253020576,0.9927895863420559,0.5965419451402125,0.6964690989856194,0.20197203856944967,0.3409657394746825
0.67,-132.79004610283232,83.86145151175289,163.8218153965887,0.15477652128098512,0.19585620077768223,0.17436216894439438,0.8249428447582321,0.5928081507252048,0.8625370290965245,0.20985020773979327,0.7128708833460493,0.16898841193204664,0.6479321396039185,-101.17055910028861,74.72136847659513,146.17215974415876,0.15513364870327456,0.6136365616799423,0.16538416710486456,0.6516901226004599,1.0349510606190628,0.4187241035613389,0.3479714049734403,0.7007733884025273,0.18832223978346435,0.5956956673317375,-197.55634259839644,16.74219812908185,54.51281124116756,1.2762698892022413,0.1983352115593081,0.2690652626206761,0.6726129350179816,0.6599081764609959,0.8437252364538887,-0.1968868440579339,0.4276531703365545,-0.8796009776567434,-0.06827412426808543,-93.00440641110924,45.306985598558555,169.59786791145183,0.6305456032203705,0.5947174681644772,0.22478903663776492,0.38571499604654785,0.5350606567542555,0.9740053384851204,0.6062600334922815,0.6917836094869872,0.20268191633264385,0.334353887670745
0.68,-132.54042472057287,84.07374528063377,163.6605790168891,0.1527065228712666,0.17420563658821137,0.18859240525891272,0.8333976826544285,0.5287816527971413,0.8445630554459352,0.20968930312958056,0.7112416730626215,0.1700510365938132,0.6492209605743846,-101.03212591267277,75.27339176651968,144.0218525335755,0.1306591889747679,0.5878039436060893,0.16169459933306915,0.644018861344753,0.9428664366561686,0.4290986781911646,0.33489589518229385,0.7020544357277408,0.17901790436453202,0.603964586222508,-197.07418317045972,16.99538615793865,55.98209740194131,1.2367715777148156,0.18945323717293266,0.24799935532920617,0.6413871443647068,0.6343297665868151,0.8173935443287141,-0.19827160120657492,0.43932755662750117,-0.8740262289317885,-0.0607709845598308,-91.96357298335803,44.597487734200065,169.62456257161668,0.6318050310390431,0.5918247640724799,0.20614385803947102,0.37973197352700017,0.595403990807106,0.9461483998458228,0.6146208814976792,0.6879905596744255,0.20185645387955337,0.32896761341820324
0.69,-132.26107712017628,84.26083285757149,163.60749044445677,0.1482218769357337,0.15329517738479873,0.19958399954046416,0.8264745777424564,0.4698545775484893,0.82045524854559,0.21038457196373592,0.7095234969723528,0.17184865226949192,0.6501365508269464,-100.9376271359299,75.77383296232824,141.88186400571013,0.10582025186145448,0.5614302121259859,0.15673245997693472,0.6337003846332832,0.8455561385921443,0.4310495249727131,0.32165748654599535,0.7035173451590506,0.1693380464070134,0.611810922386552,-196.52045974860775,17.289389370454117,57.37998663488777,1.2098158018558165,0.1812728693892356,0.24138702572514129,0.6236393968738997,0.6130968312333779,0.7835492803548232,-0.19949996087760657,0.450454302826988,-0.8685537638866324,-0.052634597755732926,-91.08252099496603,43.87916601952891,169.4951599028425,0.6288210803399644,0.5931497861426842,0.18891894333615142,0.37339170210997213,0.6616281735053754,0.91120162551465,0.6216058554034575,0.6851490164639851,0.19948252325716362,0.3247400212522798
0.7,-131.961449299275,84.4216438273755,163.64839145074882,0.14155667644623884,0.13372511131852372,0.20677346408577138,0.8040143651205839,0.4194173737457964,0.7916989131374039,0.21181459414519835,0.7077784998290797,0.17424292128211127,0.6507160019139865,-100.8817095423301,76.22115464910868,139.7677542989998,0.08192923719862964,0.535120987587031,0.15058227113397002,0.6219806188031995,0.7499910717848212,0.4246811151804008,0.30839452454226207,0.705128075573401,0.15937006160568828,0.6191952226824905,-195.9059261246861,17.616870167946036,58.72272253219292,1.196376299437344,0.1737769046253273,0.24797466150832279,0.6201632726171784,0.5966354391917031,0.7468880938191095,-0.20050532271228147,0.4611531767550014,-0.8631435293728095,-0.0439668706574949,-90.36132426261179,43.15023420910597,169.2196409675005,0.6208677924969752,0.594842624866985,0.17322827186526185,0.3672632047513088,0.7309867939559899,0.871299064547131,0.6272497423986938,0.6832524385201348,0.1956445008275923,0.32157875990761375
0.71,-131.6527515411225,84.55612687064219,163.76523892880533,0.1331858715734924,0.11607592111612004,0.20989694075355256,0.7668575955803549,0.38045564074469124,0.7596244539603045,0.2138209276511976,0.7060709219247184,0.1770684264641567,0.6510076203971926,-100.85745551028455,76.61580855348764,137.69088967023873,0.06038155956109132,0.5094905520645866,0.14338322150340788,0.609840360728215,0.6624973412726297,0.41075737444036575,0.2952235789050724,0.7068475273739339,0.1491931056189784,0.6260957412871768,-195.23845424492256,17.971762237852634,60.02799803538986,1.1965035303334242,0.16677947173816862,0.26592910962355876,0.6307432309941059,0.5857646467874641,0.7124078833492106,-0.20122797268784398,0.4715536246287383,-0.857740131905601,-0.034844164471984025,-89.79182163495138,42.414146967455935,168.8144946463149,0.6072110867446558,0.5935208596693975,0.15924429429726197,0.3618582428309894,0.8004295741165732,0.8285602358302655,0.6316372492125618,0.6822347710755748,0.19051628985220972,0.3193692883332119
0.72,-131.34701519462917,84.66546594276168,163.9375825771845,0.12378294430279446,0.10083622879787314,0.20903447873430844,0.7167223120063366,0.35528637202849983,0.7253625731911637,0.2162204195283522,0.704461564453007,0.18014591504884195,0.6510675264305624,-100.85688550241997,76.96027748937873,135.6577346061098,0.042605199506347655,0.4851134573837373,0.1353451936119976,0.5979012521436373,0.5882115944244766,0.39064378894421736,0.2822318400516449,0.7086324924071853,0.13887353360428153,0.6325080770056374,-194.52297072819945,18.349432294243766,61.313725602084666,1.2093871971296806,0.15997743512627313,0.2929645026590249,0.6541342894861137,0.5816511019867008,0.6847840593976647,-0.201616221063659,0.48178601465073395,-0.8522764295612327,-0.025316782851161717,-89.35947067257251,41.678770001387896,168.30177104284707,0.5872473357377286,0.5865052384267011,0.14720052456993538,0.35764795216950673,0.8666896454090498,0.7849683270416062,0.634893597930555,0.6819821959735748,0.18434388113163447,0.3179802307411379
0.73,-131.05602205664223,84.75213834780664,164.14407803593528,0.11416672669104773,0.08834639401205241,0.20461248502168033,0.6560055262883392,0.3453631386386661,0.6898445392974936,0.21881914462535074,0.7030027889488766,0.1832957851451053,0.6509559029478547,-100.87144241774357,77.25893395458304,133.66954053314706,0.030005441452927526,0.46247303266464257,0.12675894108896074,0.5864005730611475,0.530740918314519,0.3662043272108085,0.26947280263048523,0.7104365389656174,0.12846192511450263,0.6384434774090318,-193.76181704483218,18.746632463197784,62.59689045646613,1.2334834916144477,0.1530147622219016,0.3264898555278936,0.688139606060916,0.5857054480779176,0.6678467825013786,-0.20162724432647572,0.49197344209953886,-0.8466778629471957,-0.015412191550630682,-89.0456001193981,40.95521113582863,167.70747847396785,0.5606408730695733,0.5719676487338323,0.13738289406934742,0.3550958743196021,0.9264691529221659,0.7422980351159637,0.637171133259972,0.6823487060842525,0.17742156062563139,0.31727018610193863
0.74,-130.79024982083004,84.81979320884949,164.36386382806006,0.10524369823003443,0.07876788252393217,0.1973629005972057,0.5875506512665403,0.3511564573881713,0.6538243441689575,0.22142640714418327,0.7017347260840174,0.18635026833493099,0.6507332481809674,-100.89242159584258,77.51773649310225,131.72248138402188,0.023903317849387967,0.441912747219507,0.11799799084624538,0.5752309877110523,0.4920289638127773,0.3396671033145072,0.25696547642301787,0.7122108239360603,0.11799211993441314,0.6439261216063171,-192.95542176336352,19.161296451217424,63.89259863371734,1.2666849463109129,0.14555513120376684,0.3637779345752077,0.7297748803548771,0.5994452079021465,0.6642280900522288,-0.20122780771432186,0.5022247448896232,-0.8408670736016789,-0.005140776101271251,-88.8297645659917,40.25646756554369,167.05963326382508,0.5274407027029879,0.5489900161404918,0.13011012442389128,0.3546932330503985,0.9766965729821008,0.7020928922341154,0.6386342205417253,0.6831732958139782,0.17006529213854166,0.3170951411912057
0.75,-130.55794437972028,84.87295662668686,164.57767653495225,0.09794815150226123,0.07208109693136892,0.18824680471380453,0.5144197691912578,0.37210866824495503,0.6179054163252189,0.22386753401604276,0.7006831162466439,0.1891632197242744,0.650456905421943,-100.91132678210279,77.74380222818645,129.80823137042043,0.025466239349794872,0.42359813032525573,0.10951143737048483,0.5640416200846198,0.4723975368054271,0.3134768510336872,0.24469693717246313,0.7139049907030698,0.10748228831561941,0.6489897698758648,-192.1031396322634,19.592254212026685,65.21339273692048,1.306508785945006,0.137356605138893,0.40215103688402404,0.775506643412525,0.6243351601299382,0.6752031635584355,-0.2003949539745632,0.5126292383712543,-0.834768340227918,0.00549728355956843,-88.69192805266925,39.596037469508765,166.38627211904955,0.48816148901585343,0.5175418592221602,0.12570427100446993,0.35698221452223394,1.0148018755172399,0.6656807960778799,0.6394446575191569,0.6842965931267585,0.16258660537280714,0.3173156213975436
0.76,-130.3643836806518,84.9165962774504,164.76863918883464,0.09317988597004519,0.06810813200807976,0.178355052058993,0.4396961203795227,0.406663380606766,0.5825722893698826,0.2259946271989856,0.6998588837436229,0.19161701010052387,0.6501780530939795,-100.92014768836505,77.94490497874395,127.91492734335512,0.03562944359765081,0.40749550383168126,0.1018067861064269,0.5523907484311961,0.4707155995113914,0.2901511687164912,0.23262770611452993,0.7154684125664837,0.09693768425525068,0.6536741837468374,-191.20410725873253,20.038941333291508,66.56886559555224,1.350283451728147,0.1283407236359016,0.4391702539924797,0.8215471333936102,0.6616011457484117,0.7007137030685224,-0.1991166180415189,0.5232535021693834,-0.8283113996139108,0.01650533282158693,-88.61426008302418,38.986617907185796,165.71368248208233,0.4438200081395111,0.47838919891453074,0.12445424602026331,0.36255440166760233,1.0389484254507877,0.6342045606925025,0.639749429504811,0.685575136886839,0.15526974063726823,0.31780284952518195
0.77,-130.21136078345688,84.95559962703483,164.92271765614115,0.09173961374374402,0.06655279665366531,0.16879840954646283,0.36632704544057426,0.45237121184706064,0.548239236786963,0.22769483744748747,0.6992592588916413,0.19362655288807248,0.6499392526632018,-100.91156700329739,78.12895247255432,126.02842292207694,0.05500769915148489,0.39336999031897124,0.09542141973122822,0.5399228568544988,0.48464702362856243,0.272150282575892,0.2206992543461528,0.7168520002498895,0.0863545602302693,0.6580216660493988,-190.25798973848075,20.50116155070914,67.96556746181375,1.3953188533304952,0.11864796172992703,0.47280531805888965,0.8641824531357558,0.7120113165298609,0.7395368623693731,-0.197392003574686,0.5341403460523997,-0.8214343199299662,0.02788471959015187,-88.58240300731563,38.43897962518444,165.06502334789673,0.39592385658337365,0.4329487284712403,0.12657690748065753,0.37201755659919483,1.0481778670098005,0.6086389388683728,0.6396720249268426,0.6868920859902586,0.14835401802004622,0.3184434051621313
0.78,-130.0968983512278,84.99423220125715,165.02888747903555,0.0942647141549465,0.06704871983708872,0.1605970936276053,0.2970083049398501,0.5060696598485392,0.5153210951515778,0.2288959576631523,0.6988700689726772,0.19514085637232018,0.6497725832619335,-100.87911347646981,78.30349289372985,124.13373358160412,0.08379908936514605,0.38080122196168603,0.09088186971564122,0.5265237993926838,0.5109388219332598,0.2617598470115126,0.20884289578477516,0.718010611719014,0.07572478337221632,0.6620739681244387,-189.2655388166309,20.978930474031905,69.4071788945108,1.4390513451958205,0.10867261119236712,0.5015588624540205,0.9001037764972617,0.775637913192773,0.789548842339547,-0.19523147635303162,0.5453098455639389,-0.8140852529869693,0.03963093337645201,-88.58615156520958,37.96108251018667,164.45942113133324,0.3464133410791374,0.3831018756557161,0.13218074425369564,0.3859350192228587,1.0424538598942787,0.5897719391327874,0.6393078344700329,0.688163772319855,0.14202251066164476,0.319142131176604
0.79,-130.01520885620232,85.03564272259041,165.07908534484022,0.10117012339120827,0.06920723456589246,0.15457817369056065,0.2341066408005805,0.5641253649586472,0.48431284706709465,0.2295692515420395,0.6986687272390241,0.19614261168202268,0.6496983461527344,-100.81728291005346,78.47529097259651,122.21658701891346,0.12168720751058608,0.36921287116086504,0.08865227823610512,0.5124048284975182,0.5457241249099589,0.26097770801212383,0.19698944666557278,0.7189058663662545,0.06504088088764999,0.665869698701674,-188.2289341876697,21.472396647908393,70.89490595743746,1.4791596885377838,0.0990725650895933,0.5245269943499198,0.9267056814559806,0.8516401817564475,0.848027157991689,-0.19265573025783805,0.5567620858575871,-0.8062230584487958,0.051731466475458274,-88.61956413046047,37.55747467211243,163.9115481730091,0.29756016253831474,0.3309861607346944,0.1412361375212339,0.40475230651747457,1.0226145030122185,0.5781471850307797,0.6387235090873603,0.6893420670689933,0.13639721495736104,0.31982327842412867
0.8,-129.95691932819122,85.08147124693129,165.06803571812014,0.11260015113388737,0.07265887714666841,0.15129025906344334,0.1796139923908809,0.6227162242723673,0.4558510136840133,0.22972954443211446,0.6986274411180778,0.19664624248530188,0.6497243004465099,-100.72164902523882,78.65000000714879,120.2650106119975,0.16775443835565357,0.3579130398039949,0.08907619998446417,0.49808835868673695,0.5848245393790428,0.27139352611050516,0.18507914128853897,0.7195089976081828,0.054301406565645645,0.6694422840945731,-187.15191793953775,21.981813479553246,72.42804325434979,1.5136534333674247,0.09075228382552615,0.541394835231202,0.9423167719215083,0.9381221291529532,0.9119393627722175,-0.18969408031359844,0.5684810430991167,-0.7978168915527754,0.06416513273688713,-88.68059278709009,37.22900145194611,163.43163427308838,0.25182906568982105,0.2787851100493166,0.1535555004185435,0.42872857962159017,0.9902547580606335,0.5739879866262311,0.6379596273007758,0.6904129734311055,0.13154015159549418,0.3204300862615145
0.81,-129.9095739969057,85.13159944011821,164.9930446815666,0.12839698869879798,0.07708489703366989,0.15094608263950127,0.13512324173563173,0.6781241254811783,0.4307308812760817,0.22943274340453268,0.6987162148464893,0.19669467016195955,0.6498453907783361,-100.58897877216351,78.83194296508665,118.27088145392223,0.22042562160408674,0.3461458441361475,0.09231836277974544,0.48430546094084503,0.6240444758967,0.29405655043487433,0.17307121950770538,0.7198033513440949,0.04351652619624335,0.6728185025560031,-186.03974988881893,22.507528587105487,74.00464229273658,1.5409384413767535,0.08481951914894478,0.5523817454381416,0.9463383558602141,1.0321094212438389,0.9781763541183267,-0.18638189893046642,0.5804389534465549,-0.788844858814299,0.0769024243386592,-88.77036664089627,36.97283485601022,163.0258265649716,0.21171241792312204,0.2285400436069171,0.16878763447696568,0.45788658857881565,0.9475646845240356,0.5771385601020289,0.6370356618794927,0.6913921769849183,0.1274592997339956,0.3209231476418485
0.82,-129.85841012329263,85.18406502968136,164.85384010882584,0.14809062083240654,0.08223807852963817,0.15340189715902725,0.1018144905835167,0.7270097639635265,0.40986581733349686,0.2287710816964397,0.6989053174681275,0.19635494609604032,0.6500439418026688,-100.41735136396575,79.024005278881,116.23132640506402,0.27746509758213883,0.33315609834985344,0.09831506687873413,0.4718446196945056,0.6594536374628097,0.3293375865745688,0.16095236170383975,0.7197862192156106,0.03271351686241459,0.6760176493918463,-184.89901205623556,23.04996489014327,75.62221775355246,1.559864099923564,0.08251806769623408,0.5581591644584729,0.9392828354261847,1.1296689076168918,1.0437046437183601,-0.1827573644382074,0.5926005987545202,-0.7792918479984147,0.08990648879073226,-88.89228269823668,36.7828155696753,162.69679577137714,0.17955213662695582,0.18200520262118608,0.1864317119150666,0.49198952243152055,0.8971518769923945,0.5870552988286919,0.6359560720442757,0.6923184794461625,0.12411799619770465,0.3212779956008844
0.83,-129.78737627283678,85.235148979649,164.6525126708231,0.17091260433122674,0.08795480396677066,0.1581773968859586,0.08044380412834078,0.7666474051176547,0.3941921299881792,0.22786647285015435,0.6991670059520563,0.19571297096161433,0.6502903152774886,-100.20626143592003,79.22763256743839,114.14981384071699,0.336047575979163,0.3182657700224121,0.10674315138339033,0.461398323516018,0.687649740378627,0.37680082586391656,0.1487429939067869,0.7194698000454135,0.021941555353030995,0.6790514310540164,-183.73728302536875,23.609584231337628,77.27842206913888,1.569753183505996,0.08513980403674364,0.5597635717585256,0.9227177508927726,1.226172615328754,1.1056361411467535,-0.17885779331087734,0.604927097245935,-0.7691467080639223,0.1031344320501162,-89.05105178521724,36.65007721031457,162.44447995289167,0.1573659198882812,0.14056122502714485,0.20587423097380317,0.5305519231482382,0.8418741113703462,0.6028662753269316,0.6347163809100632,0.6932461179276228,0.12144638436589815,0.3214823727422297
0.84,-129.68033325846395,85.27963314388852,164.39358027809251,0.19583284865061235,0.09416109709584071,0.16451354517722272,0.07133141233527068,0.7951052171112986,0.38454083831772357,0.22686243226145558,0.6994764191423397,0.19486772394262675,0.6505440442887783,-99.95667281638057,79.44291709083046,112.0367684243585,0.39291332734618883,0.3009552191134184,0.11701679745134387,0.4534419576100846,0.7059832060136463,0.4351081111702297,0.1365006568587425,0.7188811594279105,0.011274948719577326,0.6819246483196423,-182.5626975430592,24.186841143042876,78.97161877759687,1.570409758365785,0.09391955741036927,0.5585193330866439,0.8991284487275784,1.3166851603926923,1.1612417683345453,-0.17471588996649626,0.6173789174438289,-0.7583990866932636,0.11653884240227443,-89.25182016398166,36.56389821629386,162.26685623812233,0.1466932855787112,0.1051916875794013,0.22644647344274352,0.5728932329651344,0.7846961676609067,0.6234998101092647,0.6333082898456641,0.6942369384081593,0.11935360088152742,0.3215336126931628
0.85,-129.5223490832117,85.3112143200954,164.0841635114464,0.22161526705809473,0.10087369137774788,0.17146076322142578,0.07435112239827595,0.8113642606934264,0.38150982372907805,0.225915113265743,0.699811678156548,0.19392561638667805,0.6507554674395829,-99.67098940393042,79.66874984966161,109.90959621295406,0.4446026926999871,0.2809386848892076,0.12831822871713314,0.44816120970862283,0.7127168937424122,0.501981880570316,0.12432013136923913,0.7180611083974286,0.0008140520041721348,0.6846365760073072,-181.3834116161646,24.78214317123428,80.70128944624481,1.5620966666616918,0.10991760108955188,0.5559729622024481,0.8717098426451384,1.3964296112018486,1.2079531356803606,-0.170356278233324,0.6299179112078109,-0.7470363692754038,0.13006957440944336,-89.49944826684697,36.512705422887024,162.16063847556347,0.14847211462034945,0.07651575845432719,0.24749361919968144,0.6182400927899779,0.7285666544865964,0.6478671233309315,0.631723190147796,0.6953532557535478,0.11773957216631538,0.3214364824636753
0.86,-129.3009746687398,85.32304525938292,163.73422532927893,0.24688696808597924,0.10819429852678668,0.1779870212442994,0.08892547626749307,0.8153749797270599,0.38536892793525646,0.22518411764830099,0.7001533323625113,0.19299561181690753,0.6508678769336106,-99.35292663005306,79.90301435078197,107.79211824752154,0.48774788804166713,0.2582234191960289,0.13966324249429554,0.44542930407056347,0.7070951472610402,0.574250637095385,0.11233060863767554,0.7170619735545675,-0.009316440282392424,0.6871827536160712,-180.20701007658712,25.395830676733528,82.46822230517618,1.5454758819186027,0.13389818266037076,0.5538270704434651,0.8440918720701522,1.4612716328166737,1.2433946839638315,-0.16579265281914743,0.6425082496812157,-0.7350412553962008,0.1436758231402524,-89.79798369453174,36.48513811834286,162.1218169201986,0.1629508250990061,0.054860116296879764,0.26844362263778454,0.6658716517624719,0.6762972929711932,0.6750704639100749,0.6299538231341174,0.6966520011222213,0.11650548929245517,0.3212017199685953
0.87,-129.0073739507644,85.30835550623378,163.35679942860583,0.27021733165214784,0.1162935298940958,0.1830938825354441,0.11403128659316482,0.8080495861077717,0.39601709767737503,0.22482381983519206,0.7004833695619771,0.19218556366541484,0.6508201646526112,-99.0072944717532,80.14280304930796,105.71352303725452,0.5193866875655258,0.2331440589020347,0.14999669713285224,0.4448265124162896,0.6893109520742724,0.6479912338825334,0.100690596839174,0.7159443118629621,-0.018971574668834586,0.6895567921587766,-179.03991428391743,26.02817725467881,84.27445531986467,1.5215113608576656,0.1662170912605298,0.553856866510688,0.8200064761768401,1.5081613719867077,1.2654689319071795,-0.16102580406133685,0.6551162831567673,-0.7223905100332183,0.15730836154967792,-90.15032552265443,36.471073057960496,162.1459838656831,0.18963747612849546,0.04034772209916339,0.2888651025472556,0.7152823080604833,0.6304264001192005,0.704599067183556,0.6279942459717588,0.6981804577161401,0.11556219705402988,0.32084536593158963
0.88,-128.637186852594,85.2610892808234,162.9681127494226,0.2902059235101088,0.12538197156409223,0.18592807381679075,0.14821793374048406,0.7911818358868846,0.4129925406974366,0.22497588793019924,0.7007840593792135,0.19159988485217344,0.6505498997266969,-98.63972890002,80.3846447789283,103.70701000955738,0.5372568194193882,0.20636709358710126,0.15830748777492376,0.445690950620094,0.6603844058102225,0.7187696052269962,0.08958132525971743,0.7147727558221159,-0.027991933563126258,0.691751845601258,-177.88686018345962,26.67940143303571,86.1229781623045,1.491340275014851,0.20673324851984237,0.5577976516011677,0.8029197230698101,1.5354782865100767,1.2724883588237217,-0.15604267795672175,0.6677094917864085,-0.7090552831912234,0.17092165301296963,-90.55804986721836,36.462510714371945,162.22842287955947,0.2272863893604949,0.032981067986985226,0.3085068117161552,0.7663175441346609,0.5930595000522912,0.7364725914379036,0.6258385846040511,0.6999735903021516,0.11483589656331468,0.32038884872593776
0.89,-128.19102966303782,85.17648924322313,162.58750256865966,0.30557867397828736,0.1356697846919416,0.18587663885867667,0.18963802686026496,0.7672826620655311,0.4355215655112983,0.22576343561112555,0.7010369172421723,0.1913382998129321,0.6499967047119385,-98.25642285532689,80.62473708089729,101.80829868377393,0.5400326642235761,0.17886357916566956,0.16374777718538178,0.44718958121948815,0.6219882585620227,0.7819703798203823,0.07919924187897849,0.7136113534884178,-0.03621035010735227,0.693761552001778,-176.7505140817305,27.349677551149234,88.01723065986312,1.4561235156193724,0.25475743937958595,0.5672035527348721,0.7956693437106522,1.5432282752272428,1.2633230427299411,-0.15081658683786706,0.6802548079818213,-0.6950031070380154,0.18447554020911575,-91.021356148517,36.454233668100194,162.36397572941823,0.27392522451566764,0.03270274411718076,0.32731453669497546,0.8192332904829231,0.5656973346106788,0.7712935067333461,0.6234792317279083,0.702052781378286,0.11427078662536645,0.3198596488269244
0.9,-127.67458155746516,85.05155779536152,162.237039679289,0.315288923739477,0.14732136622067735,0.1826353380530006,0.23609013490640623,0.7393323473557019,0.4625836917427102,0.22728685840233265,0.7012220619656547,0.19149512177631942,0.6491057257877878,-97.86390592044685,80.85917871156323,100.05414773934957,0.527475297557751,0.15185118991060398,0.1657383420084985,0.44839884788132434,0.5762628060816763,0.833194986759617,0.06974799901922452,0.7125189310076643,-0.04345879944226899,0.6955804059994029,-175.63127653778847,28.039137800527822,89.96046705904362,1.4168918743657257,0.3090469011641243,0.583288998530119,0.8001541864003,1.5330532225600306,1.2375300709628416,-0.14530865454700004,0.6927166956041644,-0.6802013500424453,0.19793636674811457,-91.53909607753764,36.44417144942059,162.54673794523217,0.3269289345327066,0.039424258847532326,0.345423126243737,0.8746458244331636,0.5490776984916431,0.8101771473012926,0.6209051717394539,0.7044257351577855,0.11382859732383525,0.31929225984190807
0.91,-127.09825885837422,84.88534185569742,161.9407959312043,0.31861568548330144,0.16041556743235702,0.17624304830916068,0.2850783548991006,0.7104752940380133,0.49297258177194336,0.22962104973000427,0.7013181939446418,0.19215828959362596,0.6478309317240392,-97.4689054042368,81.0841944476292,98.4809868550144,0.5004802127793765,0.12671022220479608,0.16404239503264065,0.4483855183884111,0.5256495945871004,0.868693247949013,0.06143020520783121,0.7115450536780386,-0.04957487979999036,0.6972035873613504,-174.5272998097603,28.74786432758885,91.95508042216925,1.3744088606296947,0.36784854597238603,0.6067726702947478,0.8171199082900664,1.5080379477845864,1.1954499349714416,-0.13947049840183925,0.7050554676995431,-0.6646216555916774,0.21127759127635806,-92.10885492077801,36.43344082232258,162.76966888894577,0.3831483388750132,0.05302206957012141,0.3631209357844278,0.9333735297956985,0.5430649617151977,0.8545480571589766,0.61810100520292,0.707087326118903,0.11348539252001454,0.3187290873056611
0.92,-126.47652656382341,84.67900863270062,161.72373379266176,0.3152487999675377,0.17492251802799896,0.1670792744942807,0.33390013291899634,0.6837066235484519,0.5253438388550994,0.23281350036143844,0.7013033463785097,0.19340735010618615,0.6461379490935315,-97.07829723353399,81.29633861316543,97.12371910122866,0.4610207993956338,0.10488236604703097,0.1587949932652318,0.4462832110660955,0.4727526020029455,0.8857764395564832,0.054439193812376496,0.7107270451637161,-0.05440754214858336,0.6986262540246951,-173.43471882914824,29.475875901612586,94.00198516546641,1.329071519922031,0.42898619274706723,0.6377484004040571,0.846078766724319,1.4723294764146002,1.1382748898242536,-0.13324803795016998,0.7172263082465796,-0.6482448036168207,0.22448005622030284,-92.72705939848903,36.426071078867004,163.02423085712007,0.4390975706964887,0.07330600906120259,0.3807827943154918,0.9962068533706802,0.5466170982247891,0.9058252640273853,0.6150470425578461,0.7100211430600786,0.11322648885843653,0.31822089411035853
0.93,-125.8269291214343,84.43570290759077,161.61024366424698,0.3053508711567136,0.19070463734649382,0.1558260851807532,0.3797751758785766,0.6616066960753644,0.558255081554367,0.23688280803969142,0.7011564637407576,0.19530976247846799,0.6440061714919056,-96.6991313586819,81.49265879525879,96.01470707287025,0.411996593693198,0.08776364223134463,0.15048299895423536,0.44136780345163773,0.42022087976251754,0.8831490099215344,0.04895108149987307,0.7100882982446712,-0.05782202329753585,0.6998423143419825,-172.34807774482977,30.223112564634754,96.10012441944268,1.280867040569707,0.48998007966500184,0.6756067149907575,0.8853866192809698,1.4306091831857246,1.0680944020203524,-0.12658626665330416,0.7291792243994171,-0.631065552826695,0.2375319733009654,-93.38908730355439,36.428462658189304,163.30018621449977,0.49119648206174044,0.09996975514793958,0.39877018703421774,1.063660336831091,0.5578489370547144,0.9650533555290373,0.6117206168726261,0.7132013887191812,0.11304075620744262,0.31782641924157784
0.94,-125.16893729992915,84.16019723392785,161.6224084261607,0.2895878574498533,0.20754325110726138,0.14339863268602895,0.42002115646016286,0.6461674263311222,0.5902116839259354,0.24181731802113415,0.7008597468637496,0.19791534383871034,0.6414299740157573,-96.33869911654128,81.67079977463186,95.1829227158011,0.35700235945580655,0.07660179478652993,0.1398790311561079,0.43313736000190445,0.37064358295690014,0.861100223099584,0.045117447085417525,0.709637879206136,-0.05970416442479305,0.7008427928427979,-171.2609275037916,30.98941129862447,98.24610953848754,1.229397475633336,0.5481840798150193,0.7190234723781374,0.9324727235550241,1.3874841549649164,0.9879057098879575,-0.11943484879596544,0.740859762287496,-0.6130973128976059,0.2504284139975272,-94.08935694012997,36.44865664056235,163.58567221980783,0.5360536742912736,0.1325361451684104,0.4173070011273424,1.1357557336103183,0.5741978808214501,1.0325529633426247,0.6080985862904517,0.7165947214372691,0.11291577579510413,0.317610867500395
0.95,-124.52271019131959,83.85836531777979,161.77813051446088,0.26912241089098,0.2251856432942973,0.1308506400574174,0.4522682432489956,0.6387289440361356,0.6197287081371171,0.24757390433378237,0.7004015815845583,0.20124926509248095,0.6384189794998442,-96.00460079502656,81.82903096655828,94.65322959402354,0.30003877708620114,0.07240460220299508,0.12793996215584358,0.4213932914223091,0.3264535493499744,0.8215187724296902,0.043059050774714995,0.7093712600180062,-0.05996432305588492,0.7016140611716458,-170.1665688085767,31.774452688026066,100.4339427668666,1.1739779493903124,0.6009297464101933,0.7660209307365177,0.9841840359487696,1.3468906936959444,0.9015597931418764,-0.11175442926838142,0.7522100063031129,-0.5943767928075968,0.2631698467284213,-94.82138693236512,36.49550740786058,163.86763456137462,0.5707654339382827,0.17031148150611178,0.43635267877669054,1.2118674047139377,0.5926855833980257,1.107657209469444,0.6041608464735313,0.7201616716230658,0.11283519599759743,0.31764309086340076
0.96,-123.90786711946387,83.53652668033257,162.08930801473994,0.24556605628709727,0.2434022924003002,0.11926427525368306,0.4746882661302586,0.6400156851802588,0.6454093188770532,0.25407720577310783,0.6997797490263524,0.2053045729228829,0.6349973901737602,-95.7047695893334,81.96618858041887,94.44577332087333,0.24518976123150943,0.07586179651280803,0.11568553285591801,0.40630494476057033,0.28984174067084173,0.767727487790934,0.04286106574613691,0.709271921113225,-0.05854092129368205,0.7021363305441398,-169.0589077878448,32.577654740045325,102.65475425946269,1.1138042324096733,0.6456732803684706,0.8140958474847253,1.0371814937064607,1.3116138249008398,0.8136093949950569,-0.10352347674602927,0.7631693486532813,-0.5749688479143695,0.27575927875547035,-95.57783793644366,36.577850176058554,164.13263625384712,0.5931964728993943,0.21236142479167816,0.4555033887721374,1.2906432739590903,0.6102535447730439,1.188577914923748,0.5998945219736885,0.723857460700626,0.11277910514018208,0.3179914507271238
0.97,-123.34235743878716,83.20072711110606,162.56028337940333,0.22088855329044316,0.26204149979484104,0.10963716953967763,0.48620065234017196,0.6502368218988308,0.6660306469410214,0.2612198641058266,0.6990045133036648,0.21003561516854505,0.631202401068653,-95.4474115803506,82.08153570700529,94.57546011390463,0.19629478463894853,0.08728135089265679,0.1040752256670219,0.3884334990751942,0.2626859731413496,0.7041683681767503,0.04457016646940124,0.7093135400419072,-0.05540350578284472,0.7023828361194714,-167.9333720210367,33.398002075136965,104.8965128154274,1.048172940798963,0.6801449588904074,0.8604024782680646,1.0883241506591108,1.2830082377905334,0.7290419286951739,-0.09474528603857094,0.7736747813479442,-0.5549714937293522,0.2881979057843423,-96.35056764500936,36.703741838518546,164.3679809623987,0.602201865227861,0.2575163934079803,0.4739495943107082,1.3700041787540622,0.6241317746212689,1.2724221184012727,0.595298360874067,0.7276323181164526,0.11272746305428859,0.31871855236567975
0.98,-122.84150825540496,82.85603230483282,163.1868014487296,0.19728572559615679,0.2810687450882245,0.10278051249994259,0.48661307514183727,0.6692044590365951,0.680626256367012,0.2688644138811401,0.698101111291998,0.21535388944552142,0.6270817209491678,-95.2408293060036,82.17455853107143,95.05148795249828,0.15664498737398122,0.10654105378859492,0.09390106881997162,0.36870052248704716,0.2464933681542171,0.6359869305052746,0.04819345338222779,0.709462499807795,-0.05055520609006777,0.7023200817136963,-166.78780505534917,34.233823541038944,107.14372945539812,0.9767235000455042,0.7024974432291138,0.901976039747958,1.1349946359664884,1.2609643652778477,0.652910508286902,-0.08545448753871464,0.7836608685910132,-0.5345205739740242,0.30047971467666046,-97.13073898163832,36.8798320480367,164.56301627559614,0.5977504066730427,0.30440787757835924,0.4905065394225677,1.4472223049396065,0.6321839646350621,1.3553643191324367,0.5903867449323997,0.731431604962536,0.11266584211067485,0.31987526004088385
0.99,-122.41732058268701,82.50591869081146,163.95569304946878,0.17701080432257504,0.30058023712867243,0.09923961135244382,0.4766649202838305,0.6964272314008222,0.6885590522252831,0.27684742294317005,0.6971111445123918,0.2211276721964815,0.6226903131204682,-95.09310938838813,82.24473249413255,95.87687025811653,0.12872840601997165,0.13305810177732114,0.08571036065602845,0.3483047240994344,0.24235173566351803,0.5685665537829124,0.05369875171802863,0.7096804978457285,-0.04403463149288832,0.7019093751508061,-165.62323098057004,35.082558443227526,109.37723387912438,0.8996602103567544,0.7114438969054586,0.9359801788541544,1.1753378358003508,1.2441130031316483,0.589907351071499,-0.07572217783232342,0.7930598682238312,-0.513793119987874,0.3125860025131176,-97.90901542291803,37.11089677347429,164.71043000661334,0.580921675130691,0.351530992918915,0.5037188410410692,1.5190794886386416,0.6331702497269354,1.432967199574169,0.5851926751169096,0.7351961343928897,0.11259214152901324,0.3214946083150852
1.0,-122.07807042254011,82.15184332342048,164.84543834438836,0.16217927912569013,0.320783503228196,0.09924339745829783,0.4579629679358258,0.7311544895045958,0.6895816444631463,0.28498626708000463,0.6960924104992919,0.22718633117100417,0.6180866131053656,-95.01167306554393,82.29130472576406,97.04788888929332,0.11404395067615596,0.16578192316793872,0.07976639216939249,0.32860361909355096,0.2508845386269072,0.50705714804293,0.0610155661145017,0.7099270963961275,-0.035917344813194516,0.7011096961773907,-164.44437463406916,35.94056797304145,111.57414099000547,0.8179102439600296,0.7063745000282492,0.9599560887801704,1.2083895796531618,1.2302144205541403,0.5439429042978954,-0.06565873606887121,0.8018025283222923,-0.4930082505555557,0.324481042519817,-98.67586109464646,37.39954374678674,164.8073336739475,0.553770685598996,0.3973249508451762,0.5120264844050167,1.58209911781575,0.6268837854383535,1.5006237448804554,0.5797691320089587,0.7388630484050803,0.11252266031612727,0.32358639078916185
1.01,-121.82824720160689,81.79306193559403,165.82765760088543,0.1545637182713273,0.34194250672565174,0.10268506972600087,0.4328207200923318,0.7723700021377331,0.6838766320570286,0.2930885308662561,0.6951168243205268,0.2333295569251424,0.6133286088381712,-95.00271079432227,82.31314420679847,98.5534502317406,0.11299791958261571,0.20321691460978966,0.07604892266802288,0.310979716744512,0.2722068256120447,0.4559382574476545,0.0700360374849017,0.7101621139204023,-0.026316969281343906,0.6998817288426356,-163.25984891616307,36.80304499513286,113.70812779981878,0.7331807403945231,0.6874402510713576,0.9720429468805502,1.2340704229987862,1.2166455086623136,0.5177957594346486,-0.05541357402972946,0.8098199078048433,-0.4724246154628055,0.3361099898304055,-99.42194330466005,37.74608252404054,164.85594590869295,0.5190780416951407,0.44026259022563563,0.5139691431983541,1.6328293769302888,0.6141439525392098,1.5540661647367973,0.5741883501834814,0.7423675156361438,0.11249597087348544,0.3261332945188856
1.02,-121.66882457738218,81.42674033160074,166.86943644862336,0.15540148813182814,0.3642909813801289,0.10913386647935447,0.40402716953541196,0.8187549878045124,0.6720612757105113,0.30096349843274145,0.6942662815941105,0.23934097927445844,0.608470234780218,-95.07054488665845,82.30870585825235,100.37438668146092,0.12489138379210976,0.2434808669286999,0.07429079367622814,0.2967084363077792,0.3058840795450282,0.41865505733781666,0.08061558300388615,0.7103478047747078,-0.01538575569576238,0.6981926903977255,-162.081974231018,37.66405186779969,115.7501100860068,0.6478938983474619,0.6555917943458982,0.9711359305747468,1.2530314854049422,1.2008929518069775,0.5128838911377945,-0.045171421446213944,0.8170462900288127,-0.4523338175535385,0.347399594845862,-100.13861674610963,38.148543569911595,164.86373909753047,0.4800225504923862,0.4789417689857571,0.5083998002178693,1.6681412852727628,0.5966573944620496,1.58986114775407,0.5685387561216035,0.7456453733482689,0.11257340712525633,0.32908941498121996
1.03,-121.59781306899768,81.04837134222701,167.93624437638368,0.16524109616237054,0.3879245494676454,0.11787682833083594,0.3745771219387641,0.8686524441894593,0.6551412598650858,0.3084346427275111,0.6936266056430571,0.2450048866484544,0.6035585336052078,-95.21698377335811,82.27613832553685,102.48282083276271,0.14800100909556424,0.28440145883297213,0.07404292384786816,0.28684231189077325,0.35090233874510596,0.39735947465354754,0.09257335663835536,0.7104508038418236,-0.003314184590125614,0.6960214345648538,-160.92625780000108,38.51668121278832,117.66934838542541,0.5650002493442164,0.6125584873139756,0.9569551795580117,1.2663720121892603,1.1809817979726642,0.5291823894077731,-0.03514517429941993,0.8234229869506712,-0.4330498380788902,0.3582615925520238,-100.81845387661853,38.60282980796212,164.84298355389407,0.43982410929723226,0.5121732736349807,0.4946772361088011,1.6855039125197202,0.5767813322690757,1.6058012069377248,0.5629195717059096,0.7486366565792357,0.11283558423085802,0.33238179202448037
1.04,-121.61100243594815,80.65247193657673,168.99508471035523,0.18384931562231893,0.41268832376768017,0.1279879510539875,0.3473969271595396,0.920067945510204,0.6344112450000798,0.31535159125735784,0.6932800771876438,0.25012418026425953,0.5986319914655056,-95.44074452510266,82.21353955653372,104.84176586088779,0.1797494385933057,0.3236482551045279,0.07475666975899982,0.28212283809825717,0.4056644812646599,0.3927749518835994,0.10569307847147147,0.7104438212946345,0.009670975870945247,0.693363233736728,-159.8106089983853,39.35330385586192,119.43493624427875,0.4876926019792556,0.560754261066424,0.930018791135845,1.2752875286301408,1.1558018713414349,0.5652847037226735,-0.025565755399668353,0.8289026072480902,-0.4148951099835985,0.36859805509653204,-101.45577362273941,39.10298616323195,164.80970353847616,0.40140707974854356,0.5390601122287969,0.47280885489198127,1.6832109195699962,0.5572366328477345,1.601119695216681,0.5574333775359642,0.7512897525271245,0.1133750801983174,0.3359152342276752
1.05,-121.70277488194347,80.23349659013317,170.01745485755393,0.21019229775513837,0.4380817155727399,0.1384204204523071,0.3250978533125638,0.970737322309248,0.6113166088766696,0.32159990222075124,0.6932973806783148,0.2545374025059084,0.5937203475979486,-95.73702346263238,82.11933361712468,107.40515907323525,0.21695425377126457,0.358892564972228,0.07587014442285114,0.28292556692010074,0.46802841392887595,0.4041874355417753,0.119725028620961,0.7103070610656936,0.02331074746446901,0.6902336673187776,-158.7543832586371,40.16585744693439,121.01755046047491,0.41906094548404976,0.5031061760574604,0.8915399215216175,1.2807327470857257,1.1253189739469467,0.6185819067816068,-0.016669785303799183,0.8334532025749439,-0.3981843752313236,0.3783077470773868,-102.04710819360642,39.641572738176876,164.7821397465803,0.36712847549658933,0.5590613782648393,0.4435197063813277,1.6605465422308636,0.5408172913144446,1.5764977681533199,0.5521772686456551,0.7535657049964294,0.1142861195864632,0.3395801873228294
1.06,-121.86686254579718,79.78686625906202,170.98171775158454,0.2424932391219149,0.46320526614224816,0.14811632411265488,0.3097832835972934,1.0182759013619793,0.5873006247950363,0.32710725590806256,0.6937299931174938,0.25813274855315327,0.5888459755090255,-96.09728607183578,81.99271262021594,110.11851785144904,0.25613636918216093,0.3879832456681026,0.07688449707590948,0.2892371616966797,0.5353942055479273,0.42955293228523245,0.13439008588880946,0.710029309491752,0.037320674973452476,0.6866711283917777,-157.77733115789263,40.94614358650662,122.39129562761985,0.3617382457931495,0.44281758459120013,0.8432878510614037,1.28318333720765,1.0906635158401636,0.6855228479617639,-0.008686075133802595,0.8370616635842512,-0.383207686100581,0.38729264420540976,-102.59153673026303,40.2101230187333,164.77888413636944,0.3386019222595944,0.5720321019638522,0.408231927534432,1.617885274441295,0.5301300323608432,1.5338758851936076,0.5472335979413727,0.7554420184387324,0.11565268668461219,0.3432628554970807
1.07,-122.09693559178066,79.30998244760133,171.87458736516717,0.27836082367537135,0.4867716636139802,0.15612679133733084,0.302925162968298,1.0603960931671208,0.5636633980011355,0.33184533914089637,0.6946040125674121,0.2608573800877965,0.584026609692918,-96.50932732730065,81.83406632906404,112.92037191409936,0.29385935719692685,0.409122909280572,0.07741877943948873,0.300659635275194,0.6048345261317603,0.46570476616512635,0.149386654427087,0.7096086057677654,0.0514006150155859,0.6827375445258687,-156.89850159618535,41.68612734966175,123.53546479885082,0.31758821169690626,0.38309442083559353,0.7874519838125217,1.282557041086546,1.054082760746034,0.7619177314405209,-0.001822011436928721,0.8397358648264373,-0.3702138671809233,0.39546410068062016,-103.09081145599798,40.79966100459109,164.81690321904355,0.3166305929811245,0.5782308277642002,0.36895275640799385,1.5567164184116082,0.5273809849460236,1.4761177359509328,0.542661603277973,0.7569152574168971,0.11753682541571316,0.3468563329033679
1.08,-122.38694136773023,78.80308274450468,172.6915861973779,0.31497858216483193,0.5071909412901714,0.16173250042846116,0.3053119682455748,1.095151869115556,0.5414563374786588,0.33582755081851834,0.695916201374755,0.26272102292474875,0.5792788303163319,-96.9576249912472,81.64531578310324,115.74455156505269,0.3270626793747858,0.4210258521426921,0.07723796541045029,0.31643935164405607,0.6732573671278282,0.5086400195213177,0.1644010848218917,0.7090523736844379,0.06524769936825148,0.6785169788757239,-156.13513396317305,42.37824966726717,124.43605858187462,0.28747985688663846,0.3268733786246526,0.7265281285527662,1.2783176118191157,1.0187422376773247,0.8432538652552404,0.0037491597550309164,0.8415053336351852,-0.35939558037983965,0.4027484274487711,-103.54921467821781,41.40124315649616,164.90968423950073,0.30124438972430173,0.5782897440388146,0.32808662339593564,1.4795800871366624,0.5342138371646603,1.40660109329939,0.5384913049940927,0.7580018659483628,0.1199688720591857,0.3502712621059088
1.09,-122.73116832489762,78.26980726352015,173.43650221726728,0.3493437209320563,0.5227209385463129,0.1645498879417885,0.31705907682668805,1.1211582091787562,0.5214283141057987,0.33910336388423706,0.6976326833124056,0.2637936431077663,0.574621484060617,-97.4239771545233,81.43007991331562,118.52328253291591,0.35334818529251955,0.42303764994349624,0.07625560209519255,0.33552325596291066,0.7375949183207063,0.5538632471096827,0.1791216100768667,0.7083768769393445,0.07857200509641432,0.6741119078915544,-155.50158126651132,43.01576036488608,125.08694179045877,0.27118051566875667,0.2765909275940865,0.663223149786906,1.2697420121474792,0.9883817688683444,0.9249974999247023,0.007899280699748457,0.8424205369662084,-0.3508769431160604,0.4090917377031632,-103.97311651668078,42.0064851193522,165.06572053642685,0.2918217497091306,0.5731471893974701,0.2882018011732925,1.3899059942907717,0.5515956535043836,1.3288248609052198,0.5347208131535153,0.7587369193498582,0.1229410374986857,0.3534445766912212
1.1,-123.1240704548285,77.71738526072204,174.1200233132308,0.3785403838411214,0.5316578639258824,0.16460483915441163,0.3376653108812087,1.1377432658743467,0.5040261077099597,0.3417505407844062,0.6996903516529285,0.2641978414821988,0.5700782198900352,-97.88838743271856,81.19363316098976,121.1908695557537,0.37118342436551394,0.4151986756993379,0.07451715062937798,0.3566468850895831,0.7950169215454583,0.5967665321751993,0.19325493482741005,0.7076058714799556,0.09111365126916736,0.6696372313994293,-155.00832041215824,43.593064694358205,125.49055787956638,0.2673800396922895,0.23402309291705406,0.6003600152241394,1.2562862301606408,0.9668676471931604,1.0028586164445819,0.01055378544437256,0.8425511174907969,-0.34470445051383847,0.41446388031676556,-104.37025005958773,42.608031105929804,165.2875017724609,0.2872668468836447,0.5639481171059567,0.2517892810674292,1.2917648480309123,0.5797391107379026,1.2461141708303316,0.5313175959897166,0.7591708729190868,0.12640520264204047,0.3563452044105217
1.11,-123.55994104048115,77.15640708881125,174.75783546142827,0.40002416326494034,0.5325363058540495,0.16235664699907473,0.3660961147326309,1.1450055121850737,0.48943675846156154,0.343866430249392,0.7020006816958015,0.2640973216341049,0.5656785167779206,-98.33014019226748,80.94264899995567,123.68760040503795,0.3799966564825525,0.39824076321276713,0.0721710137177635,0.3784554610599743,0.8431607902686554,0.6330280854696377,0.20654376954680936,0.7067683814238005,0.10265934895917439,0.665212431534467,-154.6611110347621,44.10606115120372,125.65815979520121,0.2738384004681576,0.2002110730211775,0.5407640364282839,1.2379513004566591,0.9577114931924519,1.0730040481418897,0.011697325744842037,0.8419834923126209,-0.34084172860743767,0.4188612408671949,-104.74877392723627,43.19992668938471,165.57110310970194,0.28621005708615627,0.5519236613599766,0.22104920269833606,1.1895657885833517,0.6180469948458566,1.1614722614103221,0.5282234923252426,0.7593646873707081,0.1302751269180814,0.35897612915772775
1.12,-124.03255099521537,76.60020299005403,175.36852023732607,0.4118849793413507,0.5243124783603667,0.15866183869663217,0.4008748102377634,1.143759694150958,0.47765147347990267,0.3455594212726289,0.704455373857016,0.2636831943377728,0.561456865954149,-98.72899327393971,80.68475838762168,125.96343098240355,0.3801539712564542,0.373516983782263,0.06943299141980236,0.3996510520720405,0.8803589391557017,0.6590121992213194,0.218783140862836,0.7058956329800616,0.11305620848463813,0.6609526517209361,-154.46035775124588,44.55244074312082,125.6095475460593,0.28763231859584726,0.17547140762610197,0.4871210301498364,1.2155477980979916,0.963629931604805,1.1322204739372483,0.011376339107021637,0.840818156987875,-0.3391684132735011,0.42230822359422027,-105.11624011410677,43.77786402438422,165.90638994113988,0.28720260801808584,0.5382653685209692,0.19773021435324614,1.08774689896867,0.6650757242700092,1.077577691427734,0.5253625366455932,0.7593839446141858,0.1344326137736842,0.36137281177511404
1.13,-124.5348596326788,76.06389657568872,175.97156884694144,0.413051112770666,0.5065105673323897,0.1546782215359494,0.4401718795687751,1.1353723630575319,0.46853492795601814,0.3469414157619519,0.7069331271439554,0.2631598959225499,0.5574500779980035,-99.06640440930306,80.42797648012518,127.98103935665763,0.3728256274887816,0.34287584899468393,0.06654855330134973,0.41914759528594336,0.9058359273440776,0.672144092622761,0.22983336127855636,0.7050173508718226,0.12222092921038225,0.6569596984560404,-154.40071952361473,44.931918946214125,125.37232733475683,0.3054663299432778,0.15947584805301024,0.44181390544821186,1.1907873965945326,0.986202980427436,1.1780409270139947,0.009698558844416769,0.8391668710487554,-0.3394832329070652,0.42485734587938334,-105.4786160172943,44.33928203365081,166.27778447833106,0.28888289065077183,0.5240122005905398,0.1830331184549875,0.9905035131788988,0.7185391473597216,0.99687636290647,0.522650190248597,0.7592927216801499,0.1387366443650672,0.36359851013948546
1.14,-125.05887130062459,75.5632357877763,176.58574662046527,0.4034031078611157,0.47931363027403795,0.15172105211782738,0.48189710548412557,1.1215133667411767,0.4618952952870729,0.348121914745287,0.7093068493602168,0.26273215817263446,0.5536930267623377,-99.32669882440062,80.18006415035755,129.7179326706402,0.3597642234301023,0.3084990714736187,0.06375666671141846,0.436206553770978,0.9198439262921055,0.6712143762212746,0.23962800806728968,0.7041578354879771,0.1301431641528218,0.6533140005396737,-154.47100060631624,45.246377607727915,124.98072752971079,0.32400911290288587,0.15137816446323737,0.4067565232592767,1.1661773976629106,1.0256688980118482,1.2088465202890994,0.006829521153334114,0.837149712852963,-0.34151119162764393,0.42658801707166794,-105.83951592593286,44.88332165904461,166.66548471080608,0.29010034446192356,0.5099685909278578,0.1775759249245936,0.9015878842002419,0.7753959055753598,0.9216926226686907,0.5200024116071449,0.759148063186497,0.1430341736018971,0.365737399980649
1.15,-125.5956656426503,75.11332911903631,177.22791414639653,0.38378055363302144,0.4435810281386689,0.15109252319587627,0.5238105024080744,1.1038726537339725,0.45755726623265214,0.3492039637737032,0.7114507260618328,0.2625938971561832,0.5502135264453345,-99.4980818476581,79.9478944805947,131.16741398056394,0.3430296760213121,0.2727244039361354,0.06125864836125684,0.4505248443068838,0.9237010148289776,0.6565537312270809,0.24817594907811272,0.7033324237172162,0.13688263046399446,0.6500683879869626,-154.65435297563332,45.49989905137724,124.47402538268055,0.3402161007469105,0.14996357020423984,0.3832461815998665,1.1447399077886489,1.0808729914206714,1.2239431337340898,0.0029860943346215595,0.8348918506679415,-0.3449146277259094,0.427604137691793,-106.19977508720653,45.41065506540896,167.04698863284847,0.28999249453373893,0.4966687077228478,0.18140723940046402,0.8242002016209393,0.8320651576338696,0.8542948341068627,0.517343151911394,0.758995832329572,0.14717122651600612,0.36788652438501596
1.16,-126.13558653604065,74.72742597643037,177.91227561503456,0.35588069217709756,0.40078255556034387,0.1539100318932184,0.5636652725011635,1.0839025458537026,0.4554358000409641,0.35028181373575407,0.7132467619836851,0.26291925674960076,0.5470273676957041,-99.57340693807828,79.73688923850045,132.3383452160722,0.32470357152052254,0.23787311777660886,0.059195111638169956,0.4622548786254945,0.9196992361449672,0.6300275767755804,0.2555572091607481,0.7025449849861175,0.14256031546768466,0.6472442439123685,-154.92881709728476,45.69867698004442,123.89465500538722,0.3516041177441343,0.15380019763866867,0.37185257803606614,1.1296109057293153,1.1493630968275004,1.2236010670309767,-0.0015729528289776043,0.832519838945944,-0.3493078471925898,0.42803061797546965,-106.5574484536636,45.92322343226993,167.39875996199294,0.28801966054517114,0.48439455591470976,0.19405226758540087,0.7609734556817107,0.884791978221104,0.7968883340300059,0.5146092811742939,0.7588684616548228,0.1510031106870851,0.37014751295195436
1.17,-126.66854317500221,74.41586924269694,178.64992341073392,0.3220614802628766,0.35285775687973664,0.16095675696050038,0.5993813918132656,1.0626431253985171,0.4555971472813406,0.3514398385419716,0.7145906152254831,0.2638555268695805,0.5441346295291164,-99.55062983065578,79.55057713912669,133.25377127336,0.30663639833862544,0.20609726498896472,0.05763330724940831,0.4719511698805772,0.9108672040572066,0.594837685331154,0.26191321420179203,0.7017869620945444,0.1473448537517931,0.6448302468748511,-155.26821583945045,45.85079446296391,123.28608315513443,0.35645185714442923,0.1613785969432999,0.37235906570349947,1.1235910742787694,1.22760029789744,1.2090410781461103,-0.0065592127784450975,0.8301573344664137,-0.35427492116623344,0.42800886866425153,-106.90824337240142,46.42392637451678,167.6978770423535,0.2839670799921643,0.47324391534615773,0.21458044221465744,0.714032650819153,0.9301449937643783,0.7515498832735069,0.5117525380718464,0.7587847034278664,0.15440287931518387,0.3726188015982445
1.18,-127.18436237596802,74.18531309288032,179.44851021896204,0.28507471180272426,0.3020287565392197,0.1725717963341567,0.6292317781763177,1.0406705122932776,0.4582862579022641,0.3527520875161945,0.7153967130054143,0.2655173864810312,0.541518128278583,-99.43291063583399,79.39030734898313,133.94858551522967,0.2902638896254248,0.17925651855193184,0.056566045474113154,0.480454897270791,0.9006022124729621,0.5551655397803325,0.26743260223900195,0.7010381884226579,0.15143571723960042,0.6427836606706462,-155.64338439777535,45.965875367025575,122.69055908081054,0.3539101287019394,0.17123176634694157,0.38377048001806435,1.1287213690251665,1.3112437786511462,1.1823545468572052,-0.011669332067556515,0.8279202938072888,-0.35938998490073,0.42769136621241366,-107.2463183421422,46.91630466515203,167.92353140456703,0.2779245693704313,0.4632309699784105,0.2416911171314143,0.6850910616985353,0.9655883505689536,0.7201439156355209,0.5087387069833551,0.7587510680939155,0.1572675293879437,0.37538886943390615
1.19,-127.67313941858292,74.03825043718354,180.31191128923774,0.24776734978255813,0.25060456632307226,0.18859022561225114,0.6520102353362078,1.018174420412623,0.46390345954524914,0.3542818209462037,0.7156027432701361,0.26798194910289147,0.5391443506753797,-99.22836042681135,79.25513222470386,134.46649987709057,0.2765138660225203,0.15882936583466215,0.05592218580096655,0.4887418959820978,0.8922175421208153,0.515724576963225,0.2723342464476477,0.700269407504315,0.15504513155997696,0.6410339692459259,-156.02366829968688,46.054640849310985,122.14686937764128,0.34401716344119576,0.18203333579041409,0.4043941946926405,1.1459470198015034,1.395479672056374,1.1463547341871578,-0.016601361934684755,0.8259118748578221,-0.36423896453695354,0.42723554613685366,-107.56531926033982,47.40424727682235,168.05827920565955,0.2702510348402887,0.4543921502037132,0.27381843269998085,0.6755444022106106,0.9900383900141474,0.7042632045016445,0.5055447198590546,0.7587644064586123,0.15952173248017723,0.3785308478412297
