0.01,107.06,53.63,172.44,7.93,0.71,5.76,0.10,0.10,0.01,30.19,7.19,44.50,0.05,0.02,0.01,0.27,0.66,0.60,0.37
0.02,105.69,78.81,176.75,9.55,0.03,2.04,0.08,0.02,0.00,46.25,4.69,27.75,0.06,0.14,0.15,0.38,0.61,0.47,0.51
0.03,105.75,78.81,176.75,9.58,0.01,2.07,0.05,0.03,0.00,46.25,4.69,27.75,0.03,0.11,0.17,0.38,0.61,0.47,0.51
0.04,105.81,78.75,176.75,9.61,0.00,2.00,0.02,0.03,0.01,46.00,5.06,27.37,0.00,0.09,0.09,0.38,0.61,0.47,0.51
0.05,105.81,78.69,176.81,9.61,0.02,2.00,0.01,0.03,0.00,46.00,5.06,27.37,0.00,0.08,0.08,0.38,0.61,0.47,0.51
0.06,105.81,78.69,176.81,9.57,0.03,2.04,0.02,0.01,0.01,46.00,5.06,27.37,0.04,0.06,0.13,0.38,0.61,0.47,0.51
0.07,105.75,78.69,176.87,9.50,0.03,2.04,0.00,0.01,0.01,46.00,4.69,28.19,0.11,0.07,0.12,0.38,0.61,0.47,0.51
0.08,105.69,78.69,176.94,9.59,0.26,1.89,0.00,0.01,0.01,46.00,4.69,28.19,0.02,0.16,0.01,0.38,0.61,0.47,0.51
0.09,105.69,78.69,176.94,9.53,0.25,1.87,0.03,0.01,0.01,45.19,4.69,27.37,0.13,0.17,0.08,0.38,0.61,0.47,0.51
0.10,105.69,78.69,176.94,9.41,0.25,1.78,0.03,0.00,0.01,45.19,4.69,27.37,0.15,0.04,0.00,0.38,0.61,0.47,0.51
0.11,105.75,78.69,176.87,9.52,0.11,1.92,0.05,0.01,0.02,45.19,4.69,27.37,0.07,0.04,0.05,0.38,0.61,0.47,0.51
0.12,105.87,78.69,176.69,9.52,0.18,2.00,0.06,0.01,0.02,46.00,5.50,27.75,0.12,0.04,0.09,0.38,0.61,0.47,0.51
0.13,105.94,78.69,176.56,9.51,0.11,1.99,0.05,0.00,0.00,46.00,5.50,27.75,0.11,0.07,0.10,0.38,0.61,0.47,0.51
0.14,106.00,78.69,176.56,9.52,0.06,2.01,0.04,0.01,0.01,46.00,5.50,27.75,0.15,0.18,0.05,0.38,0.61,0.47,0.51
0.15,106.00,78.69,176.56,9.42,0.05,1.92,0.03,0.02,0.00,46.00,5.37,27.75,0.16,0.13,0.01,0.38,0.61,0.47,0.51
0.16,106.06,78.69,176.56,9.49,0.00,1.90,0.01,0.01,0.00,46.00,5.37,27.75,0.12,0.10,0.00,0.38,0.61,0.47,0.51
0.17,106.06,78.69,176.56,9.48,0.08,2.01,0.01,0.01,0.00,45.56,5.37,27.00,0.15,0.02,0.08,0.38,0.61,0.47,0.51
0.18,106.06,78.69,176.63,9.46,0.08,2.05,0.01,0.00,0.01,45.56,5.37,27.00,0.14,0.08,0.13,0.38,0.61,0.47,0.51
0.19,106.06,78.69,176.63,9.48,0.02,2.03,0.01,0.00,0.01,45.19,5.00,27.75,0.12,0.09,0.10,0.38,0.61,0.47,0.51
0.20,106.00,78.69,176.63,9.56,0.00,2.00,0.01,0.00,0.00,45.19,5.00,27.75,0.05,0.09,0.15,0.38,0.61,0.47,0.51
0.21,106.00,78.69,176.69,9.48,0.03,2.00,0.00,0.02,0.00,45.19,5.00,27.75,0.13,0.07,0.08,0.38,0.61,0.47,0.51
0.22,106.06,78.69,176.69,9.47,0.04,1.96,0.00,0.02,0.01,46.25,6.00,27.00,0.14,0.06,0.04,0.38,0.61,0.47,0.51
0.23,106.06,78.69,176.81,9.46,0.03,2.04,0.01,0.02,0.01,46.25,6.00,27.00,0.15,0.07,0.13,0.38,0.61,0.47,0.51
0.24,106.06,78.69,176.81,9.46,0.03,2.08,0.00,0.01,0.01,46.25,5.00,28.19,0.07,0.05,0.22,0.38,0.61,0.47,0.51
0.25,106.00,78.69,176.81,9.53,0.20,2.90,0.04,0.01,0.00,46.25,5.00,28.19,0.07,0.09,0.99,0.38,0.61,0.47,0.51
0.26,106.06,78.69,176.75,9.22,0.32,4.49,0.10,0.07,0.01,46.25,5.00,28.19,0.38,0.21,2.58,0.38,0.61,0.47,0.51
0.27,106.19,78.56,176.56,9.22,0.24,3.26,0.01,0.22,0.11,46.25,5.00,26.56,0.03,0.06,0.43,0.38,0.61,0.47,0.51
0.28,106.37,78.31,175.94,9.64,0.15,2.78,0.04,0.24,0.17,46.25,5.00,26.56,0.12,0.06,1.52,0.38,0.61,0.47,0.51
0.29,106.50,78.06,175.25,10.46,0.07,3.14,0.04,0.17,0.11,45.56,5.00,27.00,0.45,0.19,1.58,0.38,0.61,0.48,0.51
0.30,106.56,78.12,175.12,9.64,0.23,4.37,0.17,0.10,0.02,45.56,5.00,27.00,0.02,0.16,2.64,0.38,0.61,0.47,0.51
0.31,106.94,78.19,174.87,9.19,0.49,4.57,0.14,0.08,0.02,45.56,5.00,27.00,1.00,0.46,2.66,0.38,0.61,0.47,0.51
0.32,107.06,78.25,174.87,8.14,0.82,4.88,0.10,0.06,0.04,45.56,5.50,27.75,1.81,0.79,3.05,0.38,0.61,0.47,0.51
0.33,107.12,78.19,175.00,7.55,0.90,4.84,0.12,0.21,0.01,45.56,5.50,27.75,2.18,0.63,2.83,0.37,0.62,0.47,0.51
0.34,107.31,77.94,175.00,7.10,0.73,4.84,0.11,0.30,0.01,45.56,5.50,27.75,2.70,0.45,2.78,0.37,0.62,0.47,0.51
0.35,107.31,77.37,175.25,6.39,0.26,4.43,0.03,0.56,0.03,45.19,5.50,27.87,3.50,0.16,1.95,0.37,0.62,0.47,0.50
0.36,107.25,76.50,175.81,5.76,0.14,4.14,0.06,1.07,0.05,45.19,5.50,27.87,3.95,0.42,1.74,0.37,0.62,0.48,0.50
0.37,107.06,75.19,176.56,5.24,0.46,3.70,0.12,1.27,0.07,44.75,5.69,28.69,4.07,0.64,0.53,0.36,0.63,0.48,0.49
0.38,106.63,73.37,177.56,5.49,0.55,2.96,0.27,1.76,0.10,44.75,5.69,28.69,3.87,0.71,0.10,0.36,0.64,0.49,0.48
0.39,106.06,71.12,178.25,6.43,0.28,2.33,0.43,2.18,0.02,44.75,5.69,28.69,2.84,0.37,0.83,0.35,0.65,0.50,0.46
0.40,105.56,68.50,178.56,7.84,0.31,1.67,0.38,2.35,0.15,43.38,6.00,31.06,0.89,0.41,1.74,0.34,0.65,0.51,0.45
0.41,105.37,66.12,178.50,9.66,1.15,3.06,0.25,2.06,0.16,43.38,6.00,31.06,2.06,1.57,1.06,0.33,0.66,0.52,0.43
0.42,104.81,64.25,178.87,10.29,1.40,3.42,0.27,1.51,0.01,39.69,4.56,35.56,1.45,1.32,0.83,0.32,0.67,0.52,0.42
0.43,105.37,63.06,178.44,6.83,0.70,4.34,0.39,0.97,0.12,39.69,4.56,35.56,2.09,0.29,0.39,0.32,0.67,0.53,0.42
0.44,106.12,61.81,177.87,6.65,0.13,3.95,0.26,1.22,0.14,39.69,4.56,35.56,1.99,0.03,0.66,0.31,0.68,0.53,0.41
0.45,106.87,60.06,177.38,9.92,0.76,2.80,0.27,1.73,0.20,35.25,6.00,38.50,1.42,0.99,2.08,0.30,0.68,0.53,0.40
0.46,107.25,58.13,177.25,12.13,0.04,3.06,0.00,1.66,0.04,35.25,6.00,38.50,3.82,0.00,1.77,0.29,0.69,0.54,0.39
0.47,107.00,56.69,177.56,9.27,0.15,4.03,0.21,1.13,0.03,33.06,6.37,39.75,1.07,0.06,1.33,0.28,0.69,0.54,0.38
0.48,106.25,55.56,178.06,7.42,0.50,3.99,0.42,1.09,0.01,33.06,6.37,39.75,0.56,0.77,1.79,0.28,0.70,0.55,0.37
0.49,105.94,54.00,178.31,8.25,0.08,4.50,0.10,1.51,0.04,33.06,6.37,39.75,0.31,0.25,1.25,0.27,0.70,0.55,0.36
0.50,106.56,52.25,178.06,9.32,0.79,5.96,0.26,1.55,0.14,30.25,6.75,42.25,1.56,0.59,0.02,0.26,0.71,0.55,0.35
0.51,107.87,50.56,177.44,9.52,1.08,6.19,0.49,1.47,0.13,30.25,6.75,42.25,1.94,0.81,0.01,0.25,0.71,0.56,0.35
0.52,109.25,49.06,176.94,9.74,0.89,6.14,0.41,1.31,0.05,27.25,6.37,43.50,2.33,0.55,0.26,0.24,0.72,0.56,0.34
0.53,109.75,48.44,176.75,9.19,0.26,6.12,0.31,0.90,0.10,27.25,6.37,43.50,1.90,0.12,0.42,0.23,0.72,0.56,0.33
0.54,110.75,47.56,176.31,8.43,0.27,5.63,0.25,0.68,0.06,27.25,6.37,43.50,1.24,0.71,1.01,0.23,0.72,0.56,0.33
0.55,111.37,46.81,176.12,8.10,0.48,5.42,0.04,0.65,0.03,23.50,6.75,46.50,0.60,1.00,1.26,0.22,0.72,0.56,0.33
0.56,111.25,46.06,176.31,7.33,0.31,6.74,0.09,0.66,0.00,23.50,6.75,46.50,0.31,0.74,0.08,0.22,0.73,0.56,0.32
0.57,111.19,45.31,176.37,7.69,0.07,7.23,0.04,0.72,0.07,23.50,6.75,46.50,1.29,0.18,0.72,0.22,0.73,0.57,0.32
0.58,104.12,44.44,176.25,9.05,1.19,7.85,0.06,0.75,0.12,23.19,7.87,46.56,2.13,1.05,0.71,0.21,0.73,0.57,0.31
0.59,104.12,43.75,176.06,8.72,1.62,7.63,0.19,0.60,0.06,23.19,7.87,46.56,1.69,1.02,0.49,0.21,0.73,0.57,0.31
0.60,104.50,43.25,175.69,7.76,1.15,7.42,0.30,0.40,0.08,20.56,9.69,48.87,0.62,0.23,0.08,0.20,0.73,0.57,0.31
0.61,104.44,42.94,175.31,6.88,0.43,7.01,0.10,0.17,0.17,20.56,9.69,48.87,0.16,0.44,0.21,0.20,0.74,0.57,0.31
0.62,104.31,42.75,175.12,6.31,0.37,7.19,0.00,0.21,0.17,20.56,9.69,48.87,0.01,1.15,0.16,0.20,0.73,0.57,0.31
0.63,104.31,42.38,175.06,7.07,0.56,7.49,0.11,0.35,0.14,19.19,9.69,48.56,0.87,1.14,0.43,0.20,0.74,0.57,0.31
0.64,104.19,41.94,175.19,7.93,0.09,7.86,0.19,0.38,0.08,19.19,9.69,48.56,1.46,0.38,0.46,0.19,0.74,0.57,0.30
0.65,104.38,41.63,175.50,7.78,0.54,7.66,0.24,0.25,0.06,19.25,10.00,48.56,1.26,0.02,0.35,0.19,0.74,0.57,0.30
0.66,104.38,41.50,175.81,6.55,1.20,7.64,0.17,0.09,0.07,19.25,10.00,48.56,0.18,0.60,0.22,0.19,0.74,0.57,0.30
0.67,104.31,41.44,175.94,6.26,0.98,7.48,0.10,0.02,0.02,19.25,10.00,48.56,0.22,0.46,0.15,0.20,0.74,0.57,0.30
0.68,104.50,41.37,175.94,6.81,0.24,7.22,0.05,0.08,0.05,18.19,9.69,48.56,0.33,0.27,0.10,0.19,0.74,0.57,0.30
0.69,104.44,41.25,175.94,7.16,0.08,7.53,0.01,0.13,0.07,18.19,9.69,48.56,0.91,0.47,0.31,0.19,0.74,0.57,0.30
0.70,104.50,41.19,175.94,7.61,0.44,8.16,0.08,0.01,0.05,17.50,9.38,49.50,1.15,0.07,0.80,0.19,0.74,0.57,0.30
0.71,104.50,41.31,176.06,7.58,0.66,8.28,0.10,0.16,0.07,17.50,9.38,49.50,0.99,0.13,0.72,0.19,0.74,0.57,0.30
0.72,104.56,41.63,176.19,6.91,0.46,7.26,0.01,0.33,0.09,17.50,9.38,49.50,0.38,0.01,0.04,0.20,0.74,0.57,0.30
0.73,104.87,42.19,176.19,6.77,0.13,7.30,0.05,0.54,0.03,18.56,9.69,50.25,0.18,0.34,0.05,0.20,0.74,0.57,0.30
0.74,104.81,42.88,176.25,7.21,0.06,7.86,0.07,0.62,0.02,18.56,9.69,50.25,0.53,0.40,0.69,0.20,0.74,0.57,0.31
0.75,104.75,43.19,176.19,7.02,0.33,7.56,0.15,0.48,0.03,19.25,9.69,48.56,0.27,0.14,0.46,0.20,0.74,0.56,0.31
0.76,105.12,43.69,175.94,7.37,0.69,7.98,0.17,0.41,0.08,19.25,9.69,48.56,0.56,0.17,0.94,0.20,0.74,0.56,0.31
0.77,105.00,44.38,175.56,7.53,0.41,7.66,0.01,0.43,0.10,19.25,9.69,48.56,0.67,0.12,0.67,0.21,0.73,0.56,0.32
0.78,105.19,44.63,175.56,7.39,0.40,7.73,0.05,0.45,0.08,20.00,9.69,48.19,0.47,0.13,0.80,0.21,0.73,0.56,0.32
0.79,114.00,45.06,175.50,7.32,0.72,7.53,0.01,0.35,0.02,20.00,9.69,48.19,0.35,0.17,0.65,0.21,0.73,0.56,0.32
0.80,113.88,45.44,175.50,7.35,0.83,7.24,0.02,0.30,0.05,21.50,10.00,48.19,0.40,0.34,0.34,0.21,0.73,0.56,0.33
0.81,114.06,45.75,175.50,7.42,0.83,7.29,0.01,0.24,0.07,21.50,10.00,48.19,0.46,0.22,0.57,0.21,0.73,0.56,0.33
0.82,113.94,46.00,175.56,8.01,0.37,7.10,0.03,0.23,0.10,21.50,10.00,48.19,0.93,0.13,0.33,0.21,0.73,0.56,0.33
0.83,113.94,46.25,175.69,8.04,0.20,7.17,0.03,0.23,0.08,22.19,9.69,47.38,0.89,0.38,0.53,0.21,0.73,0.55,0.33
0.84,114.00,46.56,175.69,7.96,0.14,7.52,0.14,0.26,0.03,22.19,9.69,47.38,0.69,0.05,0.91,0.22,0.73,0.55,0.33
0.85,114.25,46.81,175.56,7.73,0.74,7.42,0.13,0.28,0.02,22.19,9.69,47.38,0.65,0.40,0.55,0.22,0.73,0.55,0.34
0.86,114.44,47.13,175.44,8.03,1.03,7.04,0.11,0.28,0.02,22.56,8.19,47.38,0.97,0.56,0.27,0.22,0.73,0.55,0.34
0.87,114.31,47.56,175.50,8.16,0.63,6.75,0.19,0.42,0.11,22.56,8.19,47.38,0.82,0.19,0.43,0.22,0.73,0.55,0.34
0.88,113.56,48.00,175.81,8.00,0.08,7.28,0.23,0.43,0.10,22.56,9.00,47.00,0.61,0.81,0.86,0.22,0.73,0.55,0.34
0.89,112.94,48.50,176.12,8.22,0.35,7.59,0.02,0.38,0.07,22.56,9.00,47.00,1.03,0.52,1.06,0.23,0.73,0.55,0.34
0.90,112.88,48.87,176.12,8.55,0.33,7.37,0.02,0.38,0.07,22.56,9.00,47.00,1.16,0.09,0.94,0.23,0.73,0.55,0.35
0.91,112.94,49.44,176.06,8.89,0.72,6.44,0.11,0.47,0.07,23.69,7.87,45.75,1.37,0.19,0.04,0.23,0.73,0.54,0.35
0.92,112.69,50.06,176.19,8.79,0.38,6.36,0.10,0.65,0.09,23.69,7.87,45.75,1.03,0.20,0.20,0.24,0.72,0.54,0.35
0.93,112.12,50.94,176.37,8.17,0.02,6.45,0.16,0.78,0.08,25.06,8.19,45.38,0.56,0.36,0.29,0.24,0.72,0.54,0.36
0.94,111.75,51.88,176.56,7.96,0.11,6.11,0.06,0.84,0.08,25.06,8.19,45.38,0.29,0.10,0.00,0.25,0.72,0.54,0.36
0.95,111.50,52.81,176.63,8.39,0.17,5.46,0.05,0.83,0.09,25.06,8.19,45.38,0.58,0.17,0.44,0.25,0.72,0.54,0.37
0.96,111.19,53.69,176.75,8.81,0.09,5.40,0.06,0.83,0.08,26.56,7.50,44.06,0.90,0.23,0.38,0.26,0.71,0.53,0.37
0.97,110.81,54.69,176.87,8.84,0.07,5.44,0.11,0.91,0.06,26.56,7.50,44.06,0.84,0.38,0.21,0.26,0.71,0.53,0.38
0.98,110.31,55.81,177.06,8.56,0.14,5.09,0.17,1.04,0.06,29.19,7.19,43.75,0.45,0.42,0.40,0.27,0.71,0.53,0.38
0.99,109.81,57.00,177.25,8.01,0.06,4.70,0.18,1.11,0.04,29.19,7.19,43.75,0.21,0.31,0.62,0.27,0.70,0.53,0.39
1.00,109.44,58.19,177.44,8.07,0.19,4.46,0.15,1.06,0.03,29.19,7.19,43.75,0.26,0.03,0.69,0.28,0.70,0.52,0.40
1.01,109.19,58.75,177.50,8.48,0.19,4.34,0.16,1.00,0.05,31.06,6.37,42.88,0.04,0.00,0.64,0.28,0.70,0.52,0.40
1.02,108.81,59.88,177.69,8.59,0.08,4.05,0.09,1.03,0.05,31.06,6.37,42.88,0.06,0.09,0.76,0.29,0.69,0.52,0.41
1.03,108.56,61.06,177.75,8.54,0.12,3.92,0.05,1.04,0.04,32.06,7.50,40.88,0.13,0.03,0.90,0.30,0.69,0.52,0.41
1.04,108.44,62.25,177.81,8.41,0.16,3.78,0.07,1.08,0.04,32.06,7.50,40.88,0.46,0.05,0.55,0.30,0.68,0.51,0.42
1.05,108.25,63.44,177.87,8.18,0.00,3.93,0.05,1.05,0.05,32.06,7.50,40.88,0.76,0.27,0.59,0.31,0.68,0.51,0.43
1.06,108.06,64.56,178.00,8.14,0.16,3.52,0.03,1.04,0.06,34.69,6.00,39.56,0.78,0.29,0.72,0.31,0.68,0.51,0.43
1.07,108.00,65.75,178.06,8.18,0.16,3.32,0.12,0.99,0.06,34.69,6.00,39.56,0.62,0.11,0.57,0.32,0.67,0.50,0.44
1.08,108.12,66.81,177.94,8.53,0.12,3.48,0.17,0.97,0.05,34.69,6.00,39.56,0.49,0.02,0.24,0.32,0.67,0.50,0.45
1.09,108.19,67.87,177.87,8.61,0.08,3.37,0.07,0.93,0.06,37.19,5.69,38.50,0.42,0.23,0.49,0.33,0.66,0.50,0.45
1.11,107.81,69.87,178.19,8.56,0.21,3.20,0.05,0.90,0.08,38.56,5.00,35.56,0.64,0.32,0.16,0.34,0.66,0.49,0.46
1.12,107.87,70.81,178.19,9.30,0.19,2.74,0.09,0.82,0.04,38.56,5.00,35.56,0.08,0.15,0.33,0.34,0.65,0.49,0.47
1.14,107.81,72.75,178.19,8.17,0.14,2.85,0.04,0.93,0.05,40.75,5.00,34.00,1.11,0.00,0.08,0.35,0.65,0.48,0.48
1.15,107.75,73.69,178.31,8.44,0.09,2.59,0.05,0.69,0.10,40.75,5.00,34.00,0.68,0.16,0.16,0.35,0.64,0.48,0.48
1.16,107.75,74.44,178.62,8.94,0.58,2.52,0.11,0.66,0.12,41.19,5.69,32.38,0.69,0.39,0.02,0.36,0.64,0.47,0.49
1.17,107.87,75.25,178.81,8.41,0.25,2.63,0.17,0.75,0.09,41.19,5.69,32.38,1.42,0.03,0.25,0.36,0.64,0.47,0.49
1.18,107.94,76.06,178.81,8.28,0.24,2.61,0.04,0.69,0.03,41.19,5.69,32.38,1.23,0.28,0.26,0.36,0.63,0.47,0.50
1.19,107.87,76.69,178.87,8.59,0.35,2.62,0.01,0.53,0.03,43.75,5.69,31.56,0.94,0.39,0.37,0.37,0.63,0.46,0.50
1.20,107.94,77.25,178.87,8.74,0.13,2.34,0.11,0.49,0.01,43.75,5.69,31.56,0.91,0.07,0.27,0.37,0.63,0.46,0.51
1.21,108.06,77.75,178.62,8.68,0.07,2.44,0.17,0.45,0.01,43.69,5.00,29.56,0.90,0.02,0.37,0.37,0.63,0.46,0.51
1.22,108.12,78.25,178.56,8.77,0.04,2.47,0.03,0.41,0.04,43.69,5.00,29.56,0.82,0.08,0.48,0.37,0.63,0.46,0.51
1.24,107.87,78.69,179.00,8.77,0.17,2.30,0.06,0.29,0.00,44.75,5.37,28.25,0.84,0.14,0.38,0.37,0.62,0.46,0.51
1.25,107.81,78.75,179.00,8.76,0.00,2.14,0.15,0.24,0.00,44.75,5.37,28.25,0.85,0.02,0.26,0.37,0.62,0.46,0.51
1.26,107.56,79.00,179.19,8.99,0.09,2.39,0.17,0.16,0.01,45.56,4.56,27.50,0.63,0.12,0.54,0.38,0.62,0.46,0.51
1.27,107.19,79.06,179.31,8.59,0.11,2.75,0.22,0.10,0.03,45.56,4.56,27.50,1.03,0.09,0.90,0.38,0.62,0.46,0.51
1.28,106.87,79.12,179.31,8.65,0.01,2.69,0.28,0.07,0.06,45.56,4.56,27.50,0.97,0.00,0.85,0.38,0.62,0.46,0.51
1.29,106.44,79.25,179.31,8.91,0.03,2.79,0.26,0.04,0.09,46.25,4.56,27.06,0.50,0.15,1.14,0.38,0.62,0.46,0.51
1.30,106.25,79.25,179.00,9.15,0.37,3.02,0.14,0.01,0.08,46.25,4.56,27.06,0.74,0.48,1.07,0.38,0.61,0.46,0.51
1.31,106.12,79.19,178.81,8.98,0.58,3.04,0.09,0.03,0.04,46.25,4.56,27.06,0.76,0.50,1.08,0.38,0.61,0.46,0.51
1.32,106.00,79.19,178.69,8.98,0.59,2.78,0.15,0.02,0.09,46.00,5.00,27.50,0.68,0.30,0.73,0.38,0.61,0.47,0.51
1.33,105.87,79.19,178.38,9.62,0.47,2.79,0.22,0.09,0.07,46.00,5.00,27.50,0.00,0.41,0.95,0.38,0.61,0.47,0.51
1.34,105.44,79.00,178.25,9.80,1.67,2.39,0.09,0.25,0.04,45.56,4.19,27.50,0.18,1.62,0.50,0.39,0.61,0.47,0.51
1.35,105.50,78.75,178.06,9.18,1.76,2.27,0.14,0.19,0.09,45.56,4.19,27.50,0.43,1.69,0.34,0.38,0.61,0.47,0.51
1.36,105.81,78.56,177.31,8.89,1.60,2.23,0.16,0.17,0.13,45.56,4.19,27.50,0.19,0.94,0.33,0.38,0.61,0.47,0.51
1.37,106.19,78.25,176.44,10.45,0.70,2.40,0.32,0.37,0.12,46.00,4.19,27.87,1.16,0.31,0.13,0.38,0.61,0.47,0.50
1.38,106.69,77.87,175.62,10.16,0.48,1.97,0.20,0.22,0.11,46.00,4.19,27.87,0.57,0.31,0.09,0.38,0.62,0.47,0.50
1.39,107.06,77.62,174.87,9.43,0.09,1.64,0.25,0.14,0.15,45.56,5.00,28.38,0.14,0.11,0.45,0.37,0.62,0.47,0.50
1.40,107.63,77.44,173.81,8.85,0.09,1.77,0.21,0.16,0.23,45.56,5.00,28.38,0.70,0.35,0.34,0.37,0.62,0.48,0.51
1.41,108.06,77.31,172.75,8.29,0.78,2.29,0.10,0.08,0.17,45.19,5.75,28.38,1.00,0.36,0.28,0.37,0.62,0.48,0.51
1.42,108.06,77.12,172.56,9.18,0.49,2.60,0.08,0.24,0.00,45.19,5.75,28.38,0.30,0.04,0.40,0.37,0.62,0.48,0.51
1.43,107.87,76.87,172.87,9.98,0.42,1.80,0.21,0.21,0.04,45.19,5.75,28.38,0.44,0.68,0.41,0.37,0.62,0.48,0.50
1.44,107.44,76.69,173.44,9.56,0.32,2.12,0.19,0.14,0.05,45.19,5.69,28.75,0.17,0.42,0.31,0.37,0.62,0.48,0.50
1.45,107.19,76.69,173.87,9.59,0.04,2.96,0.04,0.00,0.04,45.19,5.69,28.75,0.18,0.10,0.57,0.37,0.62,0.48,0.50
1.46,107.06,76.69,174.19,9.63,0.23,2.43,0.16,0.00,0.03,45.19,5.69,28.75,0.08,0.00,0.19,0.37,0.62,0.48,0.50
1.47,106.25,76.69,174.94,9.30,0.01,2.72,0.49,0.03,0.08,44.50,5.25,28.75,0.02,0.37,0.98,0.37,0.62,0.48,0.50
1.48,105.44,76.69,175.87,9.75,0.24,3.55,0.33,0.15,0.01,44.50,5.25,28.75,0.26,0.31,1.18,0.38,0.62,0.49,0.49
1.49,105.06,76.50,176.12,9.34,0.06,2.68,0.17,0.17,0.04,45.19,5.69,30.06,0.43,0.21,0.35,0.38,0.62,0.49,0.49
1.50,105.00,76.31,176.12,8.84,0.06,2.85,0.11,0.13,0.04,45.19,5.69,30.06,1.01,0.29,0.59,0.38,0.62,0.49,0.49
1.51,104.69,76.19,176.19,8.58,0.39,2.56,0.32,0.13,0.05,45.19,5.69,30.06,0.93,0.54,0.23,0.38,0.62,0.49,0.49
1.52,103.94,75.94,176.56,9.11,0.43,2.08,0.54,0.22,0.05,44.69,4.69,30.88,0.40,0.57,0.28,0.38,0.61,0.49,0.49
1.53,103.06,75.75,177.25,9.32,0.50,2.18,0.61,0.15,0.00,44.69,4.69,30.88,0.08,0.68,0.17,0.38,0.61,0.50,0.48
1.54,102.38,75.62,177.87,9.66,0.90,2.07,0.38,0.17,0.04,43.69,4.69,30.50,0.16,0.81,0.35,0.38,0.61,0.50,0.48
1.55,102.12,75.50,178.38,9.62,1.04,1.68,0.05,0.08,0.08,43.69,4.69,30.50,0.12,0.97,0.76,0.38,0.61,0.50,0.48
1.56,102.06,75.44,178.69,9.06,0.79,2.09,0.06,0.01,0.08,43.69,4.69,30.50,0.43,0.74,0.35,0.38,0.61,0.50,0.48
1.57,102.12,75.44,178.75,9.04,0.21,2.65,0.03,0.04,0.02,44.50,4.69,30.37,0.45,0.26,0.19,0.38,0.61,0.50,0.48
1.58,102.12,75.37,178.75,9.28,0.55,2.53,0.03,0.12,0.00,44.50,4.69,30.37,0.20,0.60,0.05,0.38,0.61,0.50,0.48
1.59,101.94,75.12,179.06,9.41,0.23,3.01,0.11,0.17,0.06,43.69,4.69,30.37,0.06,0.19,0.50,0.38,0.61,0.50,0.47
1.60,101.81,75.06,179.31,9.16,0.11,3.65,0.11,0.11,0.08,43.69,4.69,30.37,0.31,0.09,1.12,0.38,0.61,0.50,0.47
1.61,101.62,75.00,179.69,9.36,0.01,3.32,0.09,0.01,0.02,43.69,4.69,30.37,0.10,0.00,0.78,0.38,0.61,0.50,0.47
1.62,101.81,75.00,179.56,9.31,0.01,2.89,0.16,0.04,0.01,44.00,3.87,31.56,0.21,0.03,0.12,0.38,0.61,0.50,0.47
1.63,102.00,75.00,179.56,9.52,0.27,2.51,0.05,0.01,0.05,44.00,3.87,31.56,0.05,0.25,0.01,0.38,0.62,0.50,0.47
1.64,101.94,75.00,179.75,9.45,0.23,2.51,0.01,0.04,0.06,44.00,3.87,31.56,0.21,0.17,0.12,0.38,0.62,0.50,0.47
1.66,101.75,74.87,179.69,9.01,0.11,2.94,0.07,0.05,0.06,44.06,3.56,31.19,0.50,0.09,0.33,0.38,0.62,0.50,0.47
1.67,101.87,74.87,179.69,8.89,0.10,2.82,0.22,0.01,0.06,43.75,2.87,30.75,0.57,0.08,0.27,0.38,0.62,0.50,0.47
1.68,102.12,74.87,179.56,8.80,0.29,2.74,0.23,0.02,0.09,43.75,2.87,30.75,0.62,0.30,0.20,0.38,0.62,0.50,0.47
1.69,102.25,74.87,179.38,8.96,0.39,2.84,0.13,0.03,0.10,43.75,2.87,30.75,0.49,0.36,0.29,0.38,0.62,0.50,0.47
1.70,102.25,74.94,179.12,9.44,0.63,3.12,0.09,0.03,0.06,44.06,3.19,31.19,0.02,0.59,0.58,0.38,0.62,0.50,0.47
1.71,102.31,74.94,179.19,9.60,0.72,3.46,0.06,0.03,0.01,44.06,3.19,31.19,0.14,0.68,1.10,0.38,0.62,0.49,0.47
1.72,102.38,75.00,179.50,9.61,0.52,3.85,0.09,0.00,0.07,44.06,2.87,31.56,0.13,0.50,1.31,0.38,0.62,0.50,0.47
1.73,102.56,74.94,179.87,9.42,0.34,3.57,0.08,0.04,0.07,44.06,2.87,31.56,0.04,0.33,1.03,0.38,0.62,0.50,0.47
1.74,102.62,74.87,179.81,9.35,0.45,3.19,0.02,0.08,0.05,44.06,2.87,31.56,0.11,0.46,0.64,0.38,0.62,0.50,0.47
1.75,102.50,74.75,179.81,9.50,0.53,3.22,0.21,0.09,0.03,43.75,4.69,31.19,0.03,0.54,0.64,0.38,0.62,0.50,0.47
1.76,102.31,74.69,179.94,9.36,0.14,3.25,0.25,0.10,0.03,43.75,4.69,31.19,0.09,0.14,0.66,0.38,0.62,0.50,0.47
1.77,102.00,74.56,179.87,9.43,0.71,3.01,0.19,0.14,0.03,44.06,4.25,31.19,0.01,0.72,0.39,0.38,0.62,0.50,0.47
1.78,101.81,74.44,179.81,9.59,0.75,2.74,0.04,0.09,0.03,44.06,4.25,31.19,0.15,0.76,0.10,0.38,0.62,0.50,0.47
1.79,101.81,74.37,179.94,9.35,0.27,2.31,0.05,0.01,0.04,44.06,4.25,31.19,0.08,0.26,0.32,0.38,0.62,0.50,0.47
1.80,101.94,74.37,179.81,9.14,0.01,2.24,0.01,0.05,0.04,44.50,4.25,32.00,0.49,0.36,0.20,0.38,0.62,0.50,0.47
1.81,102.00,74.44,179.69,9.07,0.46,2.63,0.05,0.01,0.02,44.50,4.25,32.00,0.37,0.48,0.01,0.38,0.62,0.50,0.47
1.82,101.94,74.44,179.63,9.20,0.36,2.72,0.02,0.01,0.01,43.38,4.25,32.75,0.03,0.00,0.10,0.38,0.62,0.50,0.47
1.83,101.94,74.44,179.63,9.48,0.23,2.64,0.03,0.05,0.02,43.38,4.25,32.75,0.01,0.20,0.01,0.38,0.62,0.50,0.47
1.85,101.94,74.31,179.50,9.37,0.12,2.85,0.05,0.05,0.01,43.38,3.25,30.75,0.08,0.15,0.21,0.38,0.62,0.50,0.47
1.86,101.81,74.25,179.56,9.34,0.02,2.91,0.06,0.04,0.00,43.38,3.25,30.75,0.11,0.13,0.28,0.38,0.62,0.50,0.47
1.88,101.75,74.06,179.56,9.24,0.15,3.03,0.03,0.04,0.02,42.88,4.00,32.00,0.25,0.10,0.22,0.38,0.62,0.50,0.47
1.89,101.69,74.00,179.50,9.20,0.07,2.88,0.04,0.06,0.01,42.88,4.00,32.00,0.08,0.02,0.12,0.38,0.62,0.51,0.47
1.90,101.69,73.94,179.50,9.43,0.07,2.68,0.04,0.06,0.00,43.00,4.25,32.38,0.06,0.15,0.23,0.38,0.62,0.51,0.47
1.91,101.62,73.87,179.56,9.43,0.23,2.42,0.02,0.03,0.01,43.00,4.25,32.38,0.03,0.25,0.30,0.38,0.62,0.51,0.47
1.92,101.62,73.81,179.56,9.34,0.25,2.41,0.00,0.03,0.00,43.00,4.25,32.38,0.07,0.23,0.31,0.38,0.62,0.51,0.47
1.93,101.56,73.81,179.50,9.44,0.05,2.45,0.06,0.03,0.01,42.56,3.25,32.75,0.06,0.06,0.22,0.38,0.62,0.51,0.47
1.94,101.69,73.81,179.38,9.48,0.15,2.51,0.04,0.02,0.03,42.56,3.25,32.75,0.02,0.42,0.50,0.38,0.62,0.51,0.47
1.95,101.62,73.81,179.25,9.50,0.42,2.09,0.08,0.02,0.01,42.56,2.87,32.75,0.07,0.49,0.72,0.38,0.62,0.51,0.47
1.96,101.44,73.81,179.38,9.45,0.18,2.07,0.18,0.01,0.02,42.56,2.87,32.75,0.03,0.20,0.65,0.38,0.62,0.51,0.47
1.97,101.19,73.87,179.69,9.71,0.19,2.29,0.18,0.03,0.03,43.00,3.56,31.19,0.39,0.40,0.28,0.38,0.62,0.51,0.46
1.98,101.06,73.94,179.81,9.83,0.56,2.58,0.07,0.19,0.01,43.00,3.56,31.19,0.40,0.58,0.01,0.38,0.62,0.51,0.46
1.99,101.19,74.19,179.69,9.64,0.17,2.52,0.12,0.34,0.01,43.00,3.56,31.19,0.08,0.02,0.09,0.38,0.62,0.51,0.47
2.00,101.31,74.62,179.63,9.40,0.13,2.61,0.05,0.37,0.02,43.00,3.56,32.38,0.14,0.13,0.18,0.38,0.61,0.51,0.47
2.01,101.19,75.00,179.81,9.26,0.10,2.86,0.05,0.34,0.03,43.00,3.56,32.38,0.17,0.25,0.39,0.39,0.61,0.50,0.47
2.02,101.12,75.37,179.94,9.37,0.34,3.02,0.02,0.34,0.01,43.00,3.56,32.38,0.10,0.29,0.67,0.39,0.61,0.50,0.47
2.03,101.25,75.81,179.81,9.19,0.01,2.95,0.10,0.36,0.01,44.06,3.56,30.37,0.48,0.15,0.58,0.39,0.61,0.50,0.48
2.04,101.50,76.25,179.63,8.94,0.27,2.97,0.12,0.42,0.00,44.06,3.56,30.37,0.54,0.37,0.68,0.39,0.61,0.50,0.48
2.05,101.56,76.69,179.50,9.34,0.41,2.79,0.04,0.40,0.00,44.50,3.25,30.75,0.13,0.35,0.47,0.39,0.61,0.50,0.48
2.06,101.50,77.12,179.63,9.39,0.26,2.68,0.10,0.34,0.01,44.50,3.25,30.75,0.24,0.21,0.61,0.39,0.60,0.50,0.48
2.08,101.06,77.75,179.87,9.15,0.16,2.52,0.10,0.32,0.01,44.50,3.56,29.87,0.42,0.15,0.44,0.40,0.60,0.49,0.48
2.09,101.00,78.00,179.75,9.17,0.04,2.16,0.03,0.32,0.01,44.50,3.56,29.87,0.49,0.05,0.04,0.40,0.60,0.49,0.49
2.10,100.75,78.31,179.69,9.14,0.10,1.97,0.05,0.26,0.00,46.00,2.50,29.87,0.40,0.12,0.09,0.40,0.60,0.49,0.49
2.11,100.62,78.50,179.63,9.35,0.14,2.24,0.10,0.02,0.01,46.00,2.50,29.87,0.24,0.14,0.32,0.40,0.60,0.49,0.49
2.12,100.50,78.44,179.63,9.39,0.17,2.35,0.08,0.06,0.02,46.00,2.50,29.87,0.21,0.19,0.38,0.40,0.60,0.49,0.49
2.13,100.44,78.31,179.63,9.33,0.55,2.37,0.01,0.06,0.01,45.88,2.87,29.19,0.37,0.50,0.33,0.40,0.60,0.50,0.49
2.14,100.44,78.31,179.56,9.20,0.39,2.20,0.03,0.07,0.04,45.88,2.87,29.19,0.36,0.23,0.16,0.40,0.60,0.50,0.49
2.15,100.19,78.19,179.31,9.55,0.09,2.32,0.03,0.09,0.05,45.50,2.06,29.19,0.04,0.11,0.32,0.40,0.60,0.50,0.48
2.16,100.19,78.19,179.19,9.61,0.07,2.59,0.04,0.02,0.02,45.50,2.06,29.19,0.01,0.06,0.59,0.40,0.60,0.50,0.48
2.17,100.25,78.19,179.25,9.70,0.17,2.49,0.06,0.04,0.01,45.88,2.06,29.06,0.05,0.28,0.35,0.40,0.60,0.50,0.48
2.18,100.12,78.25,179.25,9.61,0.35,2.25,0.00,0.09,0.02,45.88,2.06,29.06,0.07,0.38,0.25,0.41,0.60,0.50,0.48
2.19,100.06,78.37,179.06,9.56,0.44,2.60,0.09,0.14,0.03,45.88,2.06,29.06,0.04,0.41,0.64,0.41,0.60,0.50,0.48
2.20,99.87,78.56,178.75,9.60,0.41,2.77,0.12,0.17,0.03,45.50,3.25,29.19,0.09,0.21,0.83,0.41,0.59,0.50,0.48
2.21,99.62,78.75,178.31,9.68,0.06,2.62,0.16,0.18,0.05,45.50,3.25,29.19,0.05,0.49,0.50,0.41,0.59,0.50,0.48
2.22,99.37,78.94,177.81,9.34,0.41,2.26,0.11,0.18,0.06,45.06,2.50,28.25,0.43,0.34,0.31,0.41,0.59,0.49,0.48
2.23,99.13,79.12,177.38,9.16,0.05,2.19,0.13,0.11,0.04,45.06,2.50,28.25,0.47,0.20,0.74,0.41,0.59,0.49,0.49
2.24,98.94,79.25,177.00,9.39,0.34,2.79,0.11,0.11,0.03,45.06,2.50,28.25,0.24,0.24,0.98,0.41,0.59,0.49,0.48
2.25,98.75,79.37,176.69,9.49,0.22,2.80,0.09,0.12,0.03,45.88,2.50,27.87,0.19,0.07,0.97,0.42,0.59,0.49,0.48
2.26,98.62,79.50,176.31,9.52,0.06,2.76,0.11,0.17,0.04,45.88,2.50,27.87,0.27,0.23,0.98,0.42,0.59,0.49,0.49
2.27,98.44,79.69,175.94,9.20,0.02,2.69,0.13,0.16,0.02,45.88,2.50,27.50,0.33,0.17,1.25,0.42,0.59,0.49,0.49
2.28,98.25,79.87,175.62,9.37,0.38,3.01,0.09,0.12,0.02,45.88,2.50,27.50,0.27,0.51,1.27,0.42,0.59,0.49,0.49
2.29,98.19,79.75,175.75,9.38,0.68,3.16,0.03,0.06,0.04,45.88,2.50,27.50,0.26,0.81,1.43,0.42,0.59,0.49,0.49
2.30,98.12,79.87,175.38,9.31,0.39,3.40,0.09,0.09,0.08,46.19,3.25,27.87,0.41,0.35,1.89,0.42,0.59,0.49,0.49
2.31,97.94,79.94,174.69,9.29,0.13,3.83,0.11,0.11,0.08,46.19,3.25,27.87,0.36,0.30,2.17,0.42,0.59,0.49,0.49
2.32,97.69,80.06,174.00,9.34,0.01,3.71,0.13,0.14,0.08,45.88,2.50,27.06,0.42,0.27,1.86,0.42,0.59,0.49,0.48
2.33,97.31,80.25,173.31,8.88,1.07,3.26,0.46,0.04,0.01,45.88,2.50,27.06,1.29,1.74,1.18,0.43,0.58,0.49,0.48
2.34,96.56,80.19,172.75,8.60,1.67,2.85,0.90,0.20,0.05,45.88,2.50,27.06,1.06,1.45,1.18,0.43,0.58,0.50,0.48
2.35,95.38,80.00,172.25,8.76,1.42,3.13,0.99,0.25,0.07,45.88,1.37,26.69,0.87,0.83,1.45,0.43,0.58,0.50,0.48
2.36,94.13,79.75,172.19,8.96,0.28,3.29,0.79,0.36,0.25,45.88,1.37,26.69,0.23,0.91,0.79,0.44,0.57,0.51,0.47
2.37,93.50,79.31,173.19,9.87,1.49,1.94,0.59,0.34,0.21,45.88,1.00,27.50,0.32,1.68,0.74,0.44,0.57,0.51,0.47
2.38,92.81,79.00,173.75,8.52,1.15,0.92,0.93,0.29,0.12,45.88,1.00,27.50,2.32,0.97,1.05,0.44,0.57,0.52,0.46
2.39,91.44,78.62,173.38,6.53,0.01,1.58,1.32,0.60,0.12,45.88,1.00,27.50,3.06,0.22,0.38,0.44,0.57,0.53,0.45
2.40,89.87,77.81,173.38,7.93,0.00,0.91,1.10,0.98,0.19,45.06,0.37,27.87,0.13,0.06,2.49,0.44,0.56,0.54,0.44
2.41,89.44,76.25,175.06,11.11,0.47,1.06,0.07,1.23,0.41,45.06,0.37,27.87,1.95,0.42,1.81,0.44,0.57,0.55,0.43
2.42,89.94,75.12,177.25,11.12,0.89,2.11,0.23,0.74,0.45,43.25,0.37,30.37,1.28,1.27,0.69,0.43,0.57,0.55,0.43
2.43,90.62,74.31,179.19,10.44,0.93,2.77,0.16,0.67,0.28,43.25,0.37,30.37,1.01,0.94,0.06,0.42,0.57,0.56,0.43
2.44,90.50,73.62,179.75,8.57,0.23,1.79,0.47,0.43,0.02,43.25,0.37,30.37,0.82,0.21,0.99,0.42,0.57,0.56,0.43
2.45,89.75,73.19,178.87,8.33,0.63,1.49,0.50,0.37,0.15,43.25,0.69,31.56,0.04,1.11,2.09,0.42,0.57,0.57,0.42
2.46,89.06,72.44,178.00,10.36,1.37,0.56,0.02,0.92,0.02,43.25,0.69,31.56,1.72,1.09,2.32,0.42,0.57,0.57,0.41
2.47,89.25,71.50,178.44,11.06,0.56,1.36,0.11,0.85,0.13,43.25,0.69,31.56,0.33,0.88,0.32,0.42,0.58,0.57,0.41
2.48,89.81,70.81,179.12,8.20,1.06,2.93,0.28,0.59,0.11,41.50,0.69,34.38,1.22,1.09,0.58,0.41,0.58,0.57,0.41
2.49,90.31,69.87,179.69,8.38,0.84,2.51,0.21,1.10,0.03,41.50,0.69,34.38,0.40,0.01,0.92,0.40,0.58,0.58,0.41
2.50,90.81,68.62,179.87,10.16,0.39,2.67,0.20,1.19,0.08,40.06,0.69,34.88,1.47,0.58,0.95,0.40,0.59,0.58,0.40
2.51,91.44,67.44,179.12,10.67,0.62,2.79,0.32,1.01,0.18,40.06,0.69,34.88,1.45,0.65,0.88,0.39,0.59,0.58,0.40
2.52,92.25,66.56,178.31,9.99,0.31,3.24,0.34,0.70,0.17,40.06,0.69,34.88,0.99,0.43,0.64,0.38,0.60,0.59,0.40
2.53,93.19,65.94,177.75,9.52,0.02,3.27,0.29,0.52,0.08,37.50,2.06,37.25,0.30,0.07,0.63,0.37,0.60,0.59,0.40
2.54,93.50,65.44,177.56,8.75,0.01,3.72,0.01,0.37,0.03,37.50,2.06,37.25,0.20,0.27,0.09,0.37,0.60,0.59,0.39
2.55,93.56,65.00,177.50,9.05,0.13,4.28,0.01,0.38,0.03,36.75,1.87,38.88,0.15,0.30,0.15,0.37,0.60,0.59,0.39
2.56,93.75,64.56,177.44,10.16,0.02,4.06,0.11,0.43,0.03,36.75,1.87,38.88,1.06,0.01,0.22,0.37,0.60,0.59,0.39
2.57,94.19,64.25,177.06,9.56,0.38,4.10,0.23,0.18,0.07,36.75,1.87,38.88,0.73,0.16,0.14,0.36,0.61,0.59,0.39
2.58,94.81,64.12,176.69,8.67,0.59,4.42,0.27,0.12,0.02,35.38,2.56,38.56,0.14,0.35,0.16,0.36,0.61,0.59,0.39
2.59,95.12,64.00,176.63,8.25,0.38,4.17,0.17,0.09,0.07,35.38,2.56,38.56,0.66,0.00,0.19,0.36,0.61,0.59,0.39
2.60,95.44,63.81,176.69,8.27,0.09,4.25,0.03,0.21,0.04,35.69,3.37,39.00,0.52,0.15,0.05,0.36,0.61,0.59,0.39
2.61,95.38,63.50,176.81,8.55,0.20,4.71,0.00,0.28,0.05,35.69,3.37,39.00,0.22,0.03,0.35,0.35,0.61,0.59,0.39
2.62,95.44,63.25,176.94,8.75,0.31,4.81,0.08,0.27,0.09,35.69,3.37,39.00,0.00,0.08,0.40,0.35,0.61,0.59,0.39
2.63,95.50,63.00,177.06,8.73,0.59,4.77,0.09,0.19,0.08,36.06,2.56,40.25,0.00,0.36,0.33,0.35,0.62,0.59,0.39
2.64,95.56,62.94,177.06,8.67,0.71,4.91,0.11,0.17,0.00,36.06,2.56,40.25,0.04,0.48,0.44,0.35,0.62,0.59,0.39
2.65,95.75,62.69,176.94,8.82,0.68,4.71,0.10,0.20,0.03,34.69,3.00,40.19,0.11,0.43,0.21,0.35,0.62,0.59,0.39
2.66,96.06,62.50,176.81,8.76,0.53,4.41,0.13,0.14,0.00,34.69,3.00,40.19,0.07,0.27,0.11,0.35,0.62,0.59,0.39
2.67,96.31,62.38,176.69,8.70,0.40,4.47,0.13,0.08,0.04,34.69,3.00,40.19,0.01,0.13,0.07,0.35,0.62,0.59,0.39
2.68,96.63,62.25,176.44,8.73,0.35,4.55,0.10,0.07,0.06,35.06,3.37,41.06,0.18,0.07,0.29,0.34,0.62,0.59,0.39
2.69,96.81,62.19,176.31,8.84,0.09,4.84,0.05,0.05,0.01,35.06,3.37,41.06,0.10,0.19,0.24,0.34,0.62,0.59,0.39
2.70,96.94,62.19,176.25,8.63,0.11,4.81,0.03,0.01,0.02,35.06,3.37,41.06,0.26,0.07,0.39,0.34,0.62,0.59,0.39
2.71,97.12,62.19,176.31,8.52,0.48,4.91,0.01,0.02,0.04,34.38,4.37,40.19,0.18,0.23,0.26,0.34,0.62,0.59,0.39
