0.01,-89.75,81.0,134.5,0.07,0.06,0.01,0.09,0.01,0.23,0.32,0.67,0.22,0.63,-137.31,86.9,3.06,0.08,0.38,0.07,0.41,0.04,0.44,-0.63,0.27,-0.67,0.28,-168.81,1.62,4.25,0.02,0.02,0.03,0.06,0.06,0.09,-0.01,0.04,-0.99,0.1,-155.25,14.19,6.81,0.03,0.04,0.04,0.03,0.04,0.01,-0.11,0.08,-0.97,0.22
0.02,-89.87,80.87,134.87,0.11,0.12,0.01,0.25,0.13,0.36,0.32,0.67,0.22,0.63,-137.31,86.94,90.06,0.07,0.59,0.09,0.24,0.02,0.36,-0.27,0.66,-0.3,0.64,-168.87,1.69,4.25,0.03,0.02,0.02,0.08,0.01,0.04,-0.01,0.04,-0.99,0.1,-155.25,14.19,6.75,0.02,0.05,0.05,0.04,0.2,0.04,-0.11,0.08,-0.97,0.22
0.03,-90.06,80.75,135.56,0.13,0.14,0.01,0.15,0.21,0.48,0.33,0.67,0.22,0.63,-137.37,86.81,90.19,0.12,0.57,0.11,0.18,0.02,0.39,-0.26,0.66,-0.3,0.64,-168.87,1.69,4.19,0.03,0.01,0.02,0.11,0.04,0.08,-0.01,0.04,-0.99,0.1,-155.19,14.13,6.75,0.02,0.06,0.02,0.02,0.17,0.05,-0.11,0.08,-0.97,0.22
0.04,-90.25,80.62,136.19,0.15,0.17,0.01,0.17,0.12,0.35,0.33,0.67,0.22,0.63,-137.46,86.5,90.32,0.15,0.59,0.12,0.4,0.02,0.43,-0.26,0.66,-0.3,0.64,-168.87,1.69,4.19,0.01,0.04,0.02,0.14,0.03,0.03,-0.01,0.04,-0.99,0.1,-155.19,14.06,6.69,0.01,0.05,0.03,0.07,0.17,0.04,-0.11,0.08,-0.97,0.22
0.05,-90.56,80.44,136.88,0.18,0.2,0.01,0.18,0.05,0.3,0.33,0.67,0.22,0.62,-137.56,86.19,90.44,0.18,0.61,0.13,0.63,0.01,0.46,-0.26,0.66,-0.3,0.64,-168.87,1.75,4.19,0.01,0.04,0.01,0.01,0.18,0.04,-0.01,0.04,-0.99,0.1,-155.19,14.0,6.69,0.02,0.04,0.05,0.1,0.12,0.05,-0.11,0.08,-0.97,0.22
0.06,-90.84,80.19,137.88,0.2,0.23,0.01,0.16,0.09,0.34,0.34,0.67,0.23,0.62,-137.62,85.62,90.56,0.19,0.75,0.11,0.83,0.01,0.24,-0.26,0.66,-0.31,0.64,-168.81,1.81,4.12,0.04,0.04,0.05,0.14,0.01,0.02,-0.01,0.04,-0.99,0.1,-155.25,13.94,6.62,0.03,0.04,0.06,0.13,0.09,0.08,-0.11,0.08,-0.97,0.22
0.07,-91.12,79.94,138.88,0.21,0.26,0.01,0.14,0.13,0.38,0.34,0.67,0.23,0.62,-137.88,84.87,90.69,0.26,0.85,0.13,0.85,0.01,0.39,-0.25,0.66,-0.31,0.63,-168.78,1.88,4.09,0.04,0.06,0.08,0.18,0.15,0.03,-0.01,0.04,-0.99,0.1,-155.31,13.94,6.62,0.04,0.03,0.07,0.17,0.15,0.07,-0.11,0.08,-0.97,0.22
0.08,-91.44,79.69,140.0,0.22,0.27,0.01,0.21,0.09,0.52,0.35,0.67,0.23,0.61,-137.94,84.5,90.75,0.25,0.87,0.12,1.11,0.03,0.49,-0.25,0.66,-0.31,0.63,-168.75,1.94,4.06,0.05,0.08,0.11,0.21,0.29,0.04,-0.01,0.04,-0.99,0.1,-155.44,13.88,6.56,0.04,0.03,0.08,0.1,0.13,0.05,-0.11,0.08,-0.97,0.22
0.09,-91.82,79.4,140.72,0.23,0.29,0.03,0.21,0.06,0.64,0.35,0.67,0.23,0.61,-138.12,83.62,90.87,0.27,1.01,0.13,1.65,0.13,0.16,-0.25,0.66,-0.32,0.63,-168.62,2.06,4.0,0.03,0.1,0.15,0.03,0.14,0.02,-0.01,0.04,-0.99,0.1,-155.56,13.88,6.56,0.05,0.02,0.13,0.14,0.01,0.02,-0.11,0.08,-0.97,0.22
0.1,-92.19,79.12,141.44,0.24,0.31,0.06,0.21,0.02,0.75,0.35,0.67,0.23,0.61,-138.37,82.56,90.87,0.29,1.21,0.15,1.63,0.27,0.34,-0.24,0.66,-0.33,0.63,-168.5,2.19,4.0,0.04,0.08,0.15,0.05,0.27,0.02,-0.02,0.04,-0.99,0.1,-155.75,13.81,6.56,0.05,0.01,0.15,0.16,0.12,0.02,-0.11,0.08,-0.97,0.21
0.11,-92.62,78.75,142.06,0.22,0.34,0.08,0.31,0.02,0.72,0.36,0.67,0.23,0.61,-138.59,81.18,93.74,0.28,1.38,0.16,1.73,0.2,0.41,-0.22,0.68,-0.32,0.63,-168.31,2.31,3.94,0.04,0.07,0.16,0.04,0.27,0.03,-0.02,0.04,-0.99,0.1,-155.87,13.81,6.5,0.06,0.01,0.12,0.16,0.13,0.01,-0.11,0.08,-0.97,0.21
0.12,-93.06,78.37,142.62,0.23,0.38,0.08,0.75,0.12,0.75,0.36,0.67,0.23,0.61,-138.81,79.81,96.62,0.26,1.54,0.18,1.83,0.13,0.48,-0.2,0.69,-0.31,0.63,-168.13,2.37,3.94,0.04,0.07,0.15,0.18,0.03,0.03,-0.02,0.04,-0.99,0.1,-156.0,13.81,6.5,0.06,0.01,0.08,0.17,0.16,0.01,-0.11,0.08,-0.97,0.21
0.13,-93.5,78.0,143.31,0.23,0.41,0.08,1.15,0.26,0.68,0.36,0.67,0.23,0.6,-139.06,78.12,98.75,0.31,1.58,0.23,2.19,0.28,0.71,-0.18,0.7,-0.31,0.62,-168.06,2.5,3.87,0.03,0.1,0.07,0.15,0.07,0.03,-0.02,0.04,-0.99,0.1,-156.06,13.81,6.44,0.07,0.01,0.04,0.22,0.15,0.01,-0.11,0.08,-0.97,0.21
0.14,-93.94,77.5,144.13,0.21,0.49,0.1,1.51,0.45,0.63,0.37,0.67,0.23,0.6,-139.25,76.37,100.5,0.32,1.58,0.25,2.42,0.1,0.38,-0.16,0.7,-0.31,0.62,-168.0,2.62,3.81,0.04,0.13,0.05,0.1,0.15,0.28,-0.02,0.04,-0.99,0.11,-156.06,13.88,6.44,0.06,0.01,0.02,0.31,0.09,0.02,-0.11,0.08,-0.97,0.21
0.15,-94.44,76.94,145.0,0.18,0.61,0.14,1.55,0.41,0.53,0.37,0.68,0.23,0.6,-139.81,73.69,102.25,0.35,1.67,0.21,2.39,0.06,0.5,-0.14,0.71,-0.31,0.61,-167.84,2.78,3.78,0.04,0.14,0.12,0.09,0.16,0.33,-0.02,0.04,-0.99,0.11,-156.12,13.88,6.37,0.06,0.02,0.01,0.16,0.32,0.04,-0.11,0.08,-0.97,0.21
0.16,-95.1,76.1,146.12,0.24,0.72,0.14,1.6,0.26,0.41,0.38,0.68,0.23,0.59,-140.06,72.0,102.93,0.23,1.5,0.15,2.05,0.34,0.38,-0.13,0.72,-0.32,0.6,-167.69,2.94,3.75,0.04,0.14,0.2,0.08,0.16,0.38,-0.02,0.04,-0.99,0.11,-156.12,13.94,6.31,0.06,0.02,0.05,0.1,0.24,0.06,-0.11,0.08,-0.97,0.21
0.17,-95.75,75.25,147.25,0.29,0.84,0.14,1.66,0.12,0.29,0.38,0.68,0.23,0.58,-140.12,71.19,103.25,0.14,1.3,0.15,1.53,0.51,0.27,-0.12,0.72,-0.32,0.6,-167.5,3.12,3.69,0.03,0.14,0.21,0.09,0.19,0.36,-0.02,0.03,-0.99,0.11,-156.06,13.94,6.31,0.05,0.03,0.09,0.13,0.17,0.14,-0.11,0.08,-0.97,0.21
0.18,-96.5,74.44,148.25,0.34,0.8,0.11,2.27,0.19,0.14,0.39,0.68,0.22,0.58,-140.19,69.81,103.81,0.08,1.24,0.18,1.14,0.5,0.15,-0.11,0.73,-0.32,0.6,-167.25,3.25,3.69,0.01,0.13,0.26,0.14,0.37,0.36,-0.02,0.04,-0.99,0.11,-155.94,14.0,6.25,0.04,0.04,0.1,0.05,0.19,0.09,-0.11,0.08,-0.97,0.21
0.19,-97.34,73.28,149.75,0.27,0.92,0.08,1.96,0.5,0.28,0.39,0.68,0.22,0.57,-140.12,68.44,104.37,0.08,1.31,0.15,1.04,0.28,0.28,-0.1,0.73,-0.33,0.59,-166.88,3.37,3.75,0.03,0.1,0.31,0.15,0.24,0.4,-0.03,0.04,-0.99,0.12,-155.87,14.06,6.19,0.03,0.04,0.11,0.11,0.25,0.04,-0.11,0.08,-0.97,0.21
0.2,-98.19,72.12,151.25,0.2,1.05,0.04,1.66,0.8,0.41,0.4,0.69,0.22,0.56,-140.0,66.94,105.06,0.03,1.4,0.25,0.62,0.18,1.02,-0.09,0.74,-0.33,0.58,-166.56,3.5,3.75,0.04,0.07,0.31,0.12,0.08,0.48,-0.03,0.04,-0.99,0.12,-155.69,14.13,6.12,0.01,0.04,0.17,0.03,0.19,0.02,-0.11,0.08,-0.97,0.22
0.21,-98.44,71.56,151.94,0.1,1.05,0.03,0.42,0.93,0.89,0.41,0.69,0.22,0.56,-139.81,65.5,105.68,0.15,1.14,0.21,0.91,0.04,0.05,-0.08,0.74,-0.33,0.58,-166.25,3.56,3.69,0.04,0.06,0.26,0.03,0.01,0.67,-0.03,0.04,-0.99,0.12,-155.5,14.19,6.06,0.01,0.04,0.2,0.06,0.23,0.03,-0.11,0.08,-0.97,0.22
0.22,-98.81,70.56,153.31,0.01,0.85,0.01,0.3,0.82,1.09,0.42,0.69,0.22,0.55,-139.88,64.25,106.06,0.2,1.06,0.25,0.53,0.13,0.71,-0.07,0.75,-0.33,0.57,-166.0,3.62,3.62,0.08,0.06,0.21,0.03,0.01,0.93,-0.03,0.04,-0.99,0.12,-155.25,14.31,6.0,0.01,0.04,0.24,0.08,0.09,0.12,-0.11,0.08,-0.97,0.22
0.23,-98.94,69.81,154.44,0.08,0.6,0.08,0.66,0.79,1.13,0.42,0.69,0.22,0.54,-139.94,63.13,106.25,0.12,0.99,0.14,0.72,0.22,0.52,-0.06,0.75,-0.34,0.57,-165.81,3.75,3.5,0.13,0.06,0.19,0.01,0.12,1.27,-0.03,0.03,-0.99,0.12,-155.0,14.38,5.94,0.01,0.03,0.26,0.07,0.09,0.09,-0.11,0.08,-0.97,0.22
0.24,-98.81,69.25,155.56,0.09,0.56,0.14,1.9,0.42,1.15,0.43,0.69,0.23,0.54,-139.75,62.0,106.43,0.04,1.12,0.18,0.45,0.31,1.19,-0.05,0.75,-0.34,0.56,-165.56,3.81,3.25,0.18,0.06,0.19,0.04,0.27,1.59,-0.03,0.03,-0.99,0.13,-154.69,14.44,5.87,0.01,0.04,0.27,0.09,0.01,0.04,-0.11,0.08,-0.97,0.22
0.25,-98.69,68.75,156.69,0.05,0.6,0.12,1.92,0.54,0.96,0.44,0.69,0.23,0.53,-139.44,60.75,106.12,0.06,1.09,0.08,0.15,0.4,0.53,-0.05,0.75,-0.35,0.56,-165.31,3.81,3.03,0.23,0.04,0.28,0.09,0.26,1.91,-0.03,0.03,-0.99,0.13,-154.38,14.5,5.87,0.03,0.04,0.27,0.12,0.03,0.08,-0.11,0.08,-0.96,0.23
0.26,-98.75,68.06,157.5,0.03,0.81,0.08,0.42,0.16,1.04,0.45,0.69,0.23,0.52,-139.56,59.63,106.12,0.18,0.79,0.06,0.12,0.41,0.4,-0.04,0.75,-0.35,0.55,-165.06,3.81,2.81,0.28,0.02,0.37,0.14,0.24,2.22,-0.03,0.03,-0.99,0.13,-154.12,14.56,5.81,0.04,0.04,0.25,0.15,0.11,0.06,-0.11,0.08,-0.96,0.23
0.27,-98.87,67.31,158.31,0.1,0.65,0.03,0.58,0.06,0.95,0.45,0.69,0.23,0.52,-139.88,58.81,106.25,0.21,0.71,0.05,0.33,0.4,0.64,-0.04,0.76,-0.36,0.55,-164.69,3.81,2.5,0.26,0.02,0.35,0.38,0.21,2.54,-0.03,0.03,-0.99,0.13,-153.94,14.63,5.81,0.05,0.04,0.23,0.15,0.12,0.1,-0.11,0.08,-0.96,0.23
0.28,-98.87,66.62,159.0,0.09,0.59,0.03,0.06,0.46,1.62,0.46,0.69,0.24,0.51,-140.37,57.94,106.5,0.24,0.87,0.01,0.1,0.25,0.09,-0.04,0.76,-0.36,0.54,-164.47,3.84,2.28,0.19,0.04,0.26,0.23,0.56,2.72,-0.03,0.02,-0.99,0.14,-153.69,14.69,5.75,0.05,0.03,0.22,0.2,0.12,0.07,-0.11,0.08,-0.96,0.23
0.29,-98.69,66.25,159.87,0.08,0.35,0.21,1.81,0.46,1.3,0.46,0.69,0.24,0.5,-140.62,56.88,106.37,0.08,0.94,0.03,0.06,0.26,0.13,-0.03,0.76,-0.37,0.54,-164.25,3.87,2.06,0.12,0.05,0.18,0.08,0.9,2.89,-0.03,0.02,-0.99,0.14,-153.44,14.69,5.75,0.05,0.02,0.21,0.25,0.13,0.03,-0.11,0.08,-0.96,0.23
0.3,-98.6,65.78,160.78,0.16,0.6,0.14,0.98,0.5,0.98,0.47,0.69,0.24,0.5,-140.75,55.88,106.37,0.13,0.9,0.06,0.43,0.12,0.17,-0.03,0.76,-0.37,0.53,-164.88,4.0,1.87,0.05,0.11,0.3,0.28,0.35,1.96,-0.03,0.02,-0.99,0.13,-153.25,14.75,5.75,0.06,0.02,0.2,0.19,0.17,0.03,-0.11,0.08,-0.96,0.24
0.31,-98.5,65.31,161.69,0.24,0.84,0.08,0.16,0.53,0.66,0.48,0.69,0.25,0.49,-141.12,54.94,106.25,0.19,0.79,0.06,0.08,0.27,0.33,-0.02,0.76,-0.38,0.53,-165.12,4.12,1.81,0.04,0.11,0.06,0.58,0.69,1.41,-0.03,0.02,-0.99,0.13,-153.0,14.75,5.75,0.05,0.01,0.17,0.33,0.14,0.07,-0.11,0.08,-0.96,0.24
0.32,-99.13,64.44,162.12,0.38,0.76,0.02,1.15,0.04,0.87,0.48,0.69,0.24,0.49,-141.16,53.94,106.25,0.14,0.88,0.06,0.1,0.15,0.73,-0.02,0.76,-0.38,0.52,-165.19,4.25,1.94,0.11,0.05,0.15,0.68,0.07,1.63,-0.03,0.02,-0.99,0.13,-152.81,14.75,5.75,0.05,0.02,0.15,0.18,0.19,0.14,-0.11,0.08,-0.96,0.24
0.33,-99.87,63.69,162.19,0.32,0.62,0.01,0.31,0.23,0.74,0.48,0.69,0.23,0.48,-141.19,52.94,106.25,0.09,0.98,0.05,0.12,0.03,1.13,-0.01,0.76,-0.39,0.51,-165.0,4.31,2.06,0.13,0.02,0.11,0.25,0.39,1.82,-0.03,0.02,-0.99,0.13,-152.69,14.69,5.75,0.05,0.02,0.11,0.14,0.18,0.13,-0.11,0.08,-0.96,0.24
0.34,-100.44,63.19,162.25,0.16,0.52,0.07,0.22,0.72,0.5,0.48,0.7,0.23,0.48,-141.12,51.94,106.25,0.08,0.87,0.04,0.3,0.06,0.8,-0.01,0.77,-0.39,0.51,-164.88,4.31,2.19,0.15,0.08,0.06,0.23,0.25,1.71,-0.03,0.02,-0.99,0.13,-152.56,14.69,5.75,0.05,0.03,0.1,0.12,0.11,0.11,-0.11,0.08,-0.96,0.24
0.35,-100.87,62.56,162.31,0.12,0.58,0.09,0.68,0.82,0.5,0.48,0.7,0.23,0.48,-141.25,50.88,106.25,0.06,1.01,0.03,0.18,0.06,0.29,-0.0,0.77,-0.4,0.5,-164.94,4.44,2.37,0.15,0.13,0.03,0.09,0.24,1.07,-0.04,0.03,-0.99,0.13,-152.44,14.63,5.75,0.03,0.03,0.1,0.23,0.08,0.1,-0.11,0.08,-0.96,0.24
0.36,-101.31,61.88,162.44,0.07,0.57,0.07,0.86,0.25,0.31,0.48,0.71,0.22,0.48,-141.56,49.63,106.06,0.09,1.19,0.05,0.45,0.2,1.12,0.0,0.77,-0.41,0.5,-164.88,4.56,2.5,0.16,0.09,0.1,0.54,0.21,0.52,-0.04,0.03,-0.99,0.13,-152.31,14.63,5.75,0.02,0.04,0.12,0.06,0.27,0.02,-0.11,0.08,-0.96,0.24
0.37,-101.5,61.44,162.69,0.05,0.34,0.07,0.6,0.34,0.09,0.48,0.71,0.22,0.47,-141.31,48.25,106.12,0.19,1.2,0.04,1.06,0.49,1.46,0.01,0.77,-0.41,0.49,-164.62,4.56,2.62,0.11,0.02,0.31,0.64,0.29,0.72,-0.04,0.03,-0.99,0.13,-152.25,14.63,5.75,0.02,0.05,0.09,0.01,0.14,0.03,-0.11,0.08,-0.96,0.24
0.38,-101.56,61.04,162.97,0.04,0.38,0.06,1.13,0.24,0.1,0.48,0.71,0.22,0.47,-141.12,47.31,106.19,0.04,0.73,0.03,0.48,0.3,0.47,0.02,0.77,-0.41,0.49,-164.25,4.56,2.75,0.09,0.02,0.25,0.2,0.48,0.85,-0.04,0.03,-0.99,0.14,-152.12,14.57,5.72,0.02,0.04,0.06,0.01,0.17,0.02,-0.11,0.08,-0.96,0.24
0.39,-101.62,60.63,163.25,0.03,0.42,0.05,1.67,0.13,0.11,0.48,0.71,0.22,0.47,-141.12,46.5,106.19,0.09,0.76,0.09,1.15,0.12,0.9,0.02,0.77,-0.42,0.48,-164.0,4.62,2.81,0.11,0.07,0.2,0.15,0.25,0.44,-0.04,0.03,-0.99,0.14,-152.0,14.5,5.69,0.01,0.04,0.04,0.01,0.2,0.02,-0.11,0.08,-0.96,0.25
0.4,-101.75,60.25,163.5,0.01,0.31,0.02,1.57,0.18,0.71,0.48,0.71,0.22,0.46,-140.88,46.0,106.25,0.35,1.31,0.1,0.57,0.57,1.13,0.03,0.77,-0.42,0.48,-163.81,4.81,3.0,0.15,0.09,0.2,0.45,0.24,0.46,-0.04,0.03,-0.99,0.14,-152.0,14.5,5.62,0.01,0.05,0.04,0.08,0.16,0.03,-0.11,0.08,-0.96,0.25
0.41,-101.5,60.19,163.81,0.1,0.13,0.1,2.55,0.51,1.89,0.49,0.71,0.22,0.46,-140.06,44.38,106.5,0.43,1.57,0.08,1.41,0.32,2.07,0.04,0.77,-0.42,0.47,-163.56,4.87,3.06,0.1,0.03,0.27,0.29,0.25,0.18,-0.04,0.03,-0.99,0.14,-151.94,14.44,5.56,0.02,0.04,0.03,0.1,0.13,0.04,-0.11,0.08,-0.96,0.25
0.42,-101.0,60.0,164.44,0.12,0.54,0.05,1.02,0.1,0.14,0.49,0.71,0.22,0.46,-139.81,42.75,106.12,0.34,1.39,0.09,0.31,0.24,0.52,0.05,0.77,-0.43,0.47,-163.19,4.87,3.12,0.04,0.06,0.35,0.13,0.26,0.09,-0.04,0.03,-0.99,0.15,-151.87,14.44,5.56,0.03,0.03,0.03,0.09,0.18,0.05,-0.11,0.08,-0.96,0.25
0.43,-101.06,59.31,164.81,0.04,0.79,0.08,3.74,0.4,1.19,0.5,0.71,0.22,0.45,-139.69,41.94,106.12,0.01,0.39,0.16,0.94,0.42,1.3,0.06,0.77,-0.43,0.46,-162.88,4.81,3.12,0.13,0.01,0.18,0.18,0.04,0.23,-0.04,0.03,-0.99,0.15,-151.87,14.38,5.5,0.03,0.03,0.03,0.1,0.16,0.09,-0.11,0.08,-0.96,0.25
0.44,-101.12,58.5,165.06,0.23,0.58,0.14,0.47,0.07,2.17,0.5,0.71,0.22,0.45,-139.5,41.44,106.25,0.21,0.71,0.13,0.54,0.01,0.8,0.06,0.78,-0.43,0.46,-162.69,4.81,3.31,0.18,0.01,0.08,0.28,0.16,0.01,-0.04,0.03,-0.99,0.15,-151.87,14.38,5.44,0.04,0.01,0.03,0.05,0.05,0.04,-0.11,0.08,-0.96,0.25
0.45,-100.12,58.63,165.69,0.56,0.31,0.15,1.3,0.26,3.34,0.51,0.7,0.23,0.44,-139.25,40.5,106.12,0.25,0.97,0.13,0.34,0.04,0.44,0.07,0.78,-0.43,0.46,-162.69,4.87,3.56,0.2,0.02,0.03,0.19,0.2,0.57,-0.04,0.04,-0.99,0.15,-151.87,14.38,5.37,0.04,0.01,0.04,0.06,0.06,0.11,-0.11,0.08,-0.96,0.25
0.46,-98.37,59.25,166.88,0.59,0.42,0.44,2.75,0.42,2.89,0.52,0.69,0.25,0.44,-139.06,39.5,106.12,0.03,0.6,0.06,0.88,0.05,0.22,0.07,0.78,-0.44,0.45,-162.69,4.81,3.69,0.11,0.04,0.05,0.24,0.15,0.54,-0.04,0.04,-0.99,0.15,-151.94,14.38,5.37,0.04,0.01,0.01,0.06,0.04,0.02,-0.11,0.08,-0.96,0.25
0.47,-97.44,59.0,168.0,0.21,0.57,0.33,2.14,0.26,0.18,0.53,0.68,0.25,0.43,-139.0,38.94,106.12,0.01,0.42,0.02,0.83,0.37,0.8,0.08,0.78,-0.44,0.45,-162.56,4.75,3.75,0.06,0.06,0.11,0.28,0.45,0.1,-0.04,0.04,-0.99,0.15,-151.87,14.38,5.31,0.04,0.01,0.04,0.11,0.03,0.1,-0.11,0.07,-0.96,0.25
0.48,-97.12,58.06,168.81,0.27,0.82,0.12,2.71,0.22,0.27,0.54,0.68,0.26,0.42,-139.0,38.5,106.25,0.13,0.41,0.08,0.76,0.31,0.39,0.08,0.78,-0.44,0.45,-162.37,4.69,3.81,0.05,0.07,0.21,0.31,0.55,0.1,-0.04,0.04,-0.99,0.15,-151.87,14.38,5.25,0.04,0.01,0.06,0.13,0.02,0.18,-0.11,0.07,-0.96,0.25
0.49,-96.12,57.94,169.62,0.44,0.05,0.19,0.95,0.25,0.06,0.55,0.68,0.26,0.41,-138.94,37.94,106.37,0.08,0.51,0.13,0.38,0.12,0.69,0.08,0.78,-0.44,0.44,-162.0,4.62,3.81,0.01,0.07,0.35,0.18,0.55,0.01,-0.03,0.04,-0.99,0.16,-151.75,14.44,5.19,0.03,0.01,0.06,0.17,0.01,0.08,-0.11,0.07,-0.96,0.25
0.5,-95.38,58.13,170.31,0.14,0.03,0.27,0.79,0.14,0.39,0.56,0.67,0.27,0.41,-138.81,37.5,106.5,0.02,0.32,0.16,0.05,0.21,0.71,0.09,0.78,-0.44,0.44,-161.56,4.56,3.75,0.02,0.07,0.41,0.04,0.16,0.33,-0.03,0.04,-0.99,0.16,-151.75,14.44,5.12,0.04,0.01,0.05,0.08,0.1,0.03,-0.11,0.07,-0.96,0.25
0.51,-95.06,58.06,170.75,0.02,0.1,0.2,0.69,0.61,0.48,0.56,0.67,0.27,0.4,-138.62,37.13,106.43,0.02,0.33,0.14,0.07,0.3,0.95,0.09,0.78,-0.44,0.44,-161.06,4.5,3.75,0.03,0.1,0.41,0.1,0.28,0.47,-0.03,0.04,-0.98,0.17,-151.69,14.44,5.06,0.04,0.01,0.08,0.17,0.41,0.19,-0.11,0.07,-0.96,0.25
0.52,-94.62,58.25,171.06,0.2,0.2,0.09,0.6,0.17,0.08,0.56,0.67,0.28,0.4,-138.56,36.5,106.43,0.02,0.54,0.05,0.43,0.33,0.3,0.09,0.78,-0.44,0.44,-160.69,4.44,3.75,0.03,0.1,0.33,0.22,0.41,0.15,-0.03,0.04,-0.98,0.17,-151.5,14.44,5.0,0.01,0.02,0.14,0.5,0.11,0.02,-0.11,0.07,-0.96,0.25
0.53,-93.87,58.44,171.56,0.34,0.16,0.11,1.04,0.09,0.41,0.57,0.66,0.29,0.4,-138.56,35.84,106.43,0.02,0.53,0.06,0.45,0.28,0.2,0.1,0.78,-0.45,0.43,-160.37,4.37,3.81,0.05,0.04,0.27,0.34,0.4,0.49,-0.03,0.04,-0.98,0.17,-151.37,14.5,5.0,0.01,0.02,0.15,0.28,0.32,0.07,-0.11,0.07,-0.96,0.25
0.54,-93.09,58.66,172.28,0.22,0.16,0.21,1.18,0.16,0.57,0.57,0.65,0.29,0.4,-138.56,35.19,106.43,0.02,0.52,0.07,0.48,0.23,0.1,0.1,0.78,-0.45,0.43,-160.12,4.44,3.87,0.11,0.02,0.23,0.76,0.4,0.77,-0.03,0.04,-0.98,0.17,-151.19,14.56,5.0,0.01,0.03,0.14,0.27,0.38,0.08,-0.11,0.07,-0.96,0.25
0.55,-92.31,58.87,173.0,0.11,0.15,0.31,1.32,0.22,0.74,0.58,0.65,0.3,0.39,-138.69,34.56,106.43,0.01,0.62,0.09,0.5,0.07,0.04,0.1,0.78,-0.45,0.42,-159.81,4.44,4.0,0.14,0.04,0.28,0.56,0.16,0.15,-0.03,0.04,-0.98,0.18,-151.12,14.63,5.0,0.03,0.05,0.12,0.15,0.44,0.09,-0.11,0.07,-0.96,0.25
0.56,-91.94,59.06,173.38,0.05,0.18,0.18,0.91,0.59,0.01,0.58,0.64,0.31,0.39,-138.75,33.69,106.37,0.03,0.79,0.08,0.7,0.4,0.08,0.11,0.78,-0.46,0.42,-159.56,4.38,4.03,0.11,0.03,0.2,0.62,0.82,0.13,-0.03,0.04,-0.98,0.18,-151.0,14.69,5.06,0.08,0.04,0.1,0.41,0.19,0.03,-0.11,0.07,-0.96,0.25
0.57,-91.53,59.25,173.72,0.1,0.12,0.14,0.66,0.34,0.24,0.59,0.64,0.31,0.39,-138.88,33.06,106.43,0.06,0.31,0.06,2.37,0.11,0.11,0.11,0.78,-0.46,0.41,-159.31,4.31,4.06,0.08,0.02,0.11,0.67,1.49,0.11,-0.03,0.04,-0.98,0.18,-150.94,14.81,5.19,0.09,0.07,0.07,0.34,0.54,0.06,-0.11,0.08,-0.96,0.25
0.58,-91.12,59.44,174.06,0.15,0.05,0.11,0.4,0.1,0.48,0.59,0.64,0.31,0.38,-139.0,32.75,106.43,0.21,0.25,0.09,0.36,0.09,1.12,0.11,0.78,-0.46,0.41,-159.25,4.44,4.06,0.03,0.15,0.05,0.67,0.69,0.03,-0.03,0.04,-0.98,0.18,-150.81,15.0,5.37,0.14,0.11,0.1,0.11,0.23,0.27,-0.11,0.08,-0.96,0.26
0.59,-90.87,59.44,174.25,0.05,0.03,0.03,1.13,0.03,0.55,0.59,0.64,0.32,0.38,-139.25,32.25,106.31,0.23,0.62,0.15,0.38,0.07,0.26,0.11,0.78,-0.46,0.41,-159.0,4.69,4.06,0.01,0.18,0.35,0.29,0.37,1.17,-0.03,0.04,-0.98,0.18,-150.69,15.19,5.56,0.13,0.1,0.16,0.22,0.41,0.38,-0.12,0.08,-0.96,0.26
0.6,-90.87,59.5,174.19,0.08,0.08,0.06,0.61,0.43,0.86,0.59,0.64,0.32,0.38,-139.5,31.5,106.12,0.34,0.82,0.11,0.22,1.16,0.51,0.11,0.78,-0.47,0.4,-158.44,4.94,4.06,0.1,0.17,0.54,0.92,0.38,1.65,-0.04,0.04,-0.98,0.19,-150.44,15.34,5.65,0.16,0.12,0.2,0.12,0.34,0.38,-0.12,0.08,-0.96,0.26
0.61,-90.06,59.44,174.69,0.45,0.12,0.06,0.04,0.36,0.79,0.6,0.63,0.32,0.38,-139.56,31.06,105.94,0.22,0.67,0.01,1.69,1.14,1.06,0.11,0.78,-0.47,0.4,-157.75,5.06,4.06,0.01,0.04,0.66,0.48,0.31,0.78,-0.04,0.04,-0.98,0.19,-150.19,15.5,5.75,0.19,0.15,0.24,0.02,0.27,0.37,-0.12,0.08,-0.95,0.26
0.62,-89.56,59.06,175.06,0.17,0.39,0.06,0.55,0.08,0.26,0.6,0.63,0.32,0.37,-139.56,30.5,105.75,0.09,0.02,0.18,1.85,0.63,1.68,0.12,0.78,-0.47,0.4,-157.19,5.06,4.0,0.16,0.03,0.68,0.23,0.88,0.35,-0.04,0.04,-0.98,0.2,-149.87,15.69,5.94,0.21,0.17,0.22,0.01,0.07,0.3,-0.12,0.08,-0.95,0.26
0.63,-89.5,58.63,175.12,0.06,0.4,0.05,0.96,0.46,0.4,0.6,0.63,0.32,0.37,-139.31,30.81,105.81,0.1,0.32,0.15,0.77,0.12,1.29,0.12,0.78,-0.47,0.4,-156.5,5.12,3.69,0.26,0.01,0.48,0.29,1.56,0.17,-0.04,0.04,-0.98,0.2,-149.62,15.94,6.12,0.2,0.18,0.2,0.06,0.12,0.23,-0.12,0.09,-0.95,0.27
0.64,-89.5,58.44,175.12,0.04,0.09,0.06,1.55,0.47,0.43,0.6,0.63,0.32,0.37,-139.12,31.19,105.87,0.44,0.91,0.09,1.38,0.89,2.78,0.12,0.78,-0.47,0.4,-156.06,5.12,3.37,0.29,0.01,0.33,0.26,1.29,0.02,-0.04,0.04,-0.98,0.21,-149.44,16.12,6.31,0.19,0.19,0.16,0.36,0.13,0.61,-0.12,0.09,-0.95,0.27
0.65,-89.06,58.91,175.28,0.19,0.71,0.16,1.28,1.4,0.44,0.61,0.62,0.33,0.37,-138.88,32.44,106.43,0.66,1.27,0.08,0.68,0.27,2.02,0.11,0.78,-0.46,0.41,-155.94,5.19,3.06,0.27,0.1,0.06,0.33,0.04,0.25,-0.04,0.04,-0.98,0.21,-149.31,16.37,6.5,0.2,0.18,0.06,0.32,0.02,0.68,-0.12,0.09,-0.95,0.27
0.66,-88.62,59.38,175.44,0.33,1.33,0.25,1.01,2.32,0.45,0.61,0.62,0.33,0.37,-138.88,33.0,106.5,0.24,0.26,0.03,1.15,0.96,1.94,0.11,0.78,-0.46,0.41,-156.0,5.31,2.75,0.27,0.07,0.1,0.46,0.49,0.01,-0.04,0.03,-0.98,0.21,-149.25,16.5,6.75,0.22,0.13,0.01,0.4,0.07,0.99,-0.12,0.09,-0.95,0.27
0.67,-87.69,60.88,176.19,0.12,1.64,0.49,1.33,0.02,0.84,0.61,0.61,0.35,0.37,-138.81,34.44,106.5,0.23,0.61,0.05,0.59,0.2,0.3,0.1,0.78,-0.45,0.42,-155.81,5.37,2.44,0.29,0.11,0.26,0.23,0.35,0.12,-0.04,0.03,-0.98,0.21,-149.25,16.62,7.0,0.23,0.1,0.01,0.32,0.16,1.07,-0.12,0.1,-0.95,0.27
0.68,-87.12,61.91,177.06,0.1,1.33,0.44,1.73,0.36,0.49,0.61,0.6,0.36,0.37,-138.88,34.69,106.12,0.33,0.1,0.08,1.36,0.68,0.97,0.1,0.78,-0.45,0.42,-155.25,5.31,2.0,0.4,0.14,0.79,0.25,0.16,0.48,-0.04,0.03,-0.98,0.21,-149.19,16.75,7.25,0.21,0.11,0.03,0.38,0.1,1.57,-0.12,0.1,-0.95,0.27
0.69,-86.56,62.94,177.94,0.09,1.02,0.38,2.13,0.71,0.14,0.61,0.59,0.37,0.37,-138.94,35.19,105.68,0.13,0.63,0.03,0.18,0.28,1.47,0.1,0.78,-0.45,0.43,-154.31,5.12,1.5,0.38,0.17,0.91,0.49,1.54,0.74,-0.04,0.02,-0.97,0.22,-149.06,16.81,7.5,0.26,0.05,0.14,0.69,0.29,1.85,-0.12,0.1,-0.95,0.27
0.7,-86.31,64.06,178.5,0.08,0.75,0.29,1.7,0.17,0.29,0.61,0.58,0.38,0.37,-138.94,35.88,105.5,0.08,0.61,0.03,0.12,0.17,1.72,0.09,0.77,-0.45,0.43,-153.38,5.12,1.06,0.27,0.03,0.82,0.17,0.73,1.63,-0.04,0.02,-0.97,0.23,-148.88,16.9,7.75,0.26,0.04,0.13,0.7,0.2,1.96,-0.12,0.1,-0.95,0.27
0.71,-86.12,64.69,179.06,0.04,0.51,0.22,1.28,1.22,0.04,0.61,0.58,0.39,0.37,-138.94,36.63,105.37,0.2,0.68,0.01,0.25,0.28,0.09,0.09,0.77,-0.45,0.44,-152.87,5.37,0.81,0.11,0.21,0.14,0.78,0.61,1.49,-0.04,0.02,-0.97,0.23,-148.69,17.0,8.0,0.27,0.04,0.12,0.71,0.1,2.06,-0.12,0.11,-0.95,0.28
0.72,-85.94,65.31,179.5,0.08,0.59,0.16,0.42,0.03,0.61,0.61,0.58,0.39,0.37,-139.0,37.44,105.12,0.11,0.75,0.04,0.17,0.45,0.53,0.08,0.77,-0.45,0.44,-152.62,5.56,0.62,0.14,0.11,0.15,0.26,1.03,0.81,-0.05,0.02,-0.97,0.24,-148.56,17.06,8.25,0.27,0.06,0.12,0.87,0.44,2.59,-0.12,0.11,-0.95,0.28
0.73,-86.0,65.94,179.63,0.2,0.52,0.11,1.53,1.03,0.05,0.61,0.57,0.4,0.37,-139.06,38.25,105.12,0.03,0.63,0.07,0.27,0.34,0.28,0.08,0.77,-0.45,0.44,-152.44,5.62,0.37,0.19,0.14,0.2,0.32,1.09,0.53,-0.05,0.01,-0.97,0.24,-148.44,17.16,8.57,0.32,0.08,0.09,0.82,0.28,2.65,-0.12,0.11,-0.95,0.28
0.74,-86.37,66.5,179.5,0.22,0.61,0.02,1.28,0.71,0.76,0.61,0.57,0.4,0.38,-139.06,38.63,105.37,0.26,0.28,0.08,0.04,0.38,0.13,0.07,0.77,-0.44,0.45,-152.87,5.81,0.25,0.09,0.27,0.51,0.6,0.39,1.39,-0.05,0.01,-0.97,0.23,-148.31,17.25,8.88,0.37,0.1,0.06,0.78,0.11,2.71,-0.12,0.11,-0.95,0.28
0.75,-86.66,67.12,179.34,0.2,0.58,0.02,0.82,0.4,0.55,0.6,0.57,0.4,0.38,-139.06,38.81,105.87,0.37,0.2,0.11,0.16,0.45,0.04,0.08,0.78,-0.44,0.45,-153.75,6.25,0.31,0.12,0.26,0.56,0.44,0.52,1.25,-0.05,0.02,-0.97,0.23,-148.13,17.37,9.25,0.4,0.1,0.09,0.73,0.03,2.57,-0.12,0.12,-0.94,0.28
0.76,-86.94,67.75,179.19,0.18,0.55,0.03,0.35,0.1,0.33,0.6,0.57,0.4,0.39,-139.12,38.88,106.09,0.36,0.44,0.1,0.19,0.4,0.12,0.08,0.78,-0.44,0.45,-154.63,6.69,0.37,0.16,0.24,0.62,0.27,0.66,1.12,-0.06,0.02,-0.97,0.22,-147.94,17.5,9.69,0.39,0.08,0.13,0.45,0.01,1.44,-0.12,0.12,-0.94,0.28
0.77,-87.19,68.31,179.0,0.18,0.46,0.03,0.02,0.67,0.04,0.6,0.57,0.4,0.39,-139.19,38.94,106.31,0.36,0.67,0.09,0.22,0.34,0.19,0.08,0.78,-0.44,0.45,-155.12,6.87,0.25,0.18,0.15,0.39,0.18,0.21,0.94,-0.06,0.02,-0.97,0.22,-147.69,17.62,10.0,0.29,0.16,0.18,0.69,0.42,1.13,-0.12,0.13,-0.94,0.29
0.78,-87.4,68.75,178.72,0.15,0.34,0.05,0.15,0.39,0.09,0.59,0.57,0.4,0.4,-139.19,39.56,106.31,0.3,0.47,0.1,0.5,0.24,0.16,0.07,0.78,-0.43,0.45,-155.09,7.0,0.16,0.12,0.15,0.31,0.42,1.01,1.96,-0.06,0.01,-0.97,0.22,-147.5,17.81,10.31,0.27,0.17,0.06,1.08,0.73,1.75,-0.12,0.13,-0.94,0.29
0.79,-87.62,69.19,178.44,0.12,0.23,0.07,0.28,0.11,0.14,0.59,0.58,0.4,0.4,-139.19,39.94,105.94,0.29,0.32,0.09,0.46,0.16,0.12,0.07,0.77,-0.44,0.45,-155.06,7.12,0.06,0.06,0.14,0.23,0.66,1.8,2.99,-0.06,0.01,-0.97,0.22,-147.62,17.94,10.63,0.32,0.09,0.24,0.77,0.01,1.82,-0.12,0.13,-0.94,0.29
0.8,-87.69,69.44,178.19,0.07,0.22,0.06,0.48,0.19,0.23,0.59,0.58,0.4,0.4,-139.19,40.12,105.62,0.13,0.17,0.08,0.17,0.21,0.34,0.07,0.77,-0.44,0.45,-154.56,7.25,0.13,0.01,0.08,0.71,0.43,0.84,2.09,-0.06,0.02,-0.97,0.22,-147.81,18.0,11.12,0.37,0.07,0.24,0.51,0.25,1.2,-0.12,0.14,-0.94,0.29
0.81,-87.88,69.62,177.87,0.12,0.28,0.03,0.41,0.19,0.03,0.58,0.58,0.4,0.41,-139.25,40.44,105.5,0.1,0.31,0.07,0.07,0.43,0.53,0.06,0.77,-0.44,0.46,-153.69,7.31,0.16,0.13,0.07,0.83,0.57,0.02,0.53,-0.06,0.02,-0.97,0.23,-147.94,18.0,11.56,0.35,0.08,0.05,0.37,0.33,0.34,-0.12,0.14,-0.94,0.29
0.82,-88.12,70.0,177.62,0.13,0.47,0.03,0.05,0.36,0.39,0.58,0.58,0.4,0.41,-139.25,40.88,105.25,0.2,0.46,0.05,0.25,0.32,0.28,0.06,0.77,-0.44,0.46,-152.94,7.19,0.19,0.1,0.11,0.81,0.85,0.69,0.42,-0.06,0.02,-0.97,0.23,-147.75,18.12,11.94,0.31,0.1,0.28,0.49,0.01,0.44,-0.12,0.14,-0.94,0.29
0.83,-88.37,70.44,177.31,0.12,0.35,0.03,0.28,0.07,0.56,0.58,0.58,0.4,0.42,-139.19,41.56,104.87,0.3,0.7,0.04,0.3,0.04,0.69,0.06,0.77,-0.44,0.46,-152.25,7.12,0.19,0.23,0.06,0.28,0.54,0.31,0.97,-0.06,0.02,-0.97,0.24,-147.31,18.31,12.19,0.31,0.09,0.34,0.59,0.03,0.74,-0.12,0.15,-0.94,0.29
0.84,-88.5,70.81,177.12,0.07,0.38,0.01,0.19,0.27,0.51,0.57,0.58,0.4,0.42,-139.12,42.06,104.62,0.43,0.91,0.03,0.47,0.1,0.24,0.05,0.77,-0.44,0.47,-152.06,7.25,0.34,0.35,0.13,0.1,0.18,0.29,0.34,-0.06,0.02,-0.97,0.24,-146.87,18.5,12.44,0.4,0.09,0.35,0.72,0.14,0.46,-0.12,0.15,-0.94,0.3
0.85,-88.56,71.19,177.12,0.08,0.4,0.05,0.58,0.18,0.3,0.57,0.58,0.4,0.42,-139.0,43.06,104.12,0.44,0.99,0.03,0.03,0.24,0.26,0.05,0.77,-0.43,0.47,-151.94,7.37,0.5,0.41,0.08,0.06,0.04,0.23,0.62,-0.06,0.02,-0.97,0.24,-146.44,18.56,12.75,0.4,0.06,0.31,0.55,0.23,0.04,-0.12,0.15,-0.93,0.3
0.86,-88.68,71.72,177.0,0.11,0.46,0.04,0.5,0.18,0.17,0.57,0.58,0.4,0.42,-138.88,44.13,103.56,0.4,0.87,0.06,0.17,0.29,0.11,0.04,0.76,-0.43,0.48,-151.63,7.31,0.81,0.33,0.13,0.41,0.83,0.11,0.32,-0.06,0.02,-0.97,0.24,-146.12,18.68,13.16,0.42,0.06,0.24,0.5,0.12,0.09,-0.12,0.16,-0.93,0.3
0.87,-88.81,72.25,176.87,0.14,0.51,0.03,0.43,0.18,0.04,0.57,0.58,0.41,0.43,-138.88,45.06,102.93,0.56,0.83,0.07,0.1,0.28,0.12,0.03,0.76,-0.43,0.48,-151.0,7.12,1.12,0.37,0.2,0.47,0.73,0.57,0.61,-0.06,0.02,-0.97,0.25,-145.81,18.81,13.56,0.43,0.07,0.18,0.45,0.01,0.14,-0.12,0.16,-0.93,0.31
0.88,-89.0,72.87,176.5,0.11,0.55,0.05,0.22,0.13,0.02,0.56,0.58,0.41,0.43,-137.37,45.94,102.12,0.63,0.7,0.09,0.11,0.09,0.06,0.03,0.76,-0.43,0.49,-150.5,6.94,1.5,0.41,0.23,0.45,0.65,1.05,0.19,-0.06,0.03,-0.96,0.25,-145.56,18.94,13.94,0.41,0.05,0.21,0.34,0.24,0.24,-0.12,0.16,-0.93,0.31
0.89,-89.12,73.44,176.18,0.09,0.6,0.04,0.23,0.08,0.26,0.56,0.58,0.41,0.44,-135.31,46.94,101.0,0.82,1.18,0.15,0.01,0.11,0.09,0.03,0.75,-0.42,0.51,-150.56,6.97,2.03,0.44,0.16,0.34,0.56,0.66,0.12,-0.05,0.03,-0.96,0.25,-145.25,19.0,14.31,0.36,0.01,0.17,0.5,0.41,0.09,-0.12,0.17,-0.93,0.31
0.9,-89.25,74.0,175.87,0.07,0.64,0.04,0.24,0.03,0.49,0.55,0.58,0.41,0.44,-133.37,48.25,99.69,0.84,1.25,0.17,0.52,0.32,0.03,0.03,0.74,-0.42,0.52,-150.62,7.0,2.56,0.47,0.09,0.23,0.47,0.28,0.06,-0.05,0.04,-0.96,0.25,-145.0,19.06,14.63,0.33,0.02,0.11,0.26,0.13,0.12,-0.12,0.17,-0.93,0.31
0.91,-89.06,74.75,176.0,0.07,0.63,0.07,0.27,0.23,0.33,0.55,0.57,0.41,0.45,-131.56,49.5,98.43,0.76,1.03,0.16,0.79,0.24,0.31,0.03,0.74,-0.41,0.53,-150.94,7.06,3.06,0.36,0.05,0.32,0.27,0.38,0.3,-0.05,0.04,-0.97,0.25,-144.94,19.06,15.0,0.36,0.01,0.01,0.16,0.18,0.32,-0.12,0.17,-0.93,0.32
0.92,-88.87,75.5,176.12,0.06,0.31,0.04,0.32,0.3,0.13,0.55,0.57,0.42,0.45,-130.12,50.38,97.31,0.64,0.83,0.16,0.41,0.29,0.26,0.03,0.73,-0.41,0.54,-151.25,6.94,3.5,0.35,0.09,0.3,0.3,0.5,0.06,-0.05,0.04,-0.97,0.25,-144.94,19.06,15.44,0.4,0.02,0.08,0.19,0.06,0.35,-0.12,0.18,-0.93,0.32
0.93,-88.75,75.81,176.25,0.03,0.25,0.03,0.14,0.1,0.35,0.55,0.57,0.42,0.45,-128.94,51.25,96.31,0.51,0.84,0.16,0.56,0.1,0.4,0.03,0.73,-0.4,0.55,-151.5,6.81,3.94,0.33,0.08,0.23,0.32,0.27,0.59,-0.05,0.05,-0.97,0.25,-144.87,19.0,15.88,0.37,0.02,0.11,0.18,0.02,0.28,-0.11,0.18,-0.92,0.32
0.94,-88.56,76.19,176.5,0.13,0.35,0.07,0.05,0.34,0.66,0.55,0.56,0.42,0.45,-128.12,52.19,95.43,0.43,0.86,0.14,0.4,0.1,0.03,0.02,0.73,-0.4,0.56,-151.63,6.81,4.31,0.31,0.04,0.1,0.02,0.32,0.54,-0.05,0.05,-0.97,0.25,-144.69,19.0,16.25,0.34,0.08,0.13,0.04,0.03,0.06,-0.11,0.18,-0.92,0.32
0.95,-88.31,76.62,176.94,0.13,0.43,0.13,0.35,0.2,0.87,0.55,0.56,0.43,0.45,-127.38,53.19,94.5,0.4,0.93,0.12,0.11,0.17,0.67,0.02,0.72,-0.4,0.56,-151.37,6.81,4.56,0.27,0.01,0.13,1.18,0.76,0.08,-0.05,0.05,-0.97,0.25,-144.37,18.94,16.44,0.26,0.11,0.26,0.08,0.2,0.2,-0.11,0.18,-0.92,0.32
0.96,-88.0,77.16,177.69,0.08,0.35,0.14,0.54,0.15,0.66,0.55,0.55,0.44,0.44,-126.81,54.0,93.69,0.32,0.83,0.11,0.46,0.05,0.55,0.01,0.72,-0.4,0.57,-151.06,6.81,4.81,0.23,0.06,0.31,0.71,1.21,0.51,-0.05,0.06,-0.97,0.25,-144.0,18.94,16.56,0.2,0.11,0.29,0.14,0.45,0.35,-0.11,0.19,-0.92,0.32
0.97,-87.69,77.69,178.44,0.02,0.27,0.15,0.74,0.1,0.46,0.56,0.55,0.44,0.44,-126.25,54.63,92.93,0.3,0.56,0.15,0.39,0.02,0.26,0.01,0.72,-0.4,0.57,-150.75,6.69,5.06,0.26,0.1,0.18,0.58,1.22,0.48,-0.05,0.06,-0.96,0.25,-143.69,18.87,16.69,0.21,0.12,0.17,0.15,0.6,0.32,-0.11,0.19,-0.92,0.33
0.98,-87.5,78.06,179.12,0.02,0.35,0.14,0.5,0.09,0.42,0.56,0.54,0.45,0.44,-125.69,55.0,92.31,0.25,0.21,0.1,0.86,0.47,1.05,0.01,0.72,-0.39,0.58,-150.94,6.62,5.44,0.36,0.06,0.32,0.36,0.69,0.01,-0.04,0.06,-0.96,0.25,-143.56,18.75,16.87,0.19,0.14,0.02,0.15,0.41,0.66,-0.11,0.19,-0.92,0.33
0.99,-87.31,78.53,179.28,0.02,0.36,0.11,0.33,0.08,0.57,0.56,0.54,0.45,0.44,-125.38,55.44,91.87,0.12,0.4,0.02,0.51,0.16,0.06,0.0,0.71,-0.39,0.58,-151.56,6.56,5.94,0.38,0.01,0.67,0.59,0.45,0.29,-0.04,0.06,-0.97,0.25,-143.56,18.6,16.94,0.1,0.11,0.04,0.12,0.25,0.83,-0.11,0.19,-0.92,0.33
1.0,-87.12,79.0,179.44,0.02,0.36,0.07,0.16,0.08,0.72,0.56,0.53,0.46,0.44,-125.25,55.75,91.62,0.12,0.25,0.02,0.46,0.21,0.64,0.0,0.71,-0.39,0.58,-152.31,6.37,6.37,0.32,0.11,0.74,0.37,0.21,0.5,-0.04,0.07,-0.97,0.24,-143.56,18.44,17.0,0.02,0.08,0.07,0.1,0.09,1.0,-0.1,0.19,-0.92,0.33
1.01,-87.19,79.31,179.19,0.14,0.26,0.09,0.67,0.07,0.79,0.55,0.53,0.46,0.44,-125.06,55.94,91.31,0.14,0.23,0.03,0.35,0.28,0.81,0.0,0.71,-0.39,0.58,-152.94,6.12,6.75,0.2,0.15,0.54,0.2,0.26,0.7,-0.04,0.07,-0.97,0.24,-143.62,18.37,17.0,0.06,0.04,0.22,0.39,0.06,0.26,-0.1,0.19,-0.92,0.33
1.02,-87.25,79.69,178.69,0.08,0.28,0.12,0.67,0.12,0.43,0.55,0.53,0.46,0.45,-124.75,56.19,91.0,0.17,0.25,0.06,0.17,0.17,0.59,-0.0,0.71,-0.39,0.58,-153.38,5.94,6.94,0.16,0.14,0.37,0.23,0.17,0.11,-0.04,0.07,-0.97,0.23,-143.9,18.24,17.31,0.21,0.08,0.26,0.26,0.04,0.14,-0.1,0.19,-0.92,0.33
1.03,-87.25,79.94,178.12,0.12,0.23,0.09,0.67,0.04,0.29,0.55,0.54,0.46,0.45,-124.44,56.37,90.62,0.17,0.21,0.06,0.1,0.36,0.27,-0.0,0.71,-0.39,0.59,-153.62,5.69,7.19,0.16,0.2,0.22,0.4,0.1,0.61,-0.03,0.07,-0.97,0.23,-144.19,18.12,17.62,0.36,0.11,0.29,0.14,0.03,0.01,-0.1,0.19,-0.92,0.32
1.04,-87.37,79.87,178.06,0.11,0.15,0.05,0.8,0.05,0.14,0.55,0.54,0.46,0.45,-124.19,56.5,90.34,0.16,0.2,0.08,0.3,0.24,0.54,-0.0,0.71,-0.39,0.59,-153.81,5.44,7.31,0.11,0.19,0.16,0.03,0.9,0.49,-0.03,0.07,-0.97,0.23,-144.44,17.87,18.12,0.39,0.14,0.14,0.01,0.96,1.32,-0.1,0.19,-0.92,0.32
1.05,-87.5,79.69,178.25,0.1,0.19,0.01,0.86,0.27,0.13,0.55,0.54,0.45,0.45,-123.94,56.63,90.06,0.15,0.18,0.09,0.5,0.11,0.8,-0.0,0.71,-0.39,0.59,-153.81,5.31,7.37,0.05,0.25,0.06,0.02,0.46,0.34,-0.03,0.07,-0.97,0.23,-144.37,17.75,18.56,0.37,0.07,0.28,0.14,0.47,2.09,-0.1,0.2,-0.92,0.32
1.06,-87.69,79.44,178.5,0.1,0.27,0.02,0.37,0.09,0.21,0.55,0.54,0.45,0.45,-123.62,56.75,89.68,0.11,0.08,0.09,0.56,0.38,0.68,-0.0,0.71,-0.39,0.59,-153.69,5.06,7.37,0.01,0.24,0.05,0.28,0.44,0.26,-0.03,0.07,-0.97,0.23,-143.94,17.81,18.81,0.33,0.02,0.36,0.31,0.53,1.22,-0.1,0.2,-0.92,0.33
1.07,-87.84,79.12,178.84,0.11,0.27,0.03,0.61,0.08,0.18,0.55,0.54,0.45,0.45,-123.34,56.72,89.43,0.11,0.09,0.09,0.36,0.48,0.38,-0.0,0.71,-0.39,0.59,-153.69,4.81,7.37,0.04,0.15,0.06,0.46,0.42,0.13,-0.03,0.07,-0.97,0.23,-143.5,17.94,19.12,0.44,0.01,0.04,0.22,1.23,0.68,-0.09,0.2,-0.92,0.33
1.08,-88.0,78.81,179.19,0.11,0.27,0.04,0.85,0.06,0.14,0.55,0.54,0.45,0.44,-123.06,56.69,89.18,0.1,0.1,0.09,0.15,0.58,0.08,-0.0,0.7,-0.39,0.59,-153.81,4.69,7.56,0.11,0.11,0.27,0.03,0.17,0.83,-0.02,0.07,-0.97,0.23,-143.56,17.87,19.69,0.5,0.01,0.26,0.16,0.88,0.4,-0.09,0.21,-0.92,0.33
1.09,-88.12,78.44,179.44,0.05,0.36,0.02,0.78,0.03,0.09,0.55,0.54,0.45,0.44,-122.75,56.56,89.0,0.13,0.16,0.09,0.57,0.64,0.37,-0.0,0.7,-0.39,0.59,-154.19,4.5,7.62,0.04,0.2,0.36,0.64,0.21,0.43,-0.02,0.07,-0.97,0.23,-144.0,17.62,20.5,0.6,0.03,0.59,0.12,0.19,0.14,-0.09,0.21,-0.92,0.33
1.1,-88.18,77.9,179.54,0.04,0.38,0.02,0.6,0.22,0.25,0.56,0.54,0.45,0.44,-122.25,56.37,88.75,0.21,0.14,0.09,0.32,0.5,0.59,0.0,0.7,-0.39,0.59,-154.5,4.25,7.62,0.09,0.27,0.2,0.83,0.1,0.25,-0.02,0.07,-0.97,0.22,-144.56,17.37,21.44,0.72,0.06,0.51,0.18,0.27,0.12,-0.09,0.22,-0.92,0.32
1.11,-88.25,77.37,179.63,0.04,0.41,0.01,0.41,0.42,0.4,0.56,0.54,0.45,0.44,-121.75,56.19,88.44,0.15,0.1,0.08,0.42,0.34,0.41,0.0,0.7,-0.39,0.59,-154.44,3.87,7.44,0.18,0.37,0.14,0.72,1.67,1.31,-0.02,0.07,-0.97,0.22,-144.87,17.12,22.37,0.72,0.08,0.36,0.18,0.48,0.07,-0.08,0.23,-0.92,0.32
1.12,-88.37,76.87,179.81,0.08,0.51,0.03,0.53,0.37,0.25,0.56,0.55,0.44,0.43,-121.5,56.06,88.31,0.03,0.04,0.04,0.36,0.34,0.88,0.01,0.7,-0.39,0.6,-154.06,3.37,7.0,0.45,0.48,0.28,1.21,1.77,1.53,-0.01,0.07,-0.97,0.23,-144.94,16.94,23.19,0.72,0.14,0.1,0.11,0.47,0.32,-0.08,0.23,-0.91,0.32
1.13,-88.56,76.19,179.87,0.08,0.58,0.04,0.85,0.05,0.16,0.56,0.55,0.44,0.43,-121.37,56.0,88.25,0.09,0.08,0.04,0.02,0.9,0.35,0.01,0.7,-0.39,0.6,-154.06,2.87,6.44,0.51,0.44,0.06,0.06,2.15,1.03,-0.01,0.06,-0.97,0.23,-144.75,16.84,24.0,0.76,0.12,0.12,0.36,0.62,0.22,-0.07,0.24,-0.91,0.32
1.14,-88.62,75.56,179.63,0.02,0.56,0.05,0.43,0.2,0.08,0.56,0.55,0.44,0.43,-121.06,55.88,88.12,0.12,0.2,0.03,0.06,0.17,0.1,0.01,0.7,-0.39,0.6,-154.5,2.37,5.94,0.34,0.28,0.85,0.34,0.99,1.2,-0.01,0.06,-0.97,0.22,-144.56,16.75,24.81,0.81,0.11,0.15,0.62,0.78,0.13,-0.07,0.25,-0.91,0.32
1.15,-88.75,74.94,179.19,0.02,0.56,0.11,0.63,0.31,0.06,0.56,0.56,0.43,0.43,-120.81,55.56,88.18,0.03,0.26,0.02,0.15,0.03,0.02,0.01,0.7,-0.39,0.6,-155.56,2.06,5.62,0.24,0.15,1.06,0.56,0.47,1.25,-0.01,0.05,-0.98,0.21,-143.94,16.75,25.56,0.78,0.15,0.5,0.86,0.69,1.67,-0.07,0.25,-0.91,0.33
1.16,-88.87,74.37,178.75,0.03,0.52,0.14,0.5,0.21,0.19,0.56,0.56,0.43,0.43,-120.81,55.31,88.37,0.05,0.26,0.01,0.2,0.16,0.22,0.02,0.7,-0.39,0.59,-156.69,2.0,5.44,0.24,0.07,0.9,0.33,1.71,0.21,-0.01,0.05,-0.98,0.2,-143.0,17.06,26.06,0.67,0.12,0.84,0.39,0.43,1.74,-0.07,0.26,-0.9,0.34
1.17,-88.87,73.87,178.5,0.07,0.5,0.08,0.34,0.2,0.39,0.57,0.57,0.42,0.43,-120.84,55.1,88.52,0.08,0.2,0.02,0.16,0.32,0.12,0.02,0.7,-0.39,0.59,-157.31,1.94,5.12,0.34,0.02,0.46,0.51,0.76,0.07,-0.01,0.05,-0.98,0.2,-142.0,17.56,26.56,0.63,0.09,0.71,0.49,1.37,1.56,-0.07,0.26,-0.9,0.35
1.18,-88.87,73.31,178.44,0.05,0.5,0.04,0.08,0.1,0.56,0.57,0.57,0.42,0.43,-120.87,54.88,88.68,0.1,0.13,0.03,0.12,0.49,0.03,0.02,0.7,-0.39,0.59,-157.44,1.75,4.69,0.4,0.16,0.02,0.78,0.51,0.71,-0.01,0.04,-0.98,0.2,-141.56,17.87,27.25,0.72,0.15,0.18,0.25,1.26,0.97,-0.07,0.27,-0.89,0.35
1.19,-88.87,72.75,178.44,0.02,0.49,0.02,0.06,0.08,0.75,0.57,0.57,0.42,0.42,-121.13,54.88,88.81,0.11,0.01,0.02,0.34,0.64,0.09,0.02,0.7,-0.39,0.59,-157.31,1.69,4.31,0.32,0.02,0.2,0.15,0.05,0.63,-0.01,0.04,-0.98,0.2,-141.69,17.87,28.19,0.74,0.11,0.29,0.13,0.66,1.47,-0.06,0.28,-0.89,0.35
1.2,-88.96,72.18,178.28,0.02,0.48,0.05,0.14,0.3,0.63,0.57,0.57,0.41,0.42,-121.37,54.88,89.06,0.1,0.03,0.08,0.6,0.3,0.75,0.02,0.7,-0.39,0.59,-157.0,1.72,3.93,0.33,0.02,0.29,0.45,0.03,0.42,-0.01,0.04,-0.98,0.2,-141.94,17.81,28.94,0.53,0.11,0.22,0.26,1.93,1.87,-0.06,0.28,-0.89,0.35
1.21,-89.06,71.62,178.12,0.02,0.46,0.08,0.21,0.51,0.51,0.57,0.58,0.41,0.42,-121.56,54.88,89.25,0.05,0.06,0.06,0.26,0.44,0.83,0.02,0.7,-0.39,0.59,-156.69,1.75,3.56,0.34,0.03,0.38,0.75,0.01,0.2,-0.01,0.03,-0.98,0.2,-141.94,17.81,29.5,0.55,0.01,0.01,0.1,0.83,1.62,-0.06,0.29,-0.89,0.35
1.22,-89.19,71.25,177.87,0.02,0.35,0.08,0.46,0.48,0.89,0.57,0.58,0.4,0.42,-121.75,54.88,89.44,0.03,0.02,0.09,0.55,0.12,0.02,0.02,0.7,-0.39,0.59,-156.19,1.69,3.12,0.39,0.11,0.44,0.46,0.7,0.26,-0.01,0.03,-0.98,0.21,-141.81,17.75,30.19,0.61,0.08,0.04,0.07,0.2,1.28,-0.06,0.29,-0.89,0.35
1.23,-89.25,70.94,177.69,0.02,0.23,0.08,0.35,0.29,0.8,0.57,0.58,0.4,0.42,-122.0,54.94,89.68,0.07,0.08,0.14,0.56,0.57,0.41,0.02,0.71,-0.39,0.59,-156.06,1.62,2.75,0.33,0.05,0.23,0.49,1.47,0.56,-0.01,0.03,-0.98,0.21,-141.81,17.62,30.81,0.5,0.07,0.12,0.12,0.59,0.76,-0.05,0.3,-0.89,0.35
1.24,-89.25,70.62,177.5,0.03,0.29,0.06,0.43,0.21,1.23,0.57,0.58,0.4,0.42,-122.31,54.88,90.06,0.12,0.13,0.16,0.51,0.55,0.21,0.02,0.71,-0.39,0.59,-156.0,1.62,2.56,0.22,0.02,0.03,1.16,1.26,0.64,-0.01,0.02,-0.98,0.21,-141.88,17.56,31.06,0.46,0.13,0.18,0.47,1.72,1.16,-0.05,0.3,-0.89,0.35
1.25,-89.37,70.31,177.38,0.04,0.28,0.03,0.16,0.23,0.96,0.57,0.58,0.4,0.42,-122.56,54.75,90.43,0.07,0.17,0.07,0.41,0.35,0.64,0.02,0.71,-0.39,0.59,-156.0,1.62,2.37,0.05,0.09,0.11,1.09,0.09,0.04,-0.01,0.02,-0.98,0.21,-141.88,17.31,31.56,0.29,0.18,0.15,0.94,2.4,1.77,-0.05,0.3,-0.89,0.35
1.26,-89.37,70.19,177.38,0.01,0.17,0.04,0.95,0.21,0.48,0.57,0.58,0.4,0.42,-122.62,54.56,90.56,0.03,0.18,0.01,0.81,0.07,1.43,0.02,0.71,-0.39,0.59,-155.81,1.5,2.31,0.12,0.23,0.16,0.6,1.24,1.15,-0.01,0.02,-0.98,0.21,-141.5,17.25,31.81,0.39,0.29,0.4,0.22,0.9,1.33,-0.05,0.3,-0.88,0.35
1.27,-89.25,70.06,177.62,0.07,0.03,0.04,0.66,0.54,0.29,0.57,0.58,0.4,0.42,-122.56,54.31,90.69,0.01,0.2,0.02,1.03,0.11,1.78,0.02,0.71,-0.39,0.59,-155.69,1.25,2.12,0.19,0.21,0.01,0.81,0.55,0.39,-0.01,0.02,-0.98,0.21,-141.12,17.25,32.06,0.45,0.27,0.24,0.13,0.5,0.61,-0.05,0.31,-0.88,0.36
1.28,-89.13,70.0,177.75,0.06,0.1,0.02,0.8,0.32,0.28,0.58,0.58,0.4,0.41,-122.31,53.94,90.75,0.05,0.45,0.03,1.6,0.44,2.14,0.03,0.71,-0.39,0.58,-155.69,1.0,1.94,0.23,0.23,0.02,0.14,1.58,1.78,-0.0,0.02,-0.98,0.21,-140.81,17.06,32.44,0.34,0.25,0.16,0.15,0.47,0.07,-0.04,0.31,-0.88,0.36
1.29,-89.06,69.87,177.75,0.05,0.18,0.04,1.36,0.28,0.74,0.58,0.58,0.4,0.41,-122.06,53.31,91.0,0.07,0.57,0.04,1.24,0.48,1.87,0.03,0.71,-0.39,0.58,-155.81,0.62,1.62,0.33,0.21,0.36,0.11,0.04,1.21,-0.0,0.01,-0.98,0.21,-141.0,16.75,32.81,0.26,0.22,0.22,0.49,1.13,0.01,-0.04,0.31,-0.88,0.36
1.3,-89.06,69.69,177.75,0.04,0.18,0.03,1.91,0.26,0.9,0.58,0.58,0.4,0.41,-121.94,52.94,91.12,0.09,0.77,0.06,1.08,0.31,1.28,0.04,0.71,-0.39,0.58,-156.31,0.44,1.31,0.27,0.09,0.47,0.3,0.54,0.77,-0.0,0.01,-0.98,0.21,-141.0,16.44,33.06,0.26,0.28,0.07,0.94,0.52,0.03,-0.04,0.31,-0.88,0.36
1.31,-88.94,69.44,177.87,0.09,0.23,0.01,2.07,0.07,1.18,0.58,0.58,0.4,0.41,-121.69,52.0,91.44,0.11,1.08,0.12,1.09,0.19,1.47,0.05,0.71,-0.4,0.58,-156.5,0.31,1.0,0.25,0.15,0.13,0.36,0.84,0.76,-0.0,0.01,-0.98,0.2,-140.94,16.12,33.31,0.33,0.33,0.05,0.35,0.06,0.29,-0.03,0.31,-0.88,0.35
1.32,-88.75,68.9,178.03,0.13,0.43,0.01,1.78,0.1,1.17,0.58,0.58,0.39,0.41,-121.31,50.69,91.87,0.19,1.45,0.09,1.34,0.11,1.91,0.06,0.71,-0.4,0.58,-156.44,0.28,0.69,0.32,0.33,0.13,0.5,1.18,1.57,-0.0,0.01,-0.98,0.2,-141.12,15.69,33.75,0.42,0.33,0.21,0.62,0.34,0.96,-0.03,0.31,-0.88,0.35
1.33,-88.56,68.37,178.19,0.17,0.62,0.01,1.5,0.13,1.17,0.59,0.58,0.39,0.4,-121.0,49.13,92.5,0.3,1.48,0.02,1.21,0.07,1.37,0.07,0.71,-0.4,0.57,-156.37,0.25,0.37,0.32,0.25,0.03,1.21,0.47,0.95,-0.0,0.0,-0.98,0.2,-141.31,15.38,34.25,0.38,0.06,0.2,0.55,0.2,0.43,-0.02,0.32,-0.88,0.35
1.34,-88.31,67.62,178.38,0.17,0.76,0.02,1.71,0.11,0.69,0.59,0.58,0.39,0.4,-121.13,47.44,93.37,0.41,1.59,0.07,1.16,0.08,0.93,0.09,0.72,-0.4,0.56,-156.63,0.5,0.31,0.29,0.27,0.32,1.5,0.2,0.51,-0.0,0.0,-0.98,0.2,-141.62,15.19,34.69,0.41,0.07,0.18,0.24,0.35,0.17,-0.02,0.32,-0.88,0.35
1.35,-88.06,66.75,178.56,0.17,0.79,0.02,1.8,0.31,0.64,0.6,0.59,0.39,0.39,-121.94,45.75,94.62,0.7,1.77,0.21,1.12,0.35,1.4,0.1,0.72,-0.41,0.55,-157.0,0.81,0.25,0.29,0.35,0.38,1.31,0.77,0.48,-0.01,0.0,-0.98,0.2,-141.78,14.82,35.32,0.5,0.18,0.26,0.42,0.32,0.55,-0.02,0.32,-0.88,0.35
1.36,-87.75,65.87,178.87,0.21,0.81,0.01,1.4,0.05,0.18,0.6,0.59,0.39,0.38,-121.94,43.81,96.06,0.8,1.88,0.16,0.8,0.51,0.99,0.12,0.72,-0.41,0.54,-157.75,1.31,0.56,0.24,0.43,0.72,0.65,0.91,0.73,-0.01,0.01,-0.98,0.19,-141.94,14.44,35.94,0.58,0.29,0.34,0.6,0.3,0.93,-0.01,0.33,-0.88,0.34
1.37,-87.31,65.0,179.12,0.28,0.78,0.02,1.29,0.09,0.16,0.61,0.59,0.38,0.38,-122.0,41.81,97.43,0.87,1.81,0.12,0.58,0.45,0.33,0.13,0.73,-0.41,0.53,-158.87,1.75,0.75,0.01,0.34,1.27,1.59,0.11,2.04,-0.01,0.01,-0.98,0.18,-142.0,14.06,36.63,0.63,0.19,0.21,0.64,0.57,0.04,-0.01,0.33,-0.88,0.34
1.38,-86.81,64.12,179.56,0.3,0.79,0.01,1.66,0.09,0.06,0.61,0.58,0.38,0.37,-122.13,39.94,98.56,0.7,1.74,0.12,1.03,0.13,0.32,0.15,0.73,-0.41,0.52,-160.25,2.06,0.81,0.04,0.24,1.25,2.18,1.04,2.08,-0.02,0.01,-0.98,0.17,-142.13,13.75,37.38,0.59,0.14,0.24,0.26,0.55,0.44,-0.0,0.34,-0.88,0.34
1.39,-86.31,63.31,179.81,0.29,0.63,0.01,1.48,0.14,0.14,0.62,0.58,0.38,0.36,-122.13,38.06,99.69,0.74,1.78,0.17,0.57,0.53,1.41,0.17,0.73,-0.41,0.51,-161.31,2.25,0.88,0.1,0.13,0.85,0.13,1.26,0.9,-0.02,0.01,-0.99,0.16,-142.37,13.44,38.0,0.55,0.19,0.29,0.44,0.39,0.45,-0.0,0.34,-0.88,0.34
1.4,-85.81,62.69,179.81,0.28,0.57,0.01,0.57,0.02,0.39,0.62,0.58,0.38,0.36,-122.1,35.97,100.53,0.52,1.44,0.09,0.88,0.46,1.23,0.18,0.74,-0.42,0.5,-161.75,2.44,1.19,0.3,0.24,0.16,0.22,0.54,1.36,-0.02,0.01,-0.99,0.16,-142.56,13.0,38.63,0.5,0.23,0.33,0.19,0.19,0.24,0.0,0.35,-0.88,0.34
1.41,-85.25,62.0,179.44,0.32,0.65,0.02,0.63,0.22,1.0,0.63,0.58,0.38,0.35,-122.07,33.88,101.37,0.31,1.1,0.01,1.18,0.4,1.05,0.2,0.74,-0.42,0.49,-161.5,2.81,1.5,0.27,0.33,0.19,0.5,0.29,2.43,-0.02,0.02,-0.99,0.16,-142.75,12.69,39.13,0.46,0.12,0.29,0.01,0.79,0.39,0.01,0.35,-0.88,0.33
1.42,-84.31,61.25,178.87,0.51,0.61,0.03,1.49,0.47,0.26,0.63,0.58,0.37,0.35,-122.13,32.88,101.81,0.25,0.75,0.03,0.64,0.59,0.77,0.2,0.74,-0.42,0.48,-161.4,2.9,1.66,0.2,0.18,0.11,0.34,0.34,2.28,-0.02,0.02,-0.99,0.16,-143.13,12.37,39.81,0.53,0.01,0.44,0.25,0.52,0.37,0.01,0.35,-0.88,0.33
1.43,-83.22,60.82,178.31,0.57,0.39,0.05,1.26,1.58,0.74,0.64,0.58,0.37,0.35,-122.07,32.63,102.25,0.35,0.22,0.18,0.16,0.81,0.45,0.21,0.74,-0.42,0.48,-161.31,3.0,1.81,0.14,0.03,0.03,0.19,0.39,2.12,-0.02,0.02,-0.99,0.16,-143.44,12.18,40.28,0.54,0.05,0.45,0.61,0.53,0.38,0.01,0.36,-0.87,0.33
1.44,-82.12,60.38,177.75,0.64,0.17,0.07,1.03,2.69,1.23,0.65,0.58,0.37,0.34,-122.0,32.38,102.56,0.13,0.17,0.07,0.88,0.04,0.36,0.21,0.74,-0.42,0.48,-161.44,2.94,2.0,0.12,0.06,0.17,0.49,0.62,2.43,-0.02,0.02,-0.99,0.16,-143.75,12.0,40.75,0.54,0.08,0.47,0.97,0.54,0.4,0.01,0.36,-0.87,0.32
1.45,-82.37,60.63,178.19,0.56,0.33,0.43,1.8,0.72,0.04,0.64,0.57,0.37,0.34,-121.94,32.44,102.62,0.05,0.03,0.03,1.02,0.04,0.31,0.21,0.74,-0.42,0.48,-161.62,2.81,2.0,0.03,0.13,0.14,0.16,0.01,1.93,-0.02,0.02,-0.99,0.16,-144.31,11.69,41.5,0.55,0.06,0.63,0.78,0.21,0.59,0.02,0.36,-0.87,0.32
1.46,-82.44,61.19,178.62,0.45,0.58,0.25,0.31,0.26,0.48,0.64,0.57,0.38,0.34,-121.88,32.44,102.75,0.06,0.02,0.11,0.5,0.44,0.78,0.21,0.74,-0.42,0.48,-161.56,2.62,1.94,0.02,0.16,0.14,0.37,0.02,1.72,-0.02,0.02,-0.99,0.16,-144.94,11.25,42.19,0.63,0.03,0.54,0.48,0.02,0.25,0.02,0.37,-0.87,0.31
1.47,-83.44,61.63,179.75,0.58,0.21,0.41,0.11,0.88,0.05,0.64,0.57,0.38,0.34,-121.82,32.5,102.87,0.05,0.11,0.1,0.77,0.25,0.09,0.21,0.74,-0.42,0.48,-161.31,2.44,2.0,0.03,0.17,0.28,1.11,0.69,1.96,-0.02,0.02,-0.99,0.16,-145.44,10.81,43.0,0.69,0.01,0.45,0.15,0.48,0.47,0.02,0.37,-0.87,0.31
1.48,-83.87,61.13,179.63,0.06,0.63,0.18,0.81,0.28,0.85,0.64,0.58,0.38,0.34,-121.75,32.69,102.93,0.05,0.2,0.01,1.28,0.12,0.51,0.21,0.74,-0.42,0.48,-160.94,2.25,2.0,0.03,0.15,0.3,0.54,1.03,1.84,-0.02,0.02,-0.99,0.17,-145.81,10.5,43.81,0.66,0.01,0.26,0.25,0.76,0.3,0.03,0.38,-0.87,0.3
1.49,-84.19,60.75,179.06,0.05,0.41,0.27,0.84,0.24,0.48,0.64,0.58,0.37,0.34,-121.69,32.88,102.93,0.04,0.21,0.05,1.22,0.24,0.17,0.21,0.74,-0.41,0.48,-160.81,2.06,1.94,0.09,0.22,0.03,0.08,0.48,1.57,-0.01,0.02,-0.99,0.17,-146.0,10.31,44.56,0.66,0.08,0.2,0.45,1.6,0.26,0.03,0.39,-0.87,0.3
1.5,-85.44,60.0,177.87,0.68,0.93,0.44,0.91,0.04,0.47,0.63,0.59,0.36,0.35,-121.63,33.38,102.87,0.12,0.51,0.07,0.49,0.19,0.43,0.21,0.74,-0.41,0.49,-160.78,1.78,1.78,0.1,0.22,0.06,0.14,0.35,1.54,-0.01,0.02,-0.99,0.17,-146.44,9.81,45.38,0.66,0.21,0.52,1.17,0.34,0.61,0.04,0.39,-0.87,0.3
1.51,-88.25,57.13,176.06,1.28,3.33,0.55,0.4,0.77,0.7,0.62,0.62,0.32,0.35,-121.51,34.06,102.68,0.18,0.62,0.05,0.38,0.37,0.25,0.21,0.74,-0.41,0.49,-160.75,1.5,1.62,0.11,0.22,0.08,0.2,0.22,1.52,-0.01,0.02,-0.99,0.17,-146.87,9.38,45.94,0.33,0.02,0.25,0.7,0.46,0.14,0.04,0.39,-0.87,0.29
1.52,-90.56,53.13,175.06,0.64,3.26,0.37,1.12,0.59,1.39,0.62,0.65,0.29,0.34,-121.51,34.69,102.62,0.03,0.57,0.04,0.67,0.25,0.1,0.2,0.74,-0.41,0.49,-160.63,1.19,1.62,0.04,0.27,0.17,0.31,0.35,0.63,-0.01,0.02,-0.99,0.17,-147.06,9.19,46.31,0.3,0.02,0.16,0.13,0.6,0.5,0.04,0.4,-0.87,0.29
1.53,-92.69,50.31,174.25,0.52,2.12,0.4,1.69,0.69,1.65,0.61,0.67,0.26,0.34,-121.57,35.38,102.56,0.03,0.65,0.04,0.55,0.16,0.4,0.2,0.74,-0.4,0.5,-160.25,0.88,1.59,0.06,0.27,0.23,0.27,0.35,1.27,-0.01,0.01,-0.99,0.17,-147.06,9.06,46.63,0.39,0.09,0.09,0.15,0.99,0.38,0.04,0.4,-0.87,0.29
1.54,-93.94,50.19,173.44,0.33,0.37,0.28,1.28,0.54,0.21,0.6,0.68,0.25,0.34,-121.63,36.19,102.62,0.11,0.79,0.03,0.74,0.08,0.57,0.19,0.74,-0.4,0.5,-159.87,0.56,1.56,0.08,0.27,0.29,0.23,0.35,1.9,-0.0,0.01,-0.98,0.17,-147.19,8.81,47.06,0.38,0.16,0.28,0.33,1.29,0.88,0.04,0.4,-0.87,0.29
1.55,-94.62,51.0,172.62,0.19,0.87,0.28,1.2,0.21,0.8,0.59,0.68,0.25,0.36,-121.63,36.97,102.84,0.2,0.88,0.06,0.69,0.33,0.37,0.19,0.74,-0.4,0.5,-159.75,0.19,1.5,0.03,0.35,0.08,0.13,0.28,0.16,0.0,0.01,-0.98,0.18,-148.06,7.94,47.69,0.6,0.29,0.87,0.99,1.43,1.06,0.05,0.41,-0.87,0.28
1.56,-95.0,51.94,171.94,0.14,0.76,0.27,0.87,0.3,0.85,0.58,0.68,0.25,0.36,-121.63,37.75,103.06,0.3,0.96,0.08,0.64,0.58,0.17,0.19,0.74,-0.39,0.51,-159.37,0.13,1.62,0.15,0.33,0.43,0.6,0.32,0.45,0.0,0.01,-0.98,0.18,-148.69,7.12,48.56,0.77,0.28,0.71,0.63,0.76,2.02,0.06,0.41,-0.87,0.27
1.57,-95.38,53.0,171.25,0.19,1.21,0.19,0.86,0.11,1.19,0.58,0.68,0.25,0.37,-121.69,38.81,103.37,0.19,0.95,0.05,0.52,0.45,0.37,0.18,0.75,-0.38,0.51,-158.75,0.37,1.75,0.07,0.2,0.52,0.97,1.25,1.55,-0.0,0.02,-0.98,0.18,-149.38,6.31,49.44,0.76,0.26,0.76,0.36,1.81,2.93,0.06,0.42,-0.87,0.26
1.58,-95.66,54.06,170.6,0.2,1.27,0.22,0.61,0.18,1.04,0.57,0.68,0.25,0.38,-121.72,40.0,103.59,0.24,1.06,0.05,0.46,0.44,0.26,0.17,0.75,-0.38,0.52,-158.5,0.56,1.75,0.1,0.23,0.1,0.58,0.4,0.53,-0.0,0.02,-0.98,0.19,-150.25,5.5,50.25,0.67,0.09,0.9,1.16,1.06,2.53,0.07,0.42,-0.87,0.25
1.59,-95.94,55.12,169.94,0.22,1.34,0.24,0.36,0.26,0.9,0.56,0.68,0.25,0.39,-121.75,41.19,103.81,0.3,1.16,0.05,0.41,0.44,0.15,0.17,0.75,-0.37,0.52,-158.56,0.75,1.75,0.13,0.28,0.02,0.59,0.05,0.29,-0.0,0.02,-0.98,0.19,-150.81,5.19,51.06,0.66,0.17,0.26,0.54,1.43,1.78,0.07,0.43,-0.87,0.25
1.6,-96.37,56.5,168.87,0.21,1.22,0.29,1.01,0.55,0.79,0.55,0.68,0.25,0.41,-121.88,42.44,104.12,0.23,1.1,0.05,0.82,0.54,0.15,0.16,0.75,-0.36,0.53,-158.44,1.0,1.94,0.18,0.07,0.14,1.14,0.53,0.87,-0.01,0.02,-0.98,0.19,-150.87,5.31,51.75,0.63,0.16,0.06,0.29,0.24,0.5,0.07,0.43,-0.86,0.25
1.61,-96.66,57.9,167.68,0.11,1.45,0.26,1.12,0.38,0.76,0.54,0.68,0.25,0.42,-121.88,43.69,104.31,0.05,1.19,0.16,0.68,0.76,0.02,0.16,0.75,-0.36,0.53,-158.47,1.0,2.06,0.15,0.08,0.22,0.68,0.65,0.55,-0.01,0.02,-0.98,0.19,-150.81,5.44,52.38,0.49,0.07,0.16,0.37,0.44,0.4,0.07,0.44,-0.86,0.25
1.62,-96.94,59.31,166.5,0.01,1.68,0.22,1.22,0.22,0.73,0.53,0.68,0.25,0.44,-117.63,45.12,104.5,0.02,1.4,0.22,0.34,0.12,0.35,0.18,0.75,-0.33,0.55,-158.5,1.0,2.19,0.12,0.1,0.29,0.22,0.77,0.24,-0.01,0.02,-0.98,0.19,-150.46,5.82,52.88,0.5,0.04,0.2,0.22,0.24,0.52,0.07,0.44,-0.86,0.25
1.63,-96.69,61.06,165.37,0.05,1.65,0.01,0.11,0.08,1.37,0.52,0.68,0.25,0.45,-118.38,46.75,104.81,0.19,1.4,0.12,0.18,0.5,0.14,0.16,0.75,-0.32,0.56,-158.81,1.19,2.31,0.16,0.12,0.23,0.44,0.3,0.61,-0.01,0.02,-0.98,0.18,-150.12,6.19,53.38,0.51,0.01,0.23,0.06,0.04,0.63,0.07,0.45,-0.86,0.25
1.64,-96.25,62.81,164.56,0.09,1.38,0.11,0.03,0.04,0.85,0.51,0.68,0.26,0.46,-119.07,48.25,105.12,0.11,1.24,0.07,0.78,0.16,0.29,0.15,0.75,-0.31,0.56,-158.69,1.19,2.44,0.08,0.01,0.02,0.66,0.66,0.91,-0.01,0.02,-0.98,0.19,-149.87,6.19,53.75,0.3,0.22,0.1,0.57,0.74,0.31,0.07,0.45,-0.85,0.26
1.65,-96.06,64.25,163.81,0.07,1.31,0.04,1.29,0.08,0.34,0.51,0.67,0.26,0.47,-119.32,49.63,105.25,0.02,1.25,0.08,0.53,0.44,0.12,0.14,0.75,-0.31,0.57,-158.69,1.19,2.56,0.09,0.02,0.15,0.48,1.36,1.3,-0.01,0.02,-0.98,0.19,-149.4,6.44,53.97,0.26,0.2,0.24,0.47,0.4,0.49,0.07,0.45,-0.85,0.26
1.66,-95.94,65.69,162.62,0.05,1.4,0.11,1.35,0.58,0.65,0.5,0.67,0.26,0.48,-119.44,51.25,105.31,0.13,1.54,0.12,0.12,0.24,0.53,0.13,0.75,-0.3,0.57,-158.87,1.19,2.62,0.1,0.01,0.25,0.29,0.11,1.25,-0.01,0.02,-0.98,0.18,-148.94,6.69,54.19,0.21,0.17,0.38,0.37,0.05,0.67,0.07,0.45,-0.85,0.26
1.67,-95.81,67.19,161.12,0.04,1.66,0.1,0.01,0.62,1.0,0.48,0.67,0.26,0.5,-120.0,52.94,105.62,0.2,1.45,0.14,0.04,0.35,0.47,0.12,0.75,-0.29,0.58,-159.19,1.25,2.81,0.15,0.1,0.18,0.48,0.43,0.5,-0.01,0.03,-0.98,0.18,-148.87,6.87,54.44,0.24,0.07,0.23,0.23,0.42,0.4,0.07,0.45,-0.85,0.26
1.68,-95.5,68.87,159.37,0.02,1.7,0.05,0.37,0.24,0.7,0.47,0.67,0.26,0.51,-120.63,54.63,106.0,0.21,1.56,0.13,0.44,0.2,0.84,0.11,0.75,-0.28,0.58,-159.31,1.37,2.94,0.19,0.07,0.08,0.3,1.21,1.02,-0.01,0.03,-0.98,0.18,-148.69,6.94,54.63,0.2,0.05,0.14,0.27,0.72,1.71,0.07,0.46,-0.85,0.27
1.69,-95.06,70.5,157.81,0.07,1.41,0.01,0.38,0.12,0.55,0.46,0.67,0.27,0.52,-121.19,56.56,106.43,0.18,1.76,0.13,0.97,0.11,0.54,0.1,0.75,-0.27,0.59,-159.44,1.44,3.19,0.2,0.1,0.2,0.42,0.26,0.03,-0.01,0.03,-0.98,0.18,-148.5,7.06,54.81,0.18,0.04,0.15,1.47,0.57,0.5,0.07,0.46,-0.85,0.27
1.7,-94.75,71.87,156.06,0.04,1.19,0.03,0.02,0.04,0.78,0.45,0.67,0.27,0.54,-121.69,58.31,106.25,0.2,1.53,0.09,0.33,0.74,1.84,0.09,0.75,-0.27,0.6,-159.75,1.69,3.44,0.25,0.2,0.27,0.88,0.03,0.21,-0.01,0.03,-0.98,0.18,-148.5,7.0,54.94,0.07,0.08,0.09,1.15,0.5,1.26,0.07,0.46,-0.84,0.27
1.71,-94.62,73.0,154.25,0.1,1.1,0.02,0.08,0.21,1.21,0.43,0.67,0.26,0.55,-122.13,59.94,105.81,0.21,1.43,0.09,0.46,0.53,1.14,0.07,0.75,-0.26,0.6,-159.81,1.78,3.69,0.2,0.11,0.16,0.64,0.42,0.55,-0.01,0.03,-0.98,0.18,-148.69,6.87,55.0,0.02,0.04,0.12,0.4,0.1,1.56,0.07,0.46,-0.85,0.27
1.72,-94.56,74.12,152.31,0.06,1.18,0.02,0.24,0.22,1.01,0.42,0.67,0.26,0.56,-122.82,61.81,105.18,0.33,1.78,0.14,0.6,0.05,0.45,0.05,0.75,-0.26,0.61,-159.87,1.87,3.94,0.16,0.01,0.04,0.4,0.81,0.89,-0.01,0.04,-0.98,0.18,-148.87,6.94,55.12,0.15,0.13,0.03,0.69,0.1,1.48,0.07,0.46,-0.84,0.26
1.73,-94.37,75.31,149.81,0.03,1.29,0.01,1.12,0.11,0.68,0.4,0.67,0.25,0.57,-123.44,63.87,104.37,0.25,1.9,0.17,1.04,0.39,0.19,0.03,0.74,-0.26,0.61,-160.12,1.87,4.06,0.17,0.01,0.26,0.31,0.87,1.01,-0.01,0.04,-0.98,0.17,-149.06,6.94,55.56,0.43,0.17,0.15,0.83,0.65,0.68,0.07,0.46,-0.84,0.26
1.74,-94.25,76.5,146.94,0.07,1.22,0.04,1.05,0.26,0.69,0.38,0.67,0.24,0.59,-123.82,65.75,103.68,0.09,1.61,0.15,0.81,0.42,0.43,0.02,0.74,-0.26,0.62,-160.59,2.09,4.28,0.16,0.12,0.21,0.54,0.89,1.06,-0.01,0.04,-0.98,0.17,-149.44,6.69,55.81,0.15,0.01,0.45,0.31,0.24,1.43,0.07,0.46,-0.84,0.26
1.75,-94.25,77.44,144.25,0.25,0.81,0.03,0.65,0.22,1.03,0.36,0.67,0.23,0.6,-124.0,67.5,103.12,0.12,1.61,0.09,0.91,0.73,0.27,0.0,0.74,-0.25,0.63,-161.06,2.31,4.5,0.15,0.24,0.16,0.77,0.91,1.11,-0.01,0.04,-0.99,0.17,-149.69,6.44,55.94,0.18,0.08,0.16,0.16,1.14,0.77,0.07,0.46,-0.84,0.26
1.76,-94.5,78.12,141.44,0.27,0.8,0.02,0.46,0.33,0.79,0.34,0.68,0.22,0.61,-124.32,69.37,102.43,0.18,1.76,0.06,1.04,0.34,0.28,-0.02,0.73,-0.25,0.63,-161.37,4.94,4.25,0.27,0.39,0.02,1.24,0.51,1.43,-0.04,0.04,-0.98,0.16,-149.78,6.32,56.12,0.17,0.06,0.16,0.39,0.72,1.24,0.08,0.47,-0.84,0.25
1.77,-94.62,78.87,137.75,0.18,1.0,0.02,1.15,0.58,0.56,0.32,0.68,0.2,0.62,-124.44,71.37,101.62,0.06,1.73,0.1,0.89,0.42,0.4,-0.03,0.73,-0.24,0.64,-161.37,5.37,3.94,0.44,0.3,0.07,0.3,1.62,0.8,-0.04,0.04,-0.98,0.16,-149.87,6.19,56.31,0.16,0.04,0.17,0.62,0.31,1.71,0.08,0.47,-0.84,0.25
1.78,-94.62,79.69,133.31,0.14,0.99,0.02,1.28,0.47,0.59,0.29,0.69,0.18,0.64,-124.69,73.12,100.5,0.11,1.58,0.15,0.99,0.23,0.47,-0.05,0.72,-0.24,0.64,-161.5,5.75,3.31,0.6,0.33,0.25,0.99,0.91,0.31,-0.04,0.04,-0.99,0.16,-150.0,6.19,56.63,0.25,0.09,0.03,0.7,0.39,0.04,0.08,0.47,-0.84,0.25
1.79,-94.72,80.25,128.96,0.15,0.86,0.02,1.16,0.34,0.74,0.26,0.7,0.15,0.65,-124.94,74.81,99.06,0.13,1.58,0.12,1.6,0.31,0.53,-0.07,0.72,-0.24,0.65,-161.94,6.44,2.44,0.77,0.77,0.81,0.3,3.01,0.6,-0.05,0.03,-0.99,0.16,-150.0,6.31,57.13,0.61,0.14,0.27,1.09,1.92,1.47,0.08,0.47,-0.84,0.25
1.8,-94.81,80.81,124.62,0.16,0.73,0.01,1.05,0.22,0.88,0.23,0.7,0.13,0.66,-125.19,76.56,97.5,0.18,1.57,0.09,1.05,0.85,0.44,-0.09,0.71,-0.25,0.65,-162.75,7.31,1.37,0.92,0.79,0.44,0.67,1.21,1.63,-0.06,0.02,-0.99,0.15,-150.5,6.06,57.88,0.67,0.22,0.43,0.19,0.83,0.63,0.08,0.48,-0.84,0.25
1.81,-94.75,81.25,120.13,0.11,0.77,0.04,1.23,0.46,0.76,0.21,0.7,0.1,0.67,-125.51,78.19,95.62,0.18,1.52,0.08,0.86,0.38,0.34,-0.11,0.71,-0.25,0.65,-163.06,8.19,0.31,0.91,0.71,0.2,1.63,0.47,0.06,-0.07,0.01,-0.99,0.15,-151.06,5.81,58.69,0.76,0.51,0.35,0.17,0.1,0.91,0.08,0.48,-0.84,0.24
1.82,-94.75,81.6,116.25,0.12,0.61,0.03,0.98,0.28,0.74,0.18,0.71,0.08,0.68,-125.57,79.87,93.0,0.02,1.57,0.14,1.95,0.78,0.35,-0.14,0.7,-0.26,0.66,-163.19,9.06,0.69,1.12,1.14,0.45,1.55,0.6,0.6,-0.08,0.02,-0.99,0.15,-151.81,5.81,59.63,0.78,0.63,0.44,0.48,2.61,0.67,0.08,0.49,-0.83,0.24
1.83,-94.75,81.94,112.37,0.13,0.45,0.02,0.73,0.09,0.72,0.16,0.71,0.06,0.69,-125.57,81.37,89.56,0.12,1.4,0.14,1.83,0.49,0.86,-0.17,0.69,-0.27,0.65,-163.5,10.53,2.12,1.19,1.27,0.33,0.82,0.62,0.88,-0.09,0.03,-0.99,0.14,-152.69,5.62,60.69,0.86,0.55,0.47,1.46,1.71,0.98,0.08,0.5,-0.83,0.23
1.84,-94.87,82.12,109.0,0.18,0.47,0.03,1.72,0.16,0.76,0.13,0.71,0.04,0.69,-125.51,82.75,85.37,0.03,1.39,0.07,1.38,0.65,0.35,-0.2,0.67,-0.29,0.65,-163.81,12.0,3.56,1.26,1.4,0.21,0.08,0.64,1.15,-0.1,0.05,-0.98,0.14,-153.19,5.69,61.69,0.84,0.44,0.09,1.29,0.97,1.74,0.08,0.51,-0.83,0.22
1.85,-94.94,82.31,104.69,0.16,0.48,0.05,2.13,0.22,0.44,0.11,0.71,0.01,0.69,-125.63,83.5,85.37,0.27,1.42,0.08,0.71,0.04,0.96,-0.2,0.67,-0.28,0.65,-163.81,13.38,5.06,1.35,1.32,0.12,2.27,0.06,0.31,-0.11,0.06,-0.98,0.14,-153.32,5.88,62.66,0.86,0.36,0.06,0.72,1.62,0.94,0.08,0.52,-0.82,0.22
1.86,-94.94,82.5,101.25,0.12,0.35,0.07,1.19,0.51,0.25,0.08,0.71,-0.01,0.7,-126.0,84.87,85.25,0.23,1.44,0.11,1.75,0.44,0.07,-0.22,0.67,-0.28,0.65,-164.12,15.16,6.94,1.42,1.58,0.12,2.26,0.91,1.73,-0.12,0.08,-0.98,0.14,-153.44,6.06,63.63,0.89,0.29,0.04,0.15,2.28,0.15,0.08,0.52,-0.82,0.22
1.87,-95.06,82.62,99.87,0.27,0.11,0.05,0.54,0.25,0.24,0.07,0.71,-0.02,0.7,-126.32,85.94,85.12,0.2,1.05,0.02,1.34,0.65,0.74,-0.22,0.67,-0.27,0.65,-164.44,16.94,8.81,1.49,1.85,0.13,2.24,1.76,3.15,-0.14,0.1,-0.98,0.14,-153.44,6.25,64.62,0.87,0.19,0.12,0.8,1.86,0.9,0.08,0.53,-0.81,0.22
1.88,-95.31,82.62,98.12,0.25,0.23,0.02,1.32,0.2,0.19,0.06,0.71,-0.03,0.7,-126.29,86.53,85.18,0.11,1.1,0.04,1.02,0.56,0.5,-0.23,0.67,-0.27,0.66,-164.25,18.81,10.5,1.42,1.59,0.29,2.38,0.72,2.53,-0.15,0.11,-0.97,0.15,-153.31,6.69,65.56,0.86,0.12,0.42,1.4,1.73,1.3,0.08,0.54,-0.81,0.22
1.89,-95.44,82.69,95.12,0.1,0.3,0.09,1.87,0.52,0.39,0.04,0.71,-0.05,0.7,-126.25,87.12,85.25,0.01,1.15,0.06,0.71,0.46,0.25,-0.23,0.67,-0.26,0.66,-163.62,20.25,12.0,1.7,1.31,0.03,0.09,2.23,0.77,-0.16,0.13,-0.97,0.16,-152.69,7.25,66.56,0.89,0.03,0.55,0.45,2.3,0.71,0.08,0.54,-0.8,0.23
1.9,-95.38,82.81,93.0,0.18,0.02,0.16,0.84,0.58,0.23,0.03,0.71,-0.06,0.7,-126.19,87.12,85.25,0.03,1.16,0.03,0.77,0.52,0.25,-0.23,0.67,-0.26,0.66,-163.69,21.75,14.19,1.83,1.66,0.75,0.74,0.96,1.77,-0.17,0.15,-0.96,0.16,-152.31,7.69,67.5,0.88,0.06,0.43,0.54,0.61,0.98,0.08,0.55,-0.8,0.23
1.91,-95.44,83.0,93.44,0.18,0.1,0.12,0.17,0.41,0.22,0.03,0.71,-0.06,0.7,-126.31,86.62,85.25,0.08,0.96,0.04,1.04,0.38,0.3,-0.23,0.67,-0.27,0.66,-164.5,23.31,16.75,1.82,1.71,0.86,1.87,1.84,4.5,-0.18,0.17,-0.96,0.16,-151.94,8.06,68.44,0.8,0.06,0.26,0.52,2.2,1.72,0.08,0.56,-0.79,0.24
1.92,-95.5,83.03,93.56,0.12,0.08,0.08,0.62,0.26,0.34,0.03,0.71,-0.05,0.7,-126.44,86.12,85.25,0.12,0.77,0.05,1.32,0.24,0.34,-0.23,0.67,-0.27,0.66,-164.69,24.56,19.19,1.92,0.9,0.06,0.51,1.63,0.93,-0.19,0.19,-0.95,0.16,-151.37,8.5,69.25,0.81,0.01,0.48,0.11,1.52,1.17,0.08,0.56,-0.78,0.24
1.93,-95.56,83.06,93.69,0.06,0.06,0.05,1.08,0.11,0.46,0.03,0.71,-0.05,0.7,-126.44,85.38,85.18,0.03,0.93,0.02,1.64,0.59,0.78,-0.22,0.67,-0.28,0.65,-164.5,25.56,21.62,2.03,1.07,0.28,1.46,0.73,1.33,-0.19,0.21,-0.94,0.17,-151.19,8.75,69.69,0.77,0.04,0.47,0.41,1.08,1.12,0.08,0.57,-0.78,0.25
1.94,-95.56,83.19,93.69,0.08,0.02,0.08,0.76,0.37,0.39,0.03,0.71,-0.05,0.7,-126.32,84.44,85.18,0.13,0.75,0.04,0.71,0.51,0.98,-0.22,0.67,-0.28,0.65,-165.19,26.87,24.87,2.37,1.73,0.88,2.36,2.05,0.92,-0.2,0.24,-0.94,0.17,-150.56,9.19,70.5,0.74,0.02,0.32,0.53,0.47,0.81,0.08,0.57,-0.78,0.25
1.95,-95.62,83.25,93.75,0.12,0.31,0.06,0.04,0.39,0.33,0.03,0.71,-0.05,0.7,-126.07,83.87,85.12,0.11,0.51,0.07,0.54,0.5,1.24,-0.21,0.67,-0.28,0.65,-165.94,28.5,28.38,2.25,2.14,0.69,0.65,3.21,2.01,-0.21,0.27,-0.93,0.17,-150.28,9.47,71.28,0.67,0.04,0.48,0.3,0.26,1.14,0.08,0.58,-0.77,0.25
1.96,-95.75,83.25,93.81,0.1,0.25,0.03,0.19,0.42,0.46,0.03,0.71,-0.05,0.7,-126.0,83.5,85.0,0.03,0.34,0.08,0.55,0.22,0.93,-0.21,0.67,-0.29,0.65,-165.62,30.44,31.19,2.02,1.75,0.59,1.96,0.16,0.79,-0.22,0.29,-0.91,0.19,-150.0,9.75,72.06,0.6,0.06,0.63,0.07,0.04,1.46,0.09,0.58,-0.77,0.26
1.97,-95.81,83.25,93.81,0.02,0.05,0.02,0.98,0.55,0.38,0.03,0.71,-0.05,0.7,-126.0,82.75,85.0,0.02,1.04,0.11,1.02,0.41,0.07,-0.2,0.67,-0.29,0.65,-164.25,32.38,33.25,2.01,1.43,0.73,1.48,1.47,0.29,-0.23,0.31,-0.9,0.21,-149.12,10.44,72.62,0.6,0.1,0.52,0.34,0.09,1.88,0.09,0.59,-0.76,0.27
1.98,-95.69,83.19,93.81,0.12,0.01,0.02,1.14,0.46,0.51,0.03,0.71,-0.05,0.7,-126.07,81.75,83.13,0.08,0.83,0.07,0.37,0.38,1.04,-0.21,0.67,-0.31,0.64,-163.31,34.13,35.81,2.33,1.64,0.03,1.78,1.85,1.3,-0.23,0.33,-0.89,0.22,-148.62,10.75,73.28,0.61,0.19,0.34,0.41,0.58,1.36,0.09,0.59,-0.75,0.27
1.99,-95.62,83.19,93.81,0.06,0.23,0.02,0.43,0.1,0.98,0.03,0.71,-0.05,0.7,-126.19,81.47,82.19,0.11,0.57,0.04,0.5,0.45,0.56,-0.21,0.67,-0.32,0.64,-163.44,35.44,39.38,2.26,1.9,0.93,0.53,0.54,1.6,-0.24,0.36,-0.87,0.23,-148.13,11.06,73.94,0.62,0.28,0.17,0.48,1.06,0.84,0.09,0.6,-0.75,0.27
2.0,-95.69,83.12,93.81,0.01,0.19,0.03,0.01,0.32,1.23,0.03,0.71,-0.05,0.7,-126.32,81.19,81.25,0.14,0.31,0.01,0.63,0.52,0.07,-0.22,0.66,-0.32,0.64,-164.31,36.31,43.5,2.31,1.87,1.09,1.41,0.22,0.73,-0.24,0.39,-0.86,0.23,-147.56,11.19,74.5,0.55,0.28,0.19,0.63,0.52,1.57,0.09,0.6,-0.74,0.28
2.01,-95.62,83.12,93.81,0.03,0.03,0.03,0.6,0.29,0.77,0.03,0.71,-0.05,0.7,-126.57,80.56,80.38,0.23,0.62,0.07,0.9,0.04,1.39,-0.22,0.66,-0.33,0.63,-165.31,36.94,47.81,2.44,1.8,0.95,1.26,0.9,0.95,-0.24,0.42,-0.84,0.24,-147.06,11.5,74.94,0.46,0.24,0.45,0.24,1.37,0.57,0.1,0.6,-0.74,0.28
2.02,-95.56,83.19,93.88,0.02,0.06,0.02,0.18,0.06,0.49,0.03,0.71,-0.05,0.7,-126.88,80.12,79.25,0.42,0.23,0.03,0.09,0.14,1.28,-0.23,0.66,-0.34,0.63,-165.88,37.63,52.13,2.5,1.73,0.48,0.54,0.42,1.86,-0.24,0.45,-0.83,0.25,-146.37,11.88,75.44,0.6,0.23,0.41,0.65,0.03,0.71,0.1,0.61,-0.73,0.29
2.03,-95.81,83.06,93.88,0.21,0.47,0.03,0.56,0.02,0.77,0.03,0.71,-0.05,0.7,-127.07,80.25,78.69,0.18,0.12,0.06,0.18,0.01,0.11,-0.23,0.66,-0.35,0.63,-166.0,38.31,56.25,2.44,1.62,0.4,0.3,0.93,0.29,-0.23,0.48,-0.81,0.26,-145.81,12.25,76.06,0.7,0.18,0.44,0.26,1.97,2.57,0.1,0.61,-0.73,0.29
2.04,-96.19,82.88,97.0,0.17,0.33,0.03,1.31,0.16,1.4,0.05,0.71,-0.04,0.7,-127.13,79.87,78.19,0.08,0.48,0.03,1.03,0.41,0.59,-0.23,0.65,-0.35,0.63,-165.72,39.34,59.72,2.21,1.61,0.38,0.69,0.69,1.27,-0.23,0.5,-0.79,0.27,-145.44,12.25,76.75,0.58,0.14,0.22,0.9,1.45,1.22,0.1,0.61,-0.72,0.29
2.05,-96.25,82.88,97.0,0.06,0.08,0.04,1.1,0.7,0.58,0.05,0.71,-0.04,0.7,-127.38,79.31,77.32,0.3,0.52,0.02,0.59,0.49,1.27,-0.23,0.65,-0.36,0.62,-165.44,40.38,63.19,1.98,1.6,0.36,1.08,0.45,2.26,-0.23,0.53,-0.77,0.28,-144.94,12.5,77.37,0.63,0.12,0.3,0.18,1.63,0.96,0.11,0.62,-0.72,0.3
2.06,-96.25,83.0,96.94,0.05,0.05,0.08,1.2,0.68,0.65,0.05,0.71,-0.04,0.7,-127.69,79.12,76.44,0.39,0.12,0.06,0.23,0.08,0.71,-0.24,0.65,-0.37,0.62,-165.37,41.31,66.87,2.14,1.76,0.03,1.09,0.11,1.97,-0.23,0.55,-0.75,0.29,-144.66,12.62,78.18,0.64,0.08,0.17,0.43,1.34,1.11,0.11,0.62,-0.71,0.3
2.07,-96.31,82.94,99.5,0.06,0.33,0.02,0.32,0.44,1.51,0.06,0.71,-0.02,0.7,-127.76,78.81,75.75,0.02,0.42,0.02,0.95,0.46,0.09,-0.24,0.65,-0.38,0.62,-165.34,42.16,71.74,1.92,1.69,0.34,1.23,0.19,2.08,-0.22,0.58,-0.72,0.31,-144.37,12.75,79.0,0.64,0.04,0.04,0.68,1.06,1.26,0.11,0.63,-0.71,0.3
2.08,-96.44,82.75,101.57,0.09,0.22,0.03,1.04,0.26,2.29,0.08,0.71,-0.01,0.7,-127.63,78.12,75.5,0.04,0.48,0.02,0.71,0.39,1.21,-0.24,0.65,-0.38,0.62,-165.31,43.0,76.62,1.71,1.63,0.65,1.36,0.27,2.19,-0.21,0.61,-0.7,0.32,-144.44,12.63,79.69,0.65,0.04,0.21,0.84,1.41,0.51,0.11,0.63,-0.71,0.3
2.09,-96.5,82.75,101.69,0.05,0.01,0.01,0.59,0.2,1.24,0.08,0.71,-0.01,0.7,-127.69,77.75,75.0,0.18,0.2,0.05,1.05,0.78,0.53,-0.24,0.64,-0.39,0.62,-164.06,44.38,79.37,1.48,1.13,0.97,2.01,2.45,1.25,-0.21,0.63,-0.67,0.34,-144.28,12.63,80.44,0.68,0.02,0.13,0.5,0.71,0.97,0.12,0.64,-0.7,0.3
2.1,-96.66,82.6,102.91,0.06,0.2,0.05,0.54,0.26,1.01,0.08,0.71,-0.01,0.7,-127.69,77.62,74.25,0.13,0.14,0.09,0.6,0.42,0.27,-0.24,0.64,-0.39,0.61,-163.31,45.12,82.25,1.53,1.34,0.32,0.13,1.63,2.26,-0.2,0.64,-0.65,0.35,-144.13,12.63,81.19,0.71,0.01,0.05,0.16,0.01,1.43,0.12,0.64,-0.7,0.3
2.11,-96.81,82.44,104.13,0.07,0.39,0.09,0.5,0.33,0.78,0.09,0.71,-0.0,0.7,-127.69,77.0,73.82,0.01,0.56,0.01,0.14,0.09,0.8,-0.24,0.64,-0.4,0.61,-163.87,45.19,84.06,1.75,1.84,0.2,1.01,1.44,1.52,-0.2,0.65,-0.64,0.35,-144.19,12.44,81.94,0.69,0.03,0.21,0.21,1.8,1.48,0.12,0.65,-0.69,0.3
2.12,-96.94,82.31,105.25,0.11,0.11,0.07,0.08,0.53,0.78,0.1,0.71,0.0,0.69,-127.57,76.56,73.44,0.15,0.15,0.05,0.6,0.19,0.36,-0.24,0.64,-0.4,0.61,-164.0,45.19,88.06,1.73,1.32,0.15,2.61,1.69,3.06,-0.18,0.67,-0.62,0.36,-144.37,12.19,82.69,0.6,0.02,0.07,0.32,0.16,0.36,0.13,0.65,-0.69,0.3
2.13,-96.82,82.22,106.78,0.08,0.26,0.08,0.11,0.4,0.4,0.11,0.71,0.01,0.69,-127.32,76.69,73.38,0.18,0.07,0.09,1.62,0.12,0.18,-0.24,0.64,-0.4,0.61,-163.12,45.63,91.12,1.36,0.39,1.06,2.13,2.25,0.25,-0.17,0.69,-0.6,0.37,-144.19,12.25,83.31,0.62,0.01,0.13,0.58,0.52,1.14,0.13,0.65,-0.69,0.3
2.14,-96.69,82.12,108.31,0.04,0.42,0.1,0.14,0.26,0.03,0.12,0.71,0.02,0.69,-127.25,76.62,73.25,0.06,0.45,0.01,1.77,0.32,1.36,-0.24,0.64,-0.4,0.61,-161.44,46.81,92.94,1.2,0.44,0.72,0.66,2.89,1.25,-0.16,0.7,-0.58,0.39,-144.13,12.13,84.0,0.59,0.06,0.23,0.38,0.49,1.16,0.13,0.66,-0.68,0.29
2.15,-96.44,81.94,112.94,0.07,0.68,0.18,2.1,0.79,0.78,0.15,0.71,0.05,0.69,-127.32,76.12,72.69,0.16,0.29,0.08,1.55,0.36,0.34,-0.24,0.64,-0.41,0.61,-160.9,46.9,95.28,1.31,0.66,0.5,1.14,1.76,0.86,-0.15,0.71,-0.56,0.39,-144.25,11.81,84.69,0.63,0.12,0.33,0.4,1.68,0.44,0.13,0.66,-0.68,0.29
2.16,-96.25,81.81,116.44,0.06,0.17,0.18,2.39,0.97,0.03,0.17,0.71,0.08,0.68,-127.25,75.94,72.0,0.14,0.22,0.16,1.34,0.08,0.55,-0.24,0.64,-0.41,0.61,-160.37,47.0,97.62,1.42,0.87,0.28,1.62,0.62,0.47,-0.14,0.72,-0.54,0.4,-144.37,11.38,85.44,0.72,0.15,0.32,0.53,0.56,0.1,0.14,0.66,-0.68,0.29
2.17,-96.12,81.94,116.69,0.05,0.3,0.23,1.21,0.13,0.24,0.17,0.71,0.08,0.68,-127.13,76.19,71.44,0.11,0.11,0.09,1.9,0.48,0.85,-0.24,0.63,-0.41,0.61,-160.37,46.19,99.87,1.31,0.62,0.63,0.78,0.87,0.57,-0.13,0.74,-0.53,0.4,-144.37,11.19,86.19,0.68,0.06,0.17,0.5,0.5,0.73,0.14,0.67,-0.67,0.29
2.18,-95.75,82.37,116.13,0.05,0.07,0.26,1.15,0.24,0.42,0.17,0.71,0.08,0.68,-127.19,75.87,70.81,0.17,0.5,0.04,0.58,1.68,2.0,-0.25,0.63,-0.42,0.6,-159.5,45.0,99.87,0.82,0.18,0.72,0.63,0.26,1.06,-0.12,0.74,-0.53,0.39,-144.69,11.06,86.94,0.66,0.1,0.1,1.05,0.11,0.76,0.14,0.67,-0.67,0.28
2.19,-95.75,82.31,119.56,0.28,0.45,0.22,2.36,0.27,0.1,0.19,0.7,0.1,0.68,-127.13,75.44,70.44,0.19,0.21,0.09,0.35,1.03,0.46,-0.24,0.63,-0.42,0.6,-158.19,45.44,101.12,0.88,0.15,0.32,2.74,1.73,1.01,-0.11,0.75,-0.52,0.4,-144.81,10.81,87.62,0.6,0.01,0.3,1.26,0.81,0.47,0.14,0.68,-0.67,0.28
2.2,-95.87,82.12,123.19,0.06,0.04,0.13,1.66,0.19,0.4,0.21,0.7,0.12,0.67,-126.88,75.87,70.38,0.15,0.49,0.1,0.19,0.07,1.07,-0.25,0.63,-0.42,0.61,-158.06,45.06,102.56,0.84,0.7,0.35,1.18,1.54,0.47,-0.1,0.75,-0.51,0.4,-144.81,10.5,88.37,0.73,0.25,0.24,1.71,0.5,1.09,0.15,0.68,-0.66,0.28
2.21,-95.69,82.31,123.57,0.06,0.1,0.11,0.76,0.31,0.29,0.21,0.7,0.13,0.67,-126.79,76.16,70.34,0.14,0.4,0.08,0.64,0.15,0.7,-0.25,0.63,-0.42,0.61,-158.37,44.75,103.31,0.63,0.48,0.17,0.92,1.46,0.5,-0.1,0.76,-0.51,0.4,-144.31,10.56,89.13,0.63,0.12,0.18,0.43,0.54,1.21,0.15,0.69,-0.66,0.28
2.22,-95.62,82.37,123.75,0.04,0.08,0.02,0.2,0.22,0.91,0.22,0.7,0.13,0.67,-126.69,76.44,70.31,0.13,0.31,0.07,1.08,0.22,0.33,-0.25,0.63,-0.41,0.61,-157.81,44.94,104.43,0.49,0.05,0.4,1.33,1.8,0.67,-0.09,0.76,-0.5,0.41,-143.94,10.75,89.75,0.51,0.1,0.04,1.46,0.98,0.65,0.15,0.69,-0.65,0.28
2.23,-95.62,82.31,124.25,0.02,0.1,0.03,0.16,0.81,0.56,0.22,0.7,0.13,0.67,-126.69,76.94,69.94,0.07,0.51,0.14,1.7,0.03,0.02,-0.25,0.63,-0.41,0.61,-156.75,45.38,105.06,0.51,0.05,0.36,0.25,2.15,1.6,-0.08,0.76,-0.49,0.41,-144.0,10.69,90.31,0.52,0.14,0.12,0.07,0.66,1.25,0.16,0.69,-0.65,0.28
2.24,-95.5,82.25,125.25,0.09,0.13,0.05,0.9,0.82,0.29,0.23,0.7,0.14,0.67,-126.44,77.75,69.31,0.1,0.75,0.21,0.64,0.9,0.29,-0.26,0.63,-0.41,0.61,-156.75,45.38,105.99,0.4,0.37,0.66,2.29,4.75,1.6,-0.08,0.77,-0.48,0.41,-143.44,10.88,90.94,0.74,0.26,0.34,0.1,0.86,0.47,0.16,0.69,-0.64,0.28
2.25,-95.19,82.25,126.06,0.15,0.19,0.04,1.48,0.13,0.15,0.23,0.7,0.14,0.66,-126.44,78.25,68.5,0.71,0.23,0.13,1.77,1.17,0.98,-0.27,0.62,-0.41,0.61,-155.56,46.13,107.12,0.76,0.41,0.73,0.72,1.84,2.63,-0.07,0.77,-0.47,0.42,-142.69,11.12,91.69,0.75,0.27,0.19,0.41,0.52,1.59,0.16,0.7,-0.63,0.29
2.26,-95.06,82.06,127.57,0.07,0.28,0.06,1.53,0.13,0.45,0.24,0.7,0.15,0.66,-126.88,78.69,67.25,0.54,0.56,0.13,0.89,0.06,0.15,-0.28,0.62,-0.42,0.6,-153.69,46.81,107.68,0.93,0.63,0.16,1.76,2.89,1.14,-0.06,0.77,-0.45,0.44,-141.67,11.79,92.62,0.78,0.28,0.27,0.45,0.52,1.53,0.17,0.7,-0.62,0.3
2.27,-95.12,81.69,129.13,0.02,0.42,0.07,1.77,0.21,0.52,0.25,0.69,0.16,0.66,-126.82,79.62,66.44,0.01,0.95,0.15,0.28,0.54,0.76,-0.29,0.62,-0.42,0.6,-153.5,46.06,108.31,0.8,0.64,1.08,0.23,1.59,0.56,-0.05,0.78,-0.45,0.43,-140.66,12.47,93.54,0.81,0.29,0.35,0.48,0.52,1.47,0.17,0.71,-0.61,0.3
2.28,-95.25,81.19,130.75,0.08,0.52,0.09,1.7,0.18,0.45,0.26,0.69,0.16,0.65,-126.69,80.44,66.06,0.03,0.58,0.06,0.37,0.94,3.56,-0.3,0.61,-0.41,0.6,-154.38,44.81,109.25,0.63,0.57,0.85,0.99,0.22,4.16,-0.05,0.78,-0.45,0.42,-139.64,13.14,94.47,0.84,0.29,0.43,0.52,0.51,1.41,0.18,0.71,-0.6,0.31
2.29,-95.31,80.69,132.56,0.02,0.55,0.06,0.91,0.23,0.05,0.28,0.69,0.17,0.64,-126.76,80.75,66.38,0.06,0.29,0.05,0.21,0.97,1.76,-0.3,0.62,-0.41,0.6,-154.25,45.06,109.93,0.37,0.4,0.74,3.46,1.63,5.68,-0.05,0.79,-0.45,0.42,-138.62,13.82,95.4,0.87,0.3,0.51,0.55,0.51,1.35,0.18,0.72,-0.59,0.32
2.3,-95.5,80.25,133.69,0.07,0.39,0.09,0.36,0.4,0.34,0.29,0.69,0.18,0.64,-126.82,81.25,66.63,0.09,0.49,0.02,0.01,0.64,0.08,-0.3,0.62,-0.41,0.6,-153.44,45.56,111.31,0.27,0.66,1.48,1.84,2.12,0.02,-0.04,0.79,-0.43,0.43,-137.6,14.49,96.32,0.9,0.31,0.59,0.59,0.51,1.28,0.19,0.72,-0.58,0.33
2.31,-95.81,79.81,134.69,0.13,0.44,0.06,1.12,0.39,0.25,0.29,0.69,0.18,0.64,-126.94,81.75,66.56,0.15,0.41,0.02,0.06,0.5,0.19,-0.3,0.62,-0.41,0.6,-152.44,46.69,113.06,0.12,0.68,1.68,2.16,1.79,3.03,-0.03,0.8,-0.41,0.44,-136.59,15.16,97.25,0.93,0.32,0.67,0.62,0.51,1.22,0.19,0.72,-0.57,0.33
2.32,-95.94,79.44,135.63,0.01,0.32,0.02,0.56,0.18,0.19,0.3,0.69,0.18,0.63,-126.94,82.0,66.56,0.11,0.12,0.04,0.51,0.48,1.75,-0.31,0.62,-0.4,0.6,-150.44,48.69,114.87,0.27,0.31,2.62,4.91,2.1,0.34,-0.02,0.8,-0.39,0.46,-135.57,15.84,98.18,0.96,0.32,0.75,0.66,0.51,1.16,0.2,0.73,-0.56,0.34
2.33,-96.12,79.19,136.31,0.11,0.28,0.02,0.24,0.51,0.3,0.3,0.69,0.18,0.63,-126.82,82.06,67.25,0.16,0.13,0.07,1.19,0.77,0.18,-0.3,0.62,-0.4,0.61,-148.31,50.81,115.99,0.3,0.18,1.94,5.04,2.86,0.2,-0.01,0.8,-0.36,0.48,-134.55,16.51,99.1,0.99,0.33,0.83,0.69,0.51,1.1,0.21,0.73,-0.55,0.35
2.34,-96.24,78.97,136.69,0.06,0.2,0.04,0.47,0.68,0.5,0.3,0.69,0.18,0.63,-126.82,82.5,67.88,0.05,0.47,0.03,1.01,0.34,1.46,-0.3,0.62,-0.39,0.61,-148.06,51.56,116.24,0.07,0.17,0.15,2.82,2.53,0.6,-0.01,0.8,-0.36,0.49,-133.54,17.19,100.03,1.01,0.34,0.91,0.73,0.5,1.04,0.21,0.73,-0.54,0.36
2.35,-96.37,78.75,137.07,0.01,0.11,0.06,0.7,0.85,0.71,0.31,0.69,0.18,0.63,-126.57,83.12,64.81,0.27,0.59,0.06,0.59,0.64,0.03,-0.32,0.61,-0.4,0.6,-148.81,50.69,115.62,0.27,0.23,1.53,0.26,1.16,0.12,-0.01,0.8,-0.37,0.48,-132.52,17.86,100.96,1.04,0.35,0.99,0.76,0.5,0.98,0.22,0.74,-0.53,0.36
2.36,-96.37,78.69,136.88,0.11,0.07,0.09,1.01,0.84,0.41,0.31,0.69,0.18,0.63,-126.19,83.5,64.88,0.36,0.22,0.08,1.34,0.47,1.34,-0.32,0.61,-0.4,0.6,-150.19,49.5,114.43,0.24,0.41,1.52,0.1,3.45,1.78,-0.02,0.8,-0.38,0.47,-131.5,18.53,101.88,1.07,0.35,1.07,0.8,0.5,0.92,0.22,0.74,-0.52,0.37
2.37,-96.25,78.5,137.07,0.21,0.12,0.07,1.2,0.56,0.03,0.31,0.69,0.18,0.63,-126.13,83.56,64.88,0.07,0.02,0.09,1.23,0.15,2.04,-0.32,0.61,-0.4,0.6,-150.1,49.12,113.71,0.3,0.4,0.97,1.75,1.96,2.62,-0.02,0.79,-0.39,0.46,-130.48,19.21,102.81,1.1,0.36,1.15,0.83,0.5,0.86,0.23,0.74,-0.5,0.38
2.38,-96.0,78.25,137.56,0.26,0.23,0.06,1.25,0.03,0.76,0.31,0.69,0.18,0.63,-126.19,83.75,65.0,0.01,0.55,0.03,0.32,0.44,1.8,-0.32,0.61,-0.4,0.6,-150.0,48.75,112.99,0.35,0.4,0.42,3.4,0.48,3.45,-0.02,0.79,-0.4,0.46,-129.47,19.88,103.74,1.13,0.37,1.23,0.87,0.5,0.79,0.23,0.75,-0.49,0.38
2.39,-95.75,77.94,138.63,0.23,0.38,0.02,0.86,0.09,0.92,0.32,0.69,0.19,0.62,-126.13,84.44,64.94,0.02,0.57,0.08,0.26,0.18,0.08,-0.33,0.61,-0.39,0.6,-150.19,48.31,113.12,0.36,0.22,0.44,1.85,3.13,0.31,-0.02,0.79,-0.4,0.46,-128.45,20.55,104.66,1.16,0.38,1.31,0.9,0.5,0.73,0.24,0.75,-0.48,0.39
2.4,-95.44,77.56,139.94,0.26,0.36,0.04,0.15,0.27,0.76,0.33,0.69,0.2,0.62,-125.94,85.0,64.88,0.21,0.29,0.01,0.26,0.11,1.2,-0.33,0.61,-0.39,0.61,-149.81,48.31,114.06,0.34,0.31,0.51,0.13,0.82,2.57,-0.02,0.8,-0.39,0.46,-127.43,21.23,105.59,1.19,0.38,1.39,0.94,0.49,0.67,0.25,0.75,-0.47,0.39
2.41,-95.0,77.37,140.94,0.29,0.14,0.06,0.11,0.3,0.32,0.34,0.68,0.21,0.61,-125.82,85.25,64.88,0.14,0.22,0.04,0.12,0.18,0.86,-0.33,0.61,-0.39,0.61,-148.5,49.25,115.24,0.52,0.11,1.09,0.02,2.08,3.02,-0.01,0.8,-0.37,0.47,-126.41,21.9,106.52,1.22,0.39,1.47,0.97,0.49,0.61,0.25,0.75,-0.46,0.4
2.42,-94.75,77.25,141.56,0.16,0.15,0.04,0.05,0.85,0.02,0.35,0.68,0.21,0.61,-125.82,85.81,64.94,0.01,0.8,0.03,0.15,0.35,0.52,-0.33,0.61,-0.38,0.61,-147.19,49.63,116.56,0.73,0.32,0.24,0.01,0.33,1.51,0.01,0.8,-0.36,0.48,-125.4,22.58,107.44,1.25,0.4,1.55,1.01,0.49,0.55,0.26,0.76,-0.44,0.41
2.43,-94.69,77.12,141.88,0.05,0.16,0.03,0.25,0.46,0.05,0.35,0.68,0.21,0.61,-125.75,86.75,64.88,0.15,0.75,0.06,0.01,0.22,0.19,-0.34,0.61,-0.38,0.61,-146.56,49.31,117.99,0.78,0.51,0.14,1.74,1.86,0.05,0.02,0.81,-0.35,0.48,-124.38,23.25,108.37,1.13,0.54,1.98,1.34,1.43,1.56,0.27,0.76,-0.43,0.41
2.44,-94.69,76.94,142.13,0.03,0.18,0.04,0.2,0.31,0.12,0.35,0.68,0.21,0.6,-125.57,87.44,64.88,0.16,0.51,0.01,0.16,0.31,0.32,-0.34,0.61,-0.37,0.61,-145.38,49.56,119.49,0.91,0.08,0.49,0.79,1.15,0.02,0.03,0.81,-0.33,0.48,-123.0,24.31,109.0,1.25,0.4,1.74,2.46,2.32,0.93,0.27,0.76,-0.42,0.42
2.45,-94.69,76.75,142.38,0.01,0.21,0.04,0.14,0.16,0.19,0.36,0.68,0.21,0.6,-125.63,87.81,64.94,0.17,0.7,0.01,0.05,0.94,1.76,-0.34,0.61,-0.37,0.61,-144.5,49.81,120.18,0.77,0.11,0.4,0.26,1.91,1.07,0.04,0.81,-0.32,0.49,-119.75,26.19,110.56,1.3,0.21,1.52,0.14,0.94,2.4,0.29,0.76,-0.39,0.44
2.46,-94.87,76.5,142.56,0.12,0.25,0.11,0.16,0.01,0.74,0.36,0.68,0.21,0.6,-125.75,88.62,64.94,0.13,0.89,0.05,0.75,0.13,0.31,-0.35,0.61,-0.37,0.61,-143.31,49.88,121.43,0.8,0.35,0.13,0.8,0.67,0.86,0.05,0.82,-0.31,0.49,-116.69,28.0,112.31,1.38,0.18,1.81,0.72,1.23,2.41,0.31,0.76,-0.35,0.45
2.47,-95.19,76.19,142.32,0.08,0.24,0.17,0.07,0.33,0.7,0.36,0.68,0.21,0.6,-125.69,89.44,64.81,0.03,0.45,0.01,0.99,0.02,0.92,-0.35,0.61,-0.36,0.61,-143.0,49.63,122.49,0.69,0.08,0.29,2.42,2.74,0.39,0.06,0.82,-0.3,0.49,-113.56,30.12,114.31,1.43,0.03,1.81,2.67,3.05,2.18,0.33,0.76,-0.32,0.47
2.48,-95.5,75.87,142.13,0.01,0.27,0.16,0.32,0.24,0.05,0.35,0.69,0.2,0.6,-125.75,89.56,64.81,0.03,0.58,0.07,0.64,0.67,0.61,-0.36,0.61,-0.36,0.61,-141.18,50.22,123.55,0.68,0.15,0.26,1.42,1.94,0.24,0.08,0.82,-0.28,0.49,-110.5,31.69,116.5,1.61,0.1,1.11,0.64,0.31,0.17,0.35,0.75,-0.28,0.48
2.49,-95.75,75.5,142.0,0.05,0.3,0.16,0.54,0.03,0.17,0.35,0.69,0.2,0.6,-125.75,88.94,64.75,0.11,1.01,0.03,0.44,0.5,2.37,-0.35,0.61,-0.37,0.61,-139.37,50.81,124.62,0.67,0.22,0.23,0.41,1.15,0.09,0.09,0.82,-0.26,0.5,-108.5,32.69,118.69,1.59,0.16,1.01,2.33,0.15,1.18,0.37,0.75,-0.26,0.48
2.5,-96.12,75.19,141.69,0.09,0.24,0.16,0.16,0.12,0.61,0.35,0.69,0.19,0.6,-125.51,87.5,64.81,0.1,1.08,0.1,0.22,0.26,0.68,-0.34,0.61,-0.37,0.61,-138.25,50.94,125.24,0.55,0.1,0.27,1.26,1.03,0.66,0.1,0.82,-0.25,0.5,-105.31,34.19,120.94,1.22,0.11,2.25,2.47,1.4,0.54,0.39,0.75,-0.22,0.49
2.51,-96.44,74.81,141.56,0.03,0.35,0.08,0.09,0.34,1.14,0.35,0.69,0.19,0.6,-125.32,86.62,64.87,0.14,0.91,0.06,0.5,0.49,1.62,-0.34,0.61,-0.38,0.61,-137.56,50.94,125.43,0.42,0.2,0.05,1.8,0.11,0.4,0.11,0.82,-0.25,0.51,-100.94,36.63,123.25,1.13,0.2,2.85,1.66,0.74,0.38,0.42,0.74,-0.17,0.5
2.52,-96.5,74.44,142.0,0.02,0.39,0.04,0.09,0.74,0.35,0.35,0.69,0.19,0.6,-125.13,85.75,64.94,0.17,0.74,0.01,0.78,0.72,2.57,-0.33,0.61,-0.38,0.61,-136.31,51.63,125.68,0.36,0.61,0.37,1.43,1.33,0.19,0.11,0.82,-0.24,0.51,-100.94,38.81,123.25,1.02,0.57,0.28,0.86,0.07,0.23,0.41,0.74,-0.16,0.51
2.53,-96.56,74.06,142.44,0.08,0.25,0.08,0.75,0.45,0.14,0.36,0.69,0.19,0.6,-124.63,84.94,64.94,0.52,0.67,0.08,1.84,0.13,1.92,-0.32,0.62,-0.38,0.61,-134.94,52.13,125.81,0.56,0.4,0.06,3.94,0.76,0.59,0.12,0.82,-0.23,0.52,-101.37,38.13,122.12,1.11,0.63,0.2,0.9,0.61,0.79,0.4,0.74,-0.17,0.51
2.54,-96.56,73.81,142.69,0.14,0.2,0.08,0.55,0.28,1.36,0.36,0.69,0.19,0.59,-124.07,84.44,64.88,0.54,0.45,0.13,0.79,1.39,2.12,-0.31,0.62,-0.38,0.61,-134.69,51.81,126.06,0.75,0.03,0.53,1.31,0.72,0.71,0.13,0.82,-0.23,0.52,-102.5,37.69,121.37,1.12,0.59,0.54,2.41,1.99,0.84,0.39,0.74,-0.19,0.51
2.55,-96.31,73.56,143.19,0.22,0.27,0.08,0.21,0.09,2.02,0.37,0.69,0.19,0.59,-123.94,83.87,64.88,0.03,0.51,0.04,0.52,0.52,2.14,-0.31,0.62,-0.39,0.61,-134.19,51.44,126.62,0.6,0.06,0.2,0.16,0.57,2.71,0.13,0.82,-0.22,0.51,-103.44,37.31,120.69,0.88,0.44,0.5,2.93,2.17,0.94,0.39,0.74,-0.2,0.51
2.56,-96.25,73.06,144.13,0.19,0.55,0.07,0.99,1.16,0.04,0.37,0.69,0.19,0.59,-123.94,83.12,63.19,0.15,0.86,0.13,0.09,0.48,0.98,-0.31,0.61,-0.4,0.61,-133.03,51.97,126.93,0.46,0.33,0.3,0.78,1.63,1.4,0.14,0.82,-0.21,0.52,-103.06,36.5,119.31,0.92,0.49,0.96,0.63,0.49,0.46,0.39,0.74,-0.21,0.51
2.57,-96.0,72.5,144.88,0.39,0.4,0.06,0.58,1.26,1.42,0.38,0.69,0.2,0.58,-123.88,82.06,64.44,0.02,0.98,0.12,0.17,0.87,1.06,-0.3,0.62,-0.4,0.61,-131.87,52.5,127.24,0.33,0.6,0.39,1.39,2.69,0.1,0.15,0.81,-0.2,0.52,-103.0,35.5,117.69,1.13,0.6,0.69,0.56,1.46,0.49,0.38,0.74,-0.22,0.51
2.58,-95.5,72.12,145.57,0.34,0.29,0.06,0.39,0.58,2.35,0.39,0.69,0.2,0.58,-123.63,81.19,65.12,0.13,0.73,0.08,0.25,0.14,2.05,-0.29,0.62,-0.4,0.61,-130.63,53.56,127.06,0.1,0.75,0.6,0.69,1.47,5.14,0.15,0.81,-0.19,0.53,-103.94,35.19,116.69,1.41,0.35,0.64,1.85,3.29,1.63,0.37,0.74,-0.24,0.51
2.59,-95.44,71.87,146.0,0.01,0.34,0.01,0.54,0.34,0.63,0.39,0.69,0.2,0.57,-123.38,80.56,64.81,0.21,0.49,0.08,0.9,0.05,1.28,-0.29,0.62,-0.4,0.61,-130.12,54.13,126.68,0.05,0.43,0.07,0.08,0.91,4.89,0.15,0.81,-0.19,0.54,-104.94,35.06,115.44,1.34,0.25,0.01,2.45,2.95,2.27,0.36,0.74,-0.25,0.51
2.6,-95.69,71.37,146.63,0.2,0.58,0.07,0.51,0.18,0.36,0.4,0.69,0.2,0.57,-123.19,79.87,65.0,0.15,0.69,0.07,0.65,0.69,2.03,-0.28,0.62,-0.4,0.61,-129.81,54.25,126.31,0.25,0.32,0.3,2.29,0.14,2.95,0.15,0.81,-0.19,0.54,-104.56,34.44,113.62,1.2,0.22,1.0,8.33,7.7,3.09,0.36,0.73,-0.26,0.52
2.61,-95.81,70.81,147.44,0.12,0.52,0.07,0.48,0.5,0.08,0.4,0.69,0.2,0.57,-123.13,78.81,64.94,0.03,1.01,0.04,0.07,1.02,1.14,-0.27,0.62,-0.41,0.61,-129.56,54.25,126.12,0.13,0.17,0.01,1.23,0.18,3.43,0.15,0.81,-0.19,0.54,-103.38,32.94,111.81,0.81,0.94,1.66,5.67,19.45,0.95,0.37,0.72,-0.28,0.52
2.62,-95.75,70.37,148.0,0.04,0.36,0.04,0.35,0.46,0.52,0.41,0.69,0.2,0.56,-123.07,78.0,64.63,0.11,0.66,0.07,0.24,0.99,0.24,-0.27,0.62,-0.42,0.61,-129.0,54.88,126.43,0.12,0.27,0.75,3.19,1.64,1.78,0.15,0.8,-0.18,0.54,-105.5,32.88,112.87,0.13,0.93,2.14,0.5,4.9,0.71,0.36,0.73,-0.28,0.51
2.63,-95.81,70.12,148.38,0.03,0.25,0.02,1.25,0.04,0.95,0.41,0.69,0.21,0.56,-123.38,77.56,64.75,0.27,0.37,0.02,0.59,0.18,0.02,-0.27,0.62,-0.42,0.61,-127.75,55.94,126.68,0.01,0.58,0.74,1.27,4.55,2.85,0.16,0.8,-0.17,0.55,-105.19,31.94,112.56,0.38,0.51,2.13,1.81,1.38,2.84,0.36,0.73,-0.28,0.51
2.64,-95.87,69.87,148.63,0.05,0.27,0.01,1.68,0.08,1.19,0.41,0.69,0.2,0.56,-123.75,77.18,64.81,0.22,0.34,0.02,0.82,0.16,0.55,-0.27,0.62,-0.42,0.61,-128.0,55.94,125.81,0.14,0.44,0.85,1.13,5.2,1.58,0.15,0.8,-0.18,0.55,-103.19,30.19,111.19,0.28,0.57,2.12,0.08,0.76,1.91,0.38,0.72,-0.29,0.51
2.65,-96.0,69.31,149.19,0.01,0.61,0.03,0.68,0.61,2.17,0.42,0.69,0.2,0.55,-124.13,76.81,64.88,0.18,0.31,0.02,1.05,0.14,1.07,-0.27,0.62,-0.43,0.6,-129.38,55.19,123.49,0.2,0.55,1.55,1.36,1.2,1.29,0.14,0.8,-0.2,0.55,-101.5,28.62,110.13,0.31,0.54,1.5,2.61,2.05,2.55,0.39,0.7,-0.3,0.51
2.66,-96.12,68.5,149.94,0.04,0.79,0.03,0.34,0.2,0.71,0.42,0.69,0.2,0.55,-124.32,76.5,64.63,0.11,0.27,0.04,0.7,0.14,1.17,-0.27,0.62,-0.43,0.6,-130.75,54.5,121.12,0.25,0.6,1.1,2.52,3.09,4.64,0.12,0.8,-0.23,0.54,-101.5,28.19,110.0,0.03,0.3,0.2,2.83,0.31,4.03,0.39,0.7,-0.3,0.51
2.67,-96.12,67.84,150.53,0.06,0.68,0.02,0.23,0.24,0.42,0.43,0.69,0.2,0.54,-124.69,76.25,64.12,0.23,0.25,0.07,0.58,0.04,1.48,-0.27,0.61,-0.44,0.6,-130.81,54.81,119.99,0.4,0.59,0.25,0.06,1.05,1.31,0.11,0.79,-0.24,0.55,-101.69,28.31,110.06,0.09,0.13,0.03,2.85,4.12,0.99,0.39,0.7,-0.3,0.51
2.68,-96.12,67.19,151.13,0.07,0.58,0.02,0.12,0.27,0.14,0.44,0.69,0.2,0.54,-124.94,75.75,63.63,0.08,0.51,0.08,0.23,0.21,1.0,-0.27,0.61,-0.45,0.6,-130.5,55.38,119.56,0.66,0.93,0.81,0.88,0.77,1.74,0.11,0.79,-0.24,0.55,-101.88,28.62,109.75,0.35,0.16,0.48,3.3,3.47,2.57,0.39,0.7,-0.31,0.51
2.69,-96.25,66.62,151.44,0.01,0.5,0.03,0.12,0.64,0.14,0.44,0.69,0.2,0.53,-125.13,75.06,63.37,0.08,0.6,0.04,1.59,0.12,0.78,-0.27,0.61,-0.45,0.59,-130.28,56.6,118.4,0.76,0.66,0.66,0.88,0.51,1.86,0.1,0.79,-0.24,0.56,-103.94,29.75,110.19,0.32,0.11,2.02,1.22,2.44,2.5,0.37,0.71,-0.31,0.51
2.7,-96.37,66.12,151.69,0.03,0.45,0.03,0.53,0.85,0.33,0.44,0.69,0.2,0.53,-125.19,74.75,63.37,0.07,0.42,0.02,1.9,0.12,0.86,-0.27,0.61,-0.45,0.59,-130.06,57.81,117.24,0.86,0.39,0.52,0.87,0.25,1.97,0.09,0.78,-0.24,0.57,-105.12,30.56,110.69,0.03,0.15,0.53,3.7,3.65,2.61,0.36,0.72,-0.3,0.51
2.71,-96.69,65.62,151.75,0.13,0.42,0.06,0.61,0.27,0.47,0.44,0.7,0.2,0.53,-125.25,74.37,63.5,0.19,0.22,0.03,1.46,0.37,1.04,-0.26,0.61,-0.46,0.59,-130.44,58.44,116.18,0.87,0.4,0.24,0.39,0.25,0.58,0.08,0.78,-0.25,0.57,-103.56,29.75,109.94,0.09,0.04,1.84,2.3,1.49,3.12,0.37,0.71,-0.31,0.51
2.72,-97.12,65.25,151.56,0.13,0.28,0.11,0.67,0.1,0.46,0.44,0.7,0.19,0.53,-124.88,74.19,63.75,0.33,0.16,0.04,0.75,0.7,1.24,-0.26,0.61,-0.45,0.6,-131.44,58.87,114.74,0.9,0.44,0.1,0.06,0.47,0.82,0.06,0.78,-0.26,0.57,-102.31,28.75,109.31,0.03,0.1,1.24,3.32,1.55,0.89,0.38,0.71,-0.31,0.51
2.73,-97.19,64.94,151.56,0.11,0.28,0.12,2.01,0.33,0.47,0.44,0.7,0.19,0.53,-124.44,74.25,63.94,0.35,0.1,0.06,0.21,0.21,0.58,-0.26,0.61,-0.45,0.6,-132.25,59.19,113.12,0.85,0.42,0.33,0.17,3.29,0.36,0.04,0.77,-0.27,0.57,-102.13,28.87,109.19,0.06,0.33,0.21,1.22,1.98,2.72,0.38,0.7,-0.31,0.51
2.74,-97.0,64.62,151.75,0.23,0.27,0.1,2.23,0.47,0.66,0.45,0.7,0.19,0.52,-124.07,74.38,64.03,0.29,0.11,0.05,0.18,0.5,0.57,-0.25,0.61,-0.45,0.6,-132.56,59.81,111.93,0.76,0.39,0.56,4.54,3.7,3.72,0.03,0.77,-0.28,0.57,-103.5,30.06,109.75,0.08,0.39,1.8,0.35,2.27,3.9,0.37,0.71,-0.31,0.51
2.75,-96.75,64.46,152.0,0.2,0.17,0.06,1.38,0.3,0.41,0.45,0.7,0.19,0.52,-123.69,74.5,64.12,0.23,0.12,0.04,0.16,0.8,0.57,-0.25,0.61,-0.44,0.6,-132.75,59.63,111.62,0.34,0.19,0.91,5.71,1.16,3.44,0.03,0.77,-0.28,0.57,-106.19,31.81,110.62,0.33,0.37,2.33,0.13,2.75,1.11,0.35,0.73,-0.3,0.51
2.76,-96.5,64.31,152.25,0.16,0.07,0.02,0.54,0.13,0.16,0.45,0.7,0.19,0.52,-123.38,74.62,64.19,0.23,0.16,0.03,0.26,0.41,0.64,-0.25,0.62,-0.44,0.6,-134.0,58.06,112.24,0.38,0.77,0.59,1.77,3.4,0.19,0.03,0.77,-0.29,0.56,-107.75,33.31,110.87,0.42,0.7,1.15,0.29,0.34,1.3,0.33,0.73,-0.3,0.51
2.77,-96.12,64.25,152.57,0.22,0.05,0.03,0.55,0.18,0.03,0.46,0.7,0.2,0.52,-123.0,74.81,64.31,0.3,0.13,0.04,0.44,0.03,0.31,-0.25,0.62,-0.44,0.61,-134.56,57.25,113.24,0.37,0.59,0.41,2.02,2.8,2.05,0.04,0.78,-0.29,0.56,-107.75,34.31,110.62,0.4,1.06,0.74,0.45,0.9,1.93,0.33,0.73,-0.3,0.52
2.78,-95.81,64.25,152.81,0.18,0.02,0.03,0.54,0.18,0.02,0.46,0.69,0.2,0.52,-122.63,75.0,64.44,0.29,0.18,0.05,0.79,0.18,0.21,-0.25,0.62,-0.43,0.61,-133.81,57.75,114.37,0.05,0.28,1.71,0.47,0.05,2.26,0.05,0.78,-0.28,0.56,-145.56,35.31,110.37,0.38,1.41,0.32,0.62,1.47,2.56,0.07,0.8,-0.45,0.4
2.79,-95.62,64.25,152.88,0.09,0.03,0.02,0.62,0.07,0.26,0.46,0.69,0.2,0.52,-122.44,75.12,64.5,0.09,0.06,0.02,0.95,0.08,0.68,-0.25,0.62,-0.43,0.61,-132.0,59.31,116.68,0.14,0.34,2.1,0.16,0.78,1.71,0.06,0.78,-0.25,0.57,-143.74,36.88,109.62,0.19,1.45,0.71,0.37,1.82,1.75,0.07,0.79,-0.44,0.42
2.8,-95.44,64.25,153.0,0.08,0.02,0.02,0.38,0.02,0.82,0.46,0.69,0.2,0.52,-122.63,75.19,64.25,0.16,0.12,0.05,2.47,0.37,0.73,-0.25,0.62,-0.43,0.61,-130.25,61.19,119.31,0.42,0.26,2.2,0.43,1.27,0.83,0.08,0.78,-0.21,0.58,-141.05,38.75,109.37,0.05,1.33,1.28,0.37,2.84,0.99,0.08,0.79,-0.42,0.44
2.81,-95.31,64.31,153.06,0.05,0.05,0.01,0.32,0.05,0.92,0.46,0.69,0.2,0.52,-123.0,75.37,63.69,0.17,0.12,0.09,2.17,0.43,0.33,-0.26,0.61,-0.44,0.6,-129.06,62.62,121.18,0.44,0.1,1.46,0.26,0.46,1.35,0.09,0.78,-0.18,0.59,-138.26,39.9,110.25,0.35,1.12,0.93,14.89,15.4,3.43,0.09,0.79,-0.4,0.45
2.82,-95.31,64.37,152.88,0.01,0.11,0.05,0.86,0.11,0.95,0.46,0.69,0.2,0.52,-123.44,75.37,63.03,0.24,0.14,0.09,1.94,0.53,0.71,-0.26,0.61,-0.44,0.6,-128.69,63.63,122.81,0.36,0.17,1.16,0.94,0.83,0.98,0.1,0.78,-0.17,0.59,-135.47,41.04,111.12,0.65,0.92,0.58,29.41,27.96,5.88,0.11,0.79,-0.38,0.47
2.83,-95.38,64.44,152.81,0.09,0.06,0.03,1.62,0.18,0.73,0.46,0.69,0.2,0.52,-123.88,75.37,62.37,0.3,0.15,0.09,1.7,0.63,1.09,-0.27,0.61,-0.45,0.6,-128.5,63.94,124.0,0.21,0.35,0.47,0.97,1.72,0.47,0.1,0.78,-0.16,0.59,-132.68,42.19,112.0,1.79,1.14,5.35,7.31,5.24,5.02,0.13,0.79,-0.36,0.48
2.84,-95.62,64.5,152.63,0.25,0.02,0.01,1.7,0.37,0.19,0.46,0.69,0.2,0.52,-124.32,74.94,61.75,0.21,0.38,0.12,0.82,1.06,0.29,-0.27,0.6,-0.46,0.59,-128.38,64.06,125.24,0.08,0.36,0.48,0.74,1.42,0.41,0.11,0.78,-0.15,0.59,-132.68,43.63,112.0,0.22,0.26,0.77,0.88,4.84,6.3,0.12,0.79,-0.35,0.49
2.85,-96.18,64.34,152.31,0.34,0.16,0.08,1.94,0.34,0.64,0.45,0.7,0.19,0.52,-125.25,74.78,60.59,0.42,0.22,0.12,1.36,0.7,0.25,-0.28,0.6,-0.47,0.59,-128.0,64.19,126.56,0.01,0.29,0.58,1.26,0.78,0.23,0.12,0.78,-0.13,0.59,-133.12,43.63,111.38,0.32,0.64,2.02,3.98,2.69,1.53,0.11,0.79,-0.36,0.49
2.86,-96.75,64.19,152.0,0.42,0.31,0.14,2.18,0.3,1.08,0.45,0.7,0.19,0.52,-126.19,74.62,59.44,0.63,0.06,0.13,1.9,0.35,0.21,-0.29,0.59,-0.48,0.58,-127.25,64.69,128.25,0.05,0.23,0.89,1.3,0.02,1.22,0.13,0.78,-0.12,0.6,-134.66,43.44,109.91,0.44,0.38,1.14,2.44,2.78,1.93,0.1,0.78,-0.38,0.49
2.87,-97.88,63.81,151.31,0.53,0.35,0.2,0.84,0.09,0.78,0.44,0.71,0.18,0.52,-126.88,74.5,58.63,0.27,0.12,0.11,1.76,0.15,0.29,-0.3,0.58,-0.49,0.58,-126.32,65.32,130.59,0.09,0.25,1.04,1.44,0.81,0.62,0.14,0.78,-0.09,0.6,-136.19,43.25,108.44,0.55,0.11,0.26,0.9,2.88,2.33,0.08,0.78,-0.39,0.48
2.88,-99.34,63.47,150.13,0.54,0.2,0.24,1.54,0.36,0.73,0.43,0.71,0.16,0.53,-127.07,74.44,58.06,0.05,0.05,0.17,0.31,1.23,1.58,-0.3,0.58,-0.49,0.57,-125.38,65.94,132.93,0.13,0.27,1.2,1.57,1.6,0.01,0.16,0.78,-0.07,0.6,-136.43,43.75,108.13,0.37,0.34,0.68,0.43,1.95,2.28,0.08,0.78,-0.39,0.48
2.89,-100.81,63.13,148.94,0.54,0.05,0.28,2.23,0.62,0.68,0.42,0.72,0.15,0.53,-127.13,74.69,57.06,0.1,0.29,0.26,0.21,1.17,1.75,-0.31,0.58,-0.5,0.57,-124.25,66.44,135.43,0.04,0.24,1.05,0.96,1.8,1.8,0.18,0.78,-0.04,0.6,-134.72,44.78,109.38,0.34,0.27,1.03,0.28,1.01,1.18,0.09,0.78,-0.37,0.49
2.9,-101.87,62.94,148.0,0.31,0.29,0.12,1.99,0.8,0.13,0.4,0.73,0.13,0.54,-127.57,74.87,55.94,0.28,0.17,0.17,1.14,0.61,0.99,-0.32,0.57,-0.5,0.57,-123.06,66.9,138.05,0.06,0.2,1.03,1.32,1.02,1.04,0.2,0.78,-0.02,0.59,-133.0,45.81,110.63,0.32,0.2,1.39,0.12,0.07,0.09,0.1,0.78,-0.35,0.5
2.91,-102.56,62.56,147.75,0.19,0.31,0.05,0.31,0.37,0.06,0.4,0.73,0.13,0.54,-128.5,74.75,55.06,0.62,0.21,0.05,2.16,0.94,0.54,-0.33,0.56,-0.51,0.56,-121.87,67.37,140.68,0.07,0.15,1.01,1.69,0.24,0.28,0.22,0.78,0.01,0.59,-132.12,46.63,111.5,0.43,0.22,0.82,0.34,0.36,0.13,0.1,0.78,-0.34,0.51
2.92,-103.06,62.25,147.69,0.17,0.32,0.02,0.34,0.18,0.21,0.4,0.73,0.12,0.54,-128.94,74.66,54.65,0.32,0.16,0.08,2.68,0.83,0.51,-0.33,0.56,-0.52,0.56,-120.75,67.75,143.31,0.18,0.2,0.89,0.34,1.67,0.72,0.24,0.77,0.03,0.59,-132.25,47.13,111.56,0.55,0.21,0.52,0.5,1.46,0.18,0.1,0.78,-0.34,0.51
2.93,-103.62,61.88,147.69,0.4,0.32,0.02,2.11,0.91,0.13,0.4,0.74,0.12,0.54,-129.38,74.56,54.25,0.01,0.1,0.11,3.2,0.72,0.48,-0.33,0.56,-0.52,0.55,-120.0,67.87,144.62,0.44,0.14,0.98,0.2,0.65,1.39,0.25,0.77,0.05,0.59,-132.75,47.44,111.25,0.44,0.15,0.3,0.94,1.29,0.95,0.09,0.78,-0.34,0.51
2.94,-104.44,61.56,147.44,0.44,0.18,0.01,3.13,0.35,0.13,0.39,0.74,0.11,0.54,-129.44,74.75,53.69,0.06,0.2,0.12,1.11,0.75,0.97,-0.34,0.56,-0.52,0.55,-118.19,68.25,147.87,0.56,0.19,1.11,0.71,1.69,1.53,0.28,0.76,0.08,0.58,-132.75,47.81,111.5,0.22,0.01,0.6,1.02,1.51,1.24,0.09,0.78,-0.34,0.51
2.95,-105.19,61.4,147.07,0.3,0.14,0.06,3.17,0.57,0.62,0.39,0.74,0.1,0.54,-129.5,74.87,53.19,0.02,0.03,0.05,0.27,0.45,0.76,-0.34,0.55,-0.53,0.55,-116.25,68.5,151.37,0.39,0.15,0.58,0.08,2.46,0.46,0.3,0.75,0.11,0.57,-132.37,48.06,112.0,0.14,0.06,0.68,0.73,1.19,1.52,0.1,0.78,-0.33,0.52
2.96,-105.94,61.25,146.69,0.15,0.11,0.1,3.21,0.79,1.12,0.38,0.75,0.1,0.54,-129.63,74.69,53.12,0.08,0.19,0.01,0.88,0.26,0.1,-0.34,0.55,-0.53,0.55,-115.37,68.5,152.81,0.13,0.07,0.17,0.69,0.84,0.57,0.32,0.75,0.13,0.57,-131.68,48.25,113.06,0.09,0.23,0.97,0.19,0.88,0.09,0.11,0.79,-0.32,0.52
2.97,-106.37,61.06,146.38,0.15,0.11,0.1,2.45,0.44,0.79,0.38,0.75,0.09,0.54,-129.69,74.5,53.19,0.01,0.08,0.02,0.64,0.3,0.27,-0.34,0.55,-0.53,0.55,-115.5,68.37,152.31,0.07,0.02,0.27,1.74,0.52,0.07,0.31,0.75,0.12,0.57,-131.06,48.44,114.43,0.28,0.3,1.17,0.43,0.88,0.52,0.12,0.79,-0.31,0.52
2.98,-106.84,61.0,146.13,0.2,0.14,0.1,1.31,0.36,1.26,0.37,0.75,0.09,0.54,-129.69,74.56,53.19,0.11,0.14,0.04,0.53,0.07,0.46,-0.34,0.55,-0.53,0.55,-115.31,68.56,152.12,0.09,0.13,0.17,1.63,0.32,0.06,0.31,0.75,0.12,0.57,-130.43,48.63,115.81,0.46,0.38,1.37,0.67,0.87,0.94,0.13,0.79,-0.29,0.52
2.99,-107.31,60.94,145.88,0.24,0.18,0.1,0.17,0.29,1.73,0.37,0.75,0.08,0.54,-129.57,74.75,52.94,0.09,0.32,0.07,0.29,0.22,0.52,-0.34,0.55,-0.53,0.55,-115.12,68.75,151.93,0.11,0.24,0.07,1.52,0.11,0.06,0.31,0.75,0.12,0.57,-130.31,48.75,117.06,0.52,0.43,1.45,0.24,1.29,0.02,0.13,0.8,-0.28,0.52
3.0,-107.63,60.81,146.06,0.21,0.13,0.14,0.36,0.29,1.66,0.37,0.75,0.08,0.54,-129.44,75.12,52.5,0.1,0.41,0.06,0.22,0.31,0.27,-0.34,0.55,-0.53,0.55,-114.88,69.0,151.93,0.07,0.23,0.03,0.8,0.42,1.05,0.31,0.75,0.13,0.57,-130.81,48.6,120.97,0.33,0.26,0.76,0.41,1.04,0.8,0.15,0.81,-0.26,0.51
