0.02,-115.99270356513598,73.15176634639936,159.66866163140207,0.3452439855724456,0.2130422555199436,0.4430459207344165,-125.63776812709126,32.21592629329496,69.57107431741417,0.428017383148024,0.8136882818916842,0.2274915091081776,-171.00095766048008,5.898242524829683,2.1368606902255896,0.0177647464529956,0.0095004326731339,0.4764353801746905,-167.7552565688735,11.481053360995311,20.48340003250049,-0.0703503217736106,0.0691503724761967,0.0634046972273804
0.03,-116.04449075096474,73.53859669385037,159.18338277807953,0.0290082374978184,0.4652444770386177,0.487099236010293,-125.7890273563841,32.010104351874226,69.9291721814036,0.1340541250026626,0.6838879345406125,0.2965609828165368,-171.0256678947055,5.902837125061443,2.0770363788183173,0.1784693266846951,0.496300500114009,0.519389692150134,-167.65871264730785,11.574021624032763,20.558901289468658,0.0872944673174525,0.168054523755245,0.1516235531451202
0.04,-116.13082166319074,73.79879333445975,158.95244544448778,0.049126329585792,0.364673070774562,0.3688173471646922,-125.7499942885416,32.15047784209933,70.12770134502252,0.4019501916925174,0.6102590178008367,-0.071615485397313,-171.12361578970433,5.786039557760472,2.0334689694542405,0.3426738542704024,0.8922434435789657,0.6533404772323286,-167.84115523053475,11.57057663778165,20.420394062979547,0.1036694184040251,-0.1067684503394024,-0.0422404497950734
0.05,-116.28123082291982,74.1929501893799,158.46094453632747,0.1414069908443307,0.2785542564659202,0.1572938786770548,-125.77375199335329,32.066103163208034,70.4830575663059,0.4450208579782539,0.4537252642316342,0.54928613457908,-171.39162626130764,5.861938484866703,1.9924651434166305,0.9350405247546034,1.8033303526391924,0.1079791014856577,-167.7109132285823,11.52838137304156,20.426035801728972,0.1267271220456189,-0.0107044615214375,0.0725148233321597
0.06,-116.26972035305076,74.33103914086459,157.91367721815303,0.3927504018706742,0.1693160240364296,0.2136213142488418,-125.92535806397898,31.517588586219325,70.37125145949986,-0.0586065069109555,0.0440157763592335,0.267315797962724,-171.60393886272684,5.8825386766391015,2.259936063536382,0.9623010600362062,0.8001747858422533,0.0236641587935887,-167.8724043318469,11.46462256473854,20.469531256731777,0.0832079405079713,-0.0362251192261824,0.0860411227215209
0.07,-116.21265674802616,74.82268249119282,157.38504217306942,0.050512841824066,0.4260445523297721,0.5410676072513884,-125.9855303447698,31.186460739059434,70.18844613050773,0.509775500960545,0.4007164525109716,0.2348156177878976,-172.107862551351,5.744772285768192,2.312146468365893,0.5868094124605095,2.725539155205017,1.0226791213969946,-167.8509845658399,11.305753607409848,20.320132935983334,0.0215968450528756,0.2284282844529337,0.1321793674568084
0.08,-116.17607630471156,75.24491694312175,156.98627287333073,-0.0038507673552166,0.3320893585132329,0.4334268800470665,-126.15459205782112,30.7161150627531,70.21613207848232,0.3332485416882791,0.2391189620247502,0.7302900459093624,-171.65112740554596,5.675476831478802,2.48978165536408,0.745795337010594,1.3811304673381566,0.1631710010690372,-167.80971094504204,11.43027219385917,20.39701958919163,0.0850726369356784,0.120964727835461,-0.0096874787296434
0.09,-116.13013028045292,75.5532237398307,156.20285809600793,0.5667953585190855,0.5217602564665565,0.3517993272065519,-126.18716434306631,30.640091697687662,70.231486027892,0.2381712753586433,0.0193364800687674,0.407572560136878,-171.32766219303738,5.933298026859499,2.586088333068005,-0.072191859350926,2.6332131677331083,0.5072253772919744,-167.97315067372904,11.61709461283495,20.55659715903773,0.1882461346963886,0.1199371509310625,0.1136722431782243
0.1,-116.5065914057728,75.45782173678927,156.00511285838377,0.4536942974298363,0.526887777029497,0.3040162942735473,-126.17691992476922,30.297713041112125,70.30973497389114,0.3506135945060004,0.4379960670387913,0.4709259440728482,-171.40682675761354,6.237762371522371,2.67775396612694,0.0664532458860413,2.202914083020811,1.1613666371631317,-167.84275545161404,11.45612297618821,20.38283668103455,0.1332818937993321,-0.0749754043107168,0.1107194406609536
0.11,-116.7239493987572,76.03412808813427,155.49239504581635,0.7598685529871525,0.4456749295138801,0.6878143463292543,-126.45319030310276,30.22899984006177,70.11996665660968,0.4965299237173176,0.542751964740057,0.5480139264106785,-171.72037348328814,6.091187430954538,2.75530140890484,0.0002457450054411,1.2795099820752145,0.8452558757687696,-167.78758345089636,11.427795820621157,20.50385160958251,5.757166090228708e-05,0.3559747152584106,0.1260704364951185
0.12,-116.87179224814014,76.24893861508517,155.25083910954453,0.4074791926006654,0.3873202208919006,0.6018978094465768,-126.40399635033882,29.808662774712925,70.40103013934936,0.5381143522476102,0.5329092461923037,0.6323190010356421,-172.08341546390278,6.077442210211681,2.7577361183409086,-0.0112479400988482,0.3388785606659286,0.0951705092467677,-167.8986211785858,11.472901247842437,20.295944792130115,0.0191515755299266,0.2708372486673999,-0.0616524999243398
0.13,-117.0498284251768,76.6807920434372,154.2215552916428,0.4799602119639436,0.335378994587745,0.6781912730526233,-126.74626168245636,29.53883594874893,70.66290080900893,0.4933031612133696,0.6689421729211387,0.1946351914176229,-172.00716280901491,6.158876379466368,3.0584225938638827,0.7491944757396651,0.3450110414827517,0.6136018600090494,-167.78384979436294,11.56434793831602,20.550320467522443,0.1152486399318955,-0.0046538831778512,0.1424105431823101
0.14,-117.2306945874358,77.09879611378467,153.71279226526116,0.6079908391523906,-0.0157032477769431,1.0330502848486829,-126.6291528743876,29.07858333749765,70.50771810613857,1.0677114232573102,1.3256974251528395,0.8832586103408768,-171.87655567466513,6.329494047504901,3.5219205027151035,0.3981148841424807,1.544152845548163,1.352559641323147,-167.94768529009775,11.286119980809962,20.566772586998876,0.2440413334697231,0.1998968115402831,0.140076278338291
0.15,-117.2491224701716,77.17731624404652,153.4720211394214,0.9877672258190566,0.542008302011064,0.7255477614215198,-126.85695639484332,29.130936378720456,70.6476470033431,0.7456548654530919,0.5889344003720223,1.6067964009978837,-171.8523182080192,6.299264658457645,3.847002864636606,0.6386241864542389,2.5417486807160867,1.9126263361267264,-167.85526715599252,11.559020875071877,20.32242984236483,0.0999520739460904,0.0875999098238842,-0.0545681220986489
0.16,-117.29941956454778,77.3316232713436,152.98951283406015,0.7942311602447586,0.3178784630769484,-0.0599992524114054,-127.0343149371923,29.29176124596229,70.81510312998762,0.8267721140646691,1.3144872194385373,1.506042745405478,-172.01422556723088,6.383048111669551,3.722719571831031,0.5930858653609061,1.67071386108536,1.6928773202813805,-167.81864959193206,11.653793267759722,20.37314879262165,-0.1668901561694478,0.0145548148552856,0.0798869204855843
0.17,-117.60392552890912,77.37963922622546,152.93725770561974,1.589319308216536,-0.0449355730444337,0.2676290960667464,-127.09518363151348,29.249818422489845,70.83486007666835,0.6631139100974037,0.7010809873359978,0.99551672243735,-172.71421549529575,6.492783050343338,3.8923338154949354,0.0589207322465455,0.0922044936228181,1.6931446626967546,-167.91861826827915,11.527802527775057,20.37968413635297,0.1023173228457806,-0.0028679012150646,0.0110849458817049
0.18,-117.78151191599532,77.6932188167244,152.73227515754567,1.016868842427394,0.7291784353937141,0.393100331159658,-127.15886483080432,29.15680691723794,70.4736149815955,1.9604222694972104,0.399174078096159,1.3269605695945712,-173.13845360480795,6.197806504733029,3.9486132140065338,0.3695982944426438,0.2282401391600941,1.8695210672192035,-167.66815188166711,11.51034449085228,20.4797726046318,0.1205574533845374,0.3408073700705117,0.0292052740665659
0.19,-118.03132260991792,77.85678772702505,152.88898037645393,1.2960039178531992,0.66245256757163,0.3308646289035199,-127.37355066420056,29.30523405837837,70.42908479938889,1.5268473504782258,0.9397246770162876,1.8168835632847613,-172.97776132835352,6.514998327951669,4.280754256980022,1.0416283913931632,0.534461854094541,2.251023448882175,-167.82556302341774,11.537492305495013,20.469649129811792,0.1411650670191036,0.1320783446835068,0.1873951993454781
0.2,-118.48252764924968,77.30143542948528,154.61035854701709,0.8920539792325352,0.1515037178650698,0.2151190157957616,-127.69525496131958,30.539491731170887,70.61222371796507,0.0198233287703808,0.6187032420050114,0.8599277722253129,-173.29961759645906,6.445317964463502,4.872800578107387,0.8602023679421799,0.1747988221126817,1.4403843741190994,-167.93114843738817,11.441269258904606,20.47136563241241,0.2023107114436083,0.1411491672387049,0.172747247629856
0.21,-118.70371929703909,76.95097060691549,156.16546150334582,0.3712717138640277,0.3255437759943937,0.4192193370610071,-127.70796158719024,31.00829251530396,70.52282813189458,0.6415432309947728,0.2332140365271932,0.8068850104725067,-173.26025783641245,6.610748289311001,5.1719366868833,0.8765054823441141,0.447623908321827,1.4954227703628924,-168.1040357174253,11.35366670809344,20.31608461274896,0.0720673860532019,0.1035123131648943,0.1746357682167439
0.22,-119.09188437127592,76.2404024918445,158.25181091429354,0.8235503051343986,0.2245604294295821,0.6303716595020492,-127.91830146931886,31.409202438756555,70.29208673965509,0.8504122501292039,0.2344918778942363,0.9069244647590994,-173.66338474206336,6.625126001710673,5.363127938714653,0.8329328696192495,0.8454308574121625,1.6980626959821383,-167.84662083637463,11.55395959798159,20.29112130565988,0.2492104641621494,0.1584272809382803,0.1393108817474758
0.23,-119.24264534027132,75.41722333627891,160.06976547380114,1.112110481898256,0.0399686682470141,0.6260170153418625,-127.9760858641338,31.84181171524701,70.2953724516024,1.1502216434253285,0.1748896405643404,1.1548040181550938,-174.14696793336094,6.83304519023948,5.632716249305762,1.0741596591406533,1.358660338820886,2.317517487097537,-167.88994115129398,11.53042120125795,20.38679984747261,0.126104948678296,-0.060533604688713,0.0613153762512417
0.24,-119.57479667988612,73.62945585668184,163.37888176479905,0.6394547505709322,0.2864876259457752,0.1216527681897968,-128.0734608548257,32.864688004143645,70.28205081559194,0.4198692039311341,0.7261166823191487,0.9694569536286376,-174.7759114713715,6.595619656944677,5.618201352449899,0.485184671504497,0.6094835076115803,2.2968314735697466,-167.84898248729414,11.497059178301882,20.469316121789188,0.087450650335909,-0.0499026917133677,0.2998876570508021
0.25,-119.91890221572604,71.79042739689505,165.64260748927208,0.1423270797610279,0.5254159930825545,0.3551654270576247,-128.11716490810048,33.748336464380984,70.27157466451516,0.5336920795656498,0.3362019787794252,0.5893230996707353,-175.31732660793318,6.7108986635747465,5.586339467945929,0.6187639010021545,1.68875363804147,0.0132800559415596,-167.73499319602692,11.524270614835196,20.482292976293756,0.0769480945908438,0.2086091629979015,0.1204701744025702
0.26,-120.31127445892318,70.10767287764575,168.32225279333906,0.4554993327499177,0.0132671827673264,0.2906119311998236,-128.5656251450096,34.211900554543696,70.0399709106893,0.1386888325217737,1.3889000243343197,0.3360378939457952,-175.37373067947507,6.862194061359765,5.638091138220567,-0.0067220560745936,1.5188133259868126,0.1519106621662785,-167.86646482067624,11.419238768213043,20.469401902561263,0.1214642054657626,0.3488837960704443,-0.0598302313109918
0.27,-120.88503911858145,68.2909082062104,170.64251514411583,0.6074496977218239,0.1915648762387202,0.6617594544328108,-128.59631543438977,34.8278944792338,69.62363797162745,1.5346299756170467,0.096619075342613,1.0872452200778486,-175.3411756199424,6.930925016557908,5.774328859037601,-0.0566805511409867,0.3243313706543722,0.7642339043978033,-167.8986500823423,11.521066612154929,20.45312829639524,-0.0316882183317072,0.0972182836844684,0.154159037969236
0.28,-121.39151695813432,66.35073254844241,172.68338070731485,0.4856179611228135,-0.1012604116395472,0.6652573780755762,-128.57549626820582,35.71609196751796,69.20212257658854,0.571724812371424,1.1814013662902676,0.4224555295906397,-175.54529883173902,6.931644087549016,5.9276820617089685,0.9442565879036612,0.7486863245209217,2.923823563288548,-168.0382045833224,11.35838239744644,20.290991678539125,0.0536059507493703,0.1826739366689535,0.1252967647215127
0.29,-121.89507442316082,63.81795360020794,174.07675247642632,0.467503647948797,0.3619670238404155,0.1084480739452404,-128.6235763638735,36.526649465580455,68.97239051979138,-0.1771466486672545,0.3500698307546078,0.4690595608999697,-175.71307594043114,7.125767614511582,6.033327723373264,0.5034589110005657,0.4072007474452268,0.2755922626881868,-167.8168790786735,11.231974643121433,20.519166317229075,-0.1708673985940729,0.246089995995915,0.1190988941918999
0.3,-122.04044111705846,61.64331281192378,175.20154346909425,0.4673787963949968,0.1333664793547958,0.299393708960555,-128.67592967353085,37.50030411359563,68.6705437882812,0.55419400813152,1.2691931305663964,0.0802710502195444,-175.80497761462237,6.918208544995697,5.993309027066186,1.0612553833858511,0.2371506788360667,1.5815562202270417,-167.74983771399832,11.429141882501732,20.433619879234747,0.0709357060524061,0.067194957811591,0.1115936563092222
0.31,-122.28745858739994,59.666258598436144,176.0902732321877,0.2974223240626029,0.2636609346305019,0.0728490399143081,-128.681300844186,38.00853080031138,68.10336686425033,0.3386790550897193,0.7375929461173945,0.3426410784883419,-176.1482044076509,6.873908746092316,5.869877155951984,0.8605625755401352,0.7762451346230418,2.0104671792258904,-167.8102126918482,11.5369071830506,20.3044261401825,-0.0847729487473936,0.0920177410688437,0.1100934586184256
0.32,-122.76368480744397,58.14549467667162,176.9851851233187,0.3399339826412236,0.0677080528774753,0.3151882072333325,-129.1036526811767,39.31004481316515,67.7767888604471,0.1818510654173976,0.3219456682251785,0.3191586695807806,-176.26055286377266,7.139297318479795,5.831482163189671,0.9273202377365792,1.583163017772394,1.696537701552299,-167.8272738325512,11.532092685265429,20.364445651875037,0.1455900666630805,0.0168872421440502,0.1143216216226618
0.33,-122.8999421923316,57.44227087697475,177.695191539979,0.7079470391248536,0.3405992735113332,0.7007544056106074,-128.95846791639468,40.092432402842455,67.3031262679718,0.3016289165836563,0.3269515682623096,0.2266562376526192,-176.15608222329504,6.9249241586442105,5.457999594359961,1.0382187566241752,0.7595093177716996,0.795905401255933,-167.94173352887492,11.60415019249954,20.27455701312838,0.0170414236726893,0.1801507971810074,-0.0503286748912539
0.34,-123.4962571928137,57.189804319942255,178.17362456712294,0.2053330932935763,0.1136554815855967,0.1519646360524891,-129.148923964053,40.97050298936209,66.74385529322768,0.1531922626940838,-0.0946524853728207,0.265570072532922,-176.12242678074637,7.07012983057824,5.223807767104463,0.4233472773015112,0.024866299749552,1.8016502029192427,-168.01755456840803,11.596235075245405,20.281036161364803,-0.1339272550337432,-0.0273720090772675,0.1698328108390763
0.35,-123.86568806607004,56.59153207155709,178.66116179602275,0.2260895865784099,0.1595413330785371,0.1286858781897534,-129.18263692836908,41.8882544694646,66.12710113930592,0.1168228266614687,0.8595567791293541,0.8708392364200764,-176.58462891760882,6.940463601023184,4.54308760533715,1.1828353762299706,0.7292424123551438,0.4287653164166189,-167.73890390342842,11.283069510864316,20.400956430937484,0.1098113258631308,0.1054504271191588,0.1288884707029283
0.36,-123.96452571161878,55.69776646002952,178.78490066500032,0.2924843529176707,0.1262689779223791,0.8559477483076428,-129.2331504287121,42.81802361682898,65.83544125991416,0.3261257307775549,0.5294016909086892,0.6312150719887377,-176.4548099057656,7.175974440059705,4.6476546719236485,0.3137873883336516,1.2392542758529232,0.5356947805332061,-167.9386004537347,11.615971632754242,20.549575803293475,-0.1378981261696328,0.2037604870716122,0.0336521278222298
0.37,-124.05459621964204,55.70645865327775,179.11105083270462,0.4102740518935457,0.3023740343286336,0.4679760788810951,-129.30582007915115,43.76563470768489,65.522381811159,0.4718808268808632,0.2594871556664072,0.422606952236227,-176.69519079799616,7.19161101685282,4.370199163558725,0.6081572460171865,1.4592856965446446,0.0343643923280321,-167.81258723683416,11.238840448256148,20.53521422560712,0.3407265757384967,0.276311345858923,-0.1946158253337318
0.38,-124.34179613347511,55.36138010781477,179.44384158176643,0.6644053408849556,0.2528578440632635,0.2250714062158145,-129.12034153698465,44.81518026642189,64.90039499274044,0.3346886288358435,0.8880803972254129,0.5950505522820404,-177.20190110187286,7.192898333615785,3.969723300782695,0.6624705468887949,0.6520458962580482,0.5206512351303682,-167.7367009013417,11.398898255582983,20.33056398080613,0.3311745100042406,0.1012122966261334,0.0039578850409563
0.39,-124.8437529924068,56.172122426388846,179.91680056824458,0.3122325839097833,0.315431774759849,0.2044487345209789,-128.86987866639925,46.55366203850451,64.07612587720975,0.3798917303108043,0.8323140584109961,0.5081862196213195,-177.74510226467024,7.16079055986813,3.292978127259281,0.3459499952116436,0.0530955515018429,0.8884432880188666,-167.794268570053,11.679900166489537,20.684821114119583,0.337990782353938,0.3085764357869411,-0.0039770713899202
0.4,-124.6815014894663,56.97597944275346,179.91192160390688,0.8191109858566161,0.4101952776808432,0.1065463592235715,-129.1297989905612,47.20928864989231,63.85048333093602,0.2512038430545716,1.0689161533355245,0.9680762956281128,-177.91544598903656,7.080651204854671,2.953362917182422,0.4003697700347787,0.2798387710550982,0.6160983408839705,-167.73624547601474,11.319017227637154,20.80910437378226,0.1966177785399328,0.5177294866033879,0.0042050277429112
0.41,-124.43933645634222,58.0812943838737,179.9668702365245,1.0363789651853887,0.0976600653489568,0.0862333393376997,-128.79044121796062,47.75214231735416,63.476898710027086,0.5076390615697567,0.7238886110901636,0.3191686222491459,-178.26112151863416,7.11783681017022,2.4456629002131627,0.421897227717215,0.3461362731548908,0.3287660830007112,-167.58289726135388,11.489713245708302,20.66501489205081,0.0285723802877995,0.5156641620733742,0.21643622614978
0.42,-124.37467098465837,58.4920954885574,179.66448234967086,0.299746432051453,0.1016401867367892,0.1473419206675106,-128.7648240347302,48.90951801711584,63.045103309959686,0.6217502611017378,0.6034550637804547,0.3014723764551683,-178.68725506372814,7.137605474404701,2.074437649048428,0.0617241611006625,-0.0745989193144068,0.485867679626236,-167.52240969379872,11.286629284776607,20.849833517548163,-0.0390521404397899,0.6900428599592985,0.2713178779537776
0.43,-124.4368324310024,59.16992892493543,179.630789624349,0.9708577433278576,0.3003584769022107,0.4632714456612704,-128.91539370876504,49.89118440519957,62.68574760135986,0.5708642840780604,-0.0063959899786463,0.6855153486696403,-179.07979648213978,7.098307901910746,1.7289537521551872,0.1557658184065579,-0.0096012184599851,1.3574473473598068,-167.32580175499203,11.537776237048927,21.05950741119024,0.2699296238201616,0.9064407895598724,0.3652660761317341
0.44,-124.49098060011318,60.15657278549028,180.02769164179588,0.6555381351189145,0.229046647441153,0.2433692486615377,-128.94077158621243,50.541713178618885,62.43336145572824,0.8176397280374806,0.1236689167874513,0.914068891908083,-179.3860869735175,6.8617528652300575,1.4107295334521344,0.7094964356034545,0.5025483936531018,1.0982000478927296,-166.8785032188461,11.1834796023185,21.12860193716622,0.4040902167790144,1.4428719573328836,0.8320399547688266
0.45,-124.49381528142553,60.9757810484123,179.9003403202617,0.8651653442059932,0.283214193648186,0.285126871172087,-129.03685454864478,51.62541309498413,61.99784022085583,0.8519225807854691,0.3573632654372675,0.1809294712213889,-179.97114326936153,6.982134060123997,0.7527241681142256,0.0013736729488695,0.2602022420686266,-0.0200667588253373,-166.46745157430487,11.14917826525906,21.14970024491705,0.1552043236033311,1.2592448676810786,0.6802218557026314
0.46,-124.60100434731474,61.924800005479305,180.0361497962335,0.5788993457305125,0.4367906284868612,0.4891013403227883,-129.411154890465,52.72020301933067,61.54006987828296,0.3529199589918367,-0.1449121529023253,-0.0413341252797921,-180.25519144755725,6.537484950194124,0.2209239129300015,0.7384936370563705,0.3806711709230074,0.2888048364774376,-165.9119607305758,11.05673315591038,21.206224853793017,0.1248108413095116,1.2498567729961467,0.4543287995052942
0.47,-124.72644659551112,62.584874602955615,179.72989920318074,0.4225262690943675,0.3195190169018196,0.0932365142829678,-129.5071715378001,53.83115797471763,61.11703490731036,0.5758668312983657,0.3357024249654367,0.8385271582214165,-180.4128032128044,6.48597210154471,0.2493982809793478,0.3627680605326556,0.2245935684709583,1.0409499665173196,-165.233434895687,11.19571097670937,21.39082237843849,0.0692523170860442,1.1388642564157645,0.721230559541709
0.48,-124.45287396905292,63.32303645484899,179.75273396395755,0.3216945417322477,0.1566544129808738,0.1000050895317474,-129.71940247303775,54.566710916961775,60.92411590970344,0.4899920390110334,0.2353048848762495,1.176159146362093,-180.75742068193549,6.287710651896656,0.8158827841524017,0.8500044712371344,0.3933291109550623,0.8320511715893589,-164.2325390213603,10.90317249143123,21.49068813289521,0.2085815728598273,0.4930844203503335,0.791716491525736
0.49,-124.4252661097909,64.29514676506594,179.5028377609186,0.3722083894343921,0.1525167054375154,0.2555170438442407,-129.89446054706457,55.766916387593895,60.45404681562815,0.4296358710639151,0.3792281890160737,0.5340385183002553,-181.3697959358389,5.885650370793409,1.2511892860465967,1.090833468912248,0.8122097885930517,0.4452719227228117,-163.4085732592686,11.150649817784242,21.590159147165814,0.196027151839939,0.3756935260101862,0.8252762278775332
0.5,-124.65322881251524,65.0092063659788,179.48270014992292,0.277444994281142,0.1048226919154632,0.0127636780053093,-129.9624971147811,56.81500429778861,59.9715810268844,0.3266158051004693,0.2038258089475121,0.2098435809203962,-181.7228309953328,5.580726351023681,2.1759922249709542,0.3353625718526449,0.4589917678553821,0.8119428122738671,-165.86333745727856,7.912329461952944,21.29264545100212,0.6420178988302153,0.1634409055833729,0.7576098685752104
0.51,-124.4712041707963,65.86506043078057,179.3312155064625,0.7004696782134696,0.0220880635807755,0.0108735800327725,-130.4478814236938,57.78506159482089,59.2753631186741,0.5563738140607428,0.1886761451791404,1.1182060375923624,-182.09830220585857,5.374724346136569,3.0014122344970104,0.0812988540979068,0.095172188607135,0.9524424481740604,-168.3607472188856,5.098852922451906,21.3689840451097,1.144936554907116,-0.0226922785776627,0.3733395718200913
0.52,-124.69739552969251,66.11982412365465,179.32967729574753,1.0612077405361529,0.2834697125738708,0.0286619978489938,-130.19338042395023,58.591466634748826,59.08379372343016,0.80280052843685,-0.0049682172007579,0.9166166530108396,-182.44135292989435,5.037279893936998,3.191655602948768,0.1343210804417169,0.529219851828642,0.5443132836547468,-168.2680231385776,5.336531724751748,22.922089397416755,0.5944920090658454,0.842458421399167,0.2070798706978824
0.53,-124.69715122371838,67.41296600389005,179.1990646585018,0.5761258911077158,0.2256186503300963,0.4113348874225465,-130.38777577973497,59.59631073592499,58.30442593022335,0.4473071114526485,0.3036686451894279,0.8582254696986681,-182.62123669018715,4.815199521180224,3.90768420010888,0.4679087426692255,0.546868619581535,0.7188737066243499,-168.11355035424717,6.032350015438511,24.608079458184378,0.2206818536729841,1.1599826510712683,0.8092527900448885
0.54,-124.63245487105672,68.06657836843769,179.33318108267835,0.7242380852302328,0.3656880355797609,0.10428985763692,-130.798822183418,60.83034103154255,58.19911370994417,0.3224452274671915,0.0522010999883583,0.0212814574979482,-182.60392398486445,4.402991631628226,4.439547896901726,0.8479230466930521,0.2288381862385326,0.7112736037919638,-167.7557066038133,6.447812299082898,26.160234945298143,0.0292146254485377,0.0199570138092018,1.4269822747852368
0.55,-124.62761289432682,68.27801112263761,179.31408073891333,0.2340527339943737,0.446312748458083,0.4044986873664711,-131.03801077048536,61.95441775364106,57.72531026218873,0.0872816685226437,0.2451419683176372,1.1203957515336,-183.023749417604,4.078740792171053,5.197991981562609,0.3928770645362363,0.2965824992584019,0.1596399403437233,-167.49827277649385,6.886917932631966,27.40252406956681,0.3399365019136518,1.2272830212491852,-0.111499673353195
0.56,-124.49977390818248,69.45992572415997,178.83885860720616,0.3507521474394354,0.0755776222141018,0.4508335984408254,-131.24309016500385,62.63329035173612,56.859490312687726,0.5041827061299788,0.3414823572921866,0.1321377372828444,-183.22273931576024,3.647361703498234,5.920592143360267,1.0708868263275877,0.3374864268279377,0.6718455628583518,-167.66872162579915,7.274717350705913,29.145697123138508,0.8610203716424686,1.4517384516601382,0.1173920311799797
0.57,-124.61257998682984,69.63519630853136,178.93015978249792,0.5556379074594536,0.1393228408136738,0.3156397815754137,-131.48986624959775,63.774696394700136,56.25663306813193,0.939622367083798,0.055556843763252,0.0701967356654511,-183.34137221719104,3.2527806765484097,6.696003223318456,0.7748883235365499,1.577140406011423,1.2888584626904482,-167.2376326584483,8.187477444284156,30.76859932815779,1.2953957938213172,2.41408088156966,0.7539650401133396
0.58,-124.62570485729724,70.8486212609349,179.0178862070916,0.6801841955889496,0.049901246999495,0.3763137201325656,-131.80037535282543,65.54506453516234,55.24460666204783,0.4132583106677792,0.0268834684721042,0.5383049449844308,-183.7867228514209,2.329042141063777,8.30558246729731,0.3233765329234644,1.3736140785375026,0.3565862623169645,-167.02513534568516,8.824703007674703,33.66315627802407,0.1937012673416207,0.1102755079247486,0.9418764672193533
0.59,-124.56770060509557,71.39893432510365,178.68731648809293,0.3430213255472238,0.4623380440197523,0.8183853497307811,-132.1220457404039,66.5945701868418,54.4559315497247,0.1604919714628263,-0.0203608565913916,0.5654589893508447,-184.06445397217087,1.9591071126428332,8.748278525264537,2.438962463027797,0.9154399806795848,0.8534874056563588,-166.55379430493116,9.50760644478378,35.19523090497698,0.2642434976382535,0.7616822386270763,0.8938300848767351
0.6,-124.66647340743468,71.84785837647858,178.6656115706202,0.4581892563190803,0.1964111406687025,0.3831854533009591,-132.48965288553066,67.44846662943968,53.7403559032943,0.4296518792914277,0.2041092926491673,0.5025126451023121,-183.9939487425212,1.36202329672323,9.369742292033274,0.7088522041064426,0.5234952055080372,0.9217206437812652,-166.39029757967245,10.09191194147246,36.93088011362523,1.8570321768659392,1.202599626509305,1.1531349877459989
0.61,-124.98234708267006,72.45246687372733,178.57193220240896,0.9354592832973144,-0.0163726844952548,0.0661332497203544,-132.59556417812163,68.38839805516427,52.85594648159077,0.4280784154006848,0.2823421517926358,0.3321063650838661,-184.45000366102968,1.0003188424740566,10.179393653455918,0.4828688556674172,0.4683920246959737,0.7338556177519129,-165.90980934478705,10.574251016959332,38.454123054177415,1.024067258069107,0.6675969904936653,0.5704798906977486
0.62,-124.93237838929676,73.27048971848784,178.30429163294198,0.7682147652012874,0.0960659241471785,0.492763659422077,-132.97623013985864,69.02905661812412,52.4471685415811,0.4508337853239186,0.4160620527047139,0.2757575411678949,-184.93974191764647,0.7150854326327799,10.897020372412504,0.5650943914806437,0.2992069827906899,0.3170007845866963,-165.85210332441554,11.0576193632287,40.02118020805792,0.9773334877376546,0.9587890936417796,0.8711461334893056
0.63,-125.107836974175,73.38830800610246,178.46352985094026,0.5606746337080827,0.1743535053698635,0.5915306062511809,-133.32000526980735,70.01858549376547,51.85477808941245,0.8365173882701729,-0.034012858381511,0.0177202073492561,-185.6793046097312,0.1251123461338752,11.763211566077262,0.1471407574537624,0.3411428441966913,0.2936326069415567,-165.95832892601095,11.69894138415728,41.25692241854912,0.5547951190057686,0.0491427970419893,1.0254496203710115
0.64,-125.40973667717172,73.87577994137979,178.0812542113157,0.3579410491718244,0.0181317067516739,1.0518826773898873,-133.3471776146215,70.92925934668713,50.79352977399615,-0.032035079633932,0.0422175190163332,0.7275659930825047,-185.809330059072,0.1907842643988282,12.801235321476282,0.5826439578589108,0.7328025176619297,0.289912600668486,-165.78845133678524,12.101224259387612,42.670196399929935,1.258786317432376,0.7046020822453751,0.2463660243181928
0.65,-125.66790479891571,74.46197310446853,177.56397390804003,0.1255649787395755,0.0459784686175832,0.2657993023848223,-133.85489157925923,71.49484052416247,49.98851816607866,0.0056069311862786,0.5540528447120141,0.2299394800554008,-186.19814360307512,0.5933440772828753,13.227694479721034,0.6936819812876296,2.075708178725304,0.3290707626102985,-165.5545417169501,12.491167977970845,44.26866256229383,0.8592032466872865,0.7206404535703083,0.5982262475835368
0.66,-126.00768744393145,74.679851576871,177.26798984864232,0.0938918126076633,-0.0410534114300829,-0.0038437369879811,-134.10458184971296,72.08969648360033,49.13467953141408,0.3008681426966535,0.165197485142954,0.5129584063298861,-186.90373581914005,0.8961549327644133,14.07654707920842,0.1488049835269751,0.5638350892676378,0.3065236236422096,-165.41139412495545,13.039473499478422,45.699068347900486,-0.0668673284427228,0.9390499150356324,1.4028427879798615
0.67,-126.06394062569532,75.0006763089746,176.74825252630953,0.4223222487147857,0.2251824163269,0.2905965744965663,-134.51911884011872,73.14667861041843,48.04328586293056,0.0759749316813152,0.1617769029906179,0.3219915944039564,-187.9641598909381,1.5224971536849077,15.281955732738073,0.6541568729482541,1.4897932558019702,0.3863368409334085,-165.94490495190573,13.36930418923188,47.213158971849566,1.382602189637288,0.1653789418288399,1.56054178888791
0.68,-126.2838275567608,75.47673339488233,176.3125879228265,0.2255687099590151,0.1053833955651268,0.5562757648926218,-134.58568749627406,73.77845444428117,47.06913925160685,0.1930814947978076,0.0548879439742009,0.5507126125403712,-188.64033518689573,2.003010154545192,16.115740033076168,0.5918235356657773,0.3804539397236673,0.5989480100431774,-165.54308695320654,13.856961959915065,48.82753980214827,2.0523530858703536,1.5392799711692982,1.185906602956913
0.69,-126.76555276670403,75.81854155464596,175.56017533512406,0.4036633724288251,0.2882906865404819,1.05034127902759,-134.9860349824141,74.52405229903691,45.92086491964911,0.4471505638570563,0.2209939096283894,0.1517869207220551,-189.11120279653056,2.403130403833692,16.764184249647933,0.1927867446809258,0.7937354263838365,0.0116566792190919,-165.46218645654102,14.390256402883436,50.361612110596205,1.4027700635409874,0.852503119276273,0.7035229032677107
0.7,-127.30563097585728,75.91117058763349,175.0474103238044,0.4589319344218023,0.0275625158980041,0.5421731340119709,-135.4057201963925,75.20866214562805,44.6912038034324,0.9660871398747676,0.132057645569301,-0.046036137815345,-189.5118215096851,2.659570236745467,16.94748360638207,0.5689130982231533,0.2359524127432986,0.8599058343452061,-165.79351558478484,14.910186309353596,51.94541899608915,0.1432407342376014,0.3930958830875792,2.40869050487667
0.71,-127.3433143077144,76.20984340855738,174.6765017318853,0.4995942164851264,0.1349034471225631,-0.0701983147594075,-135.69181707527375,76.19055463413596,43.58226360252692,0.8183991095580555,0.268450702093048,0.0613562014393595,-190.1022948687828,2.8847672236302984,17.982058544813096,0.0363940678042365,0.0133916078678873,0.9299339484409412,-165.44744749668962,15.34404228207341,53.708301460629286,0.8071411156127178,2.056069949696706,1.587615963854674
0.72,-127.49420486717318,76.70914830582561,174.06840100529004,0.3825530386385539,0.3320596551864135,0.3300605364428194,-135.86600538258108,76.58774998139182,42.23439114432485,-0.0005886428771412,0.3063255233283397,0.2421612660652126,-190.6690525412192,3.610044460526981,18.80234041796363,0.6239409413214263,0.7629554483101021,0.4942590512252712,-165.004371357576,15.791854967950544,55.017535369261104,0.5842846130407435,1.040361221401106,0.8883984042597954
0.73,-127.8253764373562,76.87239841819026,173.41949106577655,0.0726425807951433,0.3033189207130434,1.0967701159012542,-136.2188069838863,76.99762104516289,40.77269446635586,0.424305881239765,0.2808544504318035,0.6091820211271807,-191.0641084711567,3.8941624326258655,19.593678423767265,0.5037909824584169,0.7933590226004673,0.4197694909596332,-165.11325852236357,16.57105458168032,56.20395157275298,0.6868837635095457,0.0571521058747284,-0.0645545888863777
0.74,-128.27953990428108,77.25926259841677,172.7909600145772,0.6996642426400218,0.7757907585829517,1.4624989327133773,-136.37079199406242,77.78803365276406,38.687664407285936,0.4069590216775511,-0.0373332816632005,0.3252614484837085,-191.52119719572025,4.318607137022788,20.430459162474023,0.37601903101302,0.950939552029259,0.1974243793185656,-164.76902136707056,16.858928596119863,57.467318335095165,1.8068283098167557,0.1875633005453766,0.5279247828779405
0.75,-128.32883076627138,77.25637629048009,172.24148215480548,0.5942706969983839,0.4881909861281693,0.0875910030433065,-136.67564736604558,78.00647147334526,37.73342748596052,0.5877606815923446,0.0550237827448597,0.4946337888427374,-192.05101522134413,4.519765103225919,21.3219790295666,1.001269971876838,0.1354701003936099,0.3130185105879352,-165.1385770101774,17.37666872573442,59.143274119075365,0.3320923907205251,1.070012228237021,0.7367629199854446
0.76,-128.9739381227425,77.5451970992452,171.36702934646075,0.2275735337865106,0.2657528551181954,0.1916489211439252,-136.91294518820976,78.55724089231659,36.42547016174466,0.2323239070487773,0.3379393598926435,0.1322354258088285,-192.67521716228197,4.633409907441489,22.23584015355987,0.7827663107532776,0.6810800053663848,0.1776029278406579,-165.0854669097907,17.543627071190475,60.18922322646447,1.8332349758364068,0.3580475542825061,1.3143588468623015
0.77,-129.39349952428418,77.78272429143315,170.83796240269712,0.0330407216579828,0.0835241451693229,0.5343981965678821,-137.47700673708448,79.45930465711416,32.93777409891094,0.3562265272679037,0.5642740164243517,0.5847509085159752,-193.8505339386068,5.430589692030882,24.20069549767576,0.8873814497928239,1.3849401055862152,0.8108504363040758,-164.88842989024258,18.781716437064247,62.77385838921684,0.034248180278755,1.1392204292032009,0.0837173100442685
0.78,-129.83203332672983,77.839704025998,170.19819230702092,0.2704555206710829,0.2650979074530847,0.5827358490194383,-137.24463149679897,79.91592951474507,30.587487021705005,0.2713134624957461,0.6329030243289708,0.5266890374413761,-194.4864825077698,5.827206937215531,25.302532197902256,0.4864373454085751,0.9085128853988385,0.2705567401046335,-164.5266208523666,19.119124126493688,64.23334230208157,1.3792003715807764,1.776321971005468,0.4168415766719383
0.79,-129.87785322901934,77.93649813395632,169.93858187806836,0.1719058487718521,0.5764377897563631,0.5232142015790187,-137.47346860506656,80.10545844935186,28.05695650208068,0.0203651857453885,0.8561658654597407,0.4485545064669453,-195.04189585386777,6.08433983231004,26.20678151057347,1.2191949121335464,0.2992710261298045,0.9785980342888412,-164.5780708717891,19.34205650489655,65.6347396728967,0.4743544707856808,0.8618929024566874,2.69958388768271
0.8,-130.16351455930894,78.34898436823404,169.39007722922517,0.0622707453221747,0.5235879206490599,0.383070158068348,-137.50019342804842,80.61211542855895,25.726647546662985,0.0571490324064874,1.385374057364547,0.3377324584737146,-195.59075950803245,6.532105365235945,27.15127588398717,0.9197123602178788,0.6602297180594245,0.7919013696878019,-163.76271584193057,20.10749938602416,67.46551570705095,1.9938751697279051,0.044802332702428,1.7385952689412594
0.81,-130.4652774794598,78.47210535562392,168.97106123618929,0.2715343072956333,0.2313329882253697,0.6292209507734741,-137.76663688588863,80.85077318972684,25.5552002317944,0.012035485834501,1.0734397615464866,0.7336903390081757,-196.73404193965104,7.322541132055972,28.53585197581145,0.3107673601575798,0.6139257661258423,1.248611955330326,-163.25355480111418,20.54476437251276,68.96263546108786,1.3426621166068664,0.4216917389191222,1.353383631560373
0.82,-130.5421329899525,78.60718582106013,168.60817369912596,0.6826996549846184,-0.0647819316964023,0.8248293502532198,-137.92051374403334,81.06858367768464,25.54479401010908,0.2357090035957535,0.7119310512822332,1.508328316554834,-196.8228553932947,7.915638775497273,29.53280025375692,1.2484511498216575,0.5097668005898788,0.9042767354399676,-162.45561071152284,20.83939961007177,70.3604019689937,0.9490931025747792,0.5774113803994586,0.912451336187937
0.83,-130.68384367839457,78.83701935816144,168.17379230107014,0.9595157240901242,0.403821898929896,0.9414638374472803,-137.9129589065227,81.50524554017707,21.931815881027408,0.3027874152721473,0.2273119672092898,0.0575200025117979,-197.509946968328,8.376929137553905,31.011281311998037,1.7611924066336748,0.0503034358205855,0.4141760142616836,-161.62594322644188,21.394085181455985,71.8910882869492,0.0432894738308113,0.537259261326805,1.005342396028441
0.84,-130.91764492096462,78.92638524087423,167.69361296233308,0.1966763752904808,0.309707967018586,0.8293396181460869,-137.5588364598852,81.89860649721864,18.47477401853636,0.1759186373086566,0.8830133272690384,0.0509529698201524,-197.82202121149376,9.394324874406244,32.159455717930626,0.1801559977594396,0.8400767225488323,0.83698281026807,-161.77611065251142,21.60484087573119,72.4383607759586,1.676230923042323,-0.0035687232037575,0.4024644786013594
0.85,-131.0902623862107,79.17747749625971,167.43751537361362,0.154821631267666,0.0715015732597374,0.2505710351844565,-137.45748319141478,81.71468285639703,15.560983068301082,0.6965527638382165,0.6169505680287293,0.4781294934819012,-198.0547690092432,10.333823976001838,33.20031955572544,1.057226391703506,0.6607297534396274,0.3635029201861987,-160.1515824924549,22.494729937772806,73.92162130729173,1.0984232833985923,1.7362306542033434,0.7509321524886573
0.86,-130.774702653242,79.33996974184504,167.37615101584996,0.3119228485049103,-0.1314403319387296,0.2739574856599239,-137.5429319626697,82.05774156358511,11.915069811666882,0.3678956165484776,0.134789680149157,0.3310843295161212,-197.60033554716404,11.193721724126052,34.25297666051756,1.5579618926834298,0.9131255060945412,1.8140825960436275,-158.3997487280307,23.487869286790406,75.13005631742804,1.0899844559159393,-0.0567595785776009,1.6214304262445738
0.87,-130.64815995836528,79.65304086386956,166.90551853533884,0.4858760152639994,-0.0134069659127439,0.3378649671114189,-137.27676243522748,82.2181227168062,8.429468586674883,0.1468215615955856,0.2340169957866425,0.1294178841698688,-196.984509935613,12.148115736759284,35.196078859905484,0.0475550666005845,1.8087289310083408,0.2255592841326929,-157.6327766563239,24.17219650002778,75.69391941809234,-0.0270627140614462,0.3811636030204291,0.1871435734499027
0.88,-130.62784049547065,79.76441954279755,166.5164868058728,0.0705344414901965,0.5181858178872456,1.4756842387260105,-137.14072515511427,82.67263901906388,5.805171108284,0.4114327582798488,0.5171385677351014,0.7598894766559143,-197.0142859427235,13.087979075886423,36.281177153396655,0.1084922689927702,1.63374927663708,0.5898637307571378,-156.23127351646443,24.95955621238481,76.58330753112212,0.206473794919978,0.1883550218142601,0.105149827311392
0.89,-130.51850051407462,80.17869484628618,166.4509401491406,0.4430108460653593,0.6853307176833784,0.9533450867312108,-137.13788008541206,82.58874964923164,2.3760662171823563,0.0164880644633367,0.6049830887137444,0.3566123623236639,-197.2191272332429,13.641302310000013,37.48707448116832,0.2422313272752861,0.5778146277199268,-0.0366381112553129,-155.18577358568527,25.797228457254928,77.33736497056317,0.2992271694317848,1.1894987540408766,1.840089911169275
0.9,-130.43784335206962,80.17101611674858,166.45780425874804,0.5043760207141547,0.6755650064932911,0.4606569958487937,-136.8174063788407,82.43958498670945,-0.9620042867361488,0.0132021248571014,1.041292793846656,0.0928947950951871,-197.3738819694572,14.139568481871676,38.60859207541149,0.8420142950245308,0.5064527302792581,-0.0093784513707643,-154.29573306662834,26.35594272667925,78.31424579576239,0.2530911924200037,0.2555438369387395,1.3286625571747657
0.91,-130.3995535072351,80.31595652512915,166.53440034341753,0.3845426478828569,0.391796848339751,0.3065416351845916,-136.51597594365674,82.49142710138037,-3.714615163135912,0.3980395957801712,0.8114293034315704,0.2832534005298975,-197.668922922546,14.707403470223705,39.47734617628426,1.3390512859644927,0.0325540134664697,0.3005378047466169,-153.4311285171857,26.535041912165568,79.08823907864407,0.3041051445396001,0.4204218730674312,0.991927643801246
0.92,-129.9470034313847,80.36982638976923,166.45063563462716,0.3041162218615237,0.4185349353123085,0.3207728133505433,-136.45672131697089,82.35635649134329,-5.497339667515729,0.1083988422511247,0.058654137733442,1.1339976310700142,-198.0302177877747,15.252120195081345,40.95373065107653,0.2845579085890771,-0.0293965523387171,0.3955875997108867,-153.26333743758798,26.992066193085748,79.93465910311158,0.7474659614087281,0.6056804162885437,0.0680003330781634
0.93,-129.8525024391901,80.48416530926235,166.56053590000664,0.0339798469631342,0.2755837310361078,0.8033956909036204,-136.32841046162895,82.43373730572014,-7.868204026688083,0.4077957696039428,-0.0133155204039623,0.057661328967796,-198.25345890818625,15.853409794077084,42.146280959593966,0.5935015417692775,0.7281195295120377,0.751896661130987,-152.0772182479617,27.47160630974208,80.63363978749922,0.6405868999100394,0.3331360159712637,1.269560643779739
0.94,-129.5606187206846,80.73513701986965,166.62071622392867,-0.0176284242434116,0.3453764895384611,0.8281439914858811,-136.32706807002955,82.31267725747,-9.909583164843228,0.2199264095555493,0.0728298470155369,0.4693147349076498,-197.7798961045891,16.600255037436785,43.16987664934816,0.316078346069755,0.9716694003936815,0.4413871220877144,-151.2837626673085,27.935446116419467,81.35644529535725,0.3937455094555302,0.5142064455408893,0.9358035461370218
0.95,-129.74315201004882,80.77941176827639,166.33450504361454,0.1295935608972102,0.0429353548819785,0.0255756559001751,-135.64296206354413,82.56214246506376,-11.268530167113187,0.1000243079006662,0.3056490266529954,0.3062195220700641,-197.4844331481408,17.459842329428547,43.71219551603421,1.332003888828598,0.2095416086521528,0.9230142657527428,-150.06610446837345,28.528610092720317,81.95629571330423,0.4148152769439762,0.8124198227232081,1.555060348506858
0.96,-129.09374669296554,81.02223754490983,166.52799159829155,-0.0415674000901066,0.1112412827697258,0.5230528570968359,-135.51619021024166,82.33226947366231,-14.499532672476166,0.2590762652377066,0.0665232890721095,0.4295813647106958,-197.1945641878767,18.16587734698918,45.46246878936462,0.4897843026612252,0.4599565017118837,0.2908316490353752,-148.3847789728853,29.19978320895501,83.41022420338412,0.2499796990101879,0.6233888264061546,0.6388000155830563
0.97,-128.89371679305447,80.98117597598603,166.60174945562235,0.5183484369739926,0.0682586060428052,0.8193295325442835,-135.06776142071774,82.06950925744113,-16.292505713173263,0.1118054826188926,0.0282117172111754,0.45608488076873,-197.33232056144251,18.37805286382644,46.210654922581504,0.369073538901415,0.1311154873303845,0.1283658856716694,-147.678232748304,29.503028295155737,84.38628398640718,1.1210446318247729,0.1390407159446628,0.8344334295773235
0.98,-128.69957413804195,81.26906244890553,166.93973052081537,0.277998946414926,0.3354318659170232,0.3371050723506519,-134.96644673106312,82.1090832620823,-16.90905600727952,0.3834661054691593,0.2250992553608196,0.4989674379895401,-197.50813160850535,18.436011999964933,47.75315520068188,0.1705218550054205,1.5218627384442387,0.3886406839155599,-147.19651291741414,29.74608931732782,85.02137022265882,1.2047845554357608,0.662130654115341,1.361412437863918
0.99,-128.3494312446388,81.22666275545457,167.06204222987145,0.0556603899556947,0.3370925750713824,0.252589494213777,-134.70310685168425,82.47924619227412,-17.207024647066866,0.3345020999553413,0.204826804418733,0.4650688957734176,-197.55606434905127,19.01088153486692,48.65399447837303,0.3674725092091431,0.9101229462719896,0.3152848800879425,-146.46052632417943,29.874594828141458,85.8999952049925,1.0073965943623162,0.4581284272976935,1.9930090721358316
1.0,-128.1151384428704,81.1809914965317,167.31536505760243,0.0144304167498374,0.3222477247453661,0.101536595289454,-134.4815183066228,81.99795719577254,-17.428430800491846,0.1099364784023557,0.4134921193522589,-0.0092480006922944,-197.60818279931357,19.12857168562408,49.74379897800124,0.790789773432008,0.2075768583375058,0.575363689393125,-145.45645482117098,30.040996667381403,86.51148735159212,1.123982950161835,-0.0331467835047411,1.0058302541841764
1.01,-127.9033007920439,81.59460065584562,167.7794048039563,0.1341132230409404,0.4123347349300131,0.0834195375513466,-134.34835691270337,82.25573117814993,-18.135122018686232,0.125219445633456,0.3351010738128583,-0.0743027956557233,-197.34000723934807,19.712283758351653,50.56423656510104,0.7012373558320437,0.672574246351042,0.5855388060869625,-145.26492331762472,30.299627344509,87.22346158830001,0.9650931640200868,0.530829653088806,0.6327486504261032
1.02,-127.74731343678926,81.58577801252774,167.95274417238883,0.3052792666677775,0.4826169714151801,0.0987756957277154,-134.17537131351952,82.23086011849921,-18.71166692387898,0.1085649296833967,0.569380044564492,0.0353924864195483,-197.23298909795545,20.05430261697831,51.83354425551038,0.454119748476376,0.3660777308012437,0.7116897728177711,-144.57003408673384,30.683785395806066,87.68650458765396,0.410963860032224,0.7820308218623395,0.2884577841499484
1.03,-127.42455374089435,81.5666509546985,167.75662086668748,-0.0713024238229611,0.4303174664829359,0.2901767347149516,-133.866030666153,82.18070000794198,-19.603485183385555,0.1338342846381264,0.9860233792278912,0.4023833427216557,-197.23788811739644,20.504500165440906,53.080150003033445,0.2621593838452443,0.2584963254149394,0.6280804659586721,-143.98227504080032,30.534352138940505,88.55975150273976,0.3770116393994014,0.8315504299553267,0.2686859570653875
1.04,-127.39174798841586,81.63343122066557,168.02714606452793,0.1514590838944977,0.2080286683451896,0.1741609424016796,-133.57080366702058,82.13895312073439,-20.982424755838064,0.2864634834629992,0.3002326764493055,0.5810852891479346,-196.4686744898393,21.61448927983912,53.98462116324294,0.2075866626502476,0.68324636707889,0.2819478397938121,-142.94838367422804,31.010015202826164,89.31824491901489,0.4704251066083496,0.6203640322263905,0.1765484728221898
1.05,-126.91240442383148,81.63592879093032,168.30907256953915,0.066890040263757,0.4962831164523733,0.2885634513459424,-133.55389529085963,82.19864470995897,-22.942261533474905,0.1229410439876697,0.7656370000270732,0.6374189472327991,-196.0490180442058,22.260357359747264,54.82727339463944,0.4557293444282862,0.9674459718512064,0.2787389969396032,-141.61203730411987,31.81711033085089,89.86565562282848,0.547155178449513,0.2686700247121855,0.247369367740335
1.06,-126.95120303604938,81.7766915530657,168.8275130428369,0.1028379467391256,0.6133222352557426,0.1778259641507243,-133.19990751546553,82.09762450007936,-23.68080433305261,0.4534720924125218,0.2843230779089391,1.239112017224052,-195.09844283405693,23.276729982726557,56.01814711959091,0.1898540072813666,0.8000376200665249,0.7266376573612798,-140.96128573730584,32.20347492186087,90.507165452997,0.3185607812777117,-0.0526255792086199,-0.0114517402169681
1.07,-126.37424520273504,81.59392909972186,169.63430675479785,0.347777213472201,0.1961246051698295,0.2447323839754092,-132.9063508841343,82.25125491553193,-23.140323901951025,0.4786092071872839,0.8104762563193451,1.466073185471718,-194.4060535237312,24.175104236982357,56.94168913304164,1.234128468735395,0.0143796324784812,0.982244198828347,-139.86184773744753,32.708743122632804,90.8846724353407,0.8793650764530588,0.9650798914337811,0.1819530861881279
1.08,-126.18522787462878,81.56158180965015,170.0915220141346,0.2507134745634116,0.0195972625363318,0.5945835881262391,-132.94118597201953,82.12964479851965,-22.73284865799617,0.7844864784829244,0.353287869557166,2.4288071276405416,-193.7095868960961,25.00600953167568,57.62541706286835,0.2873890925102947,0.2097989055091246,0.7713237471698822,-138.6151529889785,33.3655051701965,91.23906441907543,0.648865836419812,0.748249642635348,0.4804162308548952
1.09,-125.96300917886772,81.74971823792738,170.66528799081797,-0.131599091669863,0.1702011076468941,0.7856727378630316,-132.3004277614764,82.16405247765582,-25.29304608699461,0.6195146884178405,0.2295381999612059,1.5762932668010727,-192.62943072037515,26.17288489399146,58.22824921038307,0.2356458058618623,1.6530814452894758,1.1169405195976725,-137.63507160940918,34.1468736619482,91.6820859586476,1.5376715515134995,0.3432327286417108,1.0494001056732296
1.1,-125.36503402085256,81.5130867684301,171.40614132317702,-0.146588491517137,0.106237801500494,0.3431478871453125,-131.8398881175876,82.33326816683523,-27.72029978536319,0.1922666925431156,0.3701378543163472,0.7016991289537908,-191.4278454547589,27.298074148309016,59.10294681528677,0.3677853097112687,1.1208494188672398,1.0686495586418354,-136.6008324161183,34.54655005040471,91.88698472684855,2.599586127455962,0.0770668185440922,2.070533457676972
1.11,-124.84127131073284,81.89817381660647,172.51818647958146,0.2870056487619726,0.0865144258632553,0.4850047177795736,-131.56152397067976,82.10586017296431,-26.916257525553583,0.4201111453611298,0.2961975515612171,0.1430903916294413,-190.0242957049084,28.555046947127504,59.75997045264754,1.2783216291164732,0.3775599599420207,1.2956829377409564,-135.8882748036922,35.300798165954525,92.31260267793816,2.0283892370389878,-0.0297579701463787,0.7823699917575594
1.12,-124.07628557742194,82.16425485512325,173.57074182790163,0.2541827112862547,0.0425406359899702,0.411417529746052,-131.63692476142165,82.10864420854395,-27.06279877192892,0.5380182040221146,0.3674407598335742,0.9414711783036244,-189.0966156462825,29.56591832431563,60.678385508337406,1.373648260164135,0.6005060164957544,0.0913474417809205,-134.5038041273544,35.92885369251122,92.665279668519,1.9089861414593177,0.1579141971589843,0.4377344362670725
1.13,-124.17044543312896,82.39197564031207,173.86188344818385,0.035492078886138,0.1692134460837521,0.4966939557095507,-131.36424103478353,82.06108164151358,-28.68465262725544,0.8172922828579717,0.4231826185121706,0.218440860530621,-188.2341988456104,30.49535501602755,61.69326882138964,0.6978645713986411,0.1225127921732493,1.345226505327616,-133.0503908477547,36.668967670502255,92.97597802557983,2.0352141269804696,0.1801416005631169,0.0326492521997952
1.14,-123.71291707689346,82.41706851876827,173.86997494304063,0.1389376708794198,0.0268766646412837,0.746562502055847,-131.2937521384495,82.12623870097956,-28.82919260283885,0.7426492507055737,0.6586848931586794,0.444321869098118,-187.3796430056618,31.51574867678061,62.91308883415224,3.0759791511826737,1.2589363274657774,-0.0087119506434236,-132.81098610970474,36.80898676452192,92.8362880245317,0.4643650925636844,0.2177508433129879,1.276194299627779
1.15,-123.76418694675678,82.11541276250547,173.41883202624885,0.2355578022951658,0.2928595601428657,0.4166655433616199,-130.9007837171945,82.21354206946869,-28.78807041831912,0.2846950525546348,1.152961840029388,0.0884341694784471,-185.0890163301233,33.552778880776025,64.7940090800506,0.0968139764957876,0.2666883106778868,0.6106369516413125,-130.91923684732237,38.67395947775529,93.06500888815188,1.6870737227883523,0.7676130840725299,1.0867950972748193
1.16,-123.60079631071892,82.31449049050094,173.5421195559918,0.4423501948696746,0.6713673323615235,0.7869814914653753,-130.88528441345483,82.24913737229598,-29.410264006426814,0.4200215766227926,0.5854599137035483,0.2165312010207389,-184.22978865291168,34.15331141659303,66.09612304021313,0.6586198919104125,-0.0690189053837698,-0.0613186345557685,-130.5755108323991,38.86991365026651,93.34249912977435,0.2515605311259324,0.3498562460205798,0.7349180825506045
1.17,-123.59697207522922,82.23040365083492,173.39956925758187,0.5619901629120223,1.355958637799191,1.1233739212691247,-130.85253604494994,82.17576938165102,-29.338002046105327,0.645505526589387,0.0913378348675674,0.518365310982846,-183.8907803253822,34.47378463730552,67.30851103250602,2.2546614133501675,1.833584261756096,0.518200693684648,-130.11768120504354,39.45020520004596,93.2740185555428,0.2655530785813736,0.5375367897858832,0.7221421654970122
1.18,-123.996796282817,82.1754571943448,173.31616896440832,0.4460514354829408,1.6542831376575822,1.49507594568237,-131.04748579110833,82.44813987016329,-28.300109281198043,0.5155192178472934,0.3460437049497297,0.4234047363405442,-183.12454174459984,35.01070477451408,68.6662277323016,0.5101020439500494,0.3364034596530178,1.1140685776245818,-130.54616679911413,39.38978404562592,93.32117863374556,0.6154673300501622,0.027334157929356,0.7373280371713814
1.19,-124.78028922098903,82.2603744997055,172.65589103750202,0.5070125039386464,1.464646410544208,0.6135826405527126,-130.89659423384143,82.50924128084388,-25.83354489875904,0.1399998028076622,0.1470426645941442,0.6503339397894448,-181.6944562519605,35.643052126503385,69.92909312112559,0.4959049827925556,0.4732314138211628,0.4318794958484672,-130.8314962549412,39.55027168797284,93.46806720599976,0.819718327049111,1.9169325056561812,0.6978307899038536
1.2,-125.46540218244814,81.91163327946512,172.09163256595824,0.5059171539772639,1.2591735281508405,0.108871887323371,-131.47831821606147,82.65720050214792,-23.196845802064114,0.2156249117717394,0.8065429895675729,0.3255802827524217,-180.90358850501727,36.0198522178491,71.1872213929413,1.0165413768105451,0.3562223007889777,0.3097039317359768,-131.52091210730418,39.536847604301485,93.2455008739894,0.4655912753474436,0.8429249633783058,0.5366086288742726
1.21,-126.07913725667838,82.04314165078719,171.72840177254466,0.1554301461825958,0.8836381952709587,0.7784324448762613,-131.7782290853973,82.89187072102264,-21.160918375331963,0.0481569219842794,0.7280075092676433,0.427302259298138,-180.16231444025908,36.40366264747617,72.72026541117455,0.4277354240329047,0.5752695995409585,0.2488653908300631,-131.93628125492333,39.48212554835065,93.1935064751558,0.0750089889506238,0.5190259804396244,1.0428501247321524
1.22,-126.89330567436384,82.28112940162457,171.28816206064278,0.6599897243343535,0.6303081661785223,0.6408835437807305,-132.01454301719906,82.89316308840553,-18.31420699262052,0.1226290658435272,1.0423112797852905,0.2068653535545213,-179.4176181279189,36.98584568855513,74.45699158552331,0.0817664074608004,1.394943151882636,1.1904108993381906,-132.14643023817598,39.42924099147464,93.1053376510558,0.3243423556230841,0.6492430544341533,0.521323385243191
1.23,-127.61435403765633,81.93386038487412,170.64283348687238,1.3615196451974638,0.2633991633107907,0.532286988638518,-132.36107189638128,83.07909404397155,-16.212829312551296,0.3466490164135081,1.3818564127645605,0.1533263932556568,-178.56661476293667,37.55102953162659,75.96826843457693,0.5186578005480489,0.4450298970402773,1.3724527787823155,-132.8034548298276,39.57221367182881,93.00131711476068,0.4003232637399935,0.1548132652372019,0.0534675010712355
1.24,-128.4430977656141,81.80512322772039,169.68517619932211,2.493240189343167,0.4894581283682755,0.6951794727059915,-133.02543673400365,83.24639137614678,-16.29760740532785,0.7355437322053503,1.9382587402386129,0.8513870418057422,-177.48593001370514,38.22661436647809,77.11557741664637,0.899404445231452,1.184895409817672,0.9177020330883592,-132.79588053774094,39.779736272096905,92.9333321030792,-0.0242688140762996,0.2276298170093912,0.0454525014963855
1.25,-128.9452547482087,81.4668430270024,168.01921378045483,0.6808639750707001,0.3804812250746752,0.6482390840035204,-133.57721880094684,83.55747069864519,-16.48000411197902,1.1202662373617411,0.2323050560709384,-0.0320066601829611,-176.28584496071545,38.95197851818399,78.37162338809306,1.3845406215083047,1.901352877900507,0.5630210009124329,-133.81927754258408,39.89984703013592,92.50970155824491,2.370996647582906,0.0930854962016191,0.531940075228279
1.26,-129.15490757883538,81.29661652440939,165.78986729100723,0.0602304958985503,0.9513543405189354,0.7586435910968783,-134.018038939491,83.54618766506128,-16.255162281208456,1.143764178949456,0.9238841541131972,0.6277580694529777,-175.67562848598584,39.159554736799286,79.42340383584956,0.7430551902170667,-0.0158977815520704,0.2791560666602798,-134.79808306231186,39.95681494562045,92.07522868623272,0.5495400699361686,0.7848862878477278,1.7761891736159277
1.27,-129.47553985139896,80.82373016458321,164.40851914141024,1.0851316064816112,0.6686282899122781,0.92038693025087,-134.22132364705607,83.381851334187,-16.282562612460055,0.756768236926437,0.8310945534396075,1.0266556476678736,-174.81959572591018,39.097839789606354,80.63366715616873,1.028781747976496,1.3272859209005887,0.2908330255023487,-134.79849609072218,40.15623488728093,91.85377854775616,0.3540306332907805,1.5172563094525504,1.7721724644636028
1.28,-129.34270992389787,80.4329644681869,163.575193202944,1.1309343799603584,0.4975296116545259,0.1542027364639009,-134.3723718231234,83.39558126181974,-16.00001243960056,0.7061195520448985,0.7414826813070972,1.4790936364802008,-174.37091573665927,39.07407594983772,81.64822094389963,1.4792679561773014,2.4917569900042724,0.1454366287199512,-135.66058073229755,40.20087589980904,91.46678591721071,0.3387990064815942,1.539620625352636,0.5248242558652472
1.29,-128.95182275596315,80.16389474342745,163.6540223814205,1.4961896989334431,1.5441365150083963,0.4194825764926291,-134.60214811845665,83.69389794692825,-15.854942758973715,1.2024045348103627,1.1741680156398293,0.4651877039679979,-173.32519356304286,39.24330178142551,82.31895880462481,0.3040734614771714,2.624902448667941,1.1539649046997007,-136.85623021578456,39.76812269615579,90.92065545024958,0.2437540837649878,0.3357204820920724,0.6142789177248518
1.3,-128.2930321190189,80.22325895835644,164.86365437389955,0.1707445867486872,1.1870268128978558,0.7321385404163668,-134.6693625619757,83.65389175315362,-15.613939401075536,0.9009806586691324,0.8027234922030774,0.4656736333271171,-172.72912491264728,39.149637317413934,83.2645720306073,-0.0634037633057014,1.5101927704198064,0.9425800194524938,-138.00616026151687,39.58577313367537,90.61051083617936,0.9191908026741004,0.3222288641547958,0.3701687629663055
1.31,-127.93711568532296,80.11024064969054,165.70442086644556,0.6409649043130271,0.6718310280744524,0.2003361949211816,-134.50676826399862,83.69069148824114,-15.595148124628516,0.7560859931633576,0.5357466100285762,0.664502583415651,-172.3747264394258,38.894503582380665,84.20350218640358,0.8730331631154633,0.1399485808009883,1.3361293716339564,-138.609753672777,39.40952407121671,90.3196494128926,1.256271564485517,0.8592148971836941,0.7531183841269486
1.32,-127.59790647695678,79.89489775759709,166.64630057271566,0.4103001957463121,0.5854884860184231,0.4586135848248411,-134.1923378050167,83.65994006867005,-15.512142874706235,0.0492143669749653,1.5913791220746902,0.6202074793196002,-172.06871093384348,38.88321853395895,85.09819543713685,0.1922227380212046,1.1474304466576382,2.282893696429873,-139.23812908345695,39.046653669511976,89.47482303321716,1.2537496227192348,1.3759283196644732,0.9923626160870982
1.33,-126.8702678979652,79.76582937821838,167.42653399485778,0.1801462966948727,0.316609621284223,0.7594515717299111,-133.8788004294745,83.4986279614352,-15.63633604838906,1.6114120173119717,1.0408117174525915,-0.0431970942896188,-171.56923955651305,39.31087531281559,85.62845595217395,-0.2971173377113644,1.8695725579682991,0.546605263988592,-139.86243899407077,38.74291686545213,88.94537170084503,0.6814477816655294,0.7424622827499664,0.215433585388444
1.34,-126.27906387031608,79.30987579414254,168.36668773882175,0.885350433282011,-0.0318825753594878,0.5559692036354112,-133.3449728739424,82.94938328700636,-15.6061551832568,0.1626376504013968,1.0636534490019525,0.7578510477610559,-169.82591092539124,39.47752200431551,86.80558903971684,1.5142515877628726,2.039766136940336,3.729375263161164,-139.64686708997817,39.68226494424437,88.67786659624686,0.0952484713463476,1.4642411647841374,1.2865608683247725
1.35,-125.74546889934015,79.37204507678072,168.97246707280402,1.1697563884335602,0.0011598199189276,0.351361989312511,-132.8858477570132,83.34341727953094,-15.52245116491455,0.2869944338285091,0.3471180378489833,0.4829176429157366,-168.8837922508262,39.56618615884828,87.23420050427835,0.6470307385245284,0.1620752079531882,1.80057711032241,-139.8441034359393,39.54741381769712,88.32238871563818,0.4186611562512658,1.258106703649161,1.5676554789802384
1.36,-125.48530349394736,78.99987042423618,169.59921621244322,0.7975089709284902,0.1017483554633827,0.7856301438732828,-132.9223644346762,83.10575395172017,-15.483469869943608,0.881441225005532,0.4414986627320813,0.1539920729696869,-168.15866698637677,39.887065719247765,87.478002156304,2.153240417231064,2.071719224016592,0.0203749891802855,-140.24033153124617,39.48547203466244,87.68545014562302,0.1776713856362735,1.2969058007367245,1.7713597123678675
1.37,-124.93826038950004,78.8457518554259,170.07793424284804,-0.083434358400099,1.0322989963736393,1.589112752884152,-132.6385819716026,83.12241585946614,-15.425387932178968,1.066868181816241,0.2775353891296938,0.2999259846961901,-166.83331232590294,40.606008166087946,87.81376835239347,2.352420189718759,0.9098566900415423,0.92347579819512,-139.99832628988406,39.7656822372518,87.47666523510622,-0.0188959167528003,1.0799573490184549,1.9312347187946413
1.38,-124.64579811017164,78.75377542577984,170.47272054986365,0.479724503074988,1.041442677141089,1.5538824205966764,-132.44711512404157,83.02143211292363,-15.555684090602789,0.6705135232847619,0.0039614358400959,0.957691021900296,-165.29284812817494,41.15614918802403,88.05977465394045,2.061052824956981,3.269956306992476,0.7458424088363877,-139.5494447349159,40.34997370832698,87.07688853475045,1.0474035925922047,0.650957550512357,0.286846087562455
1.39,-124.12695079046702,78.61890276666927,171.36963021137413,0.3905866390336489,0.2274520025651594,0.7471988435392084,-132.2614965637703,82.92780221275294,-14.682780057721512,0.9705817704202808,0.2363498045102094,1.195410570563148,-164.52683702782585,41.47038675955654,88.52315126612584,-0.0222628049365941,4.306337220306131,1.3272837917425222,-139.8089471099707,40.42796518959536,86.5826436719861,1.885880615040372,0.5608547910758662,0.0231676885774313
1.4,-123.62516722270864,78.41121239263289,172.14110426694708,0.4948117005493743,-0.0110698350768193,0.3241496905999651,-132.01711009573307,82.97084490969819,-13.69597766620564,1.2215152310014326,0.6384835493855003,0.6695607870735697,-164.32542761623574,41.117799191555534,88.76146180333944,0.7611517934472106,0.3773417678482532,0.1511461018012015,-140.5626411783157,40.091500923402094,86.14233309184577,1.2340708084259338,0.2348256289117911,1.77803274415606
1.41,-122.95333177185071,78.09040340202034,172.88998136237367,0.0370326697749442,0.3590096888473695,0.1486939929195674,-131.66646097969902,82.57688510341364,-12.669756034669824,1.1369165167497464,0.6806479188118357,0.332594924044709,-165.05166015938758,40.05102397169022,89.04978489017239,1.018465757576892,2.1467589687399373,1.5580913240389076,-140.8257859988507,40.06097754527448,85.69373106526612,1.098203182827818,0.5815313382944132,2.053506381648346
1.42,-122.54609812895497,77.88964550011299,173.22947605538465,1.1084780302060382,0.5012623272951995,0.2866674233959597,-131.23652407638116,82.44839958045509,-10.49972177080629,0.5616586499639828,0.9274416873353012,0.1546825259449725,-165.105081481901,39.64035392793832,89.72793516835998,1.4020462655403505,0.5782680127358855,0.2371382704128076,-140.96458336935115,39.97985350346824,85.22695179523838,0.5533186135012038,0.9974391434158828,2.2490754447456074
1.43,-122.1801709991519,77.92267575271266,173.9880558375842,1.2427611557414222,0.6602698402400221,0.1718250169492525,-130.9515970928196,82.29682841133602,-9.392460691792593,0.2260249324319533,0.1103610914325374,0.3535184864486592,-164.57655733705727,39.51854029758599,89.53540733462361,1.7516963373903978,0.3461505026640025,1.4577766636812397,-141.03862056362243,40.10625641880994,84.85833598723404,0.3110597546940951,1.1217289508162256,0.1903542128927489
1.44,-121.92900319825443,77.66172604742113,174.23773740730633,0.6551617171637608,0.2615855512300048,0.3142862934494205,-130.5981865309223,82.24996430034679,-8.508802725903674,0.1929349499336475,0.1075829305911488,0.1637339383785872,-164.02804752650903,39.79801908949163,89.48801436687378,0.1340625623190419,0.2104626625199626,2.839934252871951,-141.48163975883236,39.65595422214637,84.68329995312445,0.794755199955003,0.7080514339195341,0.3465468994742734
1.45,-121.6482732270547,77.45139343483825,174.65198410545423,0.4107566168266923,0.5202275781770679,0.601230538741384,-130.3695656699992,82.02437504158851,-7.408578958539111,0.4000438368644042,0.1819395740225508,0.4341205773399305,-163.30761562511648,40.32180819648908,89.48077743921986,1.0857560879903208,1.1158720392486852,0.9736133828385553,-141.518930779879,39.584930859415145,84.20012125117917,1.5520573644818163,2.769082404235715,1.7867068149358414
1.46,-121.40043687963863,77.30334284852107,174.44603579917492,-0.0107712689192627,0.478964751129436,1.0404476187333471,-130.174672053169,81.93743771056633,-6.824835283295179,0.3993596357371579,0.6406968412171044,0.1207131022194102,-162.2815088810385,41.09082105238935,89.35893583129779,1.405360495286767,0.4721302742777192,0.6294075201824998,-140.7223396377842,40.030748761512015,84.17901908299453,0.4765170662660669,1.2988605871801928,2.1992730152627806
1.47,-121.19410834905923,77.1502051281329,174.5261733330969,0.3031157269386728,0.156481232370107,0.8880538289000618,-130.21316699847935,81.74788376153612,-6.408928170621552,0.2758742418544528,0.57323805727798,1.8740985286756884,-161.57721271940522,41.435990233367065,89.22117059830087,0.641163037909646,2.523309537045692,1.7591302755941205,-140.3696167473619,40.430625237734986,84.28016071811703,0.4232502208830367,1.0631842430566611,1.050047189411312
1.48,-121.11489417292236,77.20105379595097,174.96542808574952,0.4910787488051544,0.1892645711312064,0.6132197440861947,-129.9978022273648,81.80781754957454,-5.858526127625305,0.3573099209606849,0.8104500850424893,1.0918409506654363,-160.72930768832538,41.73253029421467,89.27554333073799,0.4094123277434732,2.027263113031575,1.6853954012957142,-140.39248675545574,40.248943120447215,83.93441051728234,0.5766576277458293,2.9910357692036844,0.4355597201703968
1.49,-120.85115408644695,76.9508081626794,175.08211210571628,-0.1632370562041823,0.4080714219370008,0.567692294795989,-129.9625593352009,81.49267998742178,-5.223310287327101,0.1957324406986036,0.8440993025010076,0.3812050917225096,-161.16270145421734,41.37176720053,89.06505459654795,1.3632848162366262,1.576748522200344,1.0361345639495454,-140.35725469718608,40.27260574635154,83.82501550337325,0.1952389219970673,0.0187069448197054,2.0900142380638957
1.5,-120.59040261227082,76.93323483103366,175.16856197058146,0.1350412202634647,0.2670539820375399,0.3860087426859868,-129.64604328115027,81.38261207620506,-3.584940957716244,0.8726906362409218,0.6646225609645582,0.0427733605047093,-161.07186791586864,41.498418884576274,89.09190198383482,1.8559836341014797,1.0659124504445612,0.92500316150771,-139.88971035935742,40.602926285113234,83.93691869005076,1.6946096736477232,0.6568930332994298,2.336827760777375
1.51,-120.43567343272132,76.89276666935018,175.32397924416722,-0.0992618554790327,-0.0203728047694652,0.6037190398573664,-129.3841322919899,81.2207950352231,-3.301528644554656,0.5616766526963124,0.4873805995883317,0.5633286178511981,-160.95557908880042,41.56571701130624,89.08839939840912,2.066396171060962,0.3985947855987983,0.5440814643746916,-139.16964648884064,40.80022223880893,84.00969333731551,1.4109214273404145,0.8138075375858049,1.1200709981953665
1.52,-120.21971447853414,76.64384446978046,175.70378793486935,0.130934813062735,0.4729290814777385,0.8570458250798625,-128.95169254255768,81.20948333444566,-2.840747810778343,0.1314696716569156,0.1688112700718614,1.085919910989399,-159.9986132944073,42.817588107580605,88.79401238709464,2.604669168336236,1.2756546104000412,0.4106146474666807,-138.40245405240498,41.22667787583798,84.36089974598794,1.2036690134851344,0.8042361391085041,0.1429718291819251
1.53,-119.81637245842502,76.53922759040809,175.93879123525426,0.2624022532700173,0.4418527634556044,0.5016918415585697,-128.6187942021913,81.02738742645977,-2.836256471736127,0.663323879517363,1.0381632589841117,0.4870228836597458,-159.36409893781354,43.30271762989474,88.39361447297996,0.0023510002874602,0.2204214057956492,1.3325812458238326,-137.54114241780394,41.85391488905357,84.33950702545503,1.058557230551402,1.6108873519771472,1.5051446551406946
1.54,-119.60321187921656,76.80866315623274,176.06927649348924,0.3487557088489407,0.6724028351256156,0.4824158456087963,-128.46344423706256,81.02521628478375,-3.3930934985716203,0.7996143793655601,0.8144576899447951,1.4364631284219769,-159.74049248954037,42.52406464065909,88.55672931800066,0.774959938292485,1.239027226972429,0.1106830930396479,-137.6076804899207,41.63491349595593,84.13017554122993,0.2415150118955848,0.6752801301649826,1.2498110512198046
1.55,-119.18736687855989,76.70150424413578,176.60770783707807,1.1175089744927411,-0.1471155368966207,0.5761635269138463,-128.42860481308753,81.04864160861086,-3.992763820094968,0.0582905598682455,0.6986839921720631,0.7512711475288946,-159.95674975818642,42.55060274129098,88.30798727406804,0.8349069245010836,1.4013783468353962,0.000169912044915,-137.5390891655933,41.4247590136719,83.96951687027193,0.3528261461748403,0.034384896487522,0.5242941354208734
1.56,-118.84223804199377,76.74763809793406,177.20047154149023,1.0653082014241382,0.0437465596149543,0.367988003649492,-128.13612935896876,80.7482687284359,-3.368073604853666,-0.0161729978975675,0.2733790289196109,0.2099627041684356,-159.61242071284647,42.32780649540925,88.43311800033499,0.9174881486512236,1.1709980287981234,1.3444481559828811,-137.29607587674835,41.85776956131468,83.70975263126633,-0.0281683655384681,0.5983992313836144,1.363622837985411
1.57,-118.61733339558728,76.71703506307752,177.20389731651258,1.5976729777992509,0.2154880392137403,0.1264377394256548,-127.75965169435074,80.84745722376108,-3.156574542903908,1.166594921952746,0.0113714203409697,0.4269415110114766,-159.51823838603684,42.46531748706593,88.048919139525,1.983052153015596,1.8135176914626203,1.7238602990826404,-137.36634604507776,41.6425226476136,83.46082791700466,1.4108974038516098,2.074504228266137,0.2858157932226119
1.58,-118.62262031759992,76.76788385261773,177.44538824795717,0.765605682281177,0.0004664112943652,0.2815487575578889,-127.292131673461,80.86861815681854,-4.372315200083873,0.5674996394385143,0.8333906089908628,0.586485206997225,-160.0940480751239,42.13227648605973,87.90965677577894,0.6454997744873863,-0.0091336172120585,1.087326091130603,-137.7501290916763,41.39765798984941,83.26571016625937,2.0152154381164085,1.3263254809776062,1.246532478979763
1.59,-118.3147954275893,76.43223661643258,177.70116447730092,0.6293487480707042,0.4925936499211909,0.6914304624879252,-127.25496196967627,80.76883239816007,-4.744547006675858,1.248254870106217,0.980349345237196,0.6902082430481337,-159.83867483151144,42.39517165517654,87.58248641257045,1.2206577014440525,0.3752444001171379,0.7391025912097194,-137.9307007099904,41.21882522579163,83.26807578073233,2.4029143775573107,0.4205244142717483,2.120605819152133
1.6,-118.43242899803631,76.44144995132879,178.05164757381695,0.2138866861889687,0.4525891475029899,0.4630887828082828,-126.82244877082292,80.71477677994312,-3.780427745916641,0.7667235976221689,-0.0001089240806462,0.686641610679428,-159.44447664755248,42.488157828121054,87.71042860746446,1.645568757366745,1.0316089050445716,-0.0216491844161172,-137.3961502421176,41.543541473287206,83.22596432899246,0.6077208513571297,-0.080287043276518,0.5615551420530426
1.61,-118.22109098191326,76.55160015642815,178.2012177320337,0.4299186869473391,0.2323923197746715,0.6480372860547398,-126.8119725453089,80.58542924423418,-3.886054772888616,1.0993600914951829,0.2690850273553808,0.0775473931684425,-158.83361338196096,43.040104347298346,87.45225058639674,0.7019763650462255,0.5228585282610276,1.6873883798675953,-136.92856773411958,41.863285572824985,83.01346737128266,0.4504801432483919,-0.2042910207779631,1.2471275800436767
1.62,-118.18865286801804,76.37045964123291,178.42223741456218,0.2141254153326428,0.278862405628656,0.9433383092360026,-126.58664566541832,80.38747637204126,-3.6772283004447823,0.7839804898447077,0.1761276655885234,0.3355857433833963,-158.89463943001616,42.712019075014965,87.70987996451615,0.8566422685803757,-0.0054664831134925,1.9085289361721207,-137.28402011814634,41.42107426307576,82.76509168222343,1.3396530747967972,1.1830131059604625,1.6808255872233282
1.63,-118.29007784574976,76.4777609490398,178.31277902201023,0.1955558855978956,0.4649941573413003,0.7890503629637244,-126.19084502265514,80.25119389598957,-3.7338274769705,0.3751001237335692,0.2538852008850429,1.3967303450131867,-159.1292927542795,42.48073539726005,88.14586315311813,0.8015941144131431,0.5139701563915527,1.330926629878228,-137.52995399382326,41.27619109242912,83.00522073584554,1.050654336470099,1.079399620498451,0.7765150057868516
1.64,-118.18194961919194,76.41958542276252,178.25595089156332,0.8353222094016842,0.3663033060614818,0.5888069417552847,-126.16287378349844,80.20171980127722,-4.095842226946577,0.116770306370065,0.2529000176563261,1.239773165897838,-159.3853512930005,42.58399364426097,88.1819607331602,0.4064116023551788,0.451148973554183,0.3655444911483926,-137.38200563968803,41.13856450388774,83.560581119158,0.8959542180432176,0.1695926979248783,0.9456354826376522
1.65,-118.2075389792238,76.33887759533668,178.38518335411322,-0.1058664194025259,0.1469314443162803,0.5032165447328345,-126.5195149869657,80.2661944769937,-4.518616644222173,0.1127686827329034,0.2716805921239256,0.0184625809102886,-159.48907342294945,43.31750882318188,88.14607883378315,0.9319483300979756,0.2628315823437753,0.7066597247471857,-137.19336368659287,41.230721619784894,83.45559163157337,0.3451357671300722,0.434901317380773,1.5906237589726189
1.66,-118.10924296913048,76.39299816187075,178.64359741382412,0.3161337561278411,0.1704167333848009,0.3878808881886932,-126.4964792152574,80.29727906547772,-4.322769754758147,-0.0139303421132504,0.0261941025156924,0.772056120623377,-158.66860640483333,43.86980168070285,88.12551473998789,0.6579628537438957,0.8592151849732514,1.5170740808689975,-136.80866167815836,41.489096508205066,83.64623840330111,0.4127820647363825,1.1691290200835314,0.8378970658401186
1.67,-118.19188334872464,76.4756757635257,178.9174431429169,0.4056620571233746,0.2225844327247091,0.532725621821802,-126.51561020258076,79.93320907215178,-3.782819124044641,-0.01386507830892,0.1435755796479235,0.4441317602106116,-158.4336142542934,43.903689310854304,88.4131145642067,-0.0183218661681913,1.1758888734189124,1.1149636312405902,-136.38889883430494,41.7332858406638,84.0428928117628,0.4967560196861176,-0.1323825237849411,0.6646861621022647
1.68,-118.1890907442782,76.28801878116934,178.94956528092814,0.2100608812123167,0.2199314300155592,0.5261122808788878,-126.5041188288637,80.04412399782635,-3.536128961357038,0.3858445006622385,-0.0261945672894047,0.1250840517644864,-158.9151646562007,43.93096057668169,88.45810609667346,0.5453825697027066,1.185574156191854,0.0363888871673566,-135.95306404939495,41.880326318517966,83.95688353751504,0.4185399071677479,0.0375015036454204,1.114822726578801
1.69,-118.32501545596844,76.37764153539153,179.3679034087143,0.1410805105835837,0.2873907727407762,0.3015045683632483,-126.60678675857372,80.23201534456368,-3.210868264689282,0.0043934115688556,0.4513322727868827,0.4171340329960565,-158.933103945254,43.941580785418914,88.6184418564964,0.6921806370597222,1.228143727139535,0.3285292835018248,-135.94921921086177,41.784695460102576,84.22388066898242,0.3263850175057944,0.0288554871201468,1.2839077551693996
1.7,-118.18367865384108,76.20067522140985,179.47938751881742,0.0396772470535554,0.4041098353821034,0.576402232569436,-126.73289250218969,79.97381385595394,-3.1733458120322875,0.5080392316721913,0.3944097118765375,0.7818375950337395,-158.99201826008624,43.93624421989776,88.50940312371644,0.672834908487048,1.4414412610270229,0.6658503513531041,-136.16881847465496,41.84302657332763,84.28598443602299,1.1464161647888444,0.2420441959235245,0.3227622668197213
1.71,-118.40253699504451,76.3362018557844,179.32028712986622,0.0188651528898491,0.0586484443960135,0.5561943973823442,-126.84233724542446,80.17294729919286,-3.087767879844574,0.7280342229776977,0.3626537069477364,1.1260224910878398,-158.7674040804164,44.154788621684624,88.91591939484087,0.7971542843271564,1.049863238948071,0.1115122020739257,-135.7454947770687,42.15496957380164,84.14952402941336,0.909354654346714,0.5147605687370734,0.4572760852720488
1.72,-117.9463551679524,76.22700617830812,179.34473421896848,0.0702621317789731,0.2744569129378112,0.5680748481309847,-126.66098594394978,80.21092908686825,-3.324704269626908,0.3922238425690101,0.1829143294775014,0.3091277761002191,-158.6347341904731,44.32345884478169,88.82024196345742,-0.0542592418997865,0.330588707039095,0.1684719161693872,-135.76122488335344,42.68598252616604,84.29030237644686,0.5093129241882449,0.7969961813322262,1.4885998675385137
1.73,-117.98990135986406,76.2752293467985,179.84976012843822,0.6089844691607232,-0.1356306156802481,0.6117193567179766,-126.66165092309848,80.01832984840506,-2.846532915671427,0.781295874325695,0.1728363674417699,0.7252825146246865,-158.63755328923872,44.42008750989481,89.47751202480077,1.025173122646352,0.2240908720868818,0.2737235097548801,-136.05057202657872,42.46114042693517,84.1405589175181,0.1346901240017162,0.8280927351910148,0.8917426665727566
1.74,-117.84207639340624,76.41781703217875,179.89251687686863,0.5715243809733564,0.0833599614236655,0.5807850481190479,-126.5716346586659,79.70279430834677,-3.1149758606317235,0.0626225253424413,-0.1368220856528691,0.0215344768837833,-158.73428487892582,44.45084304762975,89.6569688707471,0.7496741932423543,1.607091931547663,0.6955926840783563,-136.15605972813202,42.24987940223808,83.82806231499822,0.7374005110364257,0.0432437273726575,0.1224335288413009
1.75,-117.81631304342424,76.39155703849599,179.84477313325414,0.1115941075258006,0.1546038019383476,0.3898682115380213,-126.5624242200156,80.09959802625895,-4.42368919287168,0.4440589715149384,-0.0128858122392728,1.637005941118363,-158.4465641441949,44.58900381283179,89.39144352669287,0.2527966292068985,0.0094001741523288,0.6839525788566194,-135.92432476172883,42.82371957861144,83.94540493426672,0.6939704973074909,1.5923312272227823,1.0561837485609928
1.76,-117.6562189800526,76.55729512730484,179.9024845202408,0.2364437532862861,0.1347602237566045,0.5270853956299493,-126.74579915709728,80.21165493695705,-4.707801627947374,0.5564099974575919,0.4541032234011192,0.5248352507487236,-158.33118123536457,44.71439524583144,89.14821762248268,1.3205121381095115,1.4533428754016546,0.7126940571831979,-135.74432271995934,43.23249372585579,84.04721274961169,0.7599153951546869,0.4495812194681848,2.6043232858863927
1.77,-117.58779116984849,76.34806425091914,179.62319212728178,0.2860816489190665,0.1484482267915763,0.644597186476645,-126.46312361757052,80.08301091436901,-4.33499857679096,0.4805001266370605,0.099094882631879,0.5475986007407575,-158.82276472104743,44.95614470069896,89.47025799826615,0.0354121659458081,1.4498102993587068,0.6968447686960627,-135.58790541097648,42.80657267167495,83.8297322948713,1.4402486084963824,1.6474438799130076,1.3311686706818482
1.78,-117.31965394057848,76.48203915732469,179.37953113658358,0.6979041655776549,0.2648513532575363,0.6480917537872137,-126.07173997991916,79.63293132459853,-3.4491704677242554,0.244773777952989,0.1800712795172953,0.088309923572295,-158.70269387509387,44.9328703857211,89.4764797441867,0.904332216048457,-0.0299954738903585,0.1395421115897275,-135.76855150904302,42.94676948887084,84.08729472708859,1.3415092795812829,1.3200931069097503,0.8580007127383467
1.79,-117.08621550500597,76.32280514639237,179.49322303894496,0.8853256564066172,0.75618708805357,0.3112516129407058,-126.04548698703748,79.83076017703787,-3.749249148603637,0.2432094875900451,0.0964277201242825,1.3220304079423026,-158.30556534959445,45.41379427535141,89.62907496412451,0.9523202132383934,1.1512487124889477,0.2586254265401725,-135.03041561003204,43.474423244433225,84.200124449793,0.2222292621498408,0.4502362564344395,0.0895794314766866
1.8,-117.07215466288524,76.40013644765929,179.00938678675297,0.5211766567584659,0.4909165466548798,-0.1557144887545552,-126.00412444603924,79.74924392625368,-4.495787690068152,0.2445637562989932,0.1131077564862712,0.6446540977854172,-157.98452569565777,45.537845173641145,89.59440617187033,0.9491981569030348,1.1556139536929455,0.2535906747088995,-134.53070261441425,44.10305001079031,84.3341410061781,0.6164019272627664,0.1375821171202582,1.0643115431454384
1.81,-116.9648896013336,76.20348628558492,179.03453605224746,0.0291384587671552,0.147542620500941,0.3566834775967342,-125.48612751104277,79.77569830176462,-5.090899209161588,0.0238138965501577,0.2894051910244582,0.3588399805621029,-157.9664140219917,45.56108736458384,89.73684587393855,0.9167029185765718,0.2391209695455614,0.3579605595558537,-135.0947802982168,43.95340917190583,84.38736222021907,0.8455875626568572,-0.0437650539618289,0.9120221198034948
1.82,-116.92233756684118,76.32308593854835,178.95802413033843,0.3229116580090251,0.2841823707231515,0.7691847897099088,-125.54885832456284,79.9701894374875,-4.54451467494535,0.0148850451352801,0.2480824044939755,0.266383342164603,-157.911867782916,45.58255719832282,89.5313717787933,1.020199455433391,0.3054422523336367,0.3488975749626989,-135.4758352134897,43.73120451222436,84.56967666243543,0.867527699968427,0.6534771101795982,0.928849797339968
1.83,-116.94221108984452,76.06823058429802,179.21532394268104,0.2657714110796744,0.0929635947140348,0.8044649955206885,-125.5040213476994,79.40293089786726,-4.764595150567487,0.5417427870534046,0.0941118835919242,0.9884029750393408,-158.22182532886308,45.451961971686565,89.61021565183064,1.0286145337809844,0.4870554140450349,0.3693153149796041,-135.551644696459,43.60303181755112,84.51391501117419,0.5668146945157707,0.4209090898285604,0.8339079906896965
1.84,-116.85941108324768,76.08401432985363,179.1955364054925,0.1122449032464852,0.3826218534259333,0.6655599246094399,-125.57689187507498,79.74092445072291,-5.460008531780795,-0.0855016665384431,0.3878101186497821,0.7490628701036136,-158.19339570469674,45.32253954934551,89.6002099281149,0.0760224400598552,1.5366408100948663,0.8868923832007927,-135.6887318831557,43.502685643993466,84.67383400649467,0.2250661026408603,0.2645152894807067,0.919699024651322
1.85,-116.78880118114336,75.85801169307861,179.12792896953718,0.4074260451716159,0.1768156787820047,0.4392381630702155,-125.14421294682592,79.5939222774277,-5.716746391034202,1.029788511171048,0.4871297002099318,0.1412260571341659,-158.37480871279246,44.94919250472129,89.47367552691148,0.7574773585985379,0.4113216337257181,1.186690297268956,-136.1811820708321,43.04767413995339,84.48800538724568,0.475361460848384,-0.1249624668559808,1.1251012169813754
1.86,-116.50472858702868,76.17124398992796,179.25104321203943,0.1839973689489283,0.1340181599378129,0.5095751002575714,-125.15329892407668,79.67780971942547,-5.125379021675093,0.7006648250582006,-0.005306768908758,0.2646856172651836,-158.61466222880625,44.92897519538623,89.58083936260329,0.2520707745754483,0.6525806399408127,0.6150728582131021,-136.90502544659336,42.66556711045818,84.39893747667118,0.213376459773272,1.457285269311129,1.219808845800835
1.87,-116.51189305941374,75.89488101317272,179.20184899893204,0.1856436186200213,0.1276376552058802,0.4951168119310176,-125.18059591032672,79.66272999789676,-5.994237063503912,0.4711910155618612,0.3668283099159596,0.3943931502700349,-158.69013357463405,44.576563362611175,89.4168115900093,0.7152027596805592,0.1388592900943788,0.1824007372963408,-137.24038189085508,42.039224333428734,84.29531584351167,0.9288037180540742,0.1580511997012087,1.0304582504108744
1.88,-116.44134642015604,76.25309155836983,179.12662325879322,0.0478500291514761,0.4047334849965407,0.0933970409667957,-125.09994242900363,79.56428279913935,-6.512980408873199,0.2225720865303199,0.4079532129727536,0.3351190898746321,-158.69160322353702,44.58806266780682,89.19486510996707,0.3028751661080404,1.108491505267139,1.253377366721733,-137.09522214092178,41.85566109239468,84.47493300876722,0.7352670519838067,1.2638724156595456,1.1644451588336282
1.89,-116.36595585697349,76.0105461645512,179.041198370737,0.0899576176380035,0.4120639577652081,0.7103884933719792,-125.14297519434244,79.45739755153812,-7.054492091957741,0.1180444692949921,0.084305705634765,0.1348255504804668,-158.639315965601,44.52435589433007,88.64743412083519,0.8525648120440441,0.54675020261843,1.2359990927584708,-136.9666634202751,42.00612159621824,84.32925804545704,0.3455725098519194,0.1690766366991871,2.019112006858616
1.9,-116.48454033632524,75.97655839119037,179.09183792520483,0.0100967023815817,0.2214496258778361,0.5685056461288309,-124.82349098518672,79.37373437586295,-6.466459024918291,0.1093780828902362,0.1658219638711535,0.3160391417589661,-159.1910451650522,44.30383297036097,88.39060406015808,0.7800447235324123,1.355027564787991,0.1792346980258616,-137.8839930833469,41.06211968664603,84.26954235419545,0.3223864165247119,2.079823003342499,0.3001899802655277
1.91,-116.31663115382452,75.90710978390962,178.84593657230147,0.2322429915906937,0.2457202468325206,0.282138109137177,-124.90182875143284,79.33990759261505,-6.400761178893,0.1837825769045392,0.2137615202692012,0.4118462469195181,-158.9913677295758,44.165256938901095,87.7050145376595,0.2222928087037856,-0.0094949117911009,1.0018166375824933,-138.17409569273892,40.44532462635674,84.27611424113012,0.6129507706570738,0.3260915348785616,0.3754907419815549
1.92,-116.55098584210155,75.95966384497778,178.77625759454418,0.2152998819848476,-0.0580754792621639,0.0395673590009852,-124.77375270504272,79.24438751857856,-6.925369406904913,0.4423334376983033,0.2011500501935967,0.3480594555544842,-158.521515388959,44.27665472653984,87.35485711822434,0.6783085280780359,1.2474383042974626,0.8740985595934401,-137.8388358502214,40.58667950822023,84.58078809785596,-0.0235591113437797,-0.0057552972254578,0.5715143588654507
1.93,-116.49199826615056,75.90087976016025,178.8206318432575,0.094150649046371,0.0445457912107517,0.3549239059766028,-124.63990240393908,78.94567017999243,-6.353963034435961,0.2265102203471633,0.4205169131561939,0.3736441694908605,-158.6154273628679,44.08613698038663,87.41825399820675,-0.003468188576985,0.0988278025212316,0.123392221668769,-138.38840305576954,39.8665986986482,84.27749417743149,0.4915241316512288,2.3324781441800546,0.26365106823743
1.94,-115.93223234589308,75.98061951951142,178.6129249151296,0.0665021447102562,0.2907988470894377,0.4519863041285011,-124.55687835997864,79.06368774334419,-6.814093126816314,-0.0422741645140286,0.0810385690715053,0.029310319213099,-159.0203726528545,43.80972284627362,87.27257458826949,0.7935231411247661,0.2726870201151378,0.3875960755276693,-138.73629563425953,39.80165607564068,84.49718757417216,0.0009707502280996,0.3272193560216844,1.472596114252397
1.95,-115.96076372876097,75.82377616835909,178.55873520581812,-0.021448254633461,0.3581407199302254,0.1529468730027763,-124.59371183559772,78.95666841508293,-7.066625387303593,0.0857343903671461,0.1093012004331389,0.012374749807279,-158.6619861099671,44.04832748437556,87.05566986533228,0.669188153731703,0.4854120948671133,0.3785865984883652,-138.320054666121,39.65185344942368,84.53396069685492,0.0499312424201717,1.0980797395448725,0.8242309614394131
1.96,-115.8980648282619,75.92353991544891,178.2325711536164,0.1636056676110944,0.8081959735880944,0.3246092675945016,-124.60434344887592,78.77361902520957,-6.824164588932162,0.4871747684025985,0.357717355875518,0.075324997409142,-158.28292154158794,44.06942586823523,86.76422952400226,0.6786981193115035,0.1923639171517914,0.1266665133103179,-137.82661719270197,39.658052460049326,84.65927465358477,0.4268249280291064,0.242690056214378,0.5742584138815892
1.97,-115.96785455061703,76.06950187114765,178.50885796349272,0.2527764243923491,0.4864459873359703,0.2234969282769407,-124.19976525568669,78.88493273397034,-6.391335286656391,0.4602693177650526,0.2276045694860421,0.248129646609455,-158.37123939295498,44.07852345281285,86.6688165918341,1.18425798115664,0.3625333908569517,0.765651429089802,-137.54023756246866,39.81239036891348,84.54327121433778,-0.0157809261521817,1.876235347126746,0.4501514999825021
1.98,-115.97553865446568,76.03547462942915,178.20235146985672,0.1662380236544564,-0.023929901151735,0.1207410017267195,-124.2877212923953,78.71552861486946,-6.689888119892745,0.611078451347086,0.414577506197472,0.2949479831420559,-158.7658709038737,43.60733992668504,86.90519804490314,1.1066213723623746,0.9757847622940242,1.0827066224791653,-138.13241501879045,39.5940026176778,84.34523525307557,0.0758574507709428,0.7341221988062949,0.1327414650379434
1.99,-115.65876459455514,76.00856751974715,178.20519559207273,0.2092487340271589,0.1611612821562285,-0.0158457450154752,-124.12769065339356,78.84146667608857,-6.630771277946568,0.4317681881262697,0.4137451426507191,0.3152588549768328,-159.00243524359,43.27853200867812,86.86866964990415,1.1110426028456752,1.3786596465619432,1.7176128599620646,-138.05470622539997,39.34288857840923,84.72807468744007,0.7715828444785852,1.841293404397341,0.1090018649645398
2.0,-115.90997772807265,76.38595423530857,178.16101568426157,0.1025135021405439,0.1625335149322844,0.1839281759586283,-124.1933412340106,78.78226372122374,-7.044894111051171,0.5062963122755392,0.4795028270764531,0.6151194387414256,-159.4154617652746,43.21306998502536,87.37041749381983,0.4372786454576397,0.5400372807271264,1.349062835834174,-137.92556775338178,39.26935844755416,84.75055545395524,0.9276307771016832,0.9205567408655296,0.7267870808705733
2.01,-115.90982365597247,76.29315213461506,177.9690623026593,0.2450431211449426,0.618835449502851,0.6671479804413966,-123.85884258740374,78.55432421380064,-6.328813568786907,0.0608908466201146,0.6234222251583438,0.1670921028984506,-159.4598132175959,42.74684636766788,87.44316092301898,0.1732799842790226,1.022786689711924,1.6971819061808042,-138.24050418288337,39.356983303020776,84.87452623121898,3.4035218093029758,1.4542073120614882,0.6963199993228665
2.02,-115.72820241847292,76.29491594329782,177.9677455991234,0.4445919118713166,0.8030545636093515,0.6857619918978214,-123.9812710644003,78.64334055300557,-6.444439660529063,0.2585643703447501,0.593717150719474,1.0469843154290766,-159.33458970923917,42.79025708647527,87.71383781938096,0.1370720690798216,1.3429660891449913,2.3579400135494386,-138.5075002282885,39.23300864158815,84.9344412792433,0.0214601596963028,0.9509814368211666,0.3661610070666908
2.03,-115.77787711507484,76.36191064002112,177.73873623041715,0.8259044836742053,0.2162362646275351,0.2339135381833464,-123.9559684307162,78.9735806064045,-7.128787713213686,0.4495400354168143,0.1424323137218903,1.1892674464770103,-159.85292290541042,42.35914831230191,87.91699211204278,0.8477462792678165,0.2674105533786425,2.7341631367692294,-139.04993784908655,38.72531660259313,85.00846716534933,0.3068489421435144,2.163218281899357,1.2557310632389689
2.04,-115.65059769206113,76.54576164119881,177.70563178871944,0.5651175906488144,0.3251176763555494,0.1238943943647206,-124.2792828412936,79.07937657647635,-7.668297946547275,0.0819782478851261,0.1696671751961638,0.2724208925710965,-160.44167940541226,41.94482993572942,88.07313622625519,0.6810580994240392,1.36238817861437,0.3926772940201953,-139.6314577727906,38.51737283462694,84.87880353602463,0.6918715513468153,3.3998241731388177,1.7108896845838435
2.05,-115.83861648884591,76.5658641378376,177.80441783006572,0.2628943028889288,0.307515208621429,0.469287806812899,-124.00033293071976,79.17381723086032,-7.417965437871597,0.5945788783532516,0.0153283960357653,0.5446920609670041,-160.59542082554296,42.11225806938447,88.28737130127112,1.0990852208997426,0.8353170349153006,0.3197278795690909,-140.18608821535065,37.719672383354585,85.43793802885382,0.1650838392088794,1.3365152363503734,0.8506164209764608
2.06,-115.85563576717296,76.45851145820177,177.7087082802194,0.0532245268292474,0.2812358175816046,0.6028046447083463,-124.23339848557794,79.21262554446855,-7.346171630296998,0.5136687841115399,0.1214791646957905,0.7084182168672646,-160.37808170943066,42.36117470934074,87.99785953769516,1.0349000214373896,1.5125050152005914,0.1342826464599484,-139.61622084574833,37.99159941453253,85.93380998117621,1.3276633567096976,1.1157247532757109,0.7310491935522613
2.07,-116.05758040406386,76.42659193181585,177.77618045766323,0.3519536666462065,0.1573977198355057,0.80261703381242,-124.44465177881682,79.2951019259163,-7.774575642092864,0.1496268623466838,0.3318174307838253,0.6685337007189741,-160.42869374587977,42.347374157577605,87.67190769835655,0.4431942061991234,-0.1476641638785651,0.6366150531547359,-138.75013002950908,38.56032648544868,86.39093256335462,1.4935197478366642,1.1215030327346545,1.515710386843392
2.08,-116.09979625116844,76.34319075098158,178.11571587118848,0.110367120333199,0.1505244135968273,0.7311418786278977,-124.45498338914896,79.17848386835261,-7.669578925181377,-0.0017742141848656,0.4055325680860046,0.105472912933122,-160.6944356043483,42.55032740293965,87.59129256013631,0.6027442581689122,0.6195293181494289,-0.0082956868612224,-138.38246124449103,38.9546593574269,86.77732930185468,1.2047935127187803,1.349283794929079,1.531111319716943
2.09,-116.14605127686616,76.35731975598115,178.22448325072205,0.0350273946577958,0.2467843417543394,0.4225866079808718,-124.47686813833262,78.99621536553425,-7.495194481532588,0.1205633086060644,0.3103786225024779,0.4287837521999285,-160.7671434175299,42.3940967329118,87.46674459889333,0.4009211723788188,0.243408966907672,-0.0489269540157331,-138.21573626834964,38.628889070650295,87.16492296569082,1.0744369599185513,1.0234802186268857,0.2455771030081254
2.1,-116.13895100714346,76.65773085776728,178.23674912769923,0.2035731964686749,0.3203444722704618,0.5561159812592668,-124.61596015489374,79.17881251259736,-7.382094964840884,-0.0197918696714243,0.425907814281687,0.6750248144283311,-161.39933297968278,42.27600952382734,87.47968599605214,0.2046974880192701,0.6345614500033343,0.1887148750635937,-136.70796186157511,39.12783911342174,87.86924241031193,0.1650955674286059,1.170583539657135,1.0002775672667448
2.11,-115.98636101686984,76.52284836319448,177.92261567826517,0.3811867064752517,0.2531320614892317,0.6753534209425806,-124.31335065062632,79.16344528166117,-7.392285221035539,0.5537716291507611,0.2633531781926829,0.2700174528013466,-161.71306609398056,42.276797601889136,87.42475123517157,0.1550155813877021,0.8353991990022984,1.0811739028475718,-136.19171624993982,39.55937082662456,88.24448693872179,0.5992411045991143,0.3471251125082427,0.1586340626019286
