0.01,-113.1,75.59,165.69,0.16,-0.14,0.08,0.11,0.07,0.58,-99.94,82.81,109.37,0.13,0.21,0.02,0.15,0.02,0.21,-155.06,2.4,2.39,0.52,0.15,0.21,1.03,0.82,0.0,-125.78,9.74,7.56,0.13,-0.04,0.01,-0.1,0.16,0.0
0.02,-112.98,75.57,165.69,0.08,-0.05,0.15,0.24,0.02,0.61,-100.0,82.72,112.08,0.07,0.25,0.1,0.17,0.09,0.13,-154.32,2.72,1.99,0.34,0.05,0.53,1.07,1.02,0.62,-125.75,9.67,7.46,-0.04,0.04,0.08,0.06,0.09,0.31
0.03,-113.04,75.69,165.88,0.1,0.09,-0.01,0.5,0.07,0.36,-100.23,82.94,114.57,0.19,0.45,-0.05,0.43,0.18,0.08,-153.8,2.71,1.57,0.44,0.05,0.46,0.83,1.19,0.84,-125.62,9.78,7.36,0.09,0.16,0.14,0.32,0.25,0.31
0.04,-113.01,75.65,166.06,-0.08,0.08,-0.06,0.7,-0.03,0.64,-100.47,82.97,117.42,0.28,0.27,-0.13,0.73,0.42,0.21,-153.23,2.52,1.58,0.51,0.01,0.47,1.27,1.23,1.16,-125.36,9.79,7.51,0.12,0.11,0.21,0.55,0.04,0.35
0.05,-113.03,75.72,166.18,0.23,0.16,0.09,0.71,0.02,0.6,-100.57,82.63,120.16,0.11,0.46,0.22,0.91,0.07,0.52,-152.68,2.68,1.19,0.46,-0.07,0.69,1.03,1.12,1.52,-125.19,9.82,7.38,0.08,-0.08,0.18,0.5,0.32,0.13
0.06,-112.92,75.61,166.39,0.04,0.38,0.07,1.01,0.26,0.79,-100.54,82.64,122.89,0.14,0.52,0.06,1.18,0.11,0.19,-152.12,2.44,1.21,0.06,0.03,0.3,1.04,1.14,2.01,-125.12,9.96,7.12,0.06,-0.16,0.31,0.61,0.3,0.14
0.07,-112.94,75.06,166.72,0.06,0.34,-0.04,0.94,0.29,0.71,-100.75,82.22,126.16,0.04,0.7,0.06,1.33,0.37,0.22,-151.4,2.54,0.8,0.27,0.07,0.57,0.99,0.96,2.21,-124.71,9.94,7.06,0.02,-0.09,0.23,0.57,0.21,0.29
0.08,-113.06,74.57,167.2,0.28,0.39,0.07,0.96,0.29,0.4,-100.77,81.76,129.23,0.07,0.88,0.07,1.46,0.24,0.39,-150.78,2.69,0.55,0.33,0.26,0.67,0.96,1.18,2.55,-124.42,10.05,7.46,-0.11,-0.02,0.13,0.76,0.15,0.47
0.09,-112.77,73.73,167.48,0.03,0.44,-0.19,1.09,0.06,0.58,-101.04,81.13,132.36,0.03,0.9,-0.03,1.75,0.16,0.41,-150.2,2.76,0.7,0.17,0.11,0.46,1.1,1.1,2.86,-123.85,9.92,7.47,0.07,0.1,0.43,0.97,0.38,0.73
0.1,-112.7,72.99,168.17,-0.15,0.7,0.12,1.38,0.12,0.49,-101.21,80.53,135.53,0.15,1.14,0.05,1.84,0.25,0.35,-149.66,2.9,0.73,0.32,-0.11,0.64,1.2,0.93,2.81,-123.53,9.88,7.39,0.15,0.04,0.47,0.86,0.3,0.96
0.11,-112.6,72.1,168.69,0.15,1.1,0.08,0.98,0.25,0.67,-101.0,79.33,138.63,0.17,1.23,0.08,2.12,0.34,0.26,-149.16,3.01,0.86,0.27,0.15,0.62,0.69,0.87,2.95,-122.93,10.08,7.13,0.15,-0.09,0.58,1.12,0.37,1.2
0.12,-112.37,70.83,169.34,0.11,0.9,0.01,1.14,0.38,0.43,-101.16,78.12,141.62,0.02,1.38,0.28,2.21,0.41,0.43,-148.66,3.12,0.74,0.23,0.25,0.5,0.79,0.88,3.28,-122.18,10.02,7.03,-0.02,0.1,0.65,0.89,0.38,1.53
0.13,-112.16,69.37,170.07,0.08,0.98,-0.07,1.14,0.46,0.36,-101.16,76.91,144.55,0.42,1.56,0.05,2.27,0.45,0.42,-148.28,3.45,0.98,0.24,0.22,0.71,0.63,0.85,2.98,-121.46,10.14,7.01,0.15,0.14,0.53,0.7,0.5,1.77
0.14,-111.99,68.1,170.92,0.18,1.25,0.0,0.88,0.42,0.5,-101.06,75.48,147.23,0.16,1.69,0.16,2.22,0.28,0.46,-147.68,3.61,1.01,0.18,0.12,0.48,0.67,0.75,3.06,-120.99,10.33,6.77,0.07,-0.06,0.58,0.89,0.53,2.04
0.15,-111.78,66.22,171.51,0.19,1.22,0.04,1.08,0.35,0.13,-101.1,73.6,149.72,0.3,1.83,0.05,2.38,0.2,0.24,-147.12,3.89,1.04,0.09,0.24,0.47,0.42,0.7,3.12,-120.26,10.16,6.77,0.17,0.15,0.38,0.44,0.4,2.4
0.16,-111.8,64.65,172.17,0.17,1.48,0.09,1.16,0.35,0.35,-100.89,71.7,152.04,0.22,2.09,0.17,2.4,0.41,0.42,-146.43,3.94,1.59,0.22,0.24,0.51,0.42,0.61,3.02,-119.63,10.0,6.48,0.07,0.2,0.29,0.34,0.38,2.58
0.17,-111.4,63.18,172.92,0.21,1.34,0.09,0.92,0.37,0.24,-100.87,69.36,154.0,0.13,2.18,0.08,2.12,0.3,0.46,-145.89,4.29,1.41,-0.17,0.27,0.41,0.48,0.63,2.62,-118.83,9.97,6.27,0.18,0.1,0.46,0.54,0.3,2.69
0.18,-111.07,59.97,174.28,0.23,1.64,0.18,0.9,0.35,0.22,-100.34,64.62,157.49,0.27,2.36,0.06,1.89,0.48,0.33,-145.12,4.86,1.68,0.0,0.1,0.57,0.32,0.16,2.42,-117.71,9.94,5.5,0.22,0.14,0.62,0.42,0.3,3.08
0.19,-111.09,58.43,174.76,0.33,1.34,0.23,0.61,0.36,0.39,-100.42,62.05,158.81,0.11,2.37,0.06,1.81,0.22,0.16,-144.41,4.9,1.69,0.12,0.13,0.65,0.35,0.26,2.17,-116.92,9.52,5.36,0.12,0.33,0.57,0.44,0.05,2.91
0.2,-110.92,56.78,175.12,0.22,1.53,0.04,0.72,0.37,0.59,-100.2,59.42,159.71,0.24,2.48,-0.09,1.53,0.14,0.31,-143.85,4.86,1.67,-0.09,0.2,0.74,0.43,0.38,1.9,-116.44,9.34,5.03,0.2,0.17,0.24,0.26,0.11,2.68
0.21,-110.79,55.32,175.6,0.14,1.41,0.11,0.71,0.09,0.64,-100.18,56.48,160.72,0.05,2.6,-0.05,1.54,0.29,0.49,-143.29,4.91,1.59,0.05,0.12,0.5,0.57,0.25,1.78,-115.92,8.97,4.68,0.12,0.18,0.43,0.24,0.18,2.71
0.22,-110.57,53.6,176.0,0.36,1.45,-0.0,0.73,0.26,0.77,-99.76,53.41,161.24,0.16,2.55,0.08,1.44,0.4,0.4,-142.69,5.08,1.52,-0.01,0.25,0.53,0.5,0.31,1.83,-115.8,8.82,4.49,0.18,0.19,0.52,0.39,0.22,2.6
0.23,-110.57,52.07,176.0,0.21,1.49,0.07,0.87,0.25,0.84,-99.46,50.71,161.86,0.05,2.63,0.15,0.94,0.22,0.57,-142.12,5.13,1.34,0.25,0.26,0.41,0.68,0.2,1.53,-115.31,8.45,3.99,0.09,0.2,0.28,0.21,0.21,2.24
0.24,-110.08,50.5,176.19,0.27,1.32,0.09,1.03,0.41,1.05,-99.2,47.65,162.33,-0.05,2.48,-0.05,0.89,0.13,0.52,-141.19,4.95,1.33,0.19,0.31,0.59,0.55,0.14,1.39,-114.99,8.38,3.52,0.16,0.31,0.42,0.21,0.13,2.24
0.25,-110.06,49.04,176.31,0.24,1.58,0.13,1.11,0.39,0.99,-99.25,44.64,162.69,0.15,2.53,0.13,0.9,0.14,0.6,-140.5,5.02,1.18,0.05,0.19,0.36,0.83,0.23,1.49,-114.52,8.29,3.22,0.3,0.2,0.37,0.34,0.27,1.74
0.26,-109.79,47.54,176.33,0.42,1.38,0.02,1.24,0.52,0.93,-98.66,41.52,163.03,0.11,2.44,0.08,0.9,0.24,0.92,-139.84,4.69,1.16,0.38,0.11,0.43,0.97,0.36,1.46,-114.5,7.88,2.93,0.22,0.03,0.18,0.07,0.16,1.65
0.27,-109.55,45.9,176.52,0.23,1.15,0.17,1.35,0.3,1.04,-98.75,38.42,163.4,0.1,2.29,0.24,0.81,0.19,0.92,-139.2,4.69,1.03,0.35,0.24,0.31,0.69,0.31,1.71,-114.22,7.82,2.74,0.28,0.27,0.21,0.37,0.13,1.52
0.28,-109.35,44.12,176.65,0.19,1.44,0.23,1.36,0.28,1.04,-98.66,35.58,163.68,0.1,2.35,0.28,0.68,0.35,1.27,-138.43,4.52,1.11,0.39,0.13,0.4,0.9,0.5,1.9,-113.96,7.86,2.48,0.23,0.18,0.29,0.65,0.22,1.44
0.29,-109.18,42.67,176.74,0.28,1.31,0.13,1.43,0.4,0.88,-98.39,32.7,163.77,0.23,2.14,-0.07,0.82,0.12,1.27,-137.88,4.3,1.21,0.42,0.15,0.62,0.93,0.48,1.88,-113.52,7.85,2.04,0.19,0.18,0.21,0.72,0.25,1.38
0.3,-108.97,40.93,176.75,0.16,1.31,0.08,1.53,0.5,0.94,-98.38,29.86,164.16,0.11,2.19,0.17,1.03,0.5,1.43,-137.27,3.84,1.45,0.56,0.13,0.42,1.18,0.47,1.98,-113.35,7.89,1.9,0.17,0.13,0.14,0.45,0.15,1.09
0.31,-108.84,39.16,176.95,0.17,1.01,0.06,1.56,0.34,0.92,-98.26,27.27,164.27,0.1,1.88,-0.01,1.04,0.48,1.64,-136.57,3.74,1.86,0.56,0.09,0.36,0.87,0.64,2.09,-112.96,7.64,1.66,0.18,0.15,0.13,0.57,0.36,1.24
0.32,-108.79,37.61,176.87,0.31,0.98,0.12,1.58,0.45,0.78,-98.29,24.72,164.61,0.34,1.92,0.05,0.88,0.27,1.29,-136.08,3.53,2.2,0.52,0.2,0.8,1.02,0.87,2.14,-112.83,7.94,1.44,0.14,0.26,-0.03,0.62,0.28,1.31
0.33,-108.54,35.99,177.11,0.22,1.1,0.09,1.64,0.4,0.64,-97.97,22.35,165.05,0.17,1.67,0.09,0.85,0.47,1.78,-135.77,3.07,2.6,0.39,0.11,0.44,0.91,0.84,2.26,-112.7,7.94,1.35,0.14,0.16,0.22,0.67,0.71,1.36
0.34,-108.55,34.52,177.18,0.23,1.27,-0.0,1.68,0.49,0.45,-98.19,20.32,165.25,0.34,1.5,0.11,1.11,0.27,1.58,-135.5,2.93,3.07,0.43,0.11,0.22,0.89,0.91,2.25,-112.36,7.81,1.29,0.09,0.07,0.17,0.62,0.62,1.54
0.35,-108.4,31.87,177.33,0.21,0.99,0.08,1.37,0.47,0.33,-98.08,16.48,165.74,0.33,1.28,0.05,0.97,0.4,1.75,-135.51,2.42,4.32,0.55,0.33,0.53,0.69,0.76,2.47,-112.18,8.35,1.3,-0.06,0.27,0.17,0.7,0.84,1.83
0.36,-108.36,30.58,177.41,0.19,1.01,0.12,1.26,0.45,0.5,-98.18,14.92,166.27,0.22,1.0,0.12,0.87,0.46,1.76,-135.69,2.03,4.93,0.47,0.27,0.5,0.72,0.97,2.43,-112.2,8.33,1.15,0.12,0.14,0.4,0.48,0.66,2.1
0.37,-108.54,29.57,177.46,0.2,0.72,0.07,1.2,0.33,0.39,-98.22,13.25,166.31,0.38,0.95,0.01,0.99,0.23,1.49,-135.99,1.88,5.37,0.47,0.27,0.59,0.88,0.75,2.36,-112.14,8.38,1.39,0.13,0.01,0.31,0.67,0.7,2.29
0.38,-108.52,28.51,177.46,-0.1,0.88,0.08,1.0,0.51,0.5,-98.29,12.35,166.44,0.14,0.74,0.13,0.77,0.34,1.59,-136.27,1.62,6.0,0.08,0.21,0.57,0.74,1.12,2.65,-111.98,8.19,1.47,0.01,0.11,0.22,0.78,0.81,2.46
0.39,-108.67,28.0,177.67,0.04,0.62,-0.03,0.91,0.39,0.5,-98.2,10.96,166.72,0.19,0.68,0.11,0.51,0.37,1.75,-136.71,1.53,6.31,0.39,0.21,0.52,0.69,0.98,2.62,-112.09,8.46,1.44,0.04,-0.0,0.61,0.54,0.95,2.44
0.4,-108.69,27.05,177.75,0.04,0.49,0.16,0.95,0.55,0.56,-98.2,10.32,166.86,0.23,0.44,0.13,0.52,0.42,1.95,-137.45,1.18,6.64,0.18,0.35,0.38,0.53,0.83,2.75,-112.42,8.53,1.95,-0.17,0.1,0.36,0.5,0.93,2.62
0.41,-108.82,26.68,177.79,0.12,0.35,0.12,0.9,0.58,0.63,-98.41,9.52,166.86,0.16,0.44,-0.03,0.38,0.28,1.52,-138.12,1.04,7.11,0.14,0.37,0.64,0.55,0.95,2.97,-112.81,8.48,1.79,0.26,-0.19,0.44,0.28,0.9,2.68
0.42,-109.03,26.07,177.8,0.23,0.09,0.0,1.07,0.43,0.82,-98.27,8.94,167.12,0.04,0.42,0.1,0.23,0.31,1.73,-138.73,0.94,7.24,0.01,0.15,0.47,0.49,0.85,3.03,-113.42,8.3,2.14,0.21,0.37,0.44,0.39,0.83,2.88
0.43,-109.04,26.01,177.65,-0.09,0.33,0.09,0.95,0.54,0.8,-98.39,8.64,167.13,0.14,-0.01,0.17,0.44,0.34,1.9,-139.35,0.85,7.6,0.25,0.37,0.82,0.55,0.94,3.4,-113.91,8.52,2.26,0.0,0.03,0.61,0.35,0.83,3.0
0.44,-109.4,25.76,177.8,0.15,0.37,-0.1,1.0,0.48,0.85,-98.4,8.38,167.28,0.08,0.32,0.03,0.5,0.33,1.78,-140.13,0.5,7.95,0.02,0.3,0.65,0.47,0.9,3.43,-114.43,8.59,2.59,0.21,0.18,0.55,0.45,0.77,3.23
0.45,-109.47,25.52,177.71,0.15,0.28,0.1,0.77,0.22,1.04,-98.51,8.31,167.33,-0.05,0.09,0.06,0.43,0.48,1.94,-140.8,0.76,7.69,-0.02,0.39,0.55,0.41,0.93,3.55,-115.33,8.74,2.74,0.07,0.18,0.48,0.4,0.8,3.27
0.46,-109.72,25.24,177.69,-0.05,0.2,0.04,0.84,0.4,0.86,-98.42,8.08,167.31,0.08,0.1,-0.03,0.56,0.31,2.08,-141.64,0.44,7.52,0.11,0.26,0.63,0.27,1.0,3.65,-116.24,9.15,3.03,0.21,0.13,0.61,0.39,0.83,3.5
0.47,-109.84,25.23,177.92,0.1,0.12,0.07,1.17,0.38,1.12,-98.71,8.42,167.43,-0.02,0.07,-0.09,0.58,0.33,1.94,-142.31,0.61,7.48,0.1,0.21,0.75,0.44,0.84,3.88,-117.11,9.28,3.71,0.18,0.45,0.56,0.33,0.68,3.45
0.48,-110.15,25.41,177.91,0.13,0.13,0.07,1.18,0.53,1.23,-98.78,8.83,167.56,0.01,0.4,-0.05,0.59,0.36,2.04,-142.77,0.7,7.04,0.11,0.28,0.51,0.35,0.81,3.98,-118.05,9.7,3.96,0.25,0.42,0.59,0.47,0.75,3.83
0.49,-110.13,25.33,177.89,0.23,0.24,0.22,1.16,0.39,1.18,-98.75,9.1,167.66,0.01,0.28,-0.01,0.81,0.13,2.37,-143.61,0.99,6.79,0.36,0.31,0.41,0.23,0.83,4.03,-119.23,10.52,4.72,0.44,0.47,0.5,0.37,0.66,3.98
0.5,-110.24,25.68,178.06,-0.01,0.41,-0.05,1.29,0.3,0.94,-98.61,9.83,167.83,0.06,0.56,-0.15,0.69,0.04,2.28,-143.92,0.88,6.51,0.21,0.26,0.48,0.26,0.92,3.79,-119.94,11.01,5.26,0.42,0.49,0.61,0.44,0.63,4.0
0.51,-110.58,25.87,177.84,0.11,0.35,-0.16,1.27,0.5,0.68,-98.61,10.64,167.66,0.01,0.43,-0.02,0.61,0.36,2.29,-144.41,0.98,5.83,0.45,0.35,0.61,-0.13,0.94,3.66,-120.84,11.77,6.09,0.59,0.79,0.65,0.69,0.43,4.29
0.52,-110.95,27.09,177.92,0.08,0.63,0.13,1.53,0.13,0.97,-98.68,12.63,167.65,0.03,0.69,0.0,1.01,0.17,2.01,-145.38,1.49,4.84,0.49,0.13,0.43,0.12,0.93,3.3,-122.28,13.49,7.63,0.7,0.86,0.33,0.6,0.57,4.23
0.53,-111.07,27.6,177.9,0.2,0.81,0.02,1.48,0.22,0.72,-98.73,13.61,167.77,0.07,1.12,0.12,0.77,0.03,2.06,-145.77,1.94,4.13,0.54,0.18,0.32,0.06,0.86,3.03,-122.67,14.29,8.86,0.63,0.88,0.35,0.7,0.7,4.09
0.54,-111.33,28.35,177.95,0.01,0.69,-0.02,1.77,0.22,0.44,-98.56,15.14,167.38,0.07,1.08,0.07,0.9,-0.01,1.85,-146.23,1.95,3.7,0.49,0.22,0.32,0.22,0.65,2.67,-123.39,15.61,9.59,0.68,0.83,0.56,0.63,0.77,3.89
0.55,-111.46,29.31,177.69,0.15,0.79,0.03,1.8,0.16,0.4,-98.68,16.76,167.28,0.2,1.12,0.12,0.8,0.42,1.79,-146.44,2.38,3.13,0.49,0.23,0.24,0.09,0.49,2.43,-123.68,16.9,10.65,0.66,1.16,0.17,0.66,0.69,3.58
0.56,-111.49,30.46,177.67,0.16,0.99,0.1,1.65,0.21,0.47,-98.36,18.3,167.19,0.26,1.22,0.04,0.82,0.16,1.45,-146.81,2.63,2.53,0.39,0.28,0.34,0.3,0.58,1.95,-123.42,18.2,11.92,0.96,1.06,0.09,0.84,0.72,3.21
0.57,-111.51,31.56,177.44,0.03,1.19,0.09,1.8,0.18,0.04,-98.69,20.17,167.0,0.11,1.44,-0.16,0.73,0.07,1.35,-147.01,3.08,1.98,0.34,0.16,0.26,0.29,0.32,1.75,-123.42,19.53,13.14,0.77,0.83,0.39,0.54,0.66,2.95
0.58,-111.57,33.0,177.27,0.22,1.23,0.16,1.95,0.16,0.07,-98.6,22.19,166.62,0.07,1.48,-0.05,1.06,0.15,1.11,-147.31,3.2,1.59,0.57,0.17,0.28,0.54,0.37,1.39,-123.41,20.83,14.31,0.68,1.13,0.32,0.59,0.71,2.75
0.59,-111.79,34.42,177.29,0.01,1.42,0.14,1.69,0.13,0.36,-98.5,24.58,166.33,0.3,1.62,0.09,0.82,0.24,1.06,-147.65,3.63,1.15,0.41,0.27,0.32,0.59,0.23,1.3,-123.31,22.0,15.14,0.89,1.0,0.39,0.71,0.51,2.11
0.6,-111.8,35.99,176.95,0.29,1.47,0.11,1.59,0.2,0.13,-98.35,26.8,166.39,0.03,1.78,-0.18,0.56,0.19,0.86,-148.0,4.21,0.82,0.25,0.42,0.27,0.53,0.22,0.73,-122.89,23.44,16.36,0.9,1.11,0.27,0.44,0.69,1.79
0.61,-111.85,37.7,176.93,0.18,1.34,-0.08,1.58,0.17,0.45,-98.53,29.32,165.86,0.18,1.93,0.07,0.47,0.27,0.59,-148.15,4.62,0.76,0.2,0.44,0.29,0.65,0.27,0.9,-122.25,24.77,17.4,0.64,1.03,0.37,0.24,0.7,1.57
0.62,-111.78,39.37,176.6,0.08,1.54,0.15,1.65,0.15,0.45,-98.46,31.86,165.67,0.16,2.05,-0.16,0.69,0.13,0.44,-148.51,5.2,0.35,0.29,0.46,0.25,0.65,0.19,0.64,-121.82,26.05,18.62,0.67,0.97,0.17,0.4,0.61,1.08
0.63,-111.84,41.2,176.5,-0.05,1.64,0.04,1.51,0.13,0.46,-98.31,34.59,165.26,0.27,2.09,0.03,0.7,0.37,0.48,-148.67,5.53,0.54,0.05,0.49,0.28,0.67,0.26,0.65,-121.12,27.39,19.29,0.71,1.09,0.29,0.34,0.55,0.89
0.64,-112.08,43.05,176.44,0.03,1.81,0.26,1.23,0.11,0.83,-98.55,37.18,165.02,0.28,2.08,0.22,0.76,0.19,0.32,-149.12,6.2,0.44,0.34,0.8,0.24,0.74,0.08,0.74,-120.5,29.09,20.33,0.83,0.9,0.28,0.2,0.48,0.77
0.65,-112.03,45.04,176.33,0.01,1.91,0.14,1.02,0.28,0.74,-99.0,40.54,164.83,-0.06,2.31,0.32,0.85,0.31,0.36,-149.33,6.82,0.62,0.1,0.65,0.24,0.7,0.15,0.7,-119.92,30.63,21.11,0.72,1.15,0.35,0.3,0.45,0.55
0.66,-112.06,47.2,176.14,0.03,1.82,-0.12,1.06,0.14,0.75,-98.9,43.4,164.11,0.12,2.49,0.04,0.76,0.16,0.37,-149.96,7.75,0.96,0.38,0.76,0.44,0.58,0.21,0.98,-119.26,32.21,22.08,0.72,1.04,0.58,0.24,0.52,0.63
0.67,-112.04,49.12,175.88,0.11,1.74,-0.0,1.01,0.12,0.76,-99.04,46.4,163.93,0.14,2.51,0.19,0.84,0.2,0.29,-150.17,8.76,1.71,0.24,0.92,0.36,0.61,0.2,1.19,-118.59,33.71,22.77,0.61,1.02,0.37,0.29,0.47,0.43
0.68,-112.16,51.32,175.71,-0.21,2.0,0.22,0.86,0.24,1.01,-99.3,49.58,163.39,0.11,2.43,-0.06,1.12,0.16,0.25,-150.8,9.88,2.43,0.55,1.03,0.32,0.66,0.24,1.22,-118.01,35.74,23.52,0.63,1.21,0.32,0.12,0.34,0.5
0.69,-112.14,55.7,174.74,0.09,1.92,-0.02,0.84,0.26,1.32,-99.5,55.71,161.79,0.27,2.36,0.15,1.48,0.2,0.29,-151.53,12.35,4.53,0.73,1.06,0.61,0.67,0.63,1.71,-116.74,39.77,25.59,0.87,1.41,0.6,0.24,0.37,0.73
0.7,-112.22,58.01,173.91,0.18,1.85,0.17,0.74,0.41,1.16,-99.73,58.63,160.77,0.23,2.68,0.03,1.65,0.29,0.14,-152.33,13.84,5.79,0.8,1.17,0.38,0.57,0.81,1.85,-116.19,42.16,26.76,0.99,1.77,0.49,0.33,0.55,0.74
0.71,-112.2,60.17,172.94,0.1,1.97,0.08,0.71,0.22,0.96,-99.85,61.58,159.52,0.33,2.55,0.0,1.79,0.25,0.41,-152.89,15.33,7.38,1.05,1.31,0.39,0.59,0.8,1.98,-115.35,44.62,28.43,0.8,1.74,0.52,0.33,0.62,0.9
0.72,-112.03,62.21,171.93,0.22,1.83,-0.13,0.73,0.27,1.11,-99.88,64.31,158.31,0.17,2.45,0.12,1.86,0.08,0.25,-153.47,17.03,8.96,1.02,1.29,0.48,0.64,0.84,1.92,-114.51,47.14,29.99,0.93,2.09,0.65,0.4,0.61,1.12
0.73,-112.04,64.62,170.55,-0.01,1.7,-0.02,1.03,0.07,1.31,-99.87,67.04,156.61,0.18,2.41,0.08,2.05,0.07,0.24,-154.12,18.65,11.01,1.3,1.42,0.55,0.47,1.07,2.18,-114.11,49.85,32.39,1.1,2.17,0.73,0.4,0.7,1.25
0.74,-112.1,66.98,169.1,0.03,1.89,-0.01,0.89,0.13,1.07,-99.93,69.63,154.92,0.46,2.37,0.11,2.11,0.21,0.38,-154.92,20.36,13.48,1.37,1.38,0.56,0.47,1.12,2.08,-113.17,52.94,34.77,1.09,2.3,0.48,0.31,0.64,1.15
0.75,-112.09,69.0,167.3,-0.04,1.51,0.11,1.08,0.14,0.86,-99.72,71.98,153.06,0.42,2.27,0.08,2.08,-0.02,0.43,-155.63,21.99,15.99,1.59,1.68,0.44,0.53,1.11,2.14,-112.57,55.36,38.14,1.18,2.44,0.6,0.35,0.78,1.38
0.76,-111.95,71.08,165.33,0.12,1.28,-0.11,1.1,0.19,0.72,-99.72,74.35,150.75,0.39,2.35,0.31,2.2,0.04,0.3,-156.36,23.9,18.46,1.78,1.67,0.59,0.25,1.02,1.9,-111.74,58.02,41.8,1.28,2.54,0.7,0.43,0.61,1.27
0.77,-111.99,72.95,162.94,0.09,1.39,0.1,1.05,0.13,0.64,-99.48,76.51,148.9,0.3,2.04,0.2,1.95,0.24,0.48,-157.02,25.73,21.32,1.98,1.73,0.77,0.4,1.22,1.87,-111.04,60.4,46.02,1.27,2.84,0.49,0.46,0.96,1.22
0.78,-111.94,74.92,160.95,0.16,1.26,0.17,1.08,0.06,0.51,-99.43,78.06,146.46,0.35,1.84,0.03,1.91,0.09,0.42,-157.72,27.56,24.37,2.29,1.53,0.26,0.38,1.07,1.63,-110.13,62.32,50.8,1.47,2.8,0.58,0.51,0.95,1.21
0.79,-111.97,76.29,158.74,0.17,1.08,-0.12,1.16,0.42,0.49,-99.24,79.88,144.67,0.27,1.69,-0.07,1.8,0.16,0.53,-158.17,29.18,27.24,2.26,1.53,0.49,0.38,1.18,1.47,-109.19,64.35,55.72,1.53,2.96,0.44,0.19,1.03,1.03
0.8,-111.61,77.64,156.3,0.35,0.82,-0.03,1.08,-0.04,0.41,-98.84,81.24,142.42,0.25,1.61,0.04,1.55,0.08,0.45,-158.61,30.3,30.57,2.26,1.79,0.48,0.33,1.16,1.2,-108.52,65.78,61.22,1.51,3.03,0.39,0.1,0.77,0.79
0.81,-111.67,78.84,154.25,0.25,0.87,-0.08,1.03,0.28,0.49,-98.41,82.36,140.47,0.29,1.47,0.05,1.53,0.2,0.27,-158.97,32.03,33.67,2.43,1.76,0.42,0.46,1.21,1.19,-107.35,66.87,67.12,1.37,3.0,0.3,0.22,0.93,0.96
0.82,-111.34,79.71,152.29,0.04,0.75,0.09,0.97,0.23,0.28,-98.46,83.26,138.93,0.38,1.09,0.07,1.13,0.17,0.46,-159.1,33.3,36.92,2.63,1.53,0.69,0.43,0.89,0.95,-106.34,67.53,73.11,1.67,2.97,0.38,0.05,0.77,0.95
0.83,-111.33,80.33,150.71,0.08,0.57,0.01,1.06,0.33,0.28,-98.12,83.84,137.66,0.4,1.06,0.1,1.15,0.26,0.35,-159.0,34.73,40.52,2.59,2.02,0.48,0.31,0.96,0.69,-105.35,67.44,79.24,1.63,2.95,0.55,0.02,0.85,0.83
0.84,-111.17,81.03,149.38,0.11,0.27,0.07,0.86,0.37,0.2,-97.78,84.4,136.36,0.37,0.9,0.0,0.71,0.24,0.65,-159.03,36.06,44.16,2.74,1.66,0.6,0.68,1.02,0.73,-104.34,67.1,85.43,1.58,3.03,0.42,0.04,0.71,0.64
0.85,-111.04,81.34,148.52,0.21,0.37,0.05,0.9,0.55,0.3,-97.24,84.4,135.6,0.22,0.78,-0.02,0.54,0.43,0.26,-158.7,37.25,48.02,2.61,1.71,0.52,0.43,0.89,0.69,-103.24,66.46,91.27,1.63,2.84,0.45,0.11,0.84,0.73
0.86,-110.52,81.45,147.7,0.09,0.11,0.25,0.73,0.57,0.45,-96.79,84.51,134.61,0.17,0.66,0.04,0.67,0.69,0.38,-157.84,39.82,55.39,2.62,1.88,0.49,0.48,0.76,0.76,-100.38,63.87,102.5,1.49,2.57,0.44,0.33,0.72,0.83
0.87,-110.6,81.43,147.81,0.19,0.07,0.12,0.71,0.53,0.17,-96.6,84.28,134.21,0.29,0.66,0.04,0.65,0.52,0.3,-156.86,41.01,59.54,2.52,1.5,0.83,0.66,0.66,0.69,-98.99,62.28,107.92,1.31,2.55,0.57,0.17,0.49,0.97
0.88,-110.19,81.2,148.42,0.25,-0.04,0.05,0.53,0.79,0.33,-96.34,83.94,134.39,0.17,0.38,-0.04,0.47,0.45,0.22,-155.85,42.33,63.54,2.66,1.61,0.41,0.62,0.43,0.87,-97.38,60.56,112.79,1.41,2.42,0.67,0.46,0.55,1.05
0.89,-110.04,80.87,149.24,0.34,0.25,0.11,0.54,0.67,0.59,-96.26,83.58,134.34,0.15,0.39,-0.07,0.53,0.75,0.42,-154.75,43.35,67.88,2.39,1.63,0.7,0.71,0.43,0.95,-95.95,58.65,117.01,1.22,2.2,0.57,0.85,0.46,1.03
0.9,-109.74,80.72,150.13,0.3,0.25,0.22,0.51,0.8,0.66,-96.05,83.63,134.69,0.24,0.41,0.11,0.7,0.51,0.41,-153.24,44.39,71.91,2.4,1.48,0.69,0.87,0.73,0.87,-94.19,56.91,120.65,0.94,1.94,0.86,1.0,0.53,1.14
0.91,-109.35,80.39,151.13,0.31,0.33,0.09,0.53,0.92,0.62,-95.77,83.42,134.8,0.13,0.27,0.14,0.9,0.55,0.47,-152.05,45.74,76.37,2.08,1.61,0.9,0.91,0.56,0.8,-92.56,55.02,124.27,0.97,1.77,0.67,1.26,0.41,1.2
0.92,-108.97,79.82,152.07,0.31,0.12,0.04,0.45,0.81,0.74,-95.84,83.11,135.26,0.25,0.25,0.12,0.71,0.68,0.61,-150.29,46.62,80.63,2.23,1.44,0.92,1.34,0.68,0.85,-90.84,53.3,127.3,0.88,1.5,0.57,1.41,0.37,1.26
0.93,-108.57,79.39,153.29,0.2,0.24,0.04,0.81,0.97,0.74,-95.65,83.0,135.7,0.05,0.25,0.09,0.91,0.85,0.56,-148.92,47.81,84.84,1.88,1.77,1.02,1.39,0.68,0.84,-89.11,51.7,129.8,0.54,1.39,0.69,1.81,0.41,1.43
0.94,-108.01,79.06,154.02,0.28,0.27,0.15,0.58,0.85,1.01,-95.77,82.9,136.07,-0.13,0.1,0.18,0.99,0.86,0.54,-147.35,48.77,88.91,1.82,1.41,0.9,1.71,0.77,0.9,-87.38,50.22,132.04,0.68,1.24,0.79,2.14,0.4,1.58
0.95,-107.44,78.57,155.01,0.31,0.25,-0.09,0.53,0.88,1.07,-95.72,82.98,136.04,0.14,-0.06,-0.03,1.18,0.69,0.73,-145.63,49.46,93.07,1.71,1.43,1.0,1.74,0.78,0.76,-85.73,49.03,133.85,0.46,0.94,0.68,2.28,0.5,1.68
0.96,-106.65,77.99,155.72,0.39,0.32,0.17,0.45,0.92,1.25,-95.69,83.05,136.33,0.0,0.01,0.16,1.15,0.59,0.63,-143.66,50.33,96.85,1.66,1.15,0.64,1.66,1.02,0.81,-84.32,48.0,135.44,0.45,0.73,0.72,2.42,0.53,1.85
0.97,-106.08,77.68,156.21,0.26,0.22,-0.06,0.66,0.67,1.23,-95.48,82.95,136.57,0.23,0.29,0.05,1.2,0.74,0.71,-142.28,50.92,100.64,1.4,1.1,0.74,1.73,0.93,0.74,-82.87,47.33,136.54,0.42,0.65,0.6,2.77,0.6,1.68
0.98,-105.55,77.14,156.69,0.3,0.33,0.17,0.59,0.55,1.28,-95.46,83.28,136.82,0.15,0.07,0.13,0.94,0.9,0.62,-140.64,51.46,104.41,1.15,1.01,0.71,2.05,1.06,0.46,-81.81,46.4,137.8,0.37,0.4,0.67,2.82,0.73,1.62
0.99,-104.69,76.81,157.09,0.21,0.47,0.17,0.57,0.46,1.24,-95.32,83.2,136.97,0.11,0.08,0.12,1.14,0.7,0.71,-139.37,51.9,107.84,1.04,0.93,0.77,2.17,0.89,0.67,-80.84,45.86,138.29,0.3,0.47,0.53,2.92,0.73,1.56
1.0,-104.12,76.3,157.08,0.3,0.32,0.24,0.5,0.53,1.44,-95.63,83.42,136.84,0.2,0.07,0.17,1.1,0.65,0.93,-138.11,52.11,110.97,0.76,0.84,0.9,2.15,1.02,0.63,-80.08,45.74,138.76,0.4,0.41,0.42,2.96,0.75,1.45
1.01,-103.79,75.81,157.2,0.39,0.44,0.26,0.36,0.47,1.3,-95.36,83.54,137.05,0.05,0.03,0.06,0.99,0.83,0.64,-136.63,52.45,113.94,0.83,0.72,0.59,2.12,1.09,0.31,-79.75,45.22,139.25,0.1,0.28,0.44,3.13,0.57,1.25
1.02,-103.43,75.34,157.06,0.34,0.45,0.27,0.44,0.73,1.37,-95.42,83.6,137.02,0.26,0.26,0.21,1.04,0.67,0.8,-135.88,52.39,116.23,0.85,0.8,0.63,2.33,0.85,0.23,-79.41,45.38,139.59,0.21,0.14,0.2,2.99,0.66,1.25
1.03,-103.32,74.58,157.13,0.35,0.14,0.14,0.22,0.34,1.33,-95.44,84.02,136.8,0.08,0.01,0.04,0.84,0.68,0.76,-134.12,52.49,120.57,0.52,0.5,0.41,1.84,0.79,0.43,-79.89,45.45,139.69,0.3,-0.07,0.22,2.77,0.79,1.03
1.04,-103.53,74.27,156.99,0.52,0.42,0.13,0.41,0.4,1.26,-95.83,84.05,137.08,-0.05,0.14,0.11,0.76,0.52,0.68,-133.73,52.47,122.06,0.23,0.53,0.42,1.55,0.81,0.39,-80.56,45.37,139.73,0.25,0.14,0.32,2.51,0.56,0.93
1.05,-103.92,73.93,157.18,0.38,0.2,-0.02,0.37,0.34,1.35,-95.81,84.27,137.02,0.07,0.05,-0.01,0.9,0.53,0.61,-133.37,52.48,123.54,0.32,0.49,0.44,1.61,0.68,0.21,-81.45,45.76,139.6,0.31,0.18,0.36,2.3,0.62,0.89
1.06,-104.39,73.54,157.46,0.31,0.32,0.09,0.06,0.23,1.28,-96.03,84.25,137.03,0.3,0.01,-0.08,0.74,0.43,0.72,-133.1,52.53,125.02,0.27,0.46,0.36,1.29,0.74,0.22,-82.21,46.08,139.22,0.42,0.24,0.2,2.13,0.7,0.78
1.07,-104.99,73.27,157.63,0.66,0.25,0.01,0.22,0.54,1.21,-96.11,84.36,137.01,0.16,0.14,-0.01,0.55,0.49,0.46,-133.06,52.6,125.77,0.25,0.36,0.57,0.99,0.63,0.14,-83.26,46.35,138.84,0.64,-0.1,0.21,1.99,0.44,0.56
1.08,-105.8,73.22,157.92,0.59,0.09,0.14,0.31,0.53,1.14,-96.43,84.42,137.07,0.4,0.16,0.16,0.81,0.52,0.53,-133.05,52.6,126.57,0.23,0.24,0.36,0.98,0.47,0.28,-84.3,46.52,138.79,0.6,0.11,0.45,1.77,0.53,0.44
1.09,-106.31,72.91,158.79,0.72,0.03,0.14,0.37,0.28,1.13,-96.71,84.58,136.66,0.24,0.09,-0.1,0.66,0.46,0.55,-133.13,52.47,127.25,0.37,0.34,0.52,0.9,0.34,0.25,-85.69,47.15,138.63,0.4,0.31,0.47,1.41,0.35,0.49
1.1,-107.5,72.67,159.19,0.75,0.06,0.02,0.37,0.41,1.04,-97.16,84.76,136.85,0.4,0.15,-0.09,0.61,0.44,0.68,-133.37,52.67,127.56,0.1,0.43,0.47,0.59,0.38,0.28,-87.04,47.6,138.4,0.84,0.22,0.5,1.13,0.5,0.48
1.11,-108.31,72.49,160.0,0.62,0.15,0.08,0.36,0.35,0.98,-97.7,84.7,136.88,0.11,0.26,0.19,0.72,0.21,0.45,-133.65,52.98,127.82,0.19,0.15,0.45,0.57,0.45,0.46,-88.16,48.1,138.26,0.85,0.5,0.64,1.13,0.45,0.31
1.12,-109.26,72.34,160.57,0.61,0.1,0.18,0.24,0.46,0.87,-98.08,85.12,136.83,0.4,0.21,-0.03,0.59,0.48,0.73,-134.05,53.22,128.18,0.23,0.13,0.42,0.27,0.22,0.36,-89.45,48.61,138.03,0.79,0.45,0.37,0.62,0.37,0.23
1.13,-110.49,72.06,161.61,0.66,0.07,-0.0,0.35,0.49,0.74,-98.5,85.18,137.04,0.47,0.32,0.03,0.63,0.29,0.73,-134.14,53.64,128.72,0.4,0.09,0.52,0.21,0.32,0.3,-90.52,49.35,137.67,0.88,0.47,0.57,0.72,0.42,0.41
1.14,-111.2,71.71,162.53,0.71,0.03,0.16,0.45,0.48,0.74,-98.82,85.41,136.86,0.32,0.27,0.0,0.41,0.18,0.67,-134.54,53.68,128.76,0.36,0.08,0.5,0.21,0.44,0.3,-91.8,49.73,137.46,0.83,0.55,0.66,0.4,0.36,0.29
1.15,-112.47,71.63,163.27,0.46,0.07,0.03,0.57,0.34,0.54,-99.35,85.76,137.03,0.46,0.43,0.15,0.62,0.42,0.74,-134.83,53.89,128.96,0.34,0.11,0.46,0.13,0.29,0.4,-92.82,50.12,137.22,0.75,0.54,0.59,0.47,0.41,0.46
1.16,-112.96,71.38,164.03,0.41,0.18,-0.03,0.16,0.3,0.3,-99.83,85.84,136.91,0.54,0.33,-0.05,0.4,0.13,0.9,-134.87,54.38,129.35,0.19,0.06,0.56,0.07,0.32,0.47,-94.29,50.92,137.33,0.72,0.42,0.37,0.36,0.41,0.39
1.17,-113.96,71.45,164.91,0.35,0.06,0.18,0.35,0.36,0.38,-100.32,86.14,137.37,0.4,0.29,0.25,0.54,0.33,0.8,-134.99,54.65,129.71,0.22,0.08,0.72,0.05,0.26,0.63,-95.39,51.63,137.09,0.78,0.53,0.68,0.27,0.3,0.56
1.18,-114.3,70.97,166.05,0.19,0.22,0.28,0.31,0.45,0.4,-100.76,86.42,137.18,0.27,0.24,0.25,0.31,0.06,0.9,-135.22,54.93,130.03,0.32,-0.04,0.44,0.23,0.11,0.55,-96.54,52.05,136.86,0.74,0.31,0.54,0.06,0.55,0.73
1.19,-115.16,70.8,166.91,0.14,0.32,0.17,0.23,0.44,0.24,-101.07,86.78,137.35,0.23,0.34,0.11,0.24,0.29,0.93,-135.16,55.19,130.4,0.35,0.1,0.54,0.44,0.69,0.74,-97.46,52.79,136.78,0.66,0.36,0.55,0.04,0.48,0.66
1.2,-116.14,70.62,168.79,0.24,0.31,0.13,0.09,0.41,0.05,-101.76,87.16,137.63,0.17,0.15,0.17,0.08,0.29,1.12,-134.99,56.17,130.97,0.32,0.08,0.42,0.13,0.44,0.74,-99.66,53.62,136.4,0.54,0.42,0.33,0.09,0.37,1.08
1.21,-116.51,70.05,169.72,0.25,0.12,0.37,0.36,0.4,0.09,-101.88,87.31,137.74,0.04,0.3,0.28,0.09,0.25,1.01,-134.98,56.23,131.65,-0.0,0.17,0.68,0.39,0.65,0.69,-100.46,54.31,136.2,0.66,0.48,0.65,0.08,0.65,1.19
1.22,-116.88,70.08,170.53,0.04,0.13,0.11,0.13,0.5,0.08,-102.11,87.39,137.78,0.23,0.28,0.11,0.19,0.48,1.08,-134.61,56.71,131.77,0.13,-0.1,0.54,0.14,0.5,0.91,-101.34,54.8,136.22,0.64,0.42,0.46,0.23,0.57,1.16
1.23,-117.44,70.06,171.29,0.05,-0.04,0.1,0.31,0.45,0.07,-102.22,87.7,137.91,0.2,0.21,0.14,0.16,0.4,1.04,-134.6,57.31,132.25,0.15,-0.13,0.5,0.43,0.55,0.95,-102.15,55.38,135.98,0.57,0.4,0.37,0.27,0.36,1.23
1.24,-117.76,69.95,172.19,-0.04,0.01,0.17,0.32,0.46,0.24,-102.35,87.64,138.12,0.04,0.28,0.07,-0.05,0.22,1.05,-134.28,57.48,132.69,-0.04,0.13,0.33,0.38,0.45,1.04,-102.83,55.73,136.01,0.57,0.39,0.4,0.25,0.44,1.26
1.25,-118.31,69.91,173.05,0.03,0.1,0.22,0.22,0.59,0.05,-102.42,87.73,138.37,0.02,0.04,0.19,-0.05,0.38,1.0,-134.16,57.9,132.81,0.08,-0.02,0.34,0.38,0.56,0.98,-103.64,56.52,136.05,0.43,0.35,0.23,0.18,0.34,1.32
1.26,-118.47,69.7,173.85,0.1,0.09,0.02,0.03,0.54,0.04,-102.65,87.63,138.53,0.13,0.24,0.09,-0.01,0.28,1.04,-133.96,58.4,133.3,0.18,0.28,0.34,0.32,0.5,0.91,-104.31,56.66,135.96,0.49,0.36,0.24,0.24,0.33,1.02
1.27,-118.77,69.77,174.76,0.15,-0.05,0.35,-0.03,0.33,0.12,-102.55,87.78,138.62,0.01,0.2,0.05,0.0,0.46,1.03,-133.54,58.6,133.51,0.17,0.06,0.38,0.35,0.2,0.76,-104.86,57.23,136.0,0.44,0.37,0.46,0.17,0.32,1.19
1.28,-119.41,69.68,175.38,0.01,0.05,0.28,0.02,0.54,0.08,-102.89,87.63,138.37,0.01,0.22,0.22,0.01,0.46,0.85,-133.38,59.06,133.88,0.09,0.18,0.24,0.11,0.12,0.85,-105.29,57.86,136.07,0.33,0.55,0.3,0.14,0.3,1.09
1.29,-119.65,69.62,176.05,-0.07,0.1,0.23,0.12,0.62,0.12,-102.76,87.79,138.71,-0.04,0.19,0.09,0.14,0.55,0.79,-133.34,59.31,134.3,0.01,0.22,0.36,0.05,0.38,0.83,-105.89,58.32,135.92,0.26,0.52,0.22,0.19,0.34,1.07
1.3,-120.08,69.8,176.81,0.17,0.08,0.15,0.19,0.39,0.11,-102.74,87.91,138.88,0.04,0.16,0.17,0.28,0.48,0.79,-132.69,59.61,134.41,0.04,0.18,0.33,0.23,0.15,0.74,-106.2,59.03,136.02,0.3,0.64,0.15,0.14,0.21,0.99
1.31,-120.5,69.48,177.49,0.06,0.2,0.18,0.35,0.45,0.25,-102.92,87.6,138.95,0.07,0.15,0.2,0.24,0.23,0.85,-132.68,60.19,134.5,0.08,0.31,0.14,0.22,0.05,0.67,-106.49,59.44,136.05,0.24,0.32,0.28,0.22,0.32,1.13
1.32,-120.83,69.96,178.05,0.08,0.03,0.37,0.09,0.31,0.14,-102.95,87.47,139.19,-0.04,0.05,0.17,0.31,0.4,0.67,-132.25,60.33,134.89,0.09,-0.01,0.07,0.31,0.25,0.7,-106.86,59.96,136.03,0.39,0.6,0.13,-0.07,0.26,0.8
1.33,-121.15,69.73,178.55,0.11,-0.17,0.04,0.39,0.45,0.15,-103.05,87.46,139.0,0.17,-0.04,0.03,0.28,0.37,0.61,-132.1,60.75,134.91,-0.1,0.32,0.35,0.31,0.2,0.66,-107.36,60.68,135.86,0.43,0.4,0.09,0.3,0.18,0.94
1.34,-121.5,69.95,179.27,0.05,-0.09,0.19,0.17,0.47,0.15,-103.3,87.18,139.34,0.17,0.02,0.05,0.31,0.29,0.65,-131.73,61.11,134.97,0.03,0.16,0.32,0.14,0.28,0.71,-107.93,61.18,135.91,0.26,0.41,0.35,0.24,0.25,0.86
1.35,-121.84,69.93,179.31,0.14,-0.09,0.11,0.05,0.25,0.21,-103.36,87.29,139.29,0.19,0.37,0.08,0.34,0.5,0.75,-131.39,61.44,134.97,-0.04,0.21,0.21,0.42,0.27,0.61,-108.44,61.56,135.63,0.45,0.32,0.26,0.14,0.42,0.87
1.36,-121.72,69.69,179.43,0.21,0.11,0.1,0.17,0.39,0.2,-103.69,87.09,139.15,-0.07,0.27,-0.04,0.09,0.25,0.72,-131.25,61.63,135.24,0.15,0.3,0.2,0.41,0.26,0.62,-108.62,62.16,135.32,0.43,0.46,0.44,0.2,0.53,1.03
1.37,-122.11,69.82,179.82,0.12,0.1,0.18,0.17,0.4,0.38,-103.78,86.77,139.53,0.34,0.06,0.01,0.3,0.47,0.82,-130.55,62.56,135.41,-0.07,0.24,0.24,0.59,0.94,0.98,-110.17,62.96,134.45,0.11,0.27,0.35,0.52,0.69,1.25
1.38,-122.12,69.81,179.9,0.17,-0.1,0.17,0.46,0.48,-0.02,-103.78,86.67,139.46,0.22,0.24,-0.0,0.05,0.33,1.03,-130.32,62.94,135.5,0.0,0.22,0.11,0.71,1.05,1.06,-110.81,63.55,134.08,0.23,0.25,0.35,0.53,1.1,1.59
1.39,-121.92,69.79,179.61,0.11,0.06,0.06,0.23,0.18,0.24,-103.76,86.55,139.39,0.27,-0.17,-0.02,0.25,0.47,0.97,-129.97,63.29,135.61,0.19,0.11,0.26,0.63,1.49,1.46,-111.68,63.89,133.48,0.31,0.28,0.14,0.63,1.24,1.83
1.4,-122.04,69.67,179.55,0.17,0.13,-0.09,0.19,0.37,0.08,-103.61,86.52,139.61,0.13,-0.04,-0.11,-0.02,0.42,0.92,-129.38,63.75,135.88,-0.02,0.12,0.27,0.97,1.68,1.65,-112.24,64.21,132.6,0.3,0.22,0.59,0.71,1.49,2.28
1.41,-121.8,69.55,179.54,-0.01,0.01,-0.11,0.4,0.43,0.28,-103.53,86.34,139.51,0.17,-0.01,-0.04,0.08,0.45,0.94,-129.05,64.14,135.84,0.04,0.16,0.05,1.11,2.01,2.08,-113.15,64.74,132.25,0.14,-0.01,0.55,0.99,1.55,2.33
1.42,-121.65,69.7,179.47,0.08,-0.0,-0.19,0.43,0.38,0.25,-103.38,86.32,139.52,0.13,-0.0,0.05,0.08,0.5,1.03,-128.72,64.38,136.17,-0.01,0.16,0.06,1.2,2.51,2.16,-113.97,64.99,131.53,-0.02,0.04,0.56,1.05,1.87,2.79
