0.01,-111.67424500201837,78.4007943554285,176.54739606321633,0.0809487196584062,0.2751072287045764,0.0500456225400077,0.5741673008835224,0.1151487306244004,0.7748270900303361,-103.04697526885188,81.55445479997843,141.11780246596692,0.0097593475245817,0.043893496874535,0.0107643275250236,0.0387223749944828,0.0874241866404727,0.0101480387364549,-175.03398236757764,6.362748762057936,10.094618239727556,0.0410191726830703,0.0104020855609658,0.030328953975107,0.5774719569833081,0.913686963260382,0.414309548236112,-139.99036970708482,2.6291429872231715,11.561713341289522,0.0637076405136857,0.1284795302041385,0.2211166401484268,0.7962962449779931,0.9006107014346859,0.5113998910713482
0.02,-111.68563686339787,78.47177469145792,176.55086347230665,0.0957350603737906,0.2451076146008103,0.044321946138958,0.7233371469717955,0.1437715704865374,0.9664261885463542,-103.15955330564638,81.43963448631172,141.60780078842106,0.0505782720976605,0.0820112651285336,0.0307995830096297,0.1381775937770202,0.1110378035577765,0.072182702702615,-174.62704075085912,6.313166259202392,9.841886506821346,0.0849898692304996,0.0296123359194826,0.1427830899909837,0.6259118316203519,1.0415391222500665,0.6692881474831007,-139.1430149839015,2.52666303890743,11.605665926915352,0.0691470713035816,0.1333934813572591,0.3144736405989561,0.9860106984510588,0.8454282665463407,0.8092172214756305
0.03,-111.68247084201418,78.53432558638201,176.56060016877515,0.1099354766345849,0.2228315356780456,0.0398396157037273,0.8698532664008052,0.1711555829756669,1.1396100711445465,-103.26475169284572,81.3365268749059,142.13166546549502,0.0880720728648081,0.1221523408130701,0.0500112055937535,0.248042729117821,0.1353593957751142,0.1308121772914063,-174.21258253586885,6.266655485741628,9.586795572849558,0.126706486312381,0.0478739495544437,0.2513877134739132,0.6678229447915649,1.1527928668107763,0.9307722667950944,-138.30827239046448,2.4321631752321644,11.652199973052186,0.0743283590903981,0.1391973265021379,0.4015123739603539,1.1561494060797075,0.7907381484357532,1.1080995887082032
0.04,-111.65751606802358,78.55946149868333,176.5795044339968,0.1232985654581305,0.2147679944571181,0.0371800638435222,1.01180583220601,0.1961875077549398,1.281058464215007,-103.3593133173136,81.22461687259842,142.7437923220462,0.1200270178835753,0.1682548919686957,0.0675982293056739,0.3732113326595926,0.1604323370345637,0.1837359249860259,-173.77951658052476,6.224750571918281,9.334544494076296,0.1638846134563646,0.0644169833783104,0.3518263452353072,0.6989623877198552,1.237097254260794,1.1966535017525488,-137.49703168511795,2.355738280616427,11.702315421735973,0.0789879954653904,0.1459936089945948,0.4761847266270207,1.2938837223640884,0.7370867413502564,1.4024625095084595
0.05,-111.60566767804514,78.51914844427807,176.6093857553057,0.1355657162971069,0.226134658749528,0.0367391280642339,1.1465191125394054,0.2182771079406837,1.3808372989288824,-103.44041553502797,81.0825790302703,143.49256212472827,0.1448393968669021,0.2240462761855255,0.0828934199286533,0.5171564549213242,0.1861320654107417,0.2293721985933702,-173.3192138751761,6.18850003603024,9.09127388852476,0.1946200581872341,0.0785653531861706,0.4400925950132869,0.7161092771693975,1.2870768782890465,1.46278540009688,-136.71999752289491,2.306531014893781,11.756516437893428,0.0828667129430408,0.1538260033622447,0.5335642268477337,1.3897089823294888,0.685483500209238,1.6853442098297564
0.06,-111.52463891723764,78.38741231743893,176.6506904816613,0.1464644878934328,0.2604633873556702,0.0386958953439267,1.2704789836680044,0.2374461433245261,1.4333712404709356,-103.50591376488092,80.88871505989508,144.41695283615064,0.1616818972426096,0.2928052290388204,0.0954163333733953,0.6814342058926969,0.2121747039413051,0.2669957937213277,-172.82652281002427,6.158332512811246,8.864031184514767,0.2175490909670029,0.0897752772429968,0.5126982392809102,0.7173983501168129,1.299167344388621,1.7228538088671743,-135.98747987594496,2.292190103761943,11.81473695016389,0.0857364821140588,0.162677838036357,0.5702614130662401,1.438405014243758,0.6374666196722837,1.9485468096882852
0.07,-111.41541326178856,78.14137683135908,176.70236630312155,0.155717932352126,0.3193391392846265,0.043001002309337,1.3794982503687685,0.2543139289789569,1.4379011840688676,-103.55462432880525,80.62132856537536,145.54394722193462,0.1705825863922574,0.3771236107161126,0.1049022982459626,0.8653029738503272,0.2381341659434835,0.2967641927657086,-172.30033743630804,6.133987430879445,8.660562617731959,0.2319516085827047,0.0976716467270425,0.5668778019811839,0.7024993138963805,1.274027162919889,1.968609714166076,-135.30904046538012,2.318420054502679,11.876337855291323,0.0874291512856745,0.172454548913265,0.5846584908113668,1.4395407691518802,0.5950071315677119,2.183073776756783
0.08,-111.28240041396788,77.76219620079301,176.76188270334393,0.1630689964709675,0.4023104301765457,0.0493857627188144,1.4690990605376757,0.2699715275579532,1.398387103676561,-103.58661674817468,80.25908822663912,146.88689222242803,0.172402243418072,0.47868104779304,0.111304454847584,1.0655115163202094,0.2634710131627473,0.3196313966250351,-171.74367797682856,6.1145270018259925,8.488928959283948,0.2377871162261879,0.1020794647213597,0.6007747093481614,0.6726274597436531,1.2164631484260875,2.1904587756323672,-134.69304098582455,2.388653911627193,11.940183115406846,0.0878633873390241,0.1829556686531789,0.5769478715493422,1.39746036030543,0.5602774769770499,2.3798204389031743
0.09,-111.1332698093641,77.23583424351567,176.82540659701087,0.1683154537281058,0.506973922935062,0.0573912377498395,1.5350502095242442,0.2857594584584216,1.322889379961795,-103.60346843107108,79.78143516607169,148.4448916328367,0.1687094740182406,0.5980561429032679,0.1147717125124624,1.2763083810093157,0.2875769945915976,0.3371637247782043,-171.16331015899357,6.098435984041919,8.356970816599327,0.2356617386585926,0.1030454138082237,0.6135892097433856,0.6303999444819274,1.134871018101885,2.378334048571491,-134.14617148236468,2.503876682090683,12.004794087749447,0.0870670789406296,0.1938490598378168,0.548988184442721,1.32074953793805,0.535336432211558,2.5304258719154165
0.1,-110.97846830944654,76.55363351018339,176.8881170892655,0.1713482360911537,0.6292208894332898,0.0664138909132146,1.573972687364614,0.3029878758204375,1.2225216066589737,-103.60842436672752,79.16907621768908,150.2032459409811,0.1615689472613729,0.7346035109412777,0.1156104413436946,1.48970922878611,0.3098353031329892,0.3512824792997472,-170.5689901940245,6.083801903406897,8.271672619843827,0.226733502159465,0.1008431774970352,0.6056668791370989,0.5795725330908573,1.0402579275030188,2.522731332686181,-133.67304682949214,2.6626187708905995,12.068573565058411,0.0851934857336055,0.2046632078853454,0.504014019663043,1.2212428683521563,0.5217913830876926,2.628171910674801
0.11,-110.83045895420403,75.71261898846313,176.94463380196188,0.1721852261312396,0.7636192439852817,0.0757623457837662,1.5839194147470743,0.322653406547394,1.1101119558807926,-103.60640632953827,78.40457855920003,152.13488413120035,0.1532724747566009,0.8864206406290076,0.1142397918196268,1.6960267109988014,0.3296896110318846,0.3639674715213481,-169.97246655525174,6.068554094593022,8.23848878900545,0.2125716598660516,0.0959568290139123,0.5785103428760806,0.524696438247562,0.9449666121987402,2.6157719297668063,-133.27594926664355,2.8611261043404115,12.130083819264955,0.0825300982264072,0.2148104586101443,0.4462484565590426,1.112684701797333,0.5204975561352518,2.6688158924454823
0.12,-110.7027417819037,74.71549362877202,176.98952774474296,0.1709932804545469,0.9038925283422382,0.084719006803131,1.5648404649707073,0.3452078045471233,0.9987381077310208,-103.60383228148967,77.47305293038687,154.20265114575605,0.1460515071744815,1.050414665634115,0.1111491150296559,1.884627691068236,0.3467088177037917,0.3769632971235186,-169.3863913043533,6.050729375482892,8.2607003843139,0.1949920829428613,0.0890401996049791,0.5347055010536628,0.4707278133201255,0.8612552765266748,2.6521686037526044,-132.9547726107366,3.0936983445230264,12.188356457576376,0.0794990780848996,0.2236460408085215,0.380470821588862,1.0091966256126288,0.5313465153582833,2.6512590312606394
0.13,-110.60873630536358,73.57030776470909,177.01787640526655,0.1680928141154282,1.0434481391970445,0.0926014105592629,1.5188567753838509,0.3704220600380424,0.9003101643557371,-103.60823381170968,76.36288920086757,156.36222914265392,0.1418104631939652,1.2224641765458684,0.1068621904890879,2.0448472681067007,0.3606335872520298,0.3915333716185367,-168.8232904135153,6.02872870698366,8.338867306083673,0.1758927925247188,0.080855663405982,0.4777645893910048,0.4226140455798294,0.7999021615607993,2.6299913277330123,-132.70719541699427,3.3531714406667725,12.243206264808196,0.0766477976187343,0.2305578282027302,0.3115886481854535,0.923727171748075,0.5531821224561861,2.5779726801621425
0.14,-110.56062003122562,72.28981860368393,177.02581170894683,0.1639414192276103,1.1759024317613678,0.0988201696845199,1.450279668027648,0.3973709438254046,0.8243632855291043,-103.62769056917936,75.06649070094647,158.5654048595311,0.141913862854377,1.3976602021116495,0.101908946060567,2.166967630961284,0.3713962439046268,0.4083018992285747,-168.2947170545372,6.001533219329424,8.47043245248298,0.1571104967115509,0.0722008072894532,0.4118989098001778,0.3848788727821848,0.7689993071000861,2.5511500788401835,-132.52907945227977,3.631507989759684,12.295517032317568,0.0746279655271276,0.2350734124304452,0.2442548880802129,0.8666625150721653,0.5838603803777649,2.455124074221282
0.15,-110.56822780230118,70.89059428677335,177.0109951397262,0.1590959355133231,1.2955504556978912,0.1029312394846307,1.3653351538625589,0.4245414137599818,0.7771875185571797,-103.67012914838416,73.58094160846835,160.7633707114055,0.1470498094879041,1.5706035051962384,0.0968027296008931,2.243163611074036,0.37911268967568,0.4272107372762191,-167.8106698941747,5.968856949733681,8.649522527720919,0.1403111434827139,0.0638338556996023,0.3417421335921226,0.3612319484251993,0.7730764099830143,2.4215321680896245,-132.41505799861235,3.9204494616921615,12.347465299872036,0.0741622752642518,0.2369659229465546,0.1825604101168998,0.8447570253194098,0.6204445020567988,2.292360086204056
0.16,-110.63811835724228,69.39195356381943,176.97295041529537,0.1541564338442633,1.3977333814212896,0.1046788110426792,1.2715917628600069,0.4500462455204214,0.7613732190566774,-103.74255562544708,71.90853448348253,162.90977009997562,0.1571811014754519,1.7357315120772028,0.0920204638532826,2.268320877658522,0.3840478268265462,0.4475989333444842,-167.3793073352236,5.931223951231643,8.866976611077277,0.1269174879894364,0.0564080262627951,0.2720499043801901,0.3542325697838401,0.8126537352790019,2.2507543532308083,-132.35924771841587,4.21217834453722,12.402648323034684,0.0759983845467751,0.2363384598289401,0.1298184722785243,0.8605008338063528,0.6595051799145832,2.1022265607343766
0.17,-110.77290209817956,67.81485917119039,176.9132002374181,0.1497003057787373,1.4790689238673649,0.1040226777824258,1.1771515190035486,0.4719043437656738,0.7757952404502249,-103.85030367531412,70.05708457101764,164.96325870154027,0.1715843997494372,1.887648043308832,0.0879837944131119,2.2406421486811854,0.3865550886133979,0.4683920086420528,-167.00693719915228,5.889966408456149,9.11061817866527,0.1180679511221503,0.0504222535867258,0.2074025871698667,0.3650379525301142,0.8842676418015324,2.051518579147299,-132.35599192698123,4.499935889605647,12.46608584830352,0.0808513289459383,0.2336689963499677,0.0884434893352272,0.9119843438649388,0.6974835203866121,1.899230639147224
0.18,-110.9708970638246,66.1808900205133,176.83518712455484,0.1462182417564912,1.5375311141623218,0.1011434408480042,1.0897284827278155,0.4883353696146283,0.8160057701106901,-103.99638289576428,68.03996769901839,166.88943381525044,0.1889675491500107,2.0214324957881686,0.0850408192562013,2.161971271462088,0.3869928909185836,0.4883698380415184,-166.6982192769618,5.847146967417884,9.365768621736729,0.1145962327872174,0.0461923259768125,0.1519351829078141,0.3932631106971495,0.9809528188426576,1.838599926498372,-132.4005277077346,4.778543297094006,12.544072313683886,0.0893373159736681,0.2298032004174195,0.0599137781555425,0.993256932421435,0.7310722291338458,1.6986001341529673
0.19,-111.22614513561044,64.51139485299564,176.74399494585063,0.1440639628454501,1.5723929394859426,0.0964222428421783,1.0157771402675224,0.4980133791211511,0.8749626806934548,-104.18100456229132,65.87584175241288,168.66206370650943,0.2076461549420655,2.132910131378609,0.0834492717161366,2.037786122693705,0.3856304367191325,0.506467239472519,-166.45649347041692,5.805412971179226,9.615980583008689,0.117020713842113,0.0438433007112588,0.1091121675216188,0.4369728451566617,1.093110832725462,1.6275499600374077,-132.48947009892038,5.044781870088291,12.643868157286176,0.1019042729715356,0.2258912199289885,0.0448004060221635,1.0951191224196613,0.7575765229090229,1.5148538492863808
0.2,-111.52878651751016,62.8268789816544,176.645913523824,0.1434253338119504,1.58406903235375,0.0903974087736461,0.959822693507443,0.5002361913352253,0.9439921811878564,-104.40134540323317,63.58804452170256,170.26361791530627,0.225754639754456,2.2188691151459,0.0833625708977296,1.876837984850716,0.3825678131365682,0.5220502396047297,-166.2841423298909,5.767793614012152,9.843948997349807,0.1255353437377103,0.0433215085486507,0.0815567759136223,0.4928164295654298,1.209648304410527,1.4332602537085155,-132.6210268580124,5.297600685145319,12.773236740332342,0.1187669819490162,0.2232741854096741,0.0428432873166104,1.206241012274759,0.7752223860453147,1.3603552068134603
0.21,-111.86576119011936,61.14661333521336,176.54790015761222,0.1443176027973165,1.5739047940139523,0.0837052044856976,0.9240919346156512,0.4949922199546578,1.013867555659712,-104.6515861230084,61.2036964342337,171.6851554486603,0.24146540977278,2.277212153257724,0.0848200801705512,1.6904463151163012,0.3777006549964398,0.5351077932826487,-166.18291107310742,5.737453894980217,10.032539008962594,0.1399978682212541,0.0444227436029596,0.0709361049211737,0.5563017017385186,1.3192311863196673,1.2685766286190878,-132.79489527646805,5.538136707774578,12.9398553997781,0.1398559405724347,0.2233342414243765,0.053059276157831,1.3144676732512417,0.7833802251417379,1.244056301007506
0.22,-112.221779056997,59.48840723325956,176.45699439041354,0.1465934475961793,1.5439505611047672,0.077013987599521,0.9084714956130188,0.4829330335464377,1.075874482912868,-104.92323329136198,58.75256949241391,172.92567004485562,0.2531917350527294,2.3070325615835663,0.0877427455031536,1.4914971732182516,0.3707510302698165,0.5463118374300354,-166.15413218216213,5.717422026503283,10.16585578715224,0.1599160530558315,0.0468322368502203,0.0778976186805041,0.6221888675912606,1.4114842681592796,1.1431592584193986,-133.0118406751329,5.769548954601764,13.150650687609668,0.1647883032615051,0.2273262602289832,0.0738713929882801,1.4081562852238585,0.7826700794824606,1.1706294707866751
0.23,-112.5804747875395,57.86847039261922,176.37974058556196,0.149962682128824,1.4967431385802086,0.0709604954943031,0.9107558684721356,0.4652753781636623,1.1227322479341957,-105.20570377035492,56.26580936658497,173.99101923178705,0.2597537247815529,2.3086090162297617,0.091935389392879,1.2932430815550662,0.3613653026181851,0.5569308544456207,-166.19882480304287,5.710310017871649,10.2302741767935,0.1844377338758161,0.0501713314358066,0.1020507270276114,0.6849690969792344,1.477984064174584,1.0627378755780672,-133.2730046809302,5.996682736071258,13.411123416290652,0.1928665436143936,0.2362101501436748,0.1032513137934133,1.4773919544392704,0.7749208729552319,1.140123550965724
0.24,-112.92564351390226,56.30130332302748,176.32166741108534,0.1540173503674325,1.4351039702671655,0.0660948471166027,0.927106200231075,0.4436589735771278,1.1492606391419713,-105.48712220139426,53.7746119000464,174.89257669387115,0.260491177168877,2.2833211875033785,0.0970972826997065,1.1080504256196986,0.349255257231031,0.5686222347295319,-166.3176557781126,5.7180507076124725,10.215347284464675,0.2123553392263487,0.0540453521300109,0.1419889621926787,0.7393813890810473,1.5129505921941733,1.0288294602104109,-133.57903324595114,6.225591524290476,13.724735801562597,0.2231069404380375,0.2505018865216485,0.1388695088943754,1.5149497278400217,0.762976597109701,1.1481888458637015
0.25,-113.24244546970723,54.799582540153445,176.28686407585445,0.1582619085339035,1.3619590166696924,0.0628380610490433,0.9526273566110416,0.4199828711444714,1.15272814342513,-105.75525621595318,51.30895582148075,175.6457471046124,0.2553122818649556,2.233497520547356,0.1028426491629373,0.9462652197809012,0.3343420918170418,0.5831570627135841,-166.5107621465055,5.741677747110141,10.114521886181947,0.242138150718062,0.0580874539179963,0.1953526819480748,0.780913457773613,1.5136133667050042,1.038898906654332,-133.9291474031056,6.462953464263739,14.092431379561656,0.2542968543753034,0.2701609092171614,0.1782502724245082,1.516905826714848,0.7503702298421211,1.186816133680629
0.26,-113.5184723604797,53.37403202973014,176.27768240514743,0.1621492550626051,1.2801868145806954,0.061453519915981,0.9819819555690285,0.3962380735112807,1.1328756626792418,-105.99849377142009,48.896481713984585,176.26847118232206,0.244674053624286,2.1622127166188,0.1087315189617555,0.8153535031812205,0.3168623380447068,0.6021372463198564,-166.777451024961,5.781176030661315,9.925603462876651,0.2720036898093423,0.0619944878942364,0.2589374997864743,0.8062300872543373,1.480273729695218,1.0868808396649106,-134.32030242664186,6.715427893131645,14.512350221318258,0.2850775072179036,0.2945312073941135,0.2189314712522633,1.482845902341514,0.7409080469513397,1.245455514219736
0.27,-113.74458263567595,52.03328839425908,176.29458403931457,0.1651214164693409,1.1925011011086004,0.0620323864576757,1.009981787678209,0.3743479854417964,1.091661133357755,-106.20675602548704,46.561587530585285,176.7798280364243,0.2294991199675702,2.0730546719825136,0.1143085140365889,0.7194217184527448,0.2974097272635,0.6267550652562727,-167.11581486846825,5.835426856951815,9.650933704574369,0.3000321896989268,0.0655525370042578,0.3288570264813291,0.813478934073352,1.4160958023125,1.1639546692755942,-134.7465879526962,6.989004152528147,14.979787270925003,0.3140468154818024,0.3223511902831162,0.2586282222169624,1.415667579897505,0.7382147096517636,1.312337292407397
0.28,-113.91543511827064,50.78377619795781,176.3361425630557,0.1666516847030969,1.101369511047444,0.0644923520106995,1.032108261367793,0.3560231929078668,1.032801449567714,-106.37224172028336,44.32478696875624,177.1988142712463,0.2110425767357781,1.969880480830456,0.1191440466998852,0.6591513103767993,0.2769075744882678,0.6576291477995833,-167.52232436007048,5.902263652756144,9.297267720983928,0.3243168021237028,0.0686508574113397,0.4007665448351515,0.8024395383186449,1.3266506443803605,1.2594660371126607,-135.19900432359728,7.288398731899401,15.487418426845764,0.3398735411069305,0.3518409224714699,0.2953938951098607,1.3210253707982715,0.7452871358464749,1.3758136489665198
0.29,-114.02968064858658,49.629616313179646,176.39919900853772,0.1662848579731199,1.0089635609650232,0.0685888369601112,1.0449087640908477,0.3426363936569537,0.9611985692739634,-106.48991902326848,42.20235098700338,177.543349333052,0.1907297114307604,1.856580344188717,0.1228711882177817,0.6321095418627668,0.2565221709512564,0.6947319930946443,-167.99147892600834,5.978640657840552,8.875365018980071,0.3431313439067742,0.0712833556102728,0.470145383817501,0.7745014385516448,1.2192425049538258,1.3619000468265892,-135.66570344992704,7.616555029759496,16.025786520318057,0.3614098873636769,0.3808638378338567,0.3277622428739369,1.206512409683862,0.7641017761779352,1.425566377431407
0.3,-114.08980623965608,48.5725936985657,176.47915651721468,0.1636734334153387,0.9171326976242786,0.0739375574880223,1.046216985689368,0.335126164940197,0.8823310937757709,-106.55771808527516,40.206226261263495,177.82952981843871,0.1699886230138752,1.736866794475254,0.1252129419974662,0.633343174073715,0.237535927304872,0.737404951070057,-168.51559740225937,6.060900437294638,8.399333706685303,0.355091577060605,0.0735371468370551,0.5326222717233179,0.7324763275626998,1.1020728276607306,1.4598267219211296,-136.1327089852636,7.974291604347344,16.58400161784472,0.3777870215857305,0.4071459664599354,0.3548456863828491,1.0807052592691382,0.7953177196829192,1.4535658814651162
0.31,-114.10165905636816,47.61220906832558,176.57038936731018,0.1586085667046386,0.8273975485012395,0.0800470733832686,1.0351755400926,0.3339393296990029,0.8016749879102988,-106.5764245699998,38.34419958284371,178.0711351473225,0.1501004529156981,1.6141034941885963,0.1259975749523217,0.6561367580264641,0.2212016386749568,0.7844442641480717,-169.08481507230408,6.145109990548859,7.885786880548553,0.3592869797104772,0.075568934831416,0.5843147607872509,0.6802662337168642,0.98333257605882,1.5427564834686256,-136.58504467154066,8.360130890658816,17.1505759614179,0.3884792581895124,0.4285233512061781,0.3763628550402751,0.952205631907356,0.8381119765702205,1.454708982976362
0.32,-114.07370541603002,46.74583055873045,176.66673426377938,0.1510441157716336,0.740960686633743,0.0863594343987451,1.0120900040558929,0.3390172254775573,0.7241941478141122,-106.54931816197376,36.620257422541165,178.2793723927681,0.1320847930692761,1.491182485216506,0.1251622086790417,0.6928233636869185,0.2085985144837614,0.83423890857925,-169.68732156168784,6.227423728679898,7.352880859618211,0.3553660251112057,0.0775719709987735,0.6221455895117176,0.622425476533044,0.8703377870113665,1.6018628989763328,-137.00812310840843,8.77032340709927,17.71429345307155,0.3933282802571332,0.4431814958480355,0.3925779253655699,0.8287948347821988,0.890170413454659,1.4271047671827195
0.33,-114.01610570790956,45.96895020733144,176.76202515680532,0.1411103007901912,0.658733241594828,0.0922963776894553,0.9781804398107152,0.3498229977651611,0.6539245075746815,-106.48162995422489,35.035078745462265,178.46283660350122,0.1166307508219568,1.3704524489772574,0.1227463688654739,0.7355584179876865,0.2005082973382467,0.8849389671387375,-170.309834781974,6.304427650580872,6.819306509241162,0.3435661787048298,0.0797384545458174,0.6440978997927934,0.5636663622432183,0.7688279223170762,1.6305479715930375,-137.38919970848926,9.199063988197045,18.26501296651572,0.3925271801914801,0.4498509798775424,0.404154055998588,0.7167813824234434,0.947841479222316,1.3720175005000288
0.34,-113.93970963176284,45.275540294846486,176.85062513294153,0.1291125313938896,0.5813729273657409,0.0973079520910594,0.935297331770995,0.3654002625642267,0.5936719620678123,-106.37990522772994,33.58659771551615,178.62765331425572,0.104077041884659,1.2536957726032842,0.1188779254688668,0.7769924166957963,0.1973269631533242,0.9346260517632514,-170.93826775363513,6.373423112470958,6.303298800781662,0.3246879695994685,0.0822234659008852,0.6493773414962571,0.5083647713378093,0.6825275777751275,1.6248366106746543,-137.71868600477228,9.63887746551552,18.794322450436383,0.3865721813043289,0.4479305954969944,0.4119454189348117,0.6205825383876238,1.006445205625056,1.2935108221182556
0.35,-113.85508909058656,44.65849763292017,176.9279026669152,0.1155129477066277,0.5093273905713612,0.1009200917359328,0.8856449531855856,0.3844520427773406,0.5448487890621407,-106.25135566273948,32.27057886928495,178.77776231185567,0.0944380140885554,1.1421494408857649,0.1137541372213747,0.8108023089766027,0.1990236871731482,0.9814539879942608,-171.55851448019996,6.43261877706586,5.821718227417743,0.3000195039765089,0.08511633239687,0.6384601114809051,0.4601223279282391,0.6130286169610702,1.5835903826057127,-137.99113777103503,10.081134161687562,19.2959890600211,0.3761946867048114,0.4375222035840195,0.4167677436968502,0.542547517327436,1.0607177292225711,1.1978645188765105
0.36,-113.77171835630638,44.11015715298152,176.99059957594142,0.100896701659565,0.4428788816395774,0.1027772715941552,0.8315344419667773,0.405432619388633,0.5074714225868907,-106.103271335153,31.081158377177697,178.91529633031433,0.0874664828481301,1.0365614750054692,0.1076205277503679,0.8320643152375201,0.2051529589923988,1.0237406927926984,-172.1572618711753,6.481212920246213,5.389243533456236,0.2712229122423648,0.0884237226350943,0.6130187690036353,0.4214369760697559,0.5599901198034736,1.5085327760504748,-138.20577715690555,10.516644797968258,19.766180913193,0.3622869931229988,0.4193772378233779,0.4191922489746372,0.4830079335153251,1.105356903825386,1.0928520595634952
0.37,-113.69738146762404,43.62284672353199,177.03704775996647,0.0859290242465926,0.3821904445182463,0.1026758951204897,0.7751851854883134,0.4266501483668714,0.480327188205715,-105.9425416851482,30.01132054267734,179.04100521421563,0.0827393292103224,0.9372702785854344,0.1007501868187357,0.8374679884506037,0.2149176921078978,1.06001611923523,-172.7227278240538,6.519363008912994,5.017701802194905,0.2401967058448686,0.0920662638098925,0.5757302501719188,0.393522105615899,0.5215939952436219,1.4040869738009174,-138.36646783250822,10.93628206918604,20.203463765410003,0.3458329163862405,0.3947697001496639,0.4194038955397757,0.4405272733434265,1.1356144548815683,0.9869729883478332
0.38,-113.63784514039644,43.18944362518949,177.0672114685529,0.0713103858798636,0.3273559169516509,0.1005840587187675,0.7185958251066733,0.4463808095080893,0.4612926607271523,-105.77531018493102,29.05329611785862,179.1546764098821,0.0797497263519174,0.8442932721270597,0.0934255809205282,0.8253808886670574,0.2272719286149896,1.0890470105345755,-173.2452312521201,6.548053600769835,4.715552351941708,0.2089278045111777,0.095887963269992,0.5299832129903559,0.3762953679289521,0.4951505124271266,1.2770412516391096,-138.4811344551559,11.33158055351972,20.60859972570939,0.3278507990303551,0.3653218011287516,0.4171535900938781,0.4123108104175292,1.1478610088518375,0.8887285731159716
0.39,-113.59679589236872,42.80388413836612,177.08255820889036,0.0577357031844538,0.2784536575821161,0.0966441770104745,0.6634971004315809,0.462993974479626,0.4477584238610571,-105.60676474545258,28.198882103064854,179.2555090214278,0.0779914593629274,0.7574168176089294,0.0859237713426598,0.7957817008230909,0.2410442149160795,1.1098559864496709,-173.7175199142061,6.568885537740944,4.48753610223832,0.1793452638399773,0.0996759265069437,0.479515446336597,0.3685339091609975,0.4777300897213182,1.1360682642977795,-138.56069683361258,11.695274885592571,20.984193957707703,0.3093509923561229,0.3328148123821516,0.4118159265164154,0.3947272759020727,1.1400443864583905,0.8060105334853807
0.4,-113.57601166161244,42.46157638137895,177.08578807326614,0.0458608950995755,0.2355985641486147,0.0911565029347477,0.6113751001054393,0.4750823259738913,0.4370910900403831,-105.44104944763455,27.43968751162548,179.34241292673553,0.0770247205007582,0.6762870062675244,0.0785044594374177,0.7500896695113197,0.255060753682361,1.1217407826802777,-174.13481754419564,6.583817916858084,4.33450040732488,0.1531860221257927,0.1031869192584774,0.428024895997232,0.3681675180450194,0.4667074175452681,0.9911292957090452,-138.61766386367958,12.021746437271794,21.33424617719825,0.2913037326655699,0.2990179835405975,0.4025423749898387,0.3838831982873295,1.111975604716858,0.7456413056585006
0.41,-113.57572133510588,42.15967457601688,177.08047040422903,0.0362771263609197,0.1989823740589527,0.084544153942706,0.563531067511733,0.481584218560557,0.4270529667736853,-105.2812745680147,26.76730976286928,179.41422478400992,0.0765170445527823,0.6005026149173145,0.0713995243504547,0.6909228666809651,0.2682521458841489,1.124296527828013,-174.49459939419953,6.594898875031977,4.2534080067052695,0.1318818595066863,0.1061770800599246,0.3788056524150988,0.3726607867385945,0.460135368992683,0.8527979564693147,-138.66458812737298,12.307359691677622,21.66366410151036,0.2746090104320631,0.2655612253768938,0.3884801628990326,0.3761822385440259,1.0654060973439836,0.7130649647999618
0.42,-113.5950958420566,41.897187520399655,177.07064296073358,0.0294906928526972,0.1688913535045457,0.077304096285804,0.5211392887658183,0.4818830070158948,0.4161106713506641,-105.12959942759284,26.173448850065444,179.4698531255108,0.0762572398076475,0.5297065317074088,0.0648033441588032,0.6218131703983809,0.2797356412718152,1.1174497884468946,-174.79615616907918,6.604021186851747,4.237535662287146,0.116475709502608,0.1084314674363026,0.334458885011559,0.3794222696569053,0.4569087167852565,0.7315437477117555,-138.7126051017266,12.55067875833674,21.977786932497605,0.2600606356759136,0.2338634486118802,0.3690140230267483,0.3688001445305162,1.0038908438136258,0.7121536043093519
0.43,-113.632808102386,41.67491064877208,177.06042245769416,0.0259057669946989,0.1456934674661468,0.0699520811637505,0.4852788268862058,0.4758705742506391,0.4035938361176249,-104.9873633576547,25.64997318263708,179.508377887803,0.0761447446519809,0.4636667347441945,0.0588647457116724,0.5468997205745526,0.2888717697321876,1.1015120089313115,-175.0400497755742,6.61273278464261,4.276862339455438,0.1075736295406781,0.1097906660498936,0.2967170113451239,0.3861726481042509,0.4567220440260495,0.6370210798893531,-138.7702615113087,12.752560425479022,22.281953414751943,0.2483030258700635,0.20511235906004,0.3439833524055526,0.3600172296285134,0.932456515093882,0.7450817587793005
0.44,-113.68759533698768,41.495186889063056,177.0536622282982,0.0258082949792,0.1297922080592362,0.0629704154715557,0.4569348347298529,0.4639663131384865,0.3897006387711287,-104.85524212017503,25.188958017530016,179.5291319928772,0.0761612564068593,0.402337510225467,0.053682583196408,0.4706227835732472,0.2952975160190821,1.0772450477713411,-175.2275899973749,6.622119864630537,4.358638248112929,0.1053353624085049,0.1101716225595128,0.2663998263103353,0.3912089223550282,0.4598647737852875,0.5774081783436835,-138.84277477417956,12.91612445932907,22.58113650214005,0.2397881093581723,0.1802797103453031,0.3138313892375762,0.3493753909896405,0.8571136315984296,0.8122366484196465
0.45,-113.7587570954607,41.36151621460412,177.0536796569194,0.0293509718728417,0.1215498988622076,0.0567653334564485,0.436976881162703,0.4470868495856968,0.3753744245215712,-104.73341022447777,24.782720670629583,179.5317859476715,0.0763341234738872,0.3458945836462271,0.0493065240223531,0.3974419419212017,0.2989372743767892,1.045915394322119,-175.36046004156654,6.632763503660261,4.468114929984261,0.1095011258701042,0.1095794391305856,0.2434983798860115,0.3935243398741795,0.4669207016591967,0.5588325891835656,-138.9317740367178,13.046608483455277,22.87965807504264,0.2347455684186883,0.1601531236574663,0.2796559408447125,0.3376570968927623,0.7842712096704783,0.9121593991127896
0.46,-113.84652733711016,41.278047175328695,177.06306642744337,0.0365400688910537,0.1211890255278126,0.0516374019792161,0.4261210935902155,0.4265668724508046,0.3620896134342297,-104.62169405658136,24.42387613230323,179.51644586879092,0.0767009057972173,0.2947404908853522,0.0457427026542787,0.3315964317426107,0.2999892921340742,1.0093107899349516,-175.4405855510261,6.6447556662605285,4.589403426900343,0.1194458323879315,0.1081074637783789,0.2273603872641878,0.392781419557891,0.4784442417679602,0.5849112717964807,-139.0354815770713,13.151124853039525,23.18099261611344,0.2331789286701943,0.1453704735135416,0.2431522078144612,0.3267077537485079,0.7201262173631515,1.0415330664035738
0.47,-113.95227010712536,41.24899452452676,177.08358747053393,0.0472247359177083,0.1286856430190712,0.0477656258068969,0.4248765782637616,0.4040366467421511,0.3515880492555989,-104.51970597832066,24.10543421371117,179.48376460430904,0.0772822829127563,0.2494780701517941,0.0429619672079878,0.2769098242864684,0.2988837730617312,0.9697023694725886,-175.47027911816338,6.657753668605763,4.706413489226008,0.1342469492797804,0.105925339586709,0.2169337597560346,0.3891718817474285,0.4946742665560222,0.6564292095223734,-139.1492303555219,13.238346170622984,23.48766726211296,0.2348939526333831,0.1364497114409701,0.2064620613267969,0.3191351175959714,0.6701004508956588,1.1952436842675578
0.48,-114.07846584010298,41.27803384929268,177.1161667339157,0.0610889252427922,0.1436731534149911,0.0452043079005688,0.4334747157223443,0.3812659599451887,0.3456042323333433,-104.42695402330148,23.82095549914117,179.4350556467384,0.0780674362870698,0.2108522602929833,0.0409080852502017,0.2366253595919629,0.2962130331730513,0.9297469012394008,-175.4526150135096,6.671055445621302,4.803814085873832,0.1527520154254864,0.1032574100105721,0.2110171045883198,0.3832166126879798,0.5153292678532034,0.771181510225586,-139.26619098549128,13.31814868442,23.80126543086164,0.2395580005176267,0.133810994427403,0.1719611403498677,0.3179220901033876,0.6383848891895922,1.366544803104572
0.49,-114.22847765823236,41.36772647070991,177.16094813722574,0.0776462162252483,0.1653762922799649,0.0438909251941072,0.4517876682029939,0.3599888211818583,0.3456131002789619,-104.34292439009812,23.56477669986448,179.37239025950376,0.0790129399508647,0.1796646869511601,0.0395046228417062,0.2132531502682118,0.2926420228020127,0.892332261248191,-175.39192007808714,6.6836866473853584,4.867947548443854,0.1736377259005272,0.1003556538358321,0.2084715545754947,0.3755582657590059,0.5395115180179938,0.9240048106504196,-139.37819066722017,13.4012373204198,24.122539320229304,0.2467818947242992,0.1377887708081337,0.1420194329242631,0.3259876832358174,0.6276323510382145,1.547350492236839
0.5,-114.40611150626276,41.51902666828168,177.2174103012445,0.0962393438936697,0.1925930336626533,0.0436627936880631,0.4792558007416204,0.3417288008908811,0.3526281365430351,-104.26713501672116,23.33230459242406,179.29865093536802,0.0800531451645954,0.1566710125976969,0.038660847160209,0.208419720127775,0.2888134291881254,0.8603766669099402,-175.2942293875413,6.694497413884446,4.887629308144896,0.1954618459062306,0.0974720762223163,0.2083652331170492,0.3667863109926272,0.5657312546861033,1.1070183748750722,-139.4765309971586,13.498766141695388,24.45163016780883,0.2562104939505401,0.1486314580715639,0.1187659245206603,0.3457317339861899,0.6388176651299404,1.728660188842149
0.51,-114.6150081420128,41.73091979887637,177.2845079027089,0.1160489561523446,0.2237364954882714,0.0442800422884952,0.514852713407425,0.3276488989955939,0.3670699564767887,-104.1991598087369,23.120361131152244,179.21751184500386,0.0811173070837995,0.1424757189191677,0.0382775406615316,0.2227276258164763,0.2852620765498973,0.8365998395386102,-175.16756092419715,6.702267545726986,4.854773040624907,0.2167169972814736,0.0948351277674301,0.2100415613578055,0.3573178509334076,0.5920402384708386,1.3100811187499304,-139.5527387335011,13.621958521508033,24.788384009560996,0.2676058651563278,0.1664874000769912,0.103880604331997,0.3786063438654392,0.6712631360872521,1.901087261595412
0.52,-114.8579283242573,42.00023471587506,177.3608136547229,0.1361183450740619,0.2569408567302604,0.0454525881676386,0.557112378262958,0.3184493081369881,0.3887154399103241,-104.13862605326626,22.92754249957707,179.13332209459165,0.082147194877282,0.1374409985971215,0.0382530256404691,0.2556476999614191,0.2823494090666394,0.823290364273452,-175.02190749932743,6.7058146058964025,4.764796000962721,0.2358974982850229,0.0926326903998205,0.2131168815795075,0.347343097127308,0.6162397095110502,1.5214479937495935,-139.5992076779936,13.781725697326705,25.132737519736448,0.2809083770475887,0.191378400468057,0.0984311301969319,0.4247674351499392,0.7228081311238045,2.055440714738367
0.53,-115.1360150907072,42.32166612726185,177.44464224570913,0.1554003737282429,0.2902257612140164,0.0468692631924263,0.6042238911628635,0.3143299655925703,0.4167251576400735,-104.08519183859217,22.754535881788502,179.0508807937426,0.0831095955729968,0.1416248782123615,0.0384889869666398,0.3054720851625588,0.2802241493852636,0.8220956562433116,-174.86890971199597,6.70409387582987,4.616779602990666,0.2515859326118086,0.091001185596151,0.2174200273010213,0.3368347024627475,0.636112584482282,1.7285799701746625,-139.6097085216271,13.98828252729609,25.48513695739453,0.296265481315285,0.2231659776188274,0.102766527838603,0.482863620364909,0.79008642371642,2.1833081655253808
0.54,-115.44813599414935,42.68802972503192,177.5341472431402,0.1728285645853816,0.3217031835573428,0.0482275184445149,0.6541732877241511,0.3150228205315769,0.4497339320452697,-104.03851373967136,22.60432486669137,178.9751111578357,0.0840009450777358,0.1547589192326795,0.0388956313423444,0.3693530490472154,0.2788127260909451,0.8338582334589272,-174.72124032732907,6.696275732405715,4.413383765999483,0.2625573311003075,0.0900187042479062,0.2228912570175718,0.3256136072558699,0.6496356455024928,1.9190340016169256,-139.57975665823977,14.25076571209587,25.84694593923948,0.3140239552641215,0.2615194216308394,0.1164757347819024,0.5500096233550986,0.8688649754229533,2.2775986738518905
0.55,-115.79041684202402,43.09075218576556,177.62738995723907,0.1874075253549695,0.3498000510037232,0.049261957304062,0.7048924782492019,0.319884514596039,0.4859797190945853,-103.99821545645308,22.48221331406525,178.9106592340925,0.0848448404805462,0.1762688940385239,0.0393961565537832,0.4434442500783712,0.2778416812679698,0.8585138398675852,-174.59178171625751,6.681787243106885,4.160537416365489,0.2678901306830676,0.0897010023114209,0.229463857675808,0.3134561235094395,0.6551518146764151,2.0813439948875114,-139.5068368334602,14.57687084603994,26.220796217814897,0.3346878562640027,0.3058967589108593,0.1384142408827498,0.621967812080263,0.9543969744451052,2.3330094773956733
0.56,-116.15606951644185,43.52056832891817,177.72238472935837,0.1983112775405002,0.3734612199979696,0.0497693934927748,0.7543747134846993,0.3280282661027222,0.5234447355372578,-103.96386521072806,22.3956131296415,178.86145754880323,0.0856853003784544,0.2053336825069508,0.0399306189238669,0.5231494038509324,0.2768908984103256,0.8950540493195507,-174.49270586799722,6.660310384024995,3.8669481002415993,0.2670681035459108,0.0900015607889717,0.236956451218111,0.300216123606657,0.6515062503806756,2.205807466460976,-139.3904892921332,14.972536439728826,26.61084042873376,0.3588503598679259,0.3555482725050191,0.1667971307473082,0.6935291915182703,1.0417539153528326,2.3463794746010898
0.57,-116.53558572800225,43.9683621387282,177.81713085088617,0.204974158346417,0.3922946838237534,0.0496275811793094,0.8007365132196169,0.3384668359086369,0.559991980589788,-103.93496504797994,22.353575600954343,178.83030392618784,0.0865784774401979,0.240969386511372,0.0404586424350305,0.6034674692615685,0.2754709661154536,0.9415451474934114,-174.43457188664166,6.631736171471972,3.54348738129257,0.2600571693199317,0.0908186563402896,0.2450027314840983,0.2859284129927245,0.6381546846025078,2.2851134085145715,-139.23226551030024,15.441710663859816,27.022876136400303,0.3871115923387594,0.4095474856260924,0.199351701666089,0.7590515275805337,1.126122505869855,2.3168948041296464
0.58,-116.91731581300472,44.4260560736238,177.90964912621467,0.2071588434721273,0.4066283050253909,0.0488048041599393,0.8422366838390026,0.3502371145382331,0.5934951215204869,-103.91095070888584,22.36609491209543,178.81851081504757,0.0875843259348692,0.2821198545782581,0.0409595723069123,0.6794039161741215,0.2731126805561096,0.9951960397988856,-174.4255458676693,6.596078436087982,3.202513769607901,0.2473442623626242,0.0920124327385202,0.2530361430616437,0.2708634276144275,0.6152376042489611,2.31477626934351,-139.0355631132568,15.986236735710769,27.464324092736508,0.4199952406424828,0.4668482345543576,0.233518698793297,0.8130843373545401,1.203069289923965,2.246123470232795
0.59,-117.28838014351264,44.88743591086187,177.99804616652557,0.2049891944442262,0.4174652001857312,0.0473584560838896,0.8772842106654333,0.3624819704272818,0.6219700833413416,-103.89119809785454,22.443265266143225,178.82567893671626,0.0887591525228129,0.3277351877814692,0.0414286932610762,0.7463978157496775,0.2694532301524477,1.0524802593232134,-174.47083014236728,6.553351963123494,2.857191686976714,0.229930990078333,0.0934330599535156,0.2603327648925569,0.255520684760573,0.5835967277900314,2.293366740009721,-138.80534931038912,16.605885489385706,27.944057081609834,0.4578741662105134,0.5263607058391739,0.2666886995220296,0.8509942757084185,1.2687780766215788,2.137872900378869
0.6,-117.63578268603942,45.348803796843285,178.0806227970527,0.1989406503322734,0.4263469827981892,0.0454223303744673,0.904464318240348,0.3744773012736595,0.6437144541223966,-103.87503293496891,22.594413490663477,178.849638113222,0.0901500263992533,0.3768276069828105,0.0418693791601436,0.800700656622564,0.2643032669443087,1.1093270213461688,-174.57236570501226,6.503419847807351,2.5208550124898874,0.2092818851757507,0.094957678184941,0.266101490699018,0.2405698640343287,0.5447114935649418,2.2225437866190663,-138.5477804745218,17.298550892714818,28.47208656884813,0.5009112024914811,0.5870355696232042,0.2964576837552115,0.8695033490270727,1.3202555349739211,1.9978809424901616
0.61,-117.94754049044192,45.80937826577127,178.156022200306,0.1897866649762276,0.4351514827452,0.0431841289484709,0.922590196142202,0.385608958609519,0.6574467108038285,-103.86174407195372,22.82734161397382,178.88657693152655,0.0917914456797651,0.4285049238548696,0.0422827744388178,0.839643476445932,0.2576829221842296,1.161390311489726,-174.72884074460185,6.445817876557041,2.206449453688405,0.1872341338871866,0.0965303570747072,0.2696004197757922,0.2267626474458668,0.5005577828622843,2.106895531449904,-138.2697246981464,18.060608036865496,29.05912272829209,0.5490179860471048,0.6479441151634883,0.3208811886475394,0.8670665784874019,1.3554919402441854,1.8333653116155224
0.62,-118.21364197128348,46.27139764875064,178.2233893983272,0.1785065254914846,0.4458594325382904,0.040856416872054,0.9307654035867612,0.395319179065107,0.6624219511218037,-103.850605875273,23.147791537874568,178.93135434548,0.0937031425980453,0.4819886649245499,0.0426577806123117,0.8617506729000934,0.2498216191442764,1.2043835670462075,-174.93599828767796,6.37957107421264,1.9260726758422948,0.1658803228831892,0.0981974328137715,0.2702535512892622,0.2148408371833715,0.453420358670509,1.9535974844485453,-137.9781982148401,18.88741415198276,29.71603149867572,0.6018331195212542,0.7083432675383377,0.3387007854119945,0.8440425052999525,1.3735643044609085,1.6524715931412994
0.63,-118.4267044180432,46.73992278269685,178.28250170867136,0.1661677119808071,0.4603239006915675,0.0386455357382896,0.9284344686021166,0.4030506098638954,0.6584968527303556,-103.84091708256793,23.559192122739475,178.9779564434815,0.0958868145552716,0.5366232962369176,0.0429642762796323,0.8666979596801327,0.2411235739242619,1.2344428250748252,-175.1871929703902,6.303027064783209,1.690618633695924,0.1474364250594005,0.100131111816931,0.267742445955657,0.2054594617356556,0.4057014334376056,1.7719027962258354,-137.67973737184207,19.77391272660515,30.4532219379644,0.6587206945552273,0.7677170148867712,0.3495141822105151,0.8026433844073994,1.3746718610339008,1.4636771239079156
0.64,-118.58228362270889,47.22236982601012,178.33383565392143,0.1538019645144046,0.4800701521671421,0.0367233555925019,0.9154085936968808,0.4082161861871342,0.6461272962799813,-103.83206001276643,24.062684851225352,179.0200378951874,0.0983202210272654,0.5918781014767036,0.0431517583324353,0.8551522663094859,0.2321066983870556,1.2484665629287497,-175.47411252878328,6.213738154633371,1.5095257294331372,0.1341050099610563,0.1026367398715143,0.262053464405921,0.1991330204200449,0.3597566328435196,1.5724935027587357,-137.37974333527296,20.71528212620695,31.28000777302811,0.7187898442442441,0.8257897362152925,0.3538633183880263,0.7466827737742677,1.3600921979338385,1.275220270392037
0.65,-118.67885825394984,47.727831099466,178.37855273565765,0.1422949879429731,0.5061448861950378,0.035206011961987,0.8918700049729942,0.4102138307706101,0.6262998970391984,-103.8235758248984,24.65736984667745,179.05147610730162,0.1009492144520238,0.6473401215600159,0.0431542485074679,0.8285538073624658,0.2233266762141914,1.2443829025233648,-175.7875635496827,6.10842559460343,1.3906275064265934,0.1279413870487589,0.1061425461505964,0.2534717002331797,0.1962034980320299,0.3177709348767873,1.3667408732115145,-137.08185360915863,21.707557132170248,32.20399646009146,0.7809344590548672,0.8825114363799027,0.3532214143804122,0.6811584133532558,1.3320463503680762,1.0946194033875176
0.66,-118.7175546720456,48.26625975591753,178.41840445834015,0.1323050825765547,0.5390248675145746,0.0341422277720402,0.8583688208207709,0.4084874533950384,0.600413825723555,-103.8152422523935,25.340685849790784,179.06686868767042,0.1036806075473386,0.7026981376020818,0.0429007487688116,0.7888956839565924,0.215299705374637,1.2213122567707444,-176.118225871616,5.983054583309392,1.3401069933757996,0.1307300300172,0.1111739031562406,0.2425250955983676,0.1968232743134642,0.2816749891792621,1.165937490944874,-136.7874100935717,22.748146658036596,33.230564856447444,0.8438896072172555,0.9380185040344424,0.3498683872735422,0.6117186979918116,1.2934742353799455,0.928320279360726
0.67,-118.70169700295789,48.84760213199494,178.45557070866903,0.1242187147632975,0.5785875657381729,0.0335119539706678,0.8158219457060502,0.4026169639008051,0.570135812054906,-103.80713379546702,26.108838515457546,179.06191876020262,0.1063803247540227,0.7577212806323382,0.0423292233836374,0.7385322808700778,0.2084368777246969,1.179614857299888,-176.45730096913277,5.833038636447453,1.362557610342264,0.1438797991663279,0.1183164200762783,0.2298927940864947,0.2009457466812748,0.2530989989368327,0.9805640193800368,-136.49510305287978,23.83617428606391,34.36248048954757,0.906298719011352,0.9925753769861306,0.3466564336010606,0.5440698276483007,1.2477459317379307,0.7814783511428635
0.68,-118.63626806577764,49.4809600746834,178.49245412450108,0.118144007609411,0.6241404757592032,0.0332343802557073,0.7655087874748975,0.3924087471304841,0.5372470591798437,-103.7996431878668,26.95721140823624,179.03367294761597,0.1088813344529082,0.8122370142861862,0.0414013810370384,0.6800246201388239,0.20300056219595,1.1208271974946888,-176.79700786483997,5.653579312645959,1.4611514914701045,0.1683473737396578,0.1281729908484843,0.2162979085742765,0.2083208646306458,0.2333608852931182,0.8196398323662376,-136.20086563860434,24.97258193198011,35.599719254223295,0.9667845542827076,1.0465032344234475,0.3466859528022993,0.4833903871353944,1.1983523883578706,0.6578616981366936
0.69,-118.52735567135969,50.17385548339181,178.53145645170122,0.1139378769465249,0.6745001773222773,0.0331832694164141,0.7090488891658294,0.377958383042258,0.5034904505481584,-103.79344752341594,27.88071995868581,178.9805983959137,0.1110038170254197,0.8661113991833452,0.0401155292118518,0.6160217311046717,0.1990876715178751,1.0475001771318393,-177.13090666556212,5.440134431634669,1.637908957259607,0.2045972649826392,0.1413191267246895,0.2024057579811059,0.218498901327611,0.2234816253599305,0.6901900263945145,-135.89806777757428,26.15996309638265,36.939513793577966,1.0240181850963042,1.1001029426831228,0.352932614948636,0.4338230737239056,1.148616380348442,0.5598544402491133
0.7,-118.3816420086214,50.93165242290672,178.5747618398133,0.1112591830111688,0.7281070726392513,0.0332071547105007,0.6483532543448247,0.359667682165648,0.4704209689242678,-103.78941147279828,28.874091205578544,178.90250477033592,0.1125861187659999,0.9192327416726191,0.0385153815494511,0.5491756565567225,0.1966366769384365,0.9629623680778334,-177.45404911061414,5.188996236560423,1.894051799682879,0.2526030992149641,0.1582591477953701,0.1887449284137644,0.2308488474160117,0.2242135211330014,0.5968523539356354,-135.57801331965135,27.40212966683084,38.376644829288544,1.0767832137100175,1.1535810435225111,0.3678807095383755,0.398103232815724,1.101443860602193,0.488538048710539
0.71,-118.20597345226072,51.75717094353412,178.6241489846475,0.1096381135320085,0.783159093505007,0.033151945610649,0.5855576843047761,0.3382129264327944,0.4392679921220919,-103.78843120787356,29.932068625594127,178.80033369309936,0.1135208196785993,0.9714993532166074,0.0366936340666741,0.4820826582971234,0.1954488599245838,0.8710430224841194,-177.76296719566605,4.897949687243222,2.230410847213616,0.3118891363644221,0.1793843976900178,0.1756620510479911,0.2445947842726486,0.2360623936633038,0.5416450098106559,-135.2306916346958,28.7034585635058,39.90396506817661,1.1240350657467448,1.2069884702720366,0.3932192736268906,0.3773636305106427,1.0591165024555702,0.4438200894200397
0.72,-118.00702533908056,52.65050495923236,178.6808508617011,0.1085507726575982,0.8377488753226957,0.0328835135522353,0.522954189582739,0.3144737669663764,0.4108285508178367,-103.7912334153076,31.049552249516623,178.67585134319577,0.1137877687387531,1.0228114138079405,0.0347900165679506,0.41723698394261,0.1952145895372978,0.7757905958274031,-178.0555191813798,4.566968122859254,2.6478484088627248,0.3816050189635733,0.2049347614553775,0.1633144080789317,0.2588668180833031,0.2592877229556262,0.5239109916291401,-134.84568869181567,30.068102156124716,41.51312525003372,1.1649553707038622,1.2601808765333915,0.4296457532484559,0.3711306206444206,1.0231256107055056,0.4245733551184992
0.73,-117.79105752545524,53.60903785072397,178.74547582594985,0.1074883078083113,0.8899927287284083,0.0323076337418127,0.4629263317446828,0.2894386773797877,0.385414942838262,-103.79815228837457,32.221689602212784,178.5312885771868,0.1134761762812345,1.0730647655697458,0.0329841814819379,0.356985220564062,0.195541707635337,0.6812105391719884,-178.3306219789778,4.198887843310946,3.147651503638345,0.4606224524132345,0.2349665533304941,0.1516990733142938,0.2727590107194089,0.2938754249031024,0.5404432931031079,-134.41313377571308,31.499170841902227,43.19545520146298,1.198999477317748,1.3128064759672884,0.4768021504071345,0.3775019223839481,0.9940627520564596,0.4287551725512479
0.74,-117.56375015609866,54.62763539402512,178.81799401499737,0.1060125210267253,0.938143523277948,0.0313843847905232,0.407876992177497,0.2641041703050591,0.3628739096621963,-103.80891303083123,33.443932575679725,178.36897520469464,0.1127900294296306,1.122142686621128,0.0314842724514823,0.3034771032474511,0.1959887187107734,0.59103172025569,-178.58791066993695,3.799986674370564,3.731853130178664,0.5476406170848217,0.269332117638808,0.1407130571080969,0.2853894656204803,0.3394907235399462,0.5857825162561228,-133.92455061625495,32.99800251883747,44.94293907593393,1.225932990410267,1.3643222623217208,0.533346901194198,0.3934732292622264,0.971593435283416,0.4534970233121642
0.75,-117.3301140912592,55.69898556853623,178.89777975580998,0.1037942653814998,0.9806819133293252,0.0301343312612467,0.3601300590712271,0.2393835441808451,0.3426793537611387,-103.82245320290036,34.71207094231913,178.1910108830543,0.1120339276707752,1.169902384723816,0.0305123926453472,0.2586135871133184,0.1961056192974622,0.5085051107086236,-178.82737512396733,3.3803793114641185,4.403444759135517,0.6412871654558042,0.3076773026578526,0.1302346632090548,0.295964388662518,0.3954273571958287,0.6526692607539689,-133.37349471562814,34.56362110148225,46.74921279023937,1.2458518305409,1.414033612228407,0.5971464160761847,0.415363765520795,0.9545332567986704,0.4951767536178402
0.76,-117.09447520855204,56.81404793574893,178.98369093127806,0.1006353812866789,1.016381953568955,0.0286351033888304,0.3217970052774611,0.2160379872182072,0.3240808451992887,-103.8368127634958,36.02224806929068,177.9990063330304,0.1115794206517481,1.216155834166597,0.0302884248336994,0.2239930191442851,0.1954817708976726,0.4362403929767927,-179.0490248300272,2.9541403147481016,5.16645179462201,0.7402033185329776,0.3494609115698363,0.1202119143196813,0.3038510625118428,0.4605717863925006,0.7326249207909229,-132.75588895436684,36.19245719057921,48.61050315951074,1.2591796454563644,1.4611476942102757,0.6655548588585991,0.4392822600877367,0.9410273244241164,0.5494998573203622
0.77,-116.86052687935296,57.9625717698675,179.07416557147252,0.0964776475929753,1.044349534873516,0.0270091830944057,0.2946175318725207,0.1946389838196202,0.3062742478439893,-103.84911909056156,37.37096069939221,177.79391700437128,0.1118151405409468,1.26064801227547,0.0310136815714499,0.200856420144076,0.1937972667081447,0.3760879418100595,-179.25262462287455,2.5390785619808023,6.025854821485236,0.8431049852516926,0.3939956601873741,0.1107410185139275,0.3086599795590838,0.533397816266243,0.8166210964841386,-132.07001385092587,37.87836301077283,50.5264242992104,1.2666370815157255,1.5048296302421775,0.7357396170104565,0.4615739952060539,0.928817291233681,0.6116206358889673
0.78,-116.6314331760784,59.13364267030466,179.1673227625075,0.0914023167544818,1.064035486460423,0.0254058176709894,0.279798823115234,0.1755658667178768,0.2885575066276719,-103.8556844152045,38.75504284639304,177.57597744178554,0.1130873071379509,1.3030384524040166,0.0328556678377929,0.190035142755927,0.1908722495593085,0.3290714562599327,-179.4375287790531,2.1561158342583573,6.987354529849486,0.9488166226535556,0.440505007175731,0.102118070808659,0.3103262332545437,0.6119989506741869,0.8957827386213804,-131.31616221752242,39.61290687067308,52.50055053385776,1.2691803520771652,1.5442522510166872,0.8050041400812648,0.4791962023918723,0.9155696947753592,0.6763292880575767
0.79,-116.40995663217726,60.3162218549617,179.26106302084935,0.0856219485634029,1.075228288854159,0.0239810023031945,0.2778839193301312,0.1590354056293321,0.2704454327332786,-103.8522208679865,40.17163349802403,177.34472870900603,0.115639987873275,1.3428936289152595,0.0359348144099135,0.1919058295353373,0.1867060675878786,0.2953724146289344,-179.6026232882619,1.8282648389323388,8.056997587481819,1.0562794471729426,0.4881864082363599,0.094851064822265,0.3091707627589855,0.694154882218216,0.9620635415488872,-130.49602249710148,41.3858873312359,54.540697635544326,1.2679109834816578,1.578634288258873,0.8710611846443655,0.4899851625758721,0.8992290750609684,0.73831842054084
0.8,-116.19858423488417,61.49964891535894,179.35316773893197,0.0794641144754666,1.07803248781308,0.0228791634265398,0.2886758473856481,0.1451526699931602,0.2517341788782559,-103.8341639916456,41.61812819891812,177.09911492978134,0.1195659652213215,1.379697025575404,0.0403134250068961,0.2063576374851408,0.1814962790477964,0.2743639331533118,-179.74636957608473,1.5792544193650984,9.240700952121616,1.1645394595537617,0.5362699586027238,0.0896264119565844,0.3059194247481585,0.7774199461921254,1.0088382249240166,-129.6119015257243,43.18597191982939,56.65886386114729,1.2639626548201062,1.6072663120916106,0.9322185809965357,0.4928019228775933,0.8783470535565966,0.7925244274876028
0.81,-115.9996318533352,62.67408491002174,179.4413974496591,0.0733455957823374,1.072837843784245,0.0222190301625412,0.3112332885810108,0.1339671730455417,0.2325192128428324,-103.7970803485771,43.09211479585316,176.8376115691481,0.1247781689337486,1.412880234460065,0.0459864304357408,0.2327772702572102,0.1756302455759062,0.2646893871185264,-179.86693021361236,1.4319066281702455,10.543727141439582,1.2727233733612653,0.5840622531456761,0.0872331602264695,0.3016648957618173,0.8592201156806704,1.0313678903302337,-128.66592755587317,45.00134606297613,58.87080601073452,1.2583739921013135,1.629527598251885,0.9874553258799552,0.4875635050447566,0.8523290006481498,0.8345174578965735
0.82,-115.81531547814278,63.83087688838435,179.5235863160244,0.067736562417365,1.060282228254859,0.0220848352234249,0.3439395919399248,0.1255181004788029,0.2131762183604639,-103.73712034473354,44.59129339498784,176.5583413912976,0.131007827287516,1.4418730740653545,0.0528731856912419,0.2700594415641436,0.1696504389582727,0.2643809651348261,-179.96235036330086,1.4064230610248185,11.970168912725391,1.3800119883205006,0.6309686545815689,0.0884563988559316,0.2977692948208865,0.9369510391603552,1.0271029717628124,-127.6593813906601,46.82025931043387,61.195252183552434,1.251959113019726,1.6448998879534122,1.0363859362473382,0.475173722930115,0.8215424570524935,0.8608917166187516
0.83,-115.6477838901081,64.96282788475382,179.5977274676255,0.063116400772296,1.0412095881273349,0.0225228107704116,0.3846338050696592,0.1198572521004589,0.1943143490106994,-103.65146609124136,46.113381229507816,176.2591363042432,0.1378297183679044,1.466165608905189,0.0608099714585764,0.316651331545579,0.1642036718158837,0.2710149015341328,-180.03076884559837,1.5187729616532122,13.522499500392511,1.4856202450564986,0.6764923338078984,0.0939562990404537,0.2957174128138099,1.008076375694238,0.9957945941976744,-126.59228350151166,48.63137944677093,63.6527823443775,1.2451910765448433,1.652985065733758,1.0791317101188358,0.4573681916494781,0.7872547201815161,0.8695952089117922
0.84,-115.4991109964636,66.06435963317355,179.66204136810023,0.0599249823294201,1.0166234667041556,0.0235420588812679,0.4307834176629225,0.1170458180106603,0.1767092405552874,-103.5387189963404,47.65600711226752,175.93751311806085,0.144709433130988,1.485371841988632,0.0695443605981497,0.3706357428776038,0.1599876149489029,0.2819006543505512,-180.07063805919324,1.7793784737421567,15.201236744306849,1.5887903236436691,0.7202137569449039,0.1041503150050574,0.2969388963275005,1.0702261969902764,0.9393981224211116,-125.46332038996864,50.42390723887048,66.26444051278736,1.2381152594402116,1.6535320702154943,1.11613294443903,0.43649398439268,0.7514080358197534,0.8601439242954684
0.85,-115.3712483518552,67.1315602369778,179.71501705464115,0.0585141558302841,0.9876366562802464,0.0251183539000834,0.4796761912454629,0.1171285014798351,0.1612227181971552,-103.39917503766593,49.21660828510362,175.59054470724297,0.1510643824662259,1.4992843168005148,0.0787345722745966,0.4298488683763852,0.1577035675631446,0.2942971719686154,-180.08093826151335,2.192255597523264,17.00475709655619,1.6887987977698475,0.7617580469015777,0.1191149941106197,0.3026236818295038,1.1212919287961467,0.8617769342738796,-124.27013381384457,52.18745617630119,69.05017700230837,1.230307769131712,1.6464731899376273,1.1479416912707958,0.4152556020331555,0.7162817469738044,0.8336869402056004
0.86,-115.26594062272052,68.16211708997307,179.75541428129335,0.0591042734535809,0.9554182150437815,0.0271993877380784,0.5286132807870441,0.120094045973635,0.1487186015373688,-103.23494764420724,50.79235078568711,175.21462264061222,0.1563296788093415,1.507910470025479,0.0879578607027088,0.4920194483719997,0.1580166841440768,0.305640452282374,-180.0613742706202,2.754700494326248,18.92927836096808,1.7849728149823465,0.8007591159755217,0.1385224917422677,0.3135578647498729,1.159517795136734,0.7682437711804588,-123.00993387063824,53.911751335770894,72.02725056492805,1.220888406491637,1.6319626601716195,1.175031314436016,0.3964645771276424,0.6841141431141969,0.7929138889862467
0.87,-115.18460934431548,69.15514672150692,179.7822151689308,0.0617503138979732,0.921139350804262,0.0297104042173021,0.5750937281008514,0.1258340191248,0.1399866456453516,-103.04991707012684,52.38009529416362,174.8051238336411,0.1600208288577491,1.511484347038292,0.0967307843600261,0.5549115334084375,0.1615191546600537,0.3137577975618573,-180.0125389317119,3.4575312080864267,20.96900921476318,1.8767063023299568,0.8368288898512442,0.1616253888928482,0.3300048123994344,1.1835994230552962,0.6650000221581697,-121.68034141842854,55.5862395013665,75.20873745001788,1.208590383470112,1.6104048090052931,1.1976517952603043,0.3828243888370057,0.6567585113552123,0.7418160307868774
0.88,-115.12821336908446,70.11094567254821,179.79451858016347,0.0663218190956898,0.8859188882299655,0.0325598311905081,0.6169839139898582,0.1341114691564634,0.135685539828288,-102.8495080341442,53.97641958549424,174.35601392354113,0.1617861350737064,1.5104504363686435,0.1045413889091467,0.616453059492534,0.1686909762385946,0.3170419069962587,-179.9360186931615,4.285827826799036,23.11644223035553,1.9634667865305493,0.8695380115331622,0.1873003113347713,0.3516485794927445,1.1928031467032243,0.5585432491302874,-120.28032579283436,57.199721026704935,78.60228434636089,1.191881695294325,1.5824583165860977,1.215751034305368,0.3767689842844347,0.6354320741170904,0.6853258137417593
0.89,-115.09709823354336,71.03069532315476,179.79137914765676,0.0725002489765658,0.8507680193827849,0.0356449993825058,0.6526612328376282,0.1445483511914479,0.1363105872638565,-102.64032070038265,55.57769060829269,173.85944270749232,0.1614425902808405,1.505419909808432,0.1108905575651089,0.6748338443436845,0.1798563680390302,0.3145639018698798,-179.83440719259627,5.220071725396703,25.3627487868562,2.044785711794795,0.8984118567224819,0.2141545601458001,0.3776068299521032,1.1871051004570208,0.4551103522277247,-118.811087918731,58.74010899350123,82.20920265475212,1.169126786181504,1.549008001224497,1.228971424835435,0.3803571508443617,0.6205893081269362,0.6288701258674319
0.9,-115.09085127472116,71.91615439260408,179.77160458797047,0.0797963213739875,0.8165344354992424,0.0388580283818675,0.681113899163666,0.1566360936449068,0.1421848039477312,-102.42965962457818,57.18016322903048,173.30540706095564,0.1589906653967529,1.497103874659225,0.1153382503723651,0.7285597269068774,0.1951390338906868,0.3061139452303597,-179.71118990931708,6.237565540094098,27.69822140819937,2.120228657700741,0.9229431417984172,0.2406900700981467,0.4065126683421859,1.1673251094262984,0.3602110725194326,-117.27674948193112,60.19439644792697,86.02394694541104,1.138772547652363,1.5111035246645166,1.2367177368754172,0.3952100075399034,0.611920747860508,0.5778810713445224
0.91,-115.10818376457624,72.7693654672853,179.73353809192483,0.0875881644129083,0.7838483218009085,0.0420914606785712,0.7019766939722281,0.1697676477400545,0.1534661222558568,-102.22501651900642,58.78007579356825,172.68156782607784,0.1546064640616692,1.4862328517189904,0.1175499863489008,0.7764586345356748,0.2144238003325204,0.2921664939319411,-179.57047257918614,7.314011861094296,30.11270332590072,2.1893461999040253,0.9426203725616408,0.2655066295229659,0.436659834885317,1.1352088269370055,0.2782874367007778,-115.68474206260336,61.54887602897894,90.03397048578246,1.0995396351575943,1.4698720401017746,1.2382798119405147,0.4224697124947749,0.6084525917196589,0.537311334751862
0.92,-115.14686360301071,73.59239133056272,179.6748647479744,0.095178362944766,0.7530759849889539,0.0452426246323383,0.7154898422236605,0.1832830813050404,0.1701599271802688,-102.03356301274432,60.37371613133823,171.97330519789574,0.1486136484100965,1.473474717465929,0.117338912894228,0.817649876750344,0.2373340275844084,0.2737748062217992,-179.41655001032228,8.425132245355025,32.59594782212787,2.251611345144839,0.956970064384169,0.287514078013633,0.466199757730211,1.0934019484729058,0.2125131409293358,-114.04583812867916,62.78961580674461,94.21991551331882,1.050598357445973,1.4264166117416357,1.2329851568523331,0.4627578754546793,0.6087080389553519,0.5111942893877269
0.93,-115.2037196073179,74.38708897750803,179.5924880632455,0.1018642289464933,0.724289310315085,0.0482156645384645,0.7223827173645895,0.1965171673360951,0.1921269914265641,-101.86170071221858,61.957442100097,171.16408247359288,0.1414406860533311,1.459362913987133,0.1146986519141659,0.8515017984359116,0.2632328744351698,0.2524083671930219,-179.25334671339806,9.54821402885454,35.13786177465785,2.3063549530151795,0.9656096025020572,0.3061153687283365,0.4933686876825846,1.0452735893556342,0.1647267648298625,-112.37381891750766,63.9031562873453,98.5560753306369,0.9917087229491072,1.3817139878034437,1.2203537550989525,0.5161210668849704,0.610894121263514,0.5022760030494359
0.94,-115.27472931003696,75.1549262223834,179.48251997941475,0.1070115993336619,0.6972593782226064,0.0509210894208936,0.7236996559519127,0.2088390608297679,0.2190818142065932,-101.71470233011766,63.52765295404843,170.23616380628474,0.1335703896484051,1.4442428498857696,0.1098219108612053,0.8776043797219436,0.291252048760769,0.2297559619518012,-179.0837977270589,10.663479094712915,37.72860784308924,2.3527153914682355,0.9683058471362358,0.3213231202420768,0.5167115646696483,0.9945860480364828,0.1354774501554646,-110.68482316450128,64.87736093170498,103.01105798133256,0.923307587386445,1.3365254956065675,1.200229754491988,0.5819640893213153,0.6130950290163494,0.5117383873086649
0.95,-115.35518750873422,75.89684588949517,179.34041336716405,0.1101201121742959,0.6714799303035744,0.0532740920703429,0.7205967562322444,0.2196804704264097,0.2505820397825826,-101.5964629794568,65.0807175956229,169.1717006172261,0.1254888442249541,1.4282392317453438,0.1031000727483139,0.8957697748006868,0.320345257711647,0.2075223590265044,-178.90926571793102,11.755177473119204,40.35856538576635,2.389621526264895,0.9650318850880084,0.3337824416609836,0.5352633221540035,0.9450596100519654,0.1241537508056939,-108.99645922330944,65.70232922145507,107.54858921805992,0.8465320115639522,1.2913341399119402,1.1728701735767373,0.6589867833712325,0.6134692764350498,0.5390354966808978
0.96,-115.4399378106847,76.6131824261467,179.1612440666377,0.1108695475526449,0.6462217025035706,0.0551936196402992,0.714144034887478,0.2285556133444962,0.2860131694401809,-101.509366326563,66.6128719739989,167.95416459444525,0.1176402360343446,1.4112430600379882,0.0951003431527415,0.9060531060681108,0.3493575243155515,0.1872456613735883,-178.72909942139725,12.8123219217787,43.01817761450336,2.4158268064359287,0.9560121764367524,0.3446890910224089,0.5486524663873947,0.8999179716678674,0.129166295238353,-107.32678949215068,66.37126812759473,112.12841767627556,0.7631757711643608,1.246317840186987,1.138977265138298,0.7451548001835167,0.61044929276285,0.58187221501899
0.97,-115.52364090092662,77.30363314736435,178.94012916980785,0.1091424442056546,0.6206134710320551,0.0566035335423689,0.7051660278161257,0.2350790494602274,0.3245756491272615,-101.45425760079593,68.12010144881904,166.57006291109158,0.1103927301905915,1.3929153530497278,0.0865200580837377,0.9087701235366816,0.377098462828715,0.170155599097932,-178.5404253366011,13.82900043664524,45.69773660586316,2.4300046316885804,0.9417466957530776,0.355610335934995,0.5571059765411172,0.8615069663385037,0.1481601434354984,-105.69330970696984,66.8812155240585,116.70732465388194,0.6755842333964732,1.2013616744743445,1.099668239392645,0.8377414232153991,0.6029290811693473,0.6363541053088771
0.98,-115.60105393663834,77.96728105969488,178.67275589179974,0.1050243490675532,0.5937413686820221,0.0574357604815719,0.6941449917204034,0.238984891932079,0.3652855524170156,-101.43050715353132,69.59802603767417,165.010824634088,0.1040181500929477,1.3727052414286034,0.0781219825175406,0.9044864710900046,0.4024089099601458,0.1570829955748323,-178.3382321694672,14.804234868419632,48.387173601434185,2.430901775423724,0.9230076088719116,0.3682338931453561,0.5613549394258696,0.8310581879876173,0.1782395802587608,-104.1120449374078,67.23352054243458,121.24028039323024,0.5865000523723823,1.1561029365181368,1.0563846434392243,0.9334665942064796,0.590410491111981,0.6973204577502409
0.99,-115.66730124476976,78.60265981078254,178.3559889061292,0.098785937420508,0.564755324965413,0.0576343909319866,0.6811950537262029,0.2401459082569341,0.4070020752004614,-101.43614638155316,71.04180788098449,163.2747001086304,0.0986851038972703,1.3498821457569128,0.0706583820542405,0.8939664073803055,0.4242154119426427,0.1484218165132479,-178.11576253500044,15.741396327564122,51.075927003396906,2.417530960431361,0.900805858300434,0.3840855756923122,0.5624596529133702,0.8086313200418204,0.2161944064096725,-102.5968684529672,67.43401388271626,125.68179591203317,0.4988769387286298,1.1099963306991094,1.010753478382015,1.0287312505060595,0.5730733066492795,0.7588408943711517
1.0,-115.71812112316448,79.20784585464057,177.9885155893002,0.0908508105722355,0.5329707749496451,0.057159907117227,0.6660988566993442,0.2385883131432417,0.4484896674188707,-101.46806124899874,72.44610102230067,161.36847418968657,0.0944625299773926,1.3235836118643822,0.0647939140417075,0.8780887418676807,0.4415737389609793,0.1441408660594541,-177.865177051891,16.64723779805773,53.75295440233366,2.389370833871004,0.8763286332432608,0.4042642537353283,0.5615855216984349,0.7932289320465807,0.2587214595194752,-101.15912147278324,67.49284315786312,129.98746167714336,0.4156808751000564,1.0623860356020738,0.964420494378405,1.1199136772828744,0.551745195761655,0.8148205998829378
1.01,-115.75007518618116,79.780560540065,177.57147383556116,0.0817522331131473,0.4979555440795247,0.0559936239506396,0.6483900208731175,0.2345000649523374,0.4885107127223029,-101.52223316435143,73.80506236230075,159.30876806605187,0.0913297524987667,1.2928799202505317,0.0610374539100769,0.857752247575918,0.4537076344137699,0.1438409319115414,-177.57841129920877,17.53065174784695,56.406936027672266,2.346535839356119,0.8508524803390947,0.4292395763074215,0.5597670670871031,0.7830478511596358,0.302637229726548,-99.80757291980382,67.4239952291014,134.11555750170407,0.3396981064816052,1.0125761453417026,0.918880521328295,1.2036756350251354,0.527772033362693,0.8596349003437018
1.02,-115.76070863239268,80.31826713703143,177.10899057521078,0.0720835338788667,0.459595593250178,0.0541429202348456,0.6274686168176455,0.2282355890498436,0.5259329166248427,-101.59401854333832,75.11243743875721,157.1227015313087,0.0891901378148608,1.2568534689447497,0.0596911626469184,0.8337954206821069,0.46004964722045,0.1468506697643447,-177.24811517470536,18.40129426442469,59.02668141101893,2.289881623284564,0.8256409573542491,0.4587447244779052,0.5576988845056156,0.7758174446837353,0.3450768573726295,-98.54870755045944,67.24456782712865,138.028537254225,0.273367056753554,0.9598976884001764,0.8753298809214403,1.277226986004246,0.5028149530840678,0.8887083273134903
1.03,-115.7486556102578,80.81825439061419,176.60855118751832,0.0624490904821937,0.418136922000825,0.0516473685117481,0.6027440072671169,0.2203237453758673,0.559829527052068,-101.67845625261268,76.36172519760089,154.84771452736655,0.0878868960803469,1.2146872130690554,0.0608221102256342,0.8069485840058713,0.4602873762639806,0.1523488535072862,-176.8685517607886,19.268230611968903,61.60170149186885,2.221022521737017,0.8018388200770095,0.4917788423428602,0.5555889447299046,0.7691738659846168,0.3836712690696844,-97.3872714347698,66.9738786229317,141.6942028470127,0.2186469155335348,0.9037754925012158,0.8345626709658717,1.338516612291593,0.4786150029449557,0.8989635264175607
1.04,-115.7136932299316,81.27770600874459,176.0811278858633,0.0534231951698299,0.3742022964392638,0.0485849538766417,0.573798365874234,0.2114848569214402,0.589551300050553,-101.77058841777756,77.54641420691739,152.53040704906056,0.0872203668051882,1.16575420655102,0.0642583770687747,0.7778255664866436,0.4544140423719128,0.1594942286620171,-176.43633726280638,20.13875026942525,64.12285955530746,2.1422532839976567,0.7803749650708729,0.5267166608586177,0.5531005811815968,0.7610235933986039,0.4166874888111126,-96.32694977189684,66.63250859292498,145.086474827265,0.1769298665265061,0.8437997835792199,0.7969258712710845,1.3863444968132823,0.456766307981284,0.8890849974381986
1.05,-115.6567566854645,81.69376123042642,175.5410173674214,0.0455218251865825,0.3287810192273814,0.0450770840944699,0.5405549355862675,0.2026559701358232,0.6147556960244427,-101.86577704572724,78.66027173803978,150.2243499428822,0.0869665235077159,1.109699976886395,0.0696085141505738,0.7469521052914968,0.4427795189373137,0.1675412063039951,-175.9509213997833,21.01747604829327,66.58298453269,2.0563837588573235,0.7618833513245893,0.561507941269575,0.549396120237768,0.7498549668980138,0.4431103003250061,-95.37102201664328,66.2413695667082,148.18577877725863,0.1489977317701374,0.7798051440460949,0.762337946023104,1.4204091295931955,0.4385291682824674,0.8595692892073108
1.06,-115.57993165317926,82.06357424653184,175.00536719142167,0.0391885948376471,0.2831898049369915,0.0412912441647245,0.5034273098275549,0.1950134260804334,0.635389764260761,-101.95999749834534,79.69765916099551,147.98694207212327,0.0868969186445961,1.046510580253399,0.076301162313781,0.7148221449796657,0.4261366179998377,0.1759228943567564,-175.4147372620225,21.905855089466872,68.97732863207592,1.9665091065789084,0.7466462353799969,0.5939376021434127,0.5432788794559011,0.7349621397984213,0.4626432604760639,-94.52284450428,65.82086818473745,150.97914381453936,0.1350173906504739,0.7119538211266558,0.7303644205261705,1.441305770805734,0.4247024146395803,0.8125647835927872
1.07,-115.48643588215673,82.3843805337052,174.49340008779086,0.0347925440357807,0.2390039788605093,0.0374405006321729,0.4634253407948459,0.1899728174647002,0.6516354827838612,-102.05009003481211,80.6538433507918,145.8755327357364,0.0868005791865887,0.976560774805606,0.0836405622157698,0.6819710744291141,0.4056763501690388,0.1842922171160719,-174.83298935444887,22.80207307747934,71.30377557862599,1.875746382552674,0.7345601731291802,0.6219102647983751,0.5334132354303123,0.7165542631314673,0.4756186033100125,-93.7860502050693,65.39021672407766,153.4601327336098,0.134564052071564,0.6408132148674468,0.7003347271608752,1.4504801252105748,0.4155647859440826,0.7515346393616303
1.08,-115.38059010357048,82.65357676210382,174.02537322139867,0.0326329520194071,0.1979601117816521,0.0337792557411937,0.422197014075949,0.1891442463789739,0.6638349115434129,-102.1339519223116,81.52527380650915,143.9431743775629,0.0865078746710021,0.9006375766625477,0.0908729802122033,0.6490518920267633,0.3830437527488936,0.1925233311310922,-174.21309399263927,23.701382780226535,73.5627472360417,1.786970296507162,0.7251254499744416,0.6437209613846626,0.5185888843195986,0.6957378536668514,0.4828267005206295,-93.16441777810788,64.96692009379763,155.62869875498365,0.1466605258120877,0.5674119005604888,0.6714783742562443,1.4501334858032973,0.410888402562581,0.6808004786681939
1.09,-115.26776278828072,82.86881810908898,173.62133525768348,0.0329455935174816,0.1618334648686989,0.0305946701876655,0.3819908584648071,0.1942288776576179,0.6724136654778511,-102.21065474418587,82.30979770787965,142.23449007050905,0.0859149649138035,0.8199345092465509,0.0972582471663712,0.6168946813707002,0.360321523912121,0.2006843856924917,-173.56383214322955,24.596790902227468,75.75680534925591,1.7025779331849782,0.717463506187108,0.6582759585057111,0.4979887117100721,0.6743827716796854,0.4852973020012371,-92.66143107531124,64.56644858371857,157.4910106066455,0.1698254471751677,0.4932578507384785,0.6430559035087983,1.443078008403642,0.4100194012201469,0.6050391314983383
1.1,-115.15425997624791,83.02813329642647,173.29976806817547,0.0359058321640285,0.1322966516734511,0.028193213677322,0.3455315100009675,0.2068583112180775,0.67781559005919,-102.28047511727908,83.00679034732259,140.7821924963381,0.0850056593777714,0.7360129831865759,0.1021400435859547,0.5865277597587656,0.3399635896242092,0.208996135720914,-172.89431642989013,25.48000827667536,77.88999274702154,1.6243062184784858,0.7103696684085111,0.6652332433349069,0.4714190462045326,0.6549045158463854,0.4840758915750204,-92.27960917524013,64.20208699235143,159.05923082623357,0.2021308481858926,0.4203070316786355,0.6144631384451844,1.4325509462707733,0.4120096388398689,0.5288070630233255
1.11,-115.04712619161752,83.13005453840316,173.0762205077454,0.0416260632904892,0.1107697802028235,0.0268822039105984,0.3158130881091556,0.2283939867501504,0.6804535855887498,-102.34483265373127,83.61718804196826,139.60473688335782,0.0838665313887555,0.6507308837377225,0.1050087918435089,0.5591461388936575,0.3246602753076,0.2177888707446914,-172.21290610733968,26.34253999999312,79.96699684094959,1.5531182940574957,0.7024058171513329,0.6650411138535,0.4394650860142912,0.6400061265615824,0.4800345468748225,-92.01972461982784,63.88493400657104,160.35119328873262,0.2412747461812424,0.350877366697788,0.5852962162710373,1.422005558776785,0.4157729037833325,0.4561555283902394
1.12,-114.953827996486,83.17375732735759,172.96205424234327,0.0501473581987476,0.0982761489355671,0.0269471524345434,0.2958287044572246,0.2597141431564833,0.680676684626482,-102.40613562242038,84.14342487560405,138.70542006342936,0.08269179272131,0.5661434741513964,0.105551826246574,0.536026456610274,0.3171257432186825,0.2274643963794293,-171.52621975880285,27.17677598215336,81.9922419446398,1.4891665269035723,0.6920302286281534,0.6588660401806532,0.403545388310159,0.632416691420308,0.4737433894093889,-91.8800403180658,63.62401437297214,161.38991429437164,0.2846750399943983,0.2875092770251062,0.5553762164614054,1.4148978784759851,0.4202338915121816,0.3903769676766211
1.13,-114.88180659707018,83.15920324116688,172.96342064981144,0.0614272150154315,0.0953200289672855,0.028626922733922,0.2882654603300082,0.3010199150104672,0.6787545633083025,-102.46754022062132,84.58928939202045,138.07299407345906,0.0817763495736136,0.4843857280932734,0.1036864593195416,0.518399926041233,0.3198157375286335,0.2384636213610604,-170.83838822334775,27.97694207401327,83.96902316965281,1.4318313447752966,0.6777534005681689,0.6484182623352543,0.3658585925089987,0.6346466124626924,0.465415656460485,-91.85568710337088,63.42646183614396,162.20288350162633,0.3295874122898236,0.2327798220342569,0.5247410512143817,1.414481230501397,0.424440722828154,0.3338950599566982
1.14,-114.83790619560206,83.08727705202443,173.08057201761426,0.0753270155161255,0.101802981009961,0.0320894367641267,0.295199340898384,0.3516914316706215,0.6748845650288767,-102.53263307833156,84.95972674949638,137.683622617283,0.0814973131595263,0.4075468358755162,0.09957269874012,0.5073027796102452,0.3346038136090299,0.2512366983176279,-170.15065548769545,28.73979191160898,85.89878383598624,1.379827263891569,0.6583019901468319,0.6357036882688961,0.329235826797378,0.6487661560838808,0.4549300080009246,-91.9382810592429,63.297731158987965,162.82110681561252,0.3732442026032484,0.1890844736029188,0.4936165373028202,1.4236081938647334,0.4276235882030636,0.2882834674985045
1.15,-114.82770728548932,82.95990704163441,173.30758415702925,0.091603735613066,0.1169919640334338,0.0374105276774428,0.3178234046802544,0.4102206228886219,0.6692254197415262,-102.60505070219293,85.2606130087872,137.50383583950406,0.0822851963978624,0.3375469748828956,0.0936039103764873,0.5034276620187712,0.3624612418084219,0.2662122729396834,-169.46137693771624,29.464960346942213,87.78061359047256,1.331361524082333,0.6327695890394054,0.622746397215824,0.2969230140718192,0.6762130374558596,0.4419247876188871,-92.1158492497718,63.24180032103551,163.27790356871407,0.4130056039681219,0.1584081351806147,0.462378282339454,1.444531380467486,0.4292011901222272,0.2543778894816264
1.16,-114.85481814533809,82.78015524736128,173.6325378203396,0.1099097900290325,0.1395466024586415,0.0445577464238442,0.3562388158130301,0.4742402648722015,0.66195226375696,-102.68805639422426,85.4985230068317,137.49405477960377,0.0845863476731832,0.2760242910943432,0.0863755058163392,0.5069992163836481,0.4031950520759269,0.2837635562541287,-168.76639774964744,30.154952379567774,89.61101172331252,1.284327951898688,0.6007342004833915,0.6113283566429767,0.2723157986222786,0.7176419943734463,0.4259492242407318,-92.37309973700728,63.2613287038404,163.6074880904991,0.4465103534682949,0.1421121340025474,0.4315114164564423,1.47869756051014,0.4287540552189599,0.2324364984108209
1.17,-114.92020315567964,82.55226382195406,174.0381767256359,0.1298023389649854,0.1676055385425082,0.0533800879573852,0.4093342023800348,0.5406582452679117,0.6533146515594412,-102.7841045822772,85.68050536890215,137.6122505731382,0.0888185715565956,0.2242377235953096,0.0786334117599705,0.5176925657884259,0.4552973931312815,0.3041701786835969,-168.0597404627033,30.814791191944902,91.38392708641535,1.2365189947391857,0.5623278808074149,0.6027798783690711,0.2586636406814426,0.7728302585307913,0.4066493732441391,-92.6920395936972,63.35774491730782,163.84338721083446,0.4718109030078732,0.1407642129965301,0.4015683801042803,1.526543070641504,0.4259898736707112,0.2223060421581266
1.18,-115.02164935117332,82.28164565069771,174.5030291043481,0.1507602116551743,0.1989242000636451,0.0636041432593415,0.4747736663501888,0.6058922826829418,0.6436721927579341,-102.89443193465104,85.813870334538,137.8173530557781,0.0953229762364858,0.1829901571634001,0.0712055974066886,0.5346072171763033,0.5159476128715481,0.3275759309882207,-167.33450424798315,31.45138183100949,93.09105818440916,1.1858403137529614,0.5182515658985761,0.597834699357797,0.2587586432382368,0.8406418305757228,0.3839643386959966,-93.05291259095242,63.53124994817548,164.01676072330704,0.4874788130413397,0.1540340585115931,0.3731213405043988,1.5873136849056564,0.420720270929332,0.2235635065298493
1.19,-115.15348376748558,81.97481091849258,175.002941614918,0.1722048826314495,0.2310500302710695,0.0748370830792755,0.5491050899935114,0.6661850450328056,0.6334859894270566,-103.0187210480385,85.9059896570582,138.07210778903865,0.1043170953070006,0.1525765717144649,0.0649215737119838,0.5563033577946098,0.5811884159569974,0.3539437007730122,-166.583877457362,32.07266144075488,94.72237569230856,1.1305129032312058,0.4697348087951515,0.5965494690745814,0.2746316805746293,0.9190396817052212,0.3583083890183465,-93.4353945673961,63.780737009897365,164.15470648052664,0.4926705326145699,0.1806690120999496,0.346709294012415,1.6589419321740977,0.4128584535620287,0.2356214321553496
1.2,-115.306642820038,81.63922455180239,175.51292370736888,0.1935225322698438,0.2615175415086604,0.0865769252423786,0.627987521580119,0.7179645772068658,0.6232570695818764,-103.15488351745746,85.96410384087282,138.34518199738477,0.1158564814232564,0.1327622212122225,0.0605267353241107,0.5809004454390132,0.6462718231246811,0.3830107501689118,-165.80217576325057,32.68661210427724,96.266813480639,1.0692475101064451,0.4184453855205298,0.5982845944884579,0.3072878294024211,1.0051319744075011,0.3307130538122815,-93.81995017223991,64.1036465986856,164.27865157884412,0.4871504470528894,0.2185547055716769,0.3227874851401864,1.7380175860375164,0.4024392357710129,0.2578004946022477
1.21,-115.46915559803602,81.28309173912834,176.00914024793315,0.2140856699416874,0.2880447215830854,0.0982307897080068,0.7065215079094779,0.7582019915425393,0.613421454371272,-103.29900371257766,85.99513112966518,138.6124244719183,0.1298123900848835,0.1227953738720199,0.0586003601229161,0.6062269804008381,0.7061422719838286,0.4142507124901883,-164.98582628797595,33.3002196513507,97.71306236793752,1.0013767156248556,0.3663580607936642,0.6017489853521978,0.3565175012173482,1.0952523025657377,0.3029003074162294,-94.18922494467274,64.49579050233497,164.40295618005993,0.4712739342684791,0.2648547770678128,0.3016911601849408,1.8198841111076545,0.3896572181736757,0.2893793404723751
1.22,-115.62704079530488,80.91507190948283,176.4708368224713,0.2332730729821643,0.3087130901871201,0.1091425383405556,0.7796525257175934,0.7847115470049548,0.6042299012635282,-103.44547276754942,86.00547522884203,138.8572817393498,0.1458703820555579,0.1214575778354127,0.0594871610186073,0.6299988620960792,0.7559959781676566,0.4468516928635512,-164.1342174956666,33.91847551406814,99.05039367475976,0.9269324721752334,0.3155950972101722,0.6051174767641754,0.4208152613662954,1.1850966014465527,0.2772586962048251,-94.52932750006656,64.95118863767973,164.5338802065787,0.4459360454951365,0.3162143840739485,0.2836234905544608,1.89888487029402,0.374913963043273,0.3296296217251971
1.23,-115.7655466736558,80.5439286126189,176.8819582976698,0.2504862321281774,0.3221145098935882,0.118631948966309,0.8426063527341896,0.7963441770156946,0.5956515744037524,-103.5873245742889,86.00083419978488,139.0704554231204,0.1635492479016096,0.1271515438861844,0.0632517152836343,0.6499991401687132,0.7918328953158956,0.4797192734992345,-163.25032857728775,34.54353361070034,100.2694379251157,0.8466610304623944,0.2682531581052335,0.606228867082533,0.4974258274550486,1.269950248223891,0.256704845813334,-94.83085117637752,65.46196581652636,164.66907703510165,0.4124918865661091,0.3690057890121817,0.2686715632092655,1.9687654067338225,0.3588625579322395,0.3778390676324262
1.24,-115.87060153621528,80.17813478560976,177.23224135767907,0.2651615161016098,0.327448864409529,0.1260469690687197,0.8913053898480581,0.7930484017035935,0.5873378452403616,-103.71676226113448,85.98601988283555,139.2489487987498,0.1822340782782483,0.1380219990276039,0.0696627663563682,0.6642372975190504,0.8109106129375024,0.5115088880246362,-162.34105022283626,35.1741394786958,101.36284854663626,0.7619725451943934,0.2262327307331851,0.6028612138060373,0.5825200694700599,1.3450227542569897,0.244433361237512,-95.0894949947139,66.01835170798795,164.79777384399296,0.3726547241226862,0.4195915507254289,0.2568479818759199,2.0232116516765046,0.3424395042570907,0.4333202293168647
1.25,-115.93030011721252,79.82546690192041,177.51762428451477,0.2767808574546287,0.3245601708093157,0.1308272026983342,0.9227095352512148,0.7758063503010014,0.5786635669296051,-103.82583631488176,85.96480382274557,139.39469109760975,0.2012143476882261,0.1520988063448191,0.0782108624983042,0.6710766286171216,0.8120274014034999,0.5406875544716016,-161.41712183198032,35.80543460251795,102.32579194461428,0.6748289450450699,0.1910872243139844,0.5930616408057016,0.671487214475473,1.405870393746706,0.2435809912382492,-95.30617409915703,66.60881678878339,164.90176419086072,0.3283784637298416,0.4645811196404703,0.2481490658285705,2.056472771216943,0.326876435862591,0.4953966106477983
1.26,-115.93623394291976,79.49263120489304,177.73991177991363,0.2848876363694646,0.3139066610242506,0.1325709434045084,0.9350335151071096,0.7464806204664337,0.5688357187399256,-103.9072080921165,85.9398102398874,139.5129450578225,0.2197191961495871,0.1674466850930587,0.0881587742521018,0.6693274378609377,0.7956000832911706,0.5656231591483004,-160.49264420929097,36.4292012220426,103.15622356870009,0.5875804101913761,0.1639083472054953,0.575486685529088,0.7593144067979812,1.4488498092921305,0.2568473523613542,-95.48656292386757,67.22036082438487,164.95726501283528,0.2817324423812812,0.501059190055426,0.24261399665305,2.0639896542169254,0.3136843705956649,0.5633533591743802
1.27,-115.88448274655984,79.18496479638151,177.90575004949235,0.2891149819333182,0.2964718294489325,0.131092530809509,0.9278187212277226,0.7076151936225694,0.5570363369136875,-103.95491047810404,85.91247731122289,139.6106971788061,0.2369473890106355,0.1823044452549367,0.0986200404339886,0.6583101076827091,0.7635443893390567,0.5847002817624609,-159.58417850952372,37.034555769399816,103.8549328318447,0.5027669797355807,0.1452610004826068,0.5496937769844176,0.8410114256255243,1.471525039841616,0.2861215842914643,-95.64008645489706,67.83895083251838,164.9375795271665,0.2347777790306991,0.5267689055108447,0.240365176948603,2.0429353928112346,0.3046027220941668,0.6363435601982151
1.28,-115.77612059770588,78.90624253006472,178.0250940591733,0.2892288612866558,0.2736338466263225,0.126455387345179,0.9018692252807164,0.6622211972245756,0.542560379449428,-103.96500653102126,85.88310363603124,139.69520355366134,0.2520960913182011,0.1951988812505982,0.1086570009336314,0.6378948767171881,0.7189958991790554,0.5964624198950856,-158.7095007260603,37.60903273920198,104.4253655511936,0.4229061740323724,0.1351743388490429,0.5163217370881118,0.9120291632705742,1.4729511886024609,0.3321637830131709,-95.77845436653266,68.450086320441,164.81637675594538,0.1894549369251077,0.5402393066182787,0.2416117650434133,1.9925802006933704,0.3015075043729432,0.7132572849736637
1.29,-115.61715321054868,78.65860214306457,178.10945186425488,0.2851795335545763,0.2470151784315972,0.1189709566755163,0.8590812039171656,0.6135593686692861,0.52492247402034,-103.93605131631654,85.85098763736569,139.77282169326602,0.26439652696116,0.2050226239675421,0.1173860526125313,0.6085207348598708,0.6659246363449065,0.5997769180460969,-157.8861339759459,38.139937937632766,104.8732576919716,0.3502888960856553,0.1331865780961361,0.4771119480250945,0.9686196749551124,1.4537772012175865,0.3943839185221646,-95.91390362035096,69.03945425563437,164.57127490145157,0.1474908654451437,0.5408525978357472,0.2466071793085659,1.914421667292548,0.3062780015101097,0.7925821129421735
1.3,-115.41788370053575,78.44258263972172,178.17022589829446,0.2771473021966687,0.2183315329281409,0.1091631717555013,0.80220009146445,0.5649186205581713,0.5039277289979074,-103.86928273309508,85.81465560588043,139.84820698395148,0.2731627865376129,0.2110701971825904,0.1240753320391594,0.5711851508632466,0.6086986529294046,0.5940079904646198,-157.12981976652395,38.61580219697868,105.206134385957,0.2868035785854714,0.1384318721028243,0.4347502447267055,1.008096324247748,1.416143442181981,0.4707500481228346,-96.05736247836184,69.59362658182096,164.18732828874698,0.1103309277662389,0.5288514750315277,0.2555655909010588,1.812065584695009,0.3206276779534929,0.8722981390548017
1.31,-115.19178725168643,78.25726034615289,178.21741666228382,0.2655671854728088,0.1892527241762858,0.0977070165871078,0.7345401018713907,0.5193896072394963,0.4797137838625752,-103.7685011730782,85.77216132265283,139.9238987552612,0.2778529437101498,0.2130321034452624,0.1282198770595346,0.5273899028879668,0.551645710709126,0.5791687206031932,-156.45310811447058,39.02774332890646,105.43274034883852,0.2338032505910217,0.1497513326724731,0.392545665852801,1.0289740195030823,1.3633892429172323,0.5578427417616758,-96.2167642142551,70.10074911167978,163.65998650202977,0.0790968563513861,0.5052896700636988,0.2685569286519628,1.6908892610911284,0.3459137455581109,0.9498492693105958
1.32,-114.95404356005275,78.10046369485586,178.2588331512164,0.2511224673933067,0.1612823471187591,0.0853539656910334,0.6596997601825586,0.4796420234869541,0.4527689454217393,-103.639640764853,85.7214291294968,140.00027257362837,0.2781331076644694,0.2109522995528157,0.1295828137128123,0.4790349430132776,0.4986531606937777,0.5560145567614811,-155.86423850806906,39.37055177063338,105.5624717000648,0.1920239012489951,0.165809022228403,0.3539961691012731,1.0309938964392762,1.2996208305943286,0.6510552514946252,-96.39572275516166,70.55117028532273,162.99712493667187,0.054569062231746,0.4719305985315642,0.2854083593811285,1.5575530011134355,0.382948969665515,1.0222171422397694
1.33,-114.7199178584591,77.96904799744736,178.29981798877304,0.2347047184497282,0.1356605665523512,0.0728564096987338,0.5813005531147912,0.447726084882136,0.4239248400573358,-103.49008184701287,85.6606053975162,140.0757980292686,0.2739297191144052,0.2051587752127572,0.1281980332420884,0.4282677458196021,0.4528396682492491,0.5260466847890409,-155.36644780417924,39.643353498481,105.6048759189424,0.1615568585745738,0.1851971196349932,0.3223139842474763,1.01505260692382,1.2292150963942026,0.7449223912198882,-96.59274207882817,70.93795870718147,162.219830890134,0.0371905045900799,0.4311003012917245,0.3056388952657372,1.419437418497785,0.4318447791074075,1.0861031124228318
1.34,-114.50319299721004,77.85921124945828,178.34339115176076,0.2173439007285965,0.1132940950479372,0.0609002841957192,0.5027652977619677,0.4249213181422179,0.39432122233933,-103.32779853964809,85.58838162519449,140.1475177226672,0.2654557354942343,0.1961795773471888,0.1243377333637391,0.3773080743069838,0.4163278095634178,0.4914132871219289,-154.95778543547362,39.84976305055955,105.5692764543321,0.1418731304594979,0.206520385071264,0.2999889584826024,0.9830595826554236,1.1563474510599456,0.8335505606409965,-96.80107346552994,71.2572587884408,161.36175717293327,0.027088852227106,0.3855024449076484,0.3284435136972389,1.2840745710095378,0.4919144881534037,1.1382066083305051
1.35,-114.31483854014849,77.76682965945915,178.39066621380368,0.2001162384288753,0.0947176573931848,0.0500521870853488,0.4271457718702572,0.411647024049579,0.3653436018017647,-103.16046701772692,85.5042550841043,140.21165297448147,0.2532020035571775,0.184657320025298,0.1184541746033578,0.3282713484412206,0.3901373864045723,0.4547210443540807,-154.631454510557,39.997506265719615,105.4645609155123,0.1318935425084786,0.2284560960401409,0.2884574414361733,0.9377413697313668,1.0846255708708057,0.91111872048134,-97.00926369730516,71.5084373209434,160.46701500506256,0.0241125028523076,0.338005506601183,0.3527284991535999,1.1586167577439574,0.5616597061268093,1.1755748080058692
1.36,-114.1620633922872,77.68778777594306,178.44139146874792,0.1840408591870518,0.0800903687092222,0.0407247798753668,0.3570060033527598,0.4074379962991311,0.3385358023078321,-102.99466916015233,85.40869897978067,140.26424292410786,0.2378940984884078,0.1712736628192779,0.1111079914482458,0.2830108346243484,0.3742029632788273,0.418787239448831,-154.37664086722324,40.09755521082376,105.29914760041886,0.1300954124318554,0.2497900062028284,0.2879221153224689,0.8824065176156817,1.0168784495057666,0.9724180122043672,-97.20235656551772,71.69398546228818,159.58675521393712,0.0278743035858841,0.2914158264204396,0.3771873140339111,1.0493624903032266,0.638850767558795,1.195981156997105
1.37,-114.04784267836703,77.61827501654984,178.49449554528096,0.1699787114924631,0.0692277695476221,0.0331619640656375,0.2943612793029786,0.4109857496578162,0.3154900739239127,-102.83530793449106,85.30322316281865,140.30173421520087,0.2204238785903296,0.1566915510948524,0.1028959793871394,0.2429945589076029,0.3675022873277994,0.3863693165367254,-154.1797454343302,40.16287138382221,105.08111727032336,0.1346449852726439,0.2694314834685565,0.2973411249539954,0.8206821885922398,0.9551014758792606,1.0133856664518786,-97.36362642483412,71.8191639737844,158.7747590038571,0.0377957203263633,0.2482549072259809,0.4004014521885705,0.9613490452474708,0.7206937851521781,1.1982692964278958
1.38,-113.97094498089494,77.55502092026248,178.54855541993456,0.1585475055602812,0.0616659059989556,0.0274430350425208,0.2406622868393939,0.42024827264659,0.2977196735221003,-102.68530875739384,85.19031804777599,140.32145681543443,0.2017697799420758,0.1415182102024646,0.0943897412622292,0.2092283210175601,0.3682728740050676,0.3599064080008477,-154.02589604118137,40.20689818458155,104.81846958200732,0.1435446669838592,0.2864135474682956,0.3145778688924865,0.7562372544860687,0.9005184690973155,1.0315675250207603,-97.47664645495216,71.89141444685994,158.08250101470685,0.0531448268628712,0.210563371822121,0.4209528473104791,0.8980249066991718,0.8040602131867187,1.1825880956750914
1.39,-113.9264218861744,77.4954477152649,178.60214281784394,0.1500637401943461,0.0567487477605044,0.0235028391448547,0.19680733525195,0.4326315724127391,0.2865221655566122,-102.5456252833856,85.0732873662139,140.3219454028531,0.1829185315439251,0.1262875436283791,0.0860926941371096,0.1822306865856374,0.3742908298705747,0.3413013729165032,-153.90057795009048,40.24198226025558,104.51944001492468,0.1547842999629979,0.2998874856637191,0.3366795781564145,0.692512564571973,0.8537097043144072,1.0264272846448557,-97.52743686996924,71.91960049313158,157.55424018037792,0.0730641420790687,0.1797539727990363,0.4375381139901976,0.8610196990051756,0.8857486757398623,1.1504524552397468
1.4,-113.9064682424086,77.43773071739284,178.65403547921292,0.1445184916598223,0.0537260551319257,0.0211632045810573,0.1631694151106349,0.4452381967769684,0.2828448504066327,-102.41551249624578,84.95598806428835,140.303091573311,0.1647961141984989,0.1114579183867284,0.0784173542750698,0.16205949503811,0.3831808240119711,0.3317651579613932,-153.7911879525337,40.27793308471696,104.1927970986026,0.1664860434196918,0.3091253370162423,0.3602375851760256,0.6324816923236863,0.8147663657306453,0.9994258471763342,-97.5064091232025,71.91317985132252,157.22272979763983,0.0965882926320631,0.1565303739946571,0.4490769064308587,0.8500255053403487,0.9627520474380956,1.104591970508201
1.41,-113.90152619788736,77.38077153791261,178.70329916458618,0.1415893994999349,0.0518475311597362,0.0201699514930942,0.1396345862366214,0.4551627778417813,0.2871675272326521,-102.2929886777072,84.84250638709219,140.26613576174088,0.1482116456071952,0.097420344826525,0.0716794243113904,0.1483829852693662,0.3927165008815185,0.3317388312823776,-153.68829638093686,40.32093903694552,103.84803674132458,0.1770334386151594,0.3135424331776221,0.3817789251365285,0.5784658263426007,0.783445364231511,0.9538283779106054,-97.40982901879644,71.88142796571137,157.1061082432131,0.1226554254739605,0.1408793246043314,0.4548085917177528,0.8627965487572367,1.0325047027202174,1.048593592866966
1.42,-113.9014908452747,77.3241013006246,178.74925714752123,0.1406878065032125,0.0504417743532931,0.0202298894193649,0.1256551128015476,0.4597990135941504,0.2994216016976572,-102.17538961999632,84.73680650719311,140.21352588848558,0.1338158438586213,0.0845118731327356,0.0661020747568772,0.1405827717648995,0.4010648787436507,0.340902595798539,-153.5864140395997,40.37302979085975,103.4954061096546,0.1851767600997275,0.3127440588969811,0.3981466164705985,0.5320268560668477,0.7593000625790383,0.8942542297803503,-97.24056966704885,71.83282613820663,157.20642265468263,0.150119258837984,0.1321347273222337,0.4543744561199497,0.8952720231088513,1.0930800071790652,0.9863997886034276
1.43,-113.8968767049574,77.26773737330754,178.7913731184507,0.14103651368544,0.0489739479381797,0.021043359148417,0.1203208423369061,0.4571143817769325,0.3189645011681322,-102.05992331843552,84.6423908845116,140.14868038900835,0.1220742631050891,0.0730290264660829,0.0618239348279284,0.1378713411842524,0.4069365674476132,0.3582734090040659,-153.48412076688763,40.43220033651867,103.14572373314395,0.1901076063574795,0.3065881633698301,0.4068367716731914,0.4939574528514292,0.7417600192966535,0.826046906210069,-97.00801425045934,71.77469124706114,157.51004259473962,0.1777698807939187,0.1291042921748379,0.4478832536127752,0.9418296864464988,1.143304087733262,0.921768558459724
1.44,-113.87981758390474,77.21201708178813,178.82908565079316,0.1417694921528922,0.0470812795615858,0.022329559513298,0.1224476104458395,0.4458527403283021,0.344621285582904,-101.94415434540475,84.5620092285628,140.07569588240355,0.1132533502458963,0.0632365299291983,0.0589068832122671,0.1394046474873037,0.4096260190909895,0.3823804593034746,-153.3835160718668,40.49319976525314,102.8100067514132,0.1914959606173591,0.2952460312006502,0.4062664141716594,0.4643693312268006,0.7301445321816586,0.7545826378520551,-96.72709081007196,71.71306699789497,157.98995113201028,0.2043698839630847,0.1302430014800613,0.4359517260092932,0.9956774658519162,1.18276033412835,0.8578100071881852
1.45,-113.84479603799744,77.15742808603311,178.86164490161983,0.1420409225116954,0.0445882390804714,0.0238434589877672,0.1306759453395554,0.4256387528930699,0.3747925705239922,-101.82637479065596,84.49744531091237,139.99903514222146,0.1074155201517291,0.0553679826637282,0.057342624598049,0.1443721403382208,0.4089519072305895,0.4114916254452975,-153.2890776231329,40.54886289334992,102.49895791832417,0.1894846328823846,0.2792393859464256,0.3959468343091641,0.4428551805354387,0.7236238108624822,0.6846411259730146,-96.41655967255556,71.65283479528595,158.60959522891886,0.2287077119448893,0.1338532222938631,0.4197015083548517,1.0493781207551365,1.2116835682965506,0.7966832374092595
1.46,-113.7890348326163,77.1044508964462,178.888005615357,0.1411284385412024,0.0415034585202838,0.0253843578005558,0.1435698912854961,0.3969760892296498,0.407614067254465,-101.7058444692288,84.44939880143755,139.9232216854008,0.1044200697341662,0.0496173551075383,0.0570585159430797,0.1520523447173401,0.4051266501855176,0.4438513512820192,-153.2061258663922,40.59175783592962,102.22239380487764,0.1846405648711017,0.2594364975933313,0.3765416074220244,0.4286797639596484,0.7211691656253097,0.6199342718387638,-96.09680249440582,71.59795596520975,159.32770114954212,0.2496635763659914,0.1382895935988002,0.4006903415415373,1.0954780042231915,1.2307762054278852,0.7394894197141126
1.47,-113.71253174455872,77.053426141416,178.90681636677786,0.1385152397618878,0.0379997430074797,0.0267973854151801,0.1597053323373808,0.3611486840699681,0.4411423245930604,-101.58290089440182,84.41746531766586,139.8525568113423,0.1039303986775725,0.0461225595569706,0.0579231228486397,0.1618302497857536,0.3985932573987361,0.4778889038317431,-153.13916043969184,40.61586672971266,101.98870581610478,0.1778689917100234,0.2369998320036722,0.3498013967343148,0.4209529911217052,0.7215391149809178,0.5628454996527137,-95.78744965446708,71.55174264476445,160.1032913755802,0.2662779602502863,0.1421466161305223,0.3807673297566795,1.127185223640926,1.2410055438332095,0.6863541435533764
1.48,-113.6177733871662,77.00445707628253,178.91651447141493,0.1339386298064994,0.0343785664171448,0.0279703314698019,0.17773911395097,0.3200471212731646,0.4735359416322443,-101.45894717594516,84.40020581765485,139.79086681963315,0.1054321163128437,0.0449442401679025,0.0597516615618728,0.1731810119637482,0.3898680974037816,0.5123660103467554,-153.09034057044514,40.618023385761504,101.8044360055112,0.1703018823384615,0.2132902500074801,0.3183848594699455,0.418753019092893,0.7233293328693515,0.5143899264186931,-95.50520577392388,71.51707582852312,160.900133970615,0.2778112786159721,0.1444070629562244,0.3618650600239089,1.1390261016923773,1.2434428909234805,0.636660720306346
1.49,-113.50920924948235,76.95735471472241,178.91550121578385,0.1273992820149456,0.0310218716406453,0.0288286972727242,0.1964534525703129,0.2759478039258345,0.5032033111646301,-101.33632620223888,84.39528923191915,139.74128418714366,0.1082677001977586,0.0460441676534856,0.0623117507069809,0.1856307485450801,0.3794196056275922,0.5464469479451856,-153.05833318411206,40.59889408253894,101.67402386052268,0.1631735042428907,0.1897433446561578,0.2855873817935308,0.4211908824900136,0.725083559457824,0.474371455261007,-95.26218522699924,71.49653378835761,161.69001571776647,0.2837865466619562,0.1445319820216953,0.3457621106395332,1.1274036001335026,1.2391735006203568,0.5893741568289376
1.5,-113.39259102008216,76.91162796314788,178.90234834403867,0.119134658697226,0.02833606656523,0.0293313719317404,0.2147744036437519,0.2312724367216808,0.5288971293434493,-101.21808797629193,84.3996896428646,139.70606620495386,0.1116903717549667,0.0492680468247868,0.0653307894651069,0.1987080412025531,0.367596881688566,0.5796859380575441,-153.03767033817127,40.563384129855415,101.5997453624959,0.1576933975328639,0.1677384234911946,0.255004111298323,0.4274273797886362,0.7254370937408735,0.441687847123029,-95.06496573969342,71.49244060526651,162.4544990748044,0.2840133040298777,0.142481635313226,0.3338575455444438,1.0909837358333792,1.2292586341057208,0.5433859627999018
1.51,-113.27428119262048,76.86651517646814,178.87598265123407,0.1095674664870549,0.0266945105090037,0.0294680928310856,0.2317687532145557,0.1883538775387945,0.5497491039094206,-101.10765959227948,84.40991893095723,139.68645637100835,0.1149345230926704,0.0543370061697797,0.0685070152759677,0.2118997347081671,0.3546054322948025,0.6119368675661824,-153.01866766907992,40.52045591783545,101.5818301820848,0.1549239503454358,0.1484787366538918,0.2301559408747103,0.4366603002601716,0.7232595388150447,0.4147194827209571,-94.91443755272684,71.50687309506614,163.1851146445083,0.2785969396119431,0.1386703118841034,0.32699432945199,1.0308501911447652,1.214703258355725,0.4978182958474622
1.52,-113.1606156448476,76.82104861517043,178.8358090839999,0.0992426010053593,0.0263848488412243,0.0292583956037997,0.246629622891897,0.1492330296368717,0.5652501816128815,-101.00843729952275,84.42227576078467,139.68259642107674,0.1172947726555418,0.0608507881029428,0.0715259932105726,0.2246234614496581,0.3405180080197298,0.6432024958620152,-152.9878786900436,40.48243021189972,101.61871568967484,0.1556695349929375,0.1328949626544723,0.2141117939339188,0.4480960951610925,0.7177813178740614,0.3917331198658972,-94.80639803420736,71.54166735121022,163.88218671112134,0.2679390051673081,0.13387019709122,0.3253566794431499,0.950401639350656,1.1963960473210822,0.4522489746674373
1.53,-113.05737779803498,76.774140796962,178.78175504698476,0.0887641252545321,0.0275666307280548,0.0287506926739964,0.2586647114640311,0.1155074038263851,0.5751894847267872,-100.92333661562486,84.43309210683755,139.69349940330693,0.1182021454323461,0.0683041619118247,0.074082849060272,0.2362272281011212,0.3253087608640688,0.6734537305286724,-152.9290056629143,40.46389809944722,101.70738447114492,0.1603864371623915,0.121576838505061,0.209146477258776,0.4609128377982271,0.708710574013629,0.3712385338935284,-94.73273830984604,71.5984494246147,164.5526575145722,0.2527298030287595,0.1290847487930541,0.3284517610574189,0.8550135670013448,1.1750253424390242,0.4068432275654906
1.54,-112.9694147347012,76.72468176611363,178.7142402220612,0.0787401683729718,0.0302434041447872,0.0280198747089999,0.2672997401768117,0.0882436447493,0.5795699453348764,-100.8543544860141,84.43895990792939,139.71709536042994,0.1172849298596086,0.0761165237363442,0.075908675663017,0.246022027993344,0.3089035339616234,0.7024583850750411,-152.824154228044,40.48039590915391,101.84373577231108,0.1691241850052101,0.1147336477877788,0.2164751353511686,0.4742193928354258,0.6963503781561433,0.3522513677519681,-94.68300088268032,71.6786907873837,165.20735910701532,0.2339279274035381,0.1254108240969847,0.3351714228808951,0.7515235757602298,1.151002152188969,0.3623924082352667
1.55,-112.90040151045793,76.67163794072735,178.63409153039234,0.0697402688615271,0.0342521823344696,0.0271624043602885,0.2721027790676572,0.0679558849479441,0.5785213093282612,-100.8022092470272,84.43692293923745,139.750358860077,0.1144040961018752,0.0836730756678095,0.0767978080727993,0.2533462432213602,0.2912401761895836,0.7296570894428852,-152.6552980497027,40.54699855385584,102.022953770181,0.1815067950565823,0.1121836508509436,0.236099456019837,0.4870193045158509,0.6817082758159715,0.3344358533551999,-94.64606019328406,71.78376945390296,165.85818286040953,0.2127187116938471,0.1239056011262672,0.3439177420900159,0.6476124941158851,1.124427058227118,0.3202654641636285
1.56,-112.8527403135474,76.6141451158613,178.54243057366236,0.0622668480834306,0.0392717021101882,0.0262888195633733,0.2728251304782405,0.0546423912663859,0.5722298551456826,-100.76612229313967,84.42462206289865,139.78951997817603,0.1096584850414096,0.0903745538895259,0.0766311639779939,0.2576516017829073,0.2723277962948383,0.7541108285927239,-152.40580593886438,40.67697790048293,102.23984773690404,0.1967573911278486,0.1133733345007468,0.2667881567452692,0.4981903292770325,0.6665699678728384,0.3181223002689274,-94.61168990182684,71.91500860744195,166.51553386710924,0.1904479011294113,0.1254718638368938,0.352770845034709,0.5511498645052935,1.095129204443961,0.2822846707324103
1.57,-112.82756826393644,76.5515891056422,178.44056137311262,0.0567397291972218,0.0448491186797072,0.0255144091006208,0.2694453885842185,0.0478660728913387,0.560896363924313,-100.7437870020523,84.40038529012708,139.83034785245482,0.1033614224754341,0.0956910562555776,0.0753899293909198,0.2585920423058885,0.2522887848650954,0.7745259862197572,-152.06187830247194,40.88065639085227,102.48914631887008,0.213763911001014,0.1174271834456227,0.3061982018350631,0.5064884476426086,0.6535044556262277,0.3042137022116912,-94.57182154924185,72.07366747151556,167.18636556297233,0.1685351027462272,0.1307726214209054,0.3596797973503651,0.4695629901447756,1.0627839041253684,0.2505465252051013
1.58,-112.82484365572104,76.48366707312377,178.3298797901447,0.0534901521858952,0.0504427151601067,0.0249493569500615,0.262198935600045,0.0468606118045137,0.5447215873625613,-100.731539585269,84.3632582036699,139.86848230409555,0.0959953018374308,0.0992135428904792,0.0731546770898298,0.256092577877771,0.2313702069637808,0.7893486959377508,-151.6137475613614,41.164561637045374,102.76573133985652,0.2311789860489239,0.1232267608044286,0.3511260497478081,0.5105814603969743,0.6457799614614257,0.2940108923081682,-94.52135636033748,72.26087020698034,167.87299723834158,0.148377479329276,0.1401818536085133,0.3626620934404322,0.4092780453391899,1.0270804417435522,0.2272155337775656
1.59,-112.8434848071132,76.41042211587616,178.21181418829366,0.0527595133742,0.055476028932789,0.0246897826651327,0.2515775369872044,0.0506440038478594,0.5239090382072749,-100.72471224058532,84.31297686319975,139.89977961724398,0.0881524527381942,0.1006942596270633,0.0700883676276722,0.2503782708532827,0.2099221858326613,0.7969156624558646,-151.0565228038478,41.53095347745544,103.06479951408431,0.2475439828188217,0.1295145997654473,0.397860806052201,0.5091145817225955,0.6471847374924852,0.2889934223893995,-94.45845855984076,72.47747192755256,168.57282042692404,0.1312548425265201,0.1537727147788408,0.3599970582266427,0.375271328502906,0.9878805111182136,0.2143166506853601
1.6,-112.8815440433523,76.33224510310977,178.0877942170155,0.0546986042573564,0.0593969167494349,0.0248107585856217,0.2382920112060309,0.0581252228153124,0.4986748291357591,-100.7181207397356,84.24989479039772,139.9206368705378,0.0804698279747239,0.1000666400003931,0.0664065885163329,0.2419537255302362,0.1883525568540635,0.7956469305067078,-150.3906030005443,41.97775121121949,103.38194593568105,0.2614252404621011,0.1350142489026009,0.4425947987650828,0.5008072567952984,0.661752609422438,0.290592936735499,-94.38433416883338,72.72387197983635,169.27887770733068,0.1182445306152769,0.1713390531756988,0.3503924713883555,0.3707596574544387,0.9453070568487202,0.2135434521028389
1.61,-112.93640588591586,76.24984192380833,177.95923689889054,0.0593648392406936,0.0617340579133881,0.0253617099021958,0.2232013398483592,0.0681958460774397,0.4692619680979032,-100.70662164031695,84.17488490321394,139.92826462820972,0.0735634666268906,0.0974385906043713,0.062342389587763,0.2315370026149007,0.1670725475961135,0.7842579266825052,-149.62164160528854,42.498838561819305,103.71317098233372,0.2715494102053521,0.1385537723608953,0.4818353823658408,0.4845741456087428,0.6933932838984691,0.2999896629161919,-94.30257847028662,72.99979202757598,169.98115004921775,0.1101512633391256,0.1924416618352884,0.3330995989327931,0.3970488660714386,0.8997393664959332,0.2260911880796071
1.62,-113.00500002350368,76.16417024187267,177.82753928923358,0.0667167440688626,0.0621436830743333,0.0263640083012759,0.2072197339818168,0.0798041820915071,0.4359631699725118,-100.68566869845748,84.08924083065874,139.9208865689245,0.0679677337054578,0.093060345972419,0.0581142923010376,0.2199626810852826,0.1464473287040475,0.7619560314585516,-148.7601092694938,43.08467418498518,104.05482007618612,0.2769246385641791,0.1391778679854237,0.512759400138337,0.4596556578348615,0.7454376610610495,0.3179536332834038,-94.21824127124523,73.30404169736346,170.66825747810097,0.1074551813039489,0.2164684837176826,0.3079579921958116,0.4535451978915426,0.8517380978896056,0.2525213029645953
1.63,-113.08401724473272,76.07635567743738,177.69407248591685,0.0766064257513797,0.0604409656569663,0.0278103736659077,0.1912172847628732,0.0920129449626697,0.3991544578235025,-100.65180120668693,83.99459643405929,139.8978529514115,0.0640842353927709,0.0872757203090832,0.0539043096168551,0.208073266715932,0.1267614829758471,0.7285842709682597,-147.82055672225408,43.72309656308303,104.40347164766328,0.2769353614204999,0.1362348698106533,0.53346170608034,0.4257402709079615,0.8201365792897914,0.3447414465456526,-94.13679233922464,73.63429983526247,171.32921455908183,0.1102807633627667,0.2426989671553033,0.2753681678223574,0.5379165327088776,0.8019506137479914,0.2926654792308782
1.64,-113.17011364417152,75.98760146119906,177.5601777461385,0.0887722609073371,0.0566130742326586,0.0296658571203956,0.1759306319131384,0.1040424090132194,0.3593331601042323,-100.60300680284917,83.89286949840644,139.85966136104628,0.0621453123573174,0.0804694094556674,0.0498491536036685,0.1966171006188263,0.1082048905777097,0.6846883480857707,-146.82071096937673,44.400194938901606,104.75579240417038,0.2714006502870953,0.129428999080391,0.5430705593644143,0.383063537025869,0.9181861633833046,0.3800480177319482,-94.06316283494162,73.98694493973821,171.95490898784433,0.1183897872432494,0.2703657807085931,0.2362086182297309,0.6463727602074888,0.7510407352930222,0.3455788725122998
1.65,-113.2600875452007,75.89910720496157,177.42716866726917,0.1028357245623941,0.0508136579793339,0.0318703983236162,0.1618983462285133,0.1152995536547401,0.3171470258873988,-100.5389168995912,83.78622161757553,139.80788415291536,0.0621962155729571,0.0730216163385951,0.0460435847910103,0.1861676073936025,0.0908793720660536,0.6315045151799048,-145.78053481980135,45.10112899116898,105.10838148374248,0.260589253199822,0.118833842514653,0.5417297922917409,0.3324709379602829,1.0383753142230507,0.423005441877973,-94.00100128731124,74.35697127805074,172.53906882579162,0.1312017613636553,0.2987093999946174,0.1917228736337329,0.7740225988889153,0.6996606372129108,0.4095518595697995
1.66,-113.3510155059672,75.81201095189353,177.29634346637573,0.118307382994254,0.0433409988436277,0.0343429933828456,0.1494310175612337,0.1253910879106335,0.2734024911557811,-100.46081342018424,83.67701752211123,139.7450089695289,0.0640982545337042,0.0652763676625847,0.0425512901808493,0.1770748530886804,0.0748210086977766,0.5708804062159031,-144.72134463846248,45.81081650926624,105.45762700429091,0.2451886661950573,0.1048683232359718,0.5304714261182181,0.2754284159411707,1.1774499535760914,0.4722228899279886,-93.95223100544531,74.7380239541995,173.07861010255317,0.1478437400000391,0.3270215204153142,0.1433994593863739,0.9152622478985268,0.6484564225425592,0.4821872240324962
1.67,-113.44033885793544,75.72736350747205,177.16900874355062,0.13460662164359,0.0346039313527238,0.0369873823237757,0.1386184259733243,0.1341168986783936,0.2290475319254218,-100.37144907102754,83.56776637082447,139.67420664264085,0.0675528373717924,0.0575243016645039,0.0394168491759346,0.1694554286090073,0.0600289086620867,0.5051434056196212,-143.66502829351433,46.51445861619718,105.79959997173184,0.2262305814758906,0.0882399929789555,0.5110154487570303,0.2139605382066964,1.3302620962496403,0.5258697273862004,-93.91694214704762,75.12257525061491,173.57337598579943,0.1672274572727059,0.3546735905899502,0.0928585051311283,1.0641604081793534,0.5980857443556733,0.5605455115041159
1.68,-113.52590047623995,75.64613525004656,177.04651056974197,0.1510971957387618,0.0250805846311325,0.0396990019651605,0.1293680049560125,0.141442792948993,0.1851312171135851,-100.27470676541589,83.46103385003849,139.59904814952435,0.0721437676553143,0.0499968723494193,0.0366730704564521,0.1632202783968114,0.0464903129356105,0.4369277968176334,-142.6333527837879,47.19792087026401,106.13001097285878,0.2049804213635775,0.0698623883350523,0.4855342456941887,0.1505028913435819,1.4902214928991382,0.5818076374555566,-93.89360041757467,75.50224766423209,174.02537706195602,0.1881466092994445,0.3811290218549606,0.0417509572238124,1.2148194806830763,0.5492272922562791,0.6413546151187522
