0.01,-113.04,77.71,173.14,0.16,0.12,0.05,0.1,-0.18,0.9,-100.82,84.08,174.48,0.01,0.1,0.04,0.08,-0.07,0.15,-153.8,1.29,4.65,-0.05,0.12,-0.04,-0.12,0.22,0.14,-125.26,11.03,8.17,0.11,0.03,0.21,0.64,0.19,0.48
0.02,-113.13,77.36,173.24,0.18,0.25,-0.06,0.5,-0.01,0.89,-100.87,84.05,174.32,0.03,-0.12,-0.04,0.23,0.08,0.02,-154.04,1.36,4.41,0.01,0.12,-0.11,0.25,0.23,0.06,-125.06,11.12,8.37,0.04,-0.03,0.11,0.6,0.08,0.48
0.03,-112.53,76.66,173.18,0.18,0.35,-0.06,0.76,0.12,0.88,-100.78,84.21,174.27,0.29,0.04,0.01,0.0,0.28,0.09,-153.97,1.06,4.13,0.0,-0.04,0.01,0.22,0.59,0.09,-124.85,10.95,8.12,0.1,0.1,0.19,0.65,0.35,0.49
0.04,-112.35,76.11,173.44,0.13,0.6,0.18,0.87,0.08,0.54,-101.09,84.34,174.34,0.07,0.28,0.07,0.28,0.06,0.11,-154.08,1.03,4.05,0.14,-0.09,0.12,0.44,0.67,0.19,-124.71,11.26,8.17,0.34,-0.03,0.14,0.94,0.22,0.6
0.05,-112.27,75.61,173.46,0.13,0.61,-0.04,0.86,0.11,0.48,-101.06,84.24,174.18,0.29,0.22,-0.05,0.23,0.19,0.35,-154.04,0.95,3.87,0.21,-0.03,0.04,0.45,0.9,0.12,-124.58,11.12,8.26,-0.03,0.13,0.24,0.62,0.47,0.64
0.06,-111.87,74.96,173.75,0.16,0.7,0.29,1.07,-0.01,0.4,-101.12,84.37,174.04,0.17,0.22,-0.07,0.24,0.18,0.16,-154.0,0.95,3.64,0.07,0.08,0.12,0.61,0.88,0.29,-124.2,11.1,8.13,0.1,0.1,0.49,0.67,0.2,0.89
0.07,-111.63,73.76,173.64,0.22,1.15,0.08,1.27,0.24,0.39,-101.18,84.42,174.23,0.12,0.31,0.17,0.38,0.14,0.39,-153.82,0.85,3.38,0.1,0.05,0.23,0.63,1.17,0.28,-124.11,11.18,7.75,0.19,0.06,0.4,0.76,0.31,1.06
0.08,-111.27,72.59,174.02,0.2,0.95,0.15,1.05,0.08,0.29,-101.47,83.98,174.11,0.07,0.36,0.2,0.39,0.48,0.31,-153.78,0.76,3.12,0.3,0.15,0.14,0.75,1.14,0.5,-123.57,11.21,7.76,0.18,-0.09,0.41,0.78,0.43,1.26
0.09,-110.88,71.3,174.46,0.07,1.35,0.09,1.41,0.09,0.1,-101.35,84.0,174.09,0.16,0.5,0.17,0.48,0.19,0.32,-153.64,0.52,2.76,0.32,0.05,0.28,0.88,1.28,0.58,-123.25,11.23,7.78,0.05,0.08,0.41,0.59,0.38,1.52
0.1,-110.62,70.22,174.55,0.24,1.18,0.25,1.4,0.23,0.19,-101.48,83.88,173.96,0.25,0.56,0.11,0.65,0.51,0.52,-153.32,0.65,2.41,0.09,0.15,0.09,0.79,1.35,1.0,-122.73,11.06,7.51,0.18,-0.12,0.35,0.39,0.27,1.75
0.11,-110.21,68.4,174.65,0.15,1.43,0.02,1.48,0.2,0.16,-101.65,83.29,174.02,0.24,0.72,0.13,0.88,0.37,0.55,-152.92,0.47,1.96,0.19,-0.02,0.22,0.86,1.34,1.07,-122.62,11.15,7.52,0.23,0.2,0.23,0.4,0.28,2.23
0.12,-109.94,66.91,175.17,0.31,1.31,-0.0,1.72,0.24,0.11,-101.83,82.97,173.76,0.22,0.53,0.15,1.03,0.21,0.45,-152.29,0.46,1.7,0.43,0.32,0.37,0.88,1.4,1.5,-122.1,10.83,7.14,-0.04,0.07,0.33,0.45,0.3,2.44
0.13,-109.48,65.01,175.54,0.34,1.64,0.16,1.54,0.34,0.19,-101.92,82.18,173.89,0.04,0.85,0.26,1.09,0.23,0.48,-151.87,0.59,1.44,0.27,0.13,0.27,0.99,1.44,1.73,-121.67,11.0,6.9,0.09,0.15,0.23,0.32,0.21,2.65
0.14,-109.07,63.4,175.77,0.25,1.39,0.25,1.38,0.42,0.12,-101.96,81.27,173.67,0.12,0.86,0.14,1.43,0.12,0.3,-151.08,0.69,1.44,0.12,0.11,0.43,0.86,1.06,1.85,-121.2,10.74,6.62,0.16,0.21,0.35,0.21,0.03,3.16
0.15,-108.8,61.65,175.92,0.28,1.55,0.11,1.46,0.39,0.1,-101.84,80.43,173.62,-0.09,1.16,-0.01,1.5,0.5,0.54,-150.21,0.7,1.16,0.37,0.04,0.59,0.76,1.24,2.09,-120.89,10.76,6.14,0.52,0.4,0.5,0.36,0.21,3.19
0.16,-107.86,58.2,176.55,0.38,1.44,0.05,1.56,0.62,0.4,-101.71,77.45,173.53,0.04,1.42,-0.01,1.95,0.1,0.53,-148.88,1.11,1.05,0.33,0.25,0.62,0.75,1.21,2.82,-119.91,10.13,5.67,0.14,0.32,0.24,0.33,0.02,3.68
0.17,-107.38,56.42,176.81,0.24,1.53,0.15,1.39,0.56,0.23,-101.59,75.92,173.56,-0.05,1.35,0.24,2.08,0.16,0.47,-147.84,1.28,1.34,0.28,0.26,0.6,0.7,1.06,2.99,-119.32,9.8,5.33,0.09,0.37,0.39,0.3,0.16,3.63
0.18,-106.88,54.88,176.88,0.27,1.41,0.18,1.23,0.27,0.43,-101.81,74.09,173.52,-0.14,1.73,0.07,2.2,0.19,0.5,-146.93,1.87,1.55,0.57,0.3,0.81,0.73,1.06,3.17,-119.06,9.55,4.74,0.09,0.32,0.57,0.33,0.3,3.66
0.19,-106.32,53.32,177.23,0.36,1.25,0.34,1.25,0.42,0.65,-101.46,71.81,173.51,0.13,1.9,0.15,2.11,0.14,0.54,-145.81,2.05,1.92,0.34,0.15,0.65,0.73,1.0,2.95,-118.17,9.1,4.31,0.29,0.21,0.32,0.3,0.06,3.52
0.2,-106.11,51.93,177.28,0.15,1.11,0.2,0.91,0.5,0.68,-101.34,69.28,173.57,-0.1,2.1,0.11,2.25,0.17,0.46,-144.77,2.6,2.23,0.54,0.2,0.85,0.65,1.05,3.13,-117.6,8.63,3.88,0.31,0.29,0.46,0.27,0.26,3.16
0.21,-105.51,50.73,177.34,0.19,1.33,0.17,1.06,0.38,1.04,-101.09,66.75,173.62,0.15,2.0,0.17,2.18,0.27,0.67,-143.94,2.84,2.61,0.49,0.2,0.91,0.64,0.84,2.87,-117.41,8.09,3.63,0.31,0.38,0.74,0.39,0.26,2.96
0.22,-105.18,49.1,177.1,0.27,1.42,0.14,0.9,0.35,0.79,-100.78,64.11,173.55,-0.07,2.11,0.33,2.13,0.15,0.7,-142.77,3.19,3.04,0.5,0.13,0.7,0.69,0.84,2.73,-116.66,7.81,3.06,0.41,0.32,0.7,0.29,0.38,2.57
0.23,-104.89,48.04,177.44,0.14,1.29,0.13,1.0,0.3,1.26,-100.63,60.77,173.85,0.01,2.28,0.11,2.17,0.23,0.42,-141.7,3.75,3.32,0.43,0.15,0.82,0.87,0.52,2.61,-116.07,7.36,2.4,0.2,0.45,0.53,0.21,0.3,2.29
0.24,-104.64,46.31,177.38,0.35,1.35,0.01,0.81,0.29,1.2,-100.05,57.65,173.71,-0.0,2.39,0.04,1.93,0.32,0.5,-140.43,4.09,3.81,0.31,0.34,1.02,0.88,0.47,2.21,-115.35,6.98,2.27,0.28,0.17,0.49,0.32,0.34,1.96
0.25,-104.28,45.1,177.66,-0.01,1.13,0.17,0.86,0.24,1.28,-99.94,54.38,173.77,0.47,2.5,0.08,1.87,0.22,0.78,-139.43,4.37,3.89,0.14,0.2,0.82,0.66,0.69,1.98,-114.81,6.45,1.65,0.35,0.34,0.64,0.26,0.44,1.59
0.26,-103.91,43.59,177.29,0.32,1.41,0.12,0.96,0.4,1.54,-99.41,51.09,174.2,0.01,2.47,0.01,1.63,0.16,0.57,-138.43,4.62,4.25,0.3,0.15,0.92,0.77,0.63,1.85,-114.21,6.39,1.45,0.3,0.32,0.62,0.35,0.7,1.25
0.27,-103.69,42.27,177.67,0.1,1.28,0.12,0.71,0.37,1.41,-99.17,47.71,174.71,0.13,2.73,0.17,1.35,0.16,0.6,-137.35,4.9,4.53,0.11,0.06,0.82,0.83,0.35,1.37,-113.64,6.03,1.26,0.15,0.35,0.28,0.28,0.56,1.13
0.28,-103.34,40.34,177.59,0.0,1.45,0.14,1.05,0.24,1.37,-98.74,43.91,174.8,0.17,2.59,0.16,1.45,0.45,0.57,-136.03,4.89,4.1,0.35,0.32,0.72,0.73,0.61,1.15,-113.17,6.07,0.87,0.19,0.28,0.46,0.25,0.52,1.16
0.29,-103.43,38.84,177.75,-0.02,1.66,0.24,0.71,0.26,1.34,-98.44,40.46,175.23,0.1,2.67,0.1,1.13,0.33,0.64,-134.98,5.15,4.18,0.17,0.17,0.68,0.84,0.57,1.15,-112.47,6.04,0.94,0.43,0.4,0.47,0.06,0.65,0.81
0.3,-103.38,36.96,177.51,0.25,1.62,0.07,1.16,0.08,1.45,-98.29,37.17,175.46,0.12,2.56,0.2,1.13,0.35,0.8,-134.04,5.07,3.74,0.09,0.19,0.58,0.71,0.64,1.16,-111.83,6.0,0.75,0.19,0.45,0.53,0.16,0.58,1.02
0.31,-103.4,33.48,177.37,0.3,1.66,-0.05,1.2,0.41,1.41,-97.36,30.16,176.13,0.27,2.31,0.06,0.78,0.44,1.01,-132.0,4.82,3.04,0.28,0.27,0.57,0.85,0.67,1.19,-110.67,6.1,0.81,0.32,0.35,0.48,0.28,0.47,0.99
0.32,-103.26,31.41,177.55,0.16,1.45,0.02,1.32,0.48,1.2,-96.96,27.16,176.67,0.08,2.39,0.06,0.8,0.48,0.97,-130.86,4.46,2.71,0.34,0.09,0.61,0.86,0.61,1.19,-110.41,6.79,0.77,0.24,0.32,0.28,0.2,0.38,1.49
0.33,-103.39,29.85,177.44,0.12,1.23,0.16,1.45,0.57,1.06,-96.84,24.11,176.75,0.27,2.04,0.0,0.76,0.44,1.31,-130.21,4.17,2.37,0.38,0.17,0.49,0.88,0.64,1.42,-109.95,7.29,1.16,0.28,0.36,0.28,0.07,0.53,1.76
0.34,-103.65,28.08,177.31,0.08,1.24,0.03,1.5,0.53,1.02,-96.62,21.28,177.18,0.24,2.18,0.13,0.7,0.55,1.55,-129.33,3.66,2.03,0.26,0.22,0.42,0.94,0.84,1.93,-109.37,7.81,1.2,0.27,0.38,0.18,0.44,0.49,2.17
0.35,-103.8,26.42,177.07,0.23,1.21,0.04,1.63,0.67,1.09,-96.17,18.48,177.36,0.02,1.81,0.1,0.68,0.59,1.67,-128.23,3.4,1.87,0.5,0.49,0.47,1.09,0.48,2.07,-109.01,8.28,1.64,0.17,0.56,0.2,0.33,0.52,2.38
0.36,-103.77,25.15,177.03,0.31,1.04,0.05,1.54,0.72,1.06,-96.09,16.14,177.63,0.04,1.78,0.13,0.68,0.66,1.58,-127.74,2.9,1.61,0.26,0.31,0.37,0.81,0.49,2.24,-108.68,8.74,1.86,0.24,0.21,0.13,0.39,0.66,2.8
0.37,-104.2,23.57,176.89,0.25,0.95,0.22,1.6,0.79,1.16,-95.91,13.66,177.89,0.1,1.57,0.16,0.57,0.63,1.87,-127.11,2.53,1.42,0.39,0.49,0.5,0.88,0.58,2.57,-108.74,9.13,2.11,0.34,0.45,0.06,0.37,0.61,2.88
0.38,-104.27,22.59,176.81,0.08,0.73,0.13,1.48,1.05,1.14,-95.58,12.04,178.01,0.1,1.31,0.08,0.62,0.47,2.07,-126.68,2.07,1.42,0.41,0.19,0.14,0.82,0.45,2.82,-108.6,9.68,2.52,0.33,0.31,0.14,0.44,0.52,3.15
0.39,-104.55,21.42,176.69,0.22,0.66,0.12,1.51,1.21,1.0,-95.48,10.34,178.12,-0.01,1.17,0.2,0.58,0.54,2.29,-126.31,1.74,1.28,0.25,0.54,0.36,0.78,0.56,3.16,-108.62,10.06,2.93,0.1,0.42,0.23,0.5,0.69,3.29
0.4,-104.6,20.78,176.49,0.11,0.5,0.08,1.52,1.0,1.05,-95.43,8.87,178.26,0.15,0.88,0.28,0.31,0.57,2.31,-126.18,1.36,1.73,0.34,0.49,0.39,0.63,0.66,3.31,-108.86,10.82,3.15,0.26,0.23,0.27,0.66,0.86,3.55
0.41,-105.05,20.05,176.5,0.37,0.51,0.03,1.49,1.2,1.04,-95.19,7.63,178.44,0.16,0.8,0.09,0.27,0.43,2.14,-126.04,0.89,1.58,0.37,0.23,0.37,0.72,0.6,3.27,-109.31,11.11,3.45,0.37,0.45,0.38,0.61,0.64,3.75
0.42,-105.1,19.65,176.49,0.19,0.09,-0.02,1.32,1.16,1.31,-95.08,6.56,178.35,0.04,0.61,0.17,0.52,0.39,2.24,-126.18,1.01,1.71,0.32,0.26,0.56,0.66,0.69,3.39,-109.55,11.48,3.66,0.28,0.21,0.47,0.74,0.82,3.48
0.43,-105.06,19.27,176.28,0.07,0.03,0.21,1.42,1.11,1.0,-94.86,5.79,178.4,0.05,0.25,0.14,0.3,0.42,2.26,-126.33,0.87,2.06,0.34,0.27,0.44,0.79,1.09,3.44,-109.92,11.52,3.9,0.3,0.42,0.59,0.8,1.1,3.61
0.44,-105.26,19.26,176.52,-0.1,0.25,0.18,1.39,1.08,1.22,-94.86,5.19,178.55,-0.1,0.36,0.07,0.42,0.52,2.44,-126.75,0.89,2.55,0.3,0.5,0.3,0.82,0.78,3.55,-110.38,12.03,4.18,0.29,0.1,0.5,0.63,1.37,3.69
0.45,-105.46,19.45,176.34,0.03,0.3,0.06,1.25,1.14,0.92,-94.82,4.69,178.57,-0.03,0.3,0.17,0.37,0.2,2.01,-127.17,1.05,2.52,0.33,0.17,0.43,0.61,0.93,3.42,-111.14,11.97,4.33,0.24,0.36,0.41,0.66,1.39,3.58
0.46,-105.8,19.78,176.2,-0.06,0.19,0.16,1.37,1.08,0.94,-94.73,4.57,178.3,-0.02,0.03,0.12,0.51,0.37,1.8,-128.15,1.47,2.8,0.24,0.39,0.39,0.83,1.21,3.5,-112.21,12.22,4.49,0.1,0.08,0.6,0.83,1.43,3.63
0.47,-105.95,20.47,176.17,0.18,0.28,0.03,1.17,0.96,0.75,-94.86,4.73,178.64,0.11,0.15,-0.21,0.37,0.24,1.83,-128.6,1.64,2.81,0.35,0.38,0.59,0.86,1.49,3.43,-112.62,12.52,4.93,-0.03,0.21,0.58,0.8,1.54,3.58
0.48,-105.92,21.03,176.31,0.12,0.5,0.23,1.36,0.51,0.58,-94.96,4.92,178.87,0.12,0.23,-0.06,0.4,0.42,1.86,-129.19,1.66,2.75,0.23,0.25,0.49,0.76,1.52,3.44,-113.13,12.57,4.82,0.37,0.07,0.57,0.63,1.73,3.73
0.49,-106.09,21.83,176.26,0.11,0.47,0.08,1.26,0.77,0.75,-94.86,5.17,179.05,0.16,0.39,0.1,0.64,0.22,1.74,-129.83,1.91,2.62,0.43,0.22,0.6,0.77,1.39,3.45,-113.63,12.96,5.16,0.28,0.3,0.45,0.93,1.69,3.75
0.5,-106.34,22.37,176.11,0.17,0.51,0.14,1.31,0.33,0.63,-95.0,5.81,179.2,0.1,0.49,0.15,0.54,0.35,1.66,-130.36,2.08,2.71,0.53,0.21,0.5,0.86,1.6,3.38,-114.03,13.09,5.43,0.23,0.34,0.57,0.76,1.67,3.62
0.51,-106.47,23.57,176.16,0.09,0.77,0.18,1.32,0.35,0.41,-94.95,6.34,178.92,-0.03,0.37,-0.0,0.46,0.14,1.62,-130.86,2.36,2.35,0.46,0.14,0.49,1.09,1.44,3.32,-113.89,13.56,5.68,0.34,0.16,0.56,0.73,1.6,3.64
0.52,-106.54,24.64,175.94,0.16,0.78,0.08,1.4,0.53,0.47,-94.85,7.15,179.5,0.11,0.57,0.04,0.52,0.24,1.35,-131.24,2.29,2.74,0.5,0.5,0.44,0.79,1.67,3.27,-114.03,13.67,5.96,0.25,0.25,0.44,0.91,1.42,3.48
0.53,-106.7,25.68,175.98,0.11,0.83,0.04,1.33,0.34,0.51,-95.17,7.87,179.47,0.21,0.66,0.24,0.55,0.16,1.43,-131.54,2.29,2.54,0.84,-0.02,0.51,0.61,1.36,2.94,-113.86,14.1,6.65,0.58,0.39,0.38,0.77,1.56,3.4
0.54,-106.9,26.81,175.86,0.1,0.99,-0.09,1.39,0.38,0.21,-95.2,8.93,179.51,0.11,0.72,-0.07,0.62,0.23,1.33,-131.98,2.12,2.85,0.82,0.07,0.34,0.79,1.45,3.01,-113.78,14.53,7.02,0.52,0.39,0.47,0.84,1.44,3.43
0.55,-107.24,28.28,175.57,0.07,1.11,0.09,1.35,0.24,0.16,-95.0,9.94,179.66,-0.13,0.69,-0.03,0.5,0.43,1.1,-132.27,2.12,3.21,1.17,0.06,0.39,0.9,1.32,2.67,-113.37,14.89,7.3,0.47,0.39,0.42,0.86,1.31,3.3
0.56,-107.25,29.56,175.29,0.19,1.16,0.07,1.18,0.26,0.34,-95.34,10.9,179.62,0.15,0.93,-0.04,0.62,0.39,1.01,-132.48,1.67,3.76,1.03,0.28,0.56,0.62,0.93,2.74,-112.92,15.64,8.08,0.57,0.25,0.43,0.77,1.27,3.02
0.57,-107.38,30.97,175.2,0.01,1.27,0.05,1.2,0.27,0.32,-95.34,12.02,179.68,0.11,0.93,0.05,0.5,0.47,0.85,-132.86,1.67,4.39,1.15,0.2,0.23,0.66,1.04,2.32,-112.36,16.19,9.03,0.54,0.31,0.31,0.88,1.0,2.85
0.58,-107.59,32.5,174.82,0.18,1.37,0.1,1.05,0.22,0.44,-95.4,13.32,179.54,0.06,1.07,-0.07,0.61,0.22,0.97,-133.05,1.25,5.39,1.23,-0.1,0.42,0.66,0.69,2.3,-111.64,16.83,9.35,0.62,0.56,0.39,0.83,0.98,2.74
0.59,-107.91,34.28,174.54,0.0,1.62,0.15,1.04,0.38,0.54,-95.31,14.75,179.38,0.03,1.1,0.07,0.43,0.24,0.73,-133.25,1.13,6.45,1.2,-0.03,0.52,0.47,0.57,1.86,-111.1,17.45,10.31,0.65,0.47,0.32,0.73,0.81,2.45
0.6,-108.27,36.06,174.27,-0.04,1.49,0.05,0.95,0.06,0.44,-95.41,16.17,179.33,0.08,1.06,0.02,0.6,0.4,0.76,-133.67,0.88,7.87,1.25,-0.01,0.44,0.35,0.56,1.76,-110.67,18.14,11.29,0.71,0.59,0.29,0.67,0.8,2.25
0.61,-108.7,39.95,173.81,0.05,1.72,0.01,0.72,0.33,0.71,-95.53,19.18,179.08,0.05,1.38,-0.11,0.49,0.52,0.63,-134.43,1.03,10.26,1.41,0.09,0.42,0.45,0.3,1.52,-109.2,19.82,13.21,0.79,0.66,0.49,0.71,0.81,1.72
0.62,-108.93,42.01,173.46,0.26,1.75,0.1,0.8,0.26,0.93,-95.6,20.86,178.73,0.18,1.51,0.09,0.41,0.57,0.51,-134.52,0.88,11.74,1.06,0.12,0.43,0.43,0.37,0.95,-108.28,20.88,14.12,0.88,0.84,0.23,0.72,0.56,1.47
0.63,-109.46,44.38,173.15,0.37,1.75,0.12,0.74,0.21,0.96,-95.58,22.56,178.66,0.25,1.66,0.19,0.44,0.6,0.55,-135.03,1.21,13.34,1.1,0.17,0.43,0.61,0.26,1.02,-108.05,21.84,15.15,0.78,1.13,0.57,0.72,0.55,1.31
0.64,-109.81,46.84,173.01,0.2,1.84,0.3,0.55,0.32,1.08,-95.45,24.19,178.22,0.06,1.72,0.07,0.29,0.46,0.28,-135.46,1.46,14.69,0.84,0.38,0.39,0.78,0.24,0.8,-107.28,23.17,15.89,0.92,1.15,0.51,0.77,0.63,1.28
0.65,-110.4,49.2,172.81,-0.0,1.78,0.04,0.63,0.39,1.05,-95.48,26.28,178.15,0.14,1.7,0.04,0.25,0.36,0.35,-135.96,1.99,15.76,0.96,0.35,0.5,0.68,0.3,0.88,-106.44,24.79,16.88,0.75,1.0,0.37,0.7,0.59,1.11
0.66,-110.73,51.88,172.65,0.2,1.97,0.15,0.58,0.34,1.09,-95.54,28.59,178.06,0.29,1.98,0.08,0.38,0.19,0.65,-136.67,2.52,16.63,0.66,0.56,0.54,0.72,0.62,0.81,-105.72,26.11,17.67,0.9,1.24,0.64,0.91,0.47,1.1
0.67,-111.29,54.4,172.26,0.04,1.94,0.03,0.57,0.31,1.04,-95.65,30.76,177.74,0.3,1.84,0.12,0.3,0.34,0.34,-137.22,3.41,17.64,0.54,0.47,0.71,0.91,0.46,0.88,-105.12,28.2,18.38,0.85,1.19,0.59,0.74,0.36,0.9
0.68,-111.71,56.89,172.0,0.13,1.99,0.27,0.7,0.19,0.93,-95.81,33.25,177.45,0.17,2.01,-0.07,0.5,0.16,0.39,-138.08,4.29,18.15,0.62,0.52,0.7,0.97,0.62,0.98,-104.56,30.04,19.13,0.81,1.5,0.6,0.68,0.39,1.05
0.69,-112.31,59.41,171.81,0.21,2.11,0.37,0.78,0.25,0.82,-95.68,35.69,177.53,0.06,2.05,0.02,0.55,0.34,0.45,-138.85,5.49,18.52,0.58,0.59,0.73,1.08,0.87,1.06,-103.95,32.48,19.95,0.83,1.67,0.51,0.99,0.42,1.08
0.7,-112.49,62.07,171.3,0.03,1.97,0.18,0.61,0.2,1.04,-95.47,38.21,176.99,0.21,2.27,0.23,0.84,0.19,0.46,-139.81,6.78,18.39,0.49,0.65,0.75,1.03,1.02,1.18,-103.54,35.05,20.47,0.98,1.95,0.61,0.96,0.46,1.36
0.71,-113.45,64.64,170.58,0.13,1.96,0.13,0.75,0.22,0.83,-95.71,41.3,176.98,0.26,2.4,0.13,0.77,0.22,0.59,-140.7,8.06,18.0,0.28,0.8,0.83,1.07,0.96,1.41,-103.05,37.69,21.52,0.73,1.96,0.63,0.95,0.65,1.16
0.72,-113.64,66.99,169.95,0.15,1.93,0.09,0.75,0.25,0.8,-95.48,44.11,176.48,0.11,2.2,-0.11,0.94,0.09,0.59,-141.96,9.63,17.13,0.67,0.86,1.04,1.32,1.22,1.47,-102.58,40.74,22.57,0.71,2.09,0.55,0.94,0.42,1.23
0.73,-114.05,69.22,169.16,0.16,1.72,0.08,0.88,0.27,0.99,-95.35,46.88,176.09,0.27,2.46,-0.06,0.97,0.01,0.46,-143.18,11.13,16.03,0.49,0.92,1.12,1.21,1.61,1.88,-102.18,43.96,23.89,0.86,2.39,0.56,1.12,0.48,1.36
0.74,-114.44,71.42,168.34,0.09,1.64,0.05,0.67,0.22,0.72,-95.41,50.28,175.22,0.21,2.36,0.06,1.12,0.19,0.59,-144.44,12.59,14.82,0.76,0.87,0.99,1.3,1.62,2.1,-101.78,47.06,25.65,0.86,2.43,0.52,1.01,0.45,1.47
0.75,-114.82,73.42,167.15,0.25,1.52,0.13,0.94,0.07,0.45,-95.34,53.22,174.31,0.38,2.25,0.19,1.22,0.26,0.69,-145.96,14.03,13.26,0.79,0.82,1.36,1.1,1.6,2.02,-101.14,50.13,27.86,0.76,2.61,0.53,1.29,0.34,1.57
0.76,-115.01,76.51,164.6,-0.03,1.24,-0.01,1.1,0.21,0.46,-95.35,59.6,172.2,0.09,2.3,0.08,1.44,0.16,0.72,-148.65,16.76,9.7,1.18,1.02,1.39,1.13,1.89,1.99,-100.96,56.27,34.1,1.14,2.83,0.38,1.13,0.34,1.73
0.77,-115.52,78.09,163.17,0.22,1.14,0.09,0.97,0.12,0.18,-95.11,62.77,170.59,0.2,2.25,0.01,1.36,0.14,0.81,-150.19,18.13,8.01,1.23,1.0,1.51,0.92,2.25,2.04,-100.87,59.37,38.53,1.19,2.98,0.5,1.39,0.24,1.78
0.78,-115.77,79.21,161.86,0.16,0.99,0.02,1.13,0.24,0.14,-95.26,65.69,169.13,0.14,2.11,0.06,1.38,0.4,0.6,-151.58,19.54,6.54,1.62,0.91,1.49,1.07,2.38,1.76,-100.45,61.79,43.81,1.24,3.09,0.36,1.27,0.11,1.77
0.79,-115.73,80.15,160.39,0.12,0.99,-0.01,1.09,0.2,0.22,-94.98,68.52,167.17,0.17,1.8,0.01,1.5,0.28,0.82,-153.24,20.79,5.53,1.62,0.94,1.63,0.72,2.09,1.95,-100.17,64.14,49.84,1.16,3.1,0.15,1.25,0.36,1.75
0.8,-115.94,80.87,158.94,0.14,0.74,0.05,0.93,0.26,0.05,-94.91,71.18,165.45,0.17,2.07,0.17,1.5,0.19,0.5,-154.52,21.81,5.07,1.82,0.91,1.61,0.67,2.33,1.69,-99.74,66.28,57.12,1.36,3.31,0.33,1.26,0.39,1.5
0.81,-115.92,81.46,157.68,0.15,0.6,0.17,0.7,0.36,0.23,-94.72,73.6,163.32,0.19,1.7,-0.05,1.41,0.25,0.52,-156.1,23.22,4.76,2.07,0.92,1.49,0.61,2.38,1.74,-99.37,67.63,64.57,1.6,3.24,0.32,1.22,0.22,1.65
0.82,-116.04,82.11,156.31,0.29,0.52,0.04,0.96,0.29,0.06,-94.7,76.01,161.37,0.33,1.66,0.18,1.43,0.4,0.64,-157.32,24.07,5.45,2.18,1.08,1.59,0.9,2.42,1.59,-98.67,68.52,73.13,1.35,3.29,0.4,1.16,0.61,1.36
0.83,-116.16,82.54,155.62,0.13,0.44,0.04,0.69,0.54,0.11,-94.32,78.05,159.31,0.31,1.43,-0.12,1.4,0.33,0.74,-158.44,25.12,6.56,2.51,1.23,1.13,0.7,2.34,1.49,-98.12,69.42,82.06,1.48,3.37,0.68,1.03,0.18,1.36
0.84,-116.21,82.56,154.75,0.02,0.3,-0.06,0.83,0.33,0.17,-94.27,79.7,157.73,0.13,1.36,0.3,1.13,0.27,0.54,-159.75,26.24,8.22,2.49,1.34,1.33,0.69,2.06,1.3,-97.21,69.67,91.3,1.42,3.01,0.6,0.99,0.42,1.12
0.85,-116.14,82.86,154.03,0.07,0.26,0.19,0.69,0.55,0.39,-94.15,81.26,156.14,0.31,1.09,0.11,1.01,0.39,0.53,-160.76,27.41,10.63,2.63,1.26,1.29,0.65,2.4,1.41,-96.06,69.41,100.81,1.35,3.03,0.66,0.86,0.57,1.1
0.86,-116.19,82.7,153.88,0.08,0.2,0.13,0.59,0.41,0.54,-93.9,82.42,154.69,0.15,1.13,-0.08,1.03,0.27,0.6,-161.37,28.69,13.35,2.59,1.67,0.96,0.57,2.18,1.46,-94.55,68.73,110.34,1.11,2.98,0.77,0.82,0.57,1.14
0.87,-116.17,82.98,153.77,0.03,0.27,-0.02,0.42,0.61,0.48,-93.75,83.49,153.45,0.03,1.14,-0.05,0.78,0.33,0.57,-161.89,29.92,16.83,3.0,1.59,1.02,0.8,2.06,1.28,-92.96,67.99,119.26,1.33,2.92,0.83,0.78,0.82,1.13
0.88,-116.34,82.92,153.8,-0.04,0.05,0.09,0.5,0.6,0.35,-93.58,84.03,152.41,0.27,0.86,0.1,0.76,0.55,0.74,-162.22,31.47,20.9,2.77,1.67,0.87,0.7,1.98,1.47,-91.54,66.98,128.08,1.24,2.44,0.79,0.68,0.87,1.1
0.89,-116.05,82.61,154.51,0.22,0.08,-0.02,0.28,0.73,0.62,-93.42,84.95,151.71,0.19,0.96,0.13,0.69,0.27,0.62,-162.31,33.04,25.5,2.92,1.77,0.9,0.94,1.84,1.38,-89.59,65.46,136.0,1.27,2.51,1.0,0.68,1.25,0.8
0.9,-116.01,82.72,155.05,0.24,0.12,0.18,0.17,0.59,0.63,-93.32,85.24,151.23,0.15,0.76,-0.02,0.52,0.3,0.69,-162.16,34.74,30.19,2.86,1.97,0.97,0.59,1.92,1.61,-87.94,63.98,143.5,1.03,2.18,0.94,0.72,1.1,0.87
0.91,-115.76,82.46,156.81,0.19,0.3,0.12,0.19,0.62,0.63,-93.07,85.44,150.64,0.26,0.8,-0.04,0.49,0.41,0.94,-160.96,38.27,40.74,2.96,1.97,0.66,1.05,1.74,1.65,-84.4,60.89,155.38,0.55,1.91,1.06,0.5,1.37,0.75
0.92,-115.58,82.06,158.07,-0.03,0.25,0.17,0.45,0.66,0.62,-92.91,85.26,150.76,0.02,0.6,-0.03,0.33,0.5,0.7,-160.24,40.3,46.22,2.99,2.07,0.79,1.1,1.55,1.89,-82.51,59.01,160.05,0.82,1.4,0.95,0.56,1.41,0.85
0.93,-115.71,81.96,159.26,0.09,0.2,-0.02,0.29,0.58,0.62,-92.74,85.05,150.81,0.28,0.52,0.13,0.52,0.4,0.75,-159.05,42.07,51.87,2.91,2.27,0.4,1.16,1.48,1.87,-81.28,57.57,163.71,0.7,1.31,1.2,0.49,1.3,1.0
0.94,-115.42,81.75,160.45,0.06,0.32,0.0,0.31,0.71,0.73,-92.77,84.6,150.91,0.2,0.28,0.03,0.41,0.37,0.63,-157.86,43.95,57.73,2.77,2.22,0.57,1.4,1.55,1.91,-80.01,56.2,166.74,0.59,1.14,1.13,0.51,1.33,0.91
0.95,-115.39,81.69,161.75,0.22,0.31,0.3,0.31,0.69,0.73,-92.76,84.56,151.06,0.03,0.4,0.13,0.46,0.39,0.82,-156.41,45.76,63.6,2.7,2.06,0.68,1.25,1.42,1.83,-79.24,54.87,168.88,0.5,0.83,0.91,0.77,1.5,1.02
0.96,-115.34,81.27,163.48,0.14,0.34,0.09,0.43,0.63,0.63,-92.85,84.25,151.22,-0.07,0.25,0.01,0.67,0.73,0.61,-154.6,47.44,69.35,2.76,2.21,0.67,1.28,1.55,1.7,-78.53,53.68,170.09,0.48,0.7,0.87,0.87,1.26,0.94
0.97,-115.52,81.08,164.78,0.17,0.22,0.24,0.37,0.64,1.01,-92.84,84.15,151.4,-0.07,0.17,0.14,0.48,0.62,0.82,-152.83,48.98,75.36,2.71,2.09,0.78,1.26,1.36,1.68,-78.29,52.67,171.22,0.59,0.75,0.76,1.1,1.33,1.06
0.98,-115.48,80.85,166.31,0.27,0.29,-0.1,0.3,0.74,0.8,-92.64,83.97,151.27,-0.05,0.15,-0.03,0.46,0.69,0.83,-150.75,50.44,81.08,2.51,2.17,0.71,1.44,1.71,1.69,-78.55,51.82,171.49,0.49,0.47,0.72,1.53,1.17,1.56
0.99,-115.49,80.67,167.92,-0.15,0.17,0.16,0.58,0.57,0.79,-93.04,83.89,151.56,0.14,-0.01,0.08,0.49,0.6,0.79,-148.97,51.79,86.79,2.23,1.98,0.87,1.49,1.51,1.19,-79.0,51.35,171.43,0.29,0.36,0.72,1.74,1.38,1.63
1.0,-115.43,80.36,169.13,0.01,0.3,0.12,0.41,0.63,0.84,-93.07,83.64,151.55,-0.04,0.13,0.07,0.47,0.72,0.7,-146.69,52.99,92.42,2.31,1.72,0.88,1.65,1.46,1.3,-79.93,50.68,171.19,0.71,0.4,0.61,1.96,1.35,1.63
1.01,-115.28,80.18,170.65,0.11,0.33,-0.09,0.33,0.46,1.16,-93.05,83.53,151.5,-0.0,0.03,-0.03,0.38,0.77,0.97,-144.43,53.81,97.92,2.06,1.71,0.86,1.86,1.7,1.07,-81.1,50.17,170.58,0.64,0.35,0.41,2.51,1.27,1.88
1.02,-115.6,79.93,171.87,0.11,0.3,0.12,0.44,0.56,1.33,-93.41,83.74,151.8,-0.0,-0.05,0.13,0.49,0.72,0.71,-142.49,54.51,102.9,1.88,1.47,0.84,1.89,1.61,1.07,-82.46,50.03,170.11,0.7,0.21,0.29,2.66,1.23,1.98
1.03,-115.58,80.03,173.3,0.24,0.13,0.1,0.39,0.51,1.21,-93.5,83.87,151.32,0.02,-0.02,0.04,0.57,0.6,0.85,-140.13,55.12,107.66,1.84,1.38,0.97,1.83,1.72,0.98,-84.03,49.81,169.56,0.82,0.1,0.39,2.95,1.14,1.86
1.04,-115.53,79.52,174.41,0.0,0.12,0.26,0.56,0.55,1.47,-93.9,83.85,151.27,0.05,0.2,-0.01,0.68,0.55,0.9,-138.28,55.41,112.32,1.44,1.12,0.8,2.02,1.7,0.81,-85.71,49.77,168.79,0.81,0.26,0.42,3.23,1.09,1.92
1.05,-115.41,79.19,175.27,0.25,0.2,-0.03,0.38,0.45,1.61,-93.9,84.09,150.96,-0.15,0.12,0.23,0.55,0.61,0.92,-136.27,55.78,116.51,1.28,1.04,0.79,1.98,1.65,0.58,-87.77,49.96,167.84,0.8,0.21,0.18,3.22,1.29,1.92
1.06,-115.4,79.03,177.17,0.22,0.1,0.12,0.33,0.43,1.72,-94.51,84.57,150.64,0.06,0.16,0.19,0.62,0.44,1.09,-133.21,56.05,122.95,1.08,0.8,0.69,2.03,2.0,0.48,-91.69,50.38,166.68,0.68,0.1,0.2,3.42,1.11,1.8
1.07,-115.21,79.04,177.72,0.32,0.08,0.16,0.35,0.52,1.57,-94.63,84.7,150.67,-0.14,0.22,0.08,0.28,0.39,1.16,-131.87,55.84,125.46,0.72,0.58,0.57,2.21,1.53,0.41,-93.59,50.66,165.69,0.93,0.15,0.18,3.53,1.21,1.55
1.08,-115.12,78.8,178.27,0.31,0.1,0.24,0.45,0.4,1.76,-94.73,84.93,150.06,0.03,0.19,0.17,0.4,0.62,1.03,-130.98,55.56,127.68,0.58,0.44,0.52,2.02,1.52,0.32,-95.44,51.01,164.93,0.45,0.14,0.1,3.39,1.19,1.28
1.09,-114.81,78.68,178.88,0.18,0.07,0.14,0.62,0.38,1.73,-94.91,85.03,150.09,0.1,-0.06,-0.11,0.29,0.49,1.32,-130.04,55.55,129.12,0.54,0.2,0.44,1.92,1.66,0.28,-96.81,51.34,164.53,0.78,0.17,0.15,3.26,0.87,1.31
1.1,-114.47,78.51,178.93,0.29,0.15,0.02,0.57,0.51,1.68,-94.81,85.19,150.21,0.19,0.25,0.08,0.46,0.38,1.42,-129.84,55.18,130.43,0.41,0.2,0.21,1.87,1.29,0.34,-98.38,51.78,163.9,0.51,0.25,0.25,2.88,0.81,0.93
1.11,-114.24,78.21,179.34,0.28,0.0,0.18,0.56,0.47,1.74,-95.06,85.24,149.79,0.29,0.23,0.01,0.66,0.43,1.34,-129.38,55.0,131.05,0.48,0.21,0.53,1.62,1.25,0.59,-99.99,52.05,163.24,0.45,0.27,0.33,2.55,0.94,0.85
1.12,-113.8,78.23,179.51,0.39,0.3,0.1,0.68,0.57,1.48,-95.0,85.4,149.62,0.32,0.13,0.11,0.49,0.51,1.13,-129.38,54.79,131.51,0.04,-0.04,0.1,1.36,1.22,0.41,-101.01,52.58,162.77,0.44,0.34,0.2,2.43,0.93,0.74
1.13,-113.38,78.0,179.6,0.37,0.1,0.16,0.71,0.38,1.39,-94.78,85.66,149.79,0.17,0.22,-0.01,0.94,0.49,1.33,-129.3,54.35,131.62,-0.02,0.14,0.12,1.26,0.8,0.33,-102.0,52.94,162.19,0.35,0.2,0.15,1.81,0.84,0.54
1.14,-113.02,77.86,179.44,0.25,0.26,-0.02,1.03,0.52,1.26,-94.7,85.67,149.76,0.32,0.05,0.14,0.8,0.47,1.35,-129.24,54.48,131.84,0.13,0.0,0.25,0.79,0.83,0.48,-102.7,53.53,161.63,0.48,0.51,-0.04,1.62,0.82,0.33
1.15,-112.75,77.66,179.61,0.26,0.02,0.11,0.91,0.62,1.24,-94.3,85.9,149.67,0.33,0.23,0.19,0.87,0.65,1.1,-129.72,54.17,131.53,0.03,-0.11,0.12,0.79,0.76,0.51,-103.47,53.66,161.5,0.18,0.32,-0.05,1.35,0.62,0.32
1.16,-112.35,77.75,179.53,0.41,0.07,0.14,0.89,0.47,0.97,-94.42,85.89,149.69,0.26,0.35,0.03,1.08,0.5,1.24,-129.98,54.08,130.88,0.04,0.1,0.11,0.59,0.66,0.45,-104.03,54.19,160.97,0.0,0.19,0.03,0.94,0.79,0.19
1.17,-111.81,77.37,179.41,0.42,-0.04,0.12,0.83,0.5,1.27,-94.05,86.11,149.61,0.12,0.13,0.03,0.89,0.57,1.27,-130.25,54.08,130.45,0.11,0.19,0.16,0.4,0.51,0.53,-104.26,54.35,160.57,0.03,0.45,0.09,0.6,0.63,0.12
1.18,-111.46,77.22,179.21,0.58,0.18,0.19,0.88,0.43,0.68,-93.78,86.28,149.39,0.24,0.29,0.1,1.01,0.48,1.08,-130.81,54.11,129.64,-0.07,0.11,0.09,0.2,0.42,0.63,-104.59,54.8,160.3,-0.16,0.46,0.16,0.4,0.8,0.24
1.19,-111.27,76.94,179.27,0.25,0.18,0.27,0.86,0.57,0.61,-93.59,86.15,149.63,0.27,0.17,0.21,0.93,0.55,1.05,-131.05,54.13,129.08,0.06,0.26,0.14,0.19,0.44,0.55,-104.72,55.44,160.4,0.12,0.21,0.11,0.17,0.68,0.13
1.2,-110.89,76.79,178.92,0.13,0.16,0.07,0.87,0.66,0.6,-93.16,86.64,149.48,0.12,0.19,0.02,1.06,0.52,1.15,-131.28,54.34,128.49,0.14,0.37,0.34,0.12,0.38,0.49,-104.82,55.57,159.89,0.12,0.33,0.13,0.23,0.79,0.37
1.21,-110.0,76.29,178.55,0.17,0.15,0.13,0.61,0.43,0.35,-92.81,86.81,149.31,0.27,0.3,-0.03,0.77,0.55,0.98,-131.54,54.55,127.51,-0.02,0.3,0.15,-0.05,0.24,0.71,-104.93,56.37,159.63,-0.05,0.38,0.19,-0.22,0.62,0.52
1.22,-109.73,76.48,178.27,0.3,0.14,0.08,0.58,0.43,0.28,-92.57,86.85,149.27,0.29,0.33,0.2,0.93,0.46,0.95,-131.69,55.0,126.91,0.02,0.32,0.05,0.04,0.16,0.61,-104.92,57.05,159.54,-0.32,0.46,0.08,-0.29,0.68,0.78
1.23,-109.71,76.07,177.87,0.3,0.14,0.2,0.57,0.56,0.49,-92.47,87.34,149.42,0.11,0.38,0.02,0.8,0.36,0.69,-131.65,55.07,126.53,0.05,0.41,0.09,0.15,0.19,0.81,-104.94,57.35,159.42,-0.06,0.15,-0.03,-0.03,0.85,1.1
1.24,-109.27,75.73,177.49,0.09,0.32,0.07,0.52,0.57,0.32,-92.28,87.15,149.34,0.14,0.27,0.14,0.91,0.51,0.99,-131.52,55.32,125.94,-0.05,0.36,0.04,0.07,0.19,1.04,-104.93,57.58,159.32,0.12,0.36,0.22,0.14,0.8,0.98
1.25,-109.23,75.76,177.13,0.13,0.26,0.21,0.35,0.46,0.16,-92.08,87.35,149.23,0.24,0.3,0.08,0.72,0.37,0.92,-131.52,55.53,125.73,-0.04,0.3,0.26,0.22,0.38,1.14,-104.82,58.02,159.3,0.17,0.24,-0.01,0.14,0.8,1.22
1.26,-108.66,75.51,176.77,0.17,0.15,0.11,0.4,0.61,0.15,-92.1,87.53,149.5,0.05,0.26,0.04,0.57,0.4,0.8,-131.06,55.85,125.44,0.06,0.28,0.07,0.12,0.51,1.27,-104.91,58.64,159.15,0.09,0.43,-0.09,0.14,0.75,1.34
1.27,-108.81,75.47,176.6,0.19,0.02,0.29,0.39,0.36,0.16,-91.86,87.49,149.2,-0.01,0.06,-0.06,0.5,0.36,0.8,-130.86,56.21,125.18,0.14,0.41,0.17,0.15,0.39,1.32,-104.83,58.86,159.26,0.07,0.47,0.27,0.35,0.74,1.37
1.28,-108.47,75.44,175.93,-0.03,0.05,0.1,0.22,0.28,0.1,-91.65,87.56,149.47,0.0,0.27,0.15,0.42,0.42,0.67,-130.62,56.58,125.19,-0.0,0.33,0.14,0.37,0.65,1.45,-104.86,59.12,159.33,-0.1,0.19,0.15,0.73,1.0,1.64
1.29,-108.29,75.09,175.42,0.09,0.1,0.14,0.33,0.48,0.22,-91.65,87.61,149.39,0.14,0.42,0.1,0.32,0.35,0.83,-130.02,57.0,125.05,0.16,0.41,0.34,0.42,0.63,1.38,-104.54,59.51,159.43,0.05,0.19,-0.03,0.67,1.03,1.74
1.3,-108.03,74.9,175.2,0.16,0.25,0.28,0.3,0.29,0.16,-91.69,87.45,149.36,0.16,0.15,0.05,0.24,0.36,0.75,-129.92,57.29,125.07,0.04,0.29,0.27,0.51,0.96,1.42,-104.4,59.73,159.89,0.07,0.17,0.33,0.82,0.99,1.71
1.31,-107.96,74.86,174.91,0.07,0.18,0.34,0.36,0.34,0.17,-91.69,87.5,149.24,0.04,0.36,0.13,0.31,0.24,0.87,-129.71,57.8,125.0,-0.03,0.09,0.32,0.7,1.05,1.3,-104.15,60.0,160.2,0.09,0.16,-0.01,1.23,1.29,1.92
1.32,-107.85,74.49,174.44,0.03,0.09,0.08,0.32,0.12,0.58,-91.68,87.29,149.32,0.07,0.17,-0.03,0.18,0.53,0.88,-129.15,58.27,125.2,-0.08,0.34,0.42,0.88,0.94,1.55,-103.77,60.39,160.58,0.19,0.31,0.08,1.12,1.3,1.89
1.33,-107.67,74.37,174.14,0.04,0.11,0.08,0.36,0.47,0.53,-91.64,87.14,149.38,-0.05,0.31,0.14,0.26,0.4,1.02,-128.69,58.98,125.54,0.1,0.09,0.47,0.75,1.13,1.44,-103.19,60.42,160.95,0.25,0.33,0.12,1.41,1.24,1.75
1.34,-107.33,74.15,173.68,-0.1,-0.02,0.25,0.22,0.22,0.24,-91.73,87.25,149.26,0.23,0.22,0.14,0.14,0.39,0.93,-128.17,59.32,125.69,0.02,0.19,0.42,0.86,1.22,1.56,-102.87,60.3,161.74,0.49,0.29,0.31,1.25,1.32,1.69
1.35,-107.33,74.18,173.53,0.1,0.16,0.21,0.46,0.34,0.4,-91.57,86.98,149.25,0.04,0.42,0.16,0.28,0.44,0.86,-127.73,59.82,125.93,-0.09,0.0,0.56,0.81,1.2,1.42,-102.07,60.47,162.22,0.36,0.37,0.39,1.4,1.58,1.58
1.36,-107.3,73.97,173.08,0.03,0.16,0.04,0.32,0.21,0.22,-91.49,86.79,149.34,0.19,0.02,-0.01,0.43,0.57,1.04,-126.93,60.67,126.75,-0.03,0.27,0.63,1.22,1.45,1.19,-101.49,60.6,163.45,0.31,0.25,0.41,1.29,1.71,1.39
1.37,-107.3,73.92,172.54,-0.06,0.2,0.02,0.39,0.25,0.64,-91.46,86.55,149.33,0.07,0.09,0.04,0.43,0.25,1.1,-126.5,61.1,127.07,0.16,-0.06,0.52,1.16,1.62,1.48,-100.75,60.73,164.17,0.31,0.34,0.27,1.12,1.84,1.32
1.38,-107.17,73.58,172.44,0.16,0.03,0.11,0.52,0.45,0.54,-91.42,86.49,149.04,0.16,-0.01,-0.08,0.49,0.46,1.21,-126.28,61.71,127.38,0.4,0.14,0.49,1.13,1.35,1.31,-100.67,60.84,164.5,0.37,0.23,0.5,1.23,1.47,0.9
1.39,-107.26,73.39,172.32,0.13,0.12,0.07,0.41,0.18,0.55,-91.42,86.29,149.01,0.04,0.04,0.12,0.32,0.44,0.92,-125.93,61.95,127.24,-0.05,0.02,0.77,0.94,1.37,1.32,-100.63,61.01,164.77,0.06,0.31,0.49,0.96,1.45,0.98
1.4,-106.91,73.1,171.9,0.15,0.14,-0.01,0.3,0.35,0.4,-91.67,86.1,148.93,0.21,0.26,0.1,0.34,0.35,0.93,-125.47,62.15,127.63,0.34,0.03,0.52,0.98,1.01,1.15,-100.58,60.8,165.01,0.3,0.34,0.31,1.2,1.5,0.9
1.41,-107.13,73.15,171.96,0.09,0.12,0.0,0.49,0.2,0.69,-91.4,86.16,149.09,0.2,0.09,0.14,0.59,0.58,1.12,-125.13,62.18,128.03,0.27,-0.08,0.44,0.88,1.13,1.02,-100.66,61.0,165.31,0.23,0.08,0.37,0.82,1.32,0.84
1.42,-107.15,73.07,171.81,0.22,0.25,0.21,0.34,0.22,0.57,-91.64,85.82,148.75,0.16,-0.03,0.05,0.52,0.51,1.19,-124.94,62.5,128.34,0.15,-0.1,0.5,0.86,0.98,1.06,-100.88,60.95,165.18,0.22,0.31,0.43,0.77,1.21,0.76
1.43,-107.27,72.92,171.61,0.16,0.18,0.08,0.51,0.28,0.79,-91.37,85.98,148.87,-0.15,0.13,-0.01,0.61,0.44,0.98,-124.62,62.62,128.43,0.25,-0.14,0.25,0.68,0.85,0.93,-101.22,61.16,165.14,0.22,0.07,0.48,0.68,0.85,0.78
1.44,-107.26,72.68,171.47,0.06,0.25,0.08,0.37,0.24,0.62,-91.42,85.82,148.89,0.07,0.24,-0.0,0.55,0.41,1.15,-124.15,62.65,128.49,0.33,0.15,0.37,0.74,0.75,0.91,-101.71,61.31,165.15,0.47,0.12,0.52,0.42,0.92,0.66
1.45,-107.48,72.56,171.49,0.05,0.05,-0.02,0.37,0.27,0.61,-91.35,85.85,148.52,0.25,0.05,0.01,0.79,0.38,0.9,-123.84,62.94,128.87,0.2,0.22,0.39,0.54,0.9,0.99,-102.33,61.63,164.8,0.44,0.33,0.58,0.51,0.66,0.71
1.46,-107.22,72.6,171.64,0.33,0.06,-0.07,0.29,0.15,0.66,-91.4,85.8,148.69,0.13,0.06,0.02,0.42,0.42,1.04,-123.48,63.07,129.26,0.26,0.17,0.34,0.65,0.8,0.91,-103.21,61.78,164.73,0.3,0.07,0.43,0.55,0.54,0.96
1.47,-107.6,72.49,171.81,0.3,0.14,0.21,0.3,0.06,0.71,-91.23,85.91,148.75,0.19,0.02,-0.08,0.58,0.23,0.87,-123.13,63.34,129.68,0.13,0.05,0.25,0.46,0.52,0.96,-103.68,61.98,164.3,0.34,0.16,0.3,0.54,0.75,1.07
1.48,-107.77,72.44,172.03,0.07,0.19,0.34,0.44,0.28,0.33,-91.41,85.92,148.69,0.1,-0.0,0.02,0.54,0.28,0.72,-122.91,63.36,130.38,0.33,0.06,0.42,0.5,0.6,1.1,-104.44,62.2,164.36,0.29,-0.04,0.3,0.64,0.56,1.4
1.49,-107.91,72.19,172.4,0.24,0.31,0.07,0.44,0.23,0.44,-91.31,85.68,148.5,-0.01,-0.02,-0.02,0.3,0.22,1.0,-122.32,63.79,130.91,0.25,0.28,0.51,0.67,0.73,1.25,-105.15,62.39,164.25,0.27,0.11,0.21,0.98,0.71,1.61
1.5,-108.07,72.09,172.81,0.15,0.13,0.25,0.42,0.26,0.35,-91.21,85.93,148.43,0.1,0.08,0.14,0.26,0.26,0.47,-121.91,63.96,131.46,0.22,-0.05,0.16,0.85,0.65,1.43,-105.52,62.83,164.4,0.35,0.02,0.23,0.94,0.64,1.81
1.51,-108.51,72.25,173.59,0.02,0.21,0.26,0.5,0.39,0.06,-91.53,85.95,148.5,0.17,0.03,0.06,0.3,0.11,0.64,-120.82,64.62,133.0,0.44,0.28,0.35,0.93,0.58,1.68,-106.67,63.2,164.87,0.22,0.15,0.2,1.46,0.97,2.57
1.52,-108.91,72.0,174.12,0.05,0.02,0.24,0.39,0.42,-0.1,-91.51,86.01,148.52,0.3,0.04,0.19,0.16,0.12,0.46,-120.3,65.01,134.07,0.36,0.1,0.2,1.25,0.57,1.56,-107.35,63.59,165.41,0.22,-0.01,0.18,1.72,1.29,2.79
