0.01,-110.521600631846,79.60138826421249,172.4092038576721,0.010334455737166,0.0225502574719993,0.010007200990792,0.0937124130674302,0.0632365161538448,0.022064127563599,-97.68412831817496,81.23045075061526,150.1542045737267,0.257102408141211,0.2237326621053413,0.139224574187424,0.6582005772459508,0.1470422549494167,0.4102388814772682,-165.4792150902731,6.438120608781039,9.305943119901412,0.1469700370466871,0.0407143850156419,0.1182990916380698,0.348899163369581,1.31169675841081,0.3637365358972987,-123.79695963058232,2.248047355710634,9.450966166033725,0.0178147883383713,0.0193452317075868,0.005073360347262,-0.0180103565872745,0.0144090906648697,0.0404649096377659
0.02,-110.68880892581544,79.71102076109453,172.22672520530026,0.040477253411419,0.035064355023271,0.0167495005724032,0.1620707776437293,0.0878149040866596,0.384587881897295,-97.81419355405814,80.90758501937519,151.3984572959656,0.2295231186395125,0.3414559610081871,0.1309814728904288,0.7169687533767244,0.1772201229171114,0.4163390860777193,-166.13091283611763,6.435768386527547,9.48799693144224,0.1539275498063297,0.0579707252709977,0.2354675284109878,0.3937155469567248,1.262467209516938,0.4513304147139645,-123.8348568778018,2.2169908080658574,9.44012999532678,0.0137438122088184,0.0185720094810709,-4.288771446913554e-05,-0.0320743840142671,0.0118377840283241,0.0111454640579271
0.03,-110.84813824973884,79.84170678691807,172.06636913846722,0.0701001768543017,0.0460567047218272,0.0231408065369004,0.2328714921487404,0.1112399317200527,0.7297879057330772,-97.92917005653504,80.57563045027315,152.6645812399382,0.202659849931351,0.4612966051459464,0.1233382010728771,0.7823710964799815,0.2056855006488159,0.4218044387402894,-166.78264616343347,6.434035192490431,9.661143175100545,0.1616499976694793,0.074311809353878,0.3469892826430256,0.4358409609005435,1.2112128554815662,0.5363377498075943,-123.87876459307512,2.189554542193737,9.429478504661244,0.0108913393076728,0.0179853039158956,-0.004178227613687,-0.0384446230461627,0.0161742824300308,-0.0194691794173234
0.04,-110.99159791528932,79.99635425831899,171.94700435733324,0.0984158979245387,0.0565201728794291,0.0292386635821081,0.3075850531465841,0.132653009675309,1.0420108788893292,-98.02924269667578,80.18862614607534,153.98600241321222,0.1774504329857417,0.5847474093537928,0.1168312398002115,0.85599488895696,0.2312784325727483,0.4258244356224623,-167.4409220795581,6.4334764984216735,9.806325308664029,0.1710963242030594,0.0889177477532137,0.4475845974415379,0.4729271776338118,1.1554359193636323,0.6176926156997662,-123.92686547747353,2.1677315524505203,9.421778018966348,0.010064738196401,0.0177796831916891,-0.0062142675519777,-0.0324621494719927,0.0307477773336928,-0.0480715040850246
0.05,-111.11142003250818,80.17471946936863,171.88537663614227,0.1246354718474446,0.0678064324472812,0.0351160095850612,0.3871419896694936,0.1514091748505822,1.307811788115516,-98.11696515905814,79.70232904213155,155.38982199831324,0.1548803619816256,0.7126993058357245,0.1118980230277297,0.9377827959733828,0.2530210764118298,0.4277988763072692,-168.1105086871719,6.434434610075746,9.905781834293943,0.183110305345678,0.1010935083340464,0.5328794730027623,0.50291035664123,1.0932991466219248,0.6944940988729283,-123.97663082156345,2.153028809067818,9.419936186461616,0.011917055585989,0.0181225493170302,-0.0050433941560434,-0.0101784008432132,0.0579631654558208,-0.0708238510198257
0.06,-111.20043842402768,80.37250540568056,171.89503355059713,0.1480018952725549,0.0816109645555475,0.040844977001504,0.4717952758760657,0.1671616581341512,1.516819563708092,-98.19751701802991,79.07644963638671,156.89383264809817,0.1359394820774385,0.8452330756199788,0.1088415776752931,1.0258128831403277,0.2701938039302192,0.4273949508409061,-168.79374162821046,6.43698728519345,9.943934536050405,0.1983340199797409,0.11031549245163,0.5997365748518981,0.5241369111648552,1.0239127314438254,0.7659503732528516,-124.0246597107994,2.146356043190056,9.426910354288246,0.0168922811460098,0.0191377820345711,0.0003708293020506,0.0313334713798039,0.0990879934322293,-0.0834923150085783
0.07,-111.25257874064884,80.58079531407242,171.98528807427925,0.1678338419664281,0.0999165406971556,0.0464871794808913,0.5610490600863893,0.1799147065386129,1.6623380314921377,-98.2786857469259,78.27659512655386,158.50467715781758,0.1215481726398583,0.9815183854505856,0.1078131221488462,1.116364719491657,0.2823898845767448,0.4245814415238129,-169.49029947353668,6.440957482335366,9.908112481420014,0.2171342082801687,0.1162617262978918,0.6464511426011299,0.5354847262382503,0.9474552969006508,0.8313439327491902,-124.06657253384984,2.147962716793931,9.44558059963249,0.0251826757085238,0.0208930917548574,0.0109162438112178,0.0936852218857565,0.1541018941654953,-0.0816567385991514
0.08,-111.26342935149708,80.78592142336636,172.16030087828773,0.1835744306696576,0.1248870670815717,0.0520917359903321,0.6536634483419552,0.1900349338510603,1.741663504889606,-98.37052952878372,77.27585230236282,160.21727809880537,0.1124625347314458,1.1198276885998373,0.1088136250060258,1.2042580355876065,0.2895470838200257,0.4196280297761629,-170.19741074713966,6.445974527989493,9.78908080873555,0.2395512127928267,0.1188254768073703,0.6727893806285594,0.5364609750691085,0.8651302958818359,0.8900362230228043,-124.09698417505376,2.1574333346632684,9.478589948360856,0.036702048175948,0.0233927734349343,0.0272416380834026,0.1769258072408968,0.2216295910960542,-0.0609943917210435
0.09,-111.23082702321128,80.96982368884909,172.41839905374553,0.194836793339902,0.1587067140331238,0.0577003479520063,0.7477427828846811,0.1982119749030639,1.7561265259852614,-98.48471325557,76.05596407017455,162.015490007252,0.1091756032885538,1.2576553304702087,0.1117118794028576,1.2834074788727403,0.2919561738946642,0.4130649785245721,-170.9103614580196,6.451563469856757,9.581357383562365,0.2652779352749458,0.1181130784470465,0.6798703655945602,0.5272531301142646,0.77899332796482,0.9415154050967218,-124.10957624886956,2.17374772378958,9.52816153922982,0.051078701577531,0.0265773093028775,0.0496620610501776,0.2793735270253734,0.2989791418007296,-0.0176241994565945
0.1,-111.15536377288248,81.11089462937966,172.75177288330886,0.2014383998851429,0.2033663888362715,0.0633565181599983,0.8409116177324308,0.2053653805876908,1.710873928517634,-98.63355243775854,74.60807227962934,163.87377201043574,0.1118336282552421,1.3919187453643993,0.1162734102570456,1.3475129800696737,0.2902444188921013,0.4056073926301746,-171.6231283737791,6.457235058467466,9.283317068544353,0.2936713563362422,0.1144271957558281,0.6699190202682608,0.5087172220497972,0.6917030508782375,0.9854757216145076,-124.09728024881343,2.195407451049584,9.595908938635542,0.067671247303899,0.0303306415520895,0.0780727627789108,0.3975644699598026,0.3823036456031271,0.0515125734611273
0.11,-111.0407117141401,81.18524423273749,173.14668417056276,0.2034202162264798,0.2604114287976999,0.069114245771113,0.9305720212723806,0.2125080898297785,1.6144091396222255,-98.82884125688634,72.93301498794973,165.7595737640016,0.1201832693938331,1.519210337099571,0.1221926987286817,1.390798443384218,0.2853297100669507,0.3980569088176376,-172.3289798332689,6.462554148069626,8.897101459689983,0.3237934864433901,0.1082375870948244,0.6459384803103208,0.482302937752732,0.6062434638534634,1.0219052935501858,-124.05257403454289,2.220623196266135,9.68266076922931,0.0856091772239006,0.034494944856134,0.1118867012927077,0.5263511043719183,0.4668953855788433,0.1482690412664741
0.12,-110.89367815775368,81.16826552391434,173.58426781666887,0.2010521431397239,0.3306790960092021,0.0750410854912343,1.0142170223757416,0.220591358820597,1.477915324255578,-99.08057580899288,71.04117805404265,167.63608471866348,0.1335595214826485,1.6360665499868547,0.1291218017340152,1.408715123750324,0.2783430387846933,0.3912012064509856,-173.0209439317183,6.467175330840727,8.428366872726464,0.3544746684414421,0.100142140244111,0.6113571942528844,0.4499282323733097,0.5256508127690782,1.0511481691694196,-123.96788260218472,2.2475514864482307,9.788323567689034,0.103857686890914,0.0388915252700301,0.1500099848039426,0.6591759338035883,0.5476056370121869,0.2729478188317482
0.13,-110.72394283619708,81.03634563751234,174.04191656711745,0.1948281925316196,0.4140672577084232,0.0812117839582426,1.0897565870482642,0.2303631444681203,1.3144006680092268,-99.39570742366898,68.95190855719581,169.46501586318251,0.1509176235704762,1.7392251010938276,0.1366913203232623,1.3985340533132518,0.2705240817320648,0.3857350633118999,-173.69211077895525,6.4708463932376095,7.885910168332189,0.3843913336535932,0.0908207043168929,0.5696981289772209,0.4138203064423729,0.4527692239054653,1.0739000393293507,-123.83606222731068,2.2745626349412755,9.91180628891484,0.1213028802527534,0.0433453056565626,0.1908663711184777,0.7885279396697615,0.6193625969558013,0.4240389126308629
0.14,-110.54348318940696,80.76855299831678,174.49512902177378,0.185451979893455,0.5093804693782572,0.0876917411342455,1.1558046107016244,0.2422681353556904,1.1377230893254069,-99.77707115702908,66.6925024290992,171.20915140826023,0.1709062074236214,1.825849743622835,0.144523595400421,1.3597618390787998,0.2631016970819841,0.3822225222072949,-174.33578657438267,6.473389406226125,7.281209826339688,0.4121516361136438,0.0809837535576235,0.5243008806123397,0.3763382192337126,0.3900551417578485,1.0911100074859508,-123.65093729935532,2.3005147991631927,10.051024991068976,0.1368497389649872,0.0477095586763075,0.2324765199228874,0.9065635840752724,0.6777374228804649,0.5980837768927721
0.15,-110.365747464651,80.34813789964424,174.9196060421672,0.1738090156580691,0.6142926560243304,0.0945135888855455,1.2118808182149494,0.256405476463271,0.9615672372424482,-100.22262960925256,64.29678702392701,172.83450264107984,0.191973884144686,1.893709255262204,0.1522414356275112,1.2943280526698513,0.2571726176275602,0.3811080987654575,-174.9455445360842,6.474674003764759,6.627912355593412,0.4363837835790381,0.0713186596282749,0.4781109471501195,0.3397920519784105,0.339442161329654,1.103799500236235,-123.40785304207004,2.325002600456937,10.202996795976494,0.1495220206568155,0.0518874887735051,0.2725910127735656,1.0058427424523275,0.7194887346214139,0.7897032390733124
0.16,-110.20467549608686,79.76370810533497,175.29332990583578,0.160921509084565,0.7254476838712168,0.1016537857606962,1.2584957435625523,0.272544961817074,0.7984570339114624,-100.72515077887736,61.80334042440597,174.31199058610994,0.212497768591755,1.9413010968739184,0.1594772037001074,1.206513255432325,0.2535880938736234,0.3827695120686741,-175.51522514784207,6.474596857168946,5.941286845362224,0.4558225756781422,0.0624383070555723,0.4335391095841365,0.306275978458579,0.3022632231099568,1.1128552079709764,-123.10420501931414,2.348544765462305,10.36401977740474,0.1585516055908909,0.0558481145954635,0.3088692950717143,1.080100528433786,0.7430048114992159,0.9918148209455584
0.17,-110.0736862505736,79.00997871481214,175.5983659811775,0.1478846113869816,0.8386957157339557,0.1090175738812297,1.2971040313663955,0.290189913191611,0.6588897136395085,-101.27239961377964,59.25342825859598,175.61865566234536,0.2309205683384108,1.9679128851985004,0.1658858119305169,1.1026136328670806,0.2528554430438695,0.3875899745267846,-176.03893335759793,6.473076603876572,5.237665753238645,0.4693904301504522,0.0548381662116423,0.3923881108586743,0.2775332967889445,0.279214948924451,1.1188746477518103,-122.73990718814294,2.372676164502821,10.529922763185324,0.1634455244425305,0.0596352424979761,0.3390905682947824,1.1249577312530292,0.7485668217284035,1.196042885051091
0.18,-109.98474965191096,78.08804153614805,175.82218030679925,0.1357876746092547,0.949440662352372,0.1164389682263464,1.329927433490799,0.3086695213922028,0.5506674967568856,-101.84786688273306,56.688790260100966,176.73843011282307,0.2458827563957597,1.973620005917302,0.1711616181049351,0.9903677324485908,0.2550635100790149,0.3960181825211578,-176.51107035623113,6.470067165588809,4.533886129992658,0.4762703789202771,0.048867233779772,0.3558410665787936,0.25486677484553,0.2703465386397021,1.1221260331897749,-122.31776329921443,2.399917113263443,10.696358911595665,0.1640220254814039,0.0633692238253444,0.3613781055711665,1.138471960093089,0.738379734499603,1.393292481485752
0.19,-109.94764210675116,77.00514869117332,175.95834890327106,0.1256280179376103,1.0530562524038292,0.1236981399152328,1.3596625407179992,0.3272441207461599,0.4784795577074757,-102.43199039797088,54.149456513489135,177.66251533014668,0.2563372409680236,1.959225448809238,0.1750555445415468,0.8782009395193294,0.2598460388265374,0.4085818863350424,-176.92642758798564,6.465586731723225,3.8467391593712015,0.4759689057958534,0.0447157489309478,0.324503481956885,0.2390989776195199,0.2750621320281142,1.1226423392339833,-121.843710710979,2.4336068803381363,10.85911119622074,0.160411826724919,0.0672410600981612,0.3744161379749851,1.12144895905415,0.7163552810110668,1.5744230885324852
0.2,-109.9694551850526,75.7740538681819,176.00662594117549,0.1182272842036129,1.1453169107910957,0.1305533183099185,1.3890988719634334,0.3452079127239399,0.4437569227964456,-103.00375205467904,51.67179512042337,178.3893948664337,0.2616351690650765,1.9261553334520456,0.1773873698536803,0.7743722678352368,0.2663995022608754,0.4258303335802321,-177.2803621226005,6.459755371233671,3.1924277025983843,0.4683647779466093,0.0424196518581204,0.2984872713174056,0.2305785813290577,0.2921350224652713,1.1204267865755562,-121.32691069534818,2.4776070897810567,11.014377394288308,0.1530260804105292,0.0714976837025511,0.3776378479395858,1.0774637045024955,0.6876712187738576,1.730936740028848
0.21,-110.05438934193268,74.41199875755143,175.97242229163933,0.114161399823751,1.2227859627912616,0.1367801081047449,1.4206821102567877,0.3619724168450333,0.4447953134585799,-103.54247322762735,49.28697102895192,178.92450165427695,0.2615732157788789,1.876327616037278,0.1780499280607714,0.686129486233222,0.2735679722139656,0.4482032929607202,-177.56906277611552,6.452831185553972,2.5860270713633686,0.4537368581779096,0.0418794067021408,0.2775220261916951,0.229222735628388,0.3197405490387158,1.1157164810128908,-120.77966565414364,2.5359007425729536,11.15900683489672,0.1424977147915719,0.0764170240076994,0.3713623965244206,1.0125766935520952,0.6581637044348979,1.855597334588926
0.22,-110.20382521248294,72.93946753454816,175.86581210458806,0.1137137967139158,1.2831086596327397,0.1422090762219605,1.4560694166581236,0.3771154212830852,0.4771188589535264,-104.02959352657707,47.019930660060325,179.2795560149038,0.2563956218098615,1.812011368834151,0.1770058067350154,0.6189830981140082,0.279996356864258,0.4758531427578403,-177.78990253721236,6.445233553018399,2.040948891726744,0.4327616308962735,0.042889337288979,0.2610780565204223,0.2345826337096504,0.3555207323168015,1.1092343694881586,-120.21715275570858,2.612129986035858,11.290670440406982,0.1296070379491819,0.0822727546574184,0.3568579782814667,0.9347669194101828,0.6336326897042364,1.9429227564200815
0.23,-110.41663132026837,71.37885380592557,175.70022566522917,0.1168580247977191,1.3251709813539216,0.1467528890606337,1.4957399205558952,0.3903900111120115,0.5340398634792436,-104.45021149000944,44.88894154828152,179.47160169366003,0.2467489288170878,1.7356913160240772,0.174280774670369,0.5761925676727098,0.2843371688567035,0.5084690232494481,-177.94185539909742,6.4375433071114125,1.5684216655300582,0.4064720789399476,0.0451728402573466,0.2484879120003076,0.2459189259342877,0.3966956505460758,1.102358490709736,-119.6569756484121,2.709127310286923,11.407957994152586,0.1152048049674381,0.089291597703225,0.3363095482418779,0.853136720308417,0.6191530720861675,1.9895261593435083
0.24,-110.68964468079557,69.75318700626802,175.4909996201714,0.1232714079689788,1.349105576447211,0.1504169751026757,1.5387351811365282,0.4017035729363808,0.6073563035380994,-104.7941945499205,42.90563953571178,179.5217876957633,0.2335939363595156,1.649948270537727,0.1699592148225964,0.5585247300239794,0.2854797081973159,0.5451574946092173,-178.0259372163841,6.430474160708906,1.177019381949728,0.3761745377694596,0.0484185911350397,0.2390564840231143,0.2622751264496997,0.4402306397228122,1.0971555735296692,-119.11854873503968,2.828498987598685,11.510409344577145,0.1001452630389055,0.0976098371239619,0.3126776178837518,0.7769730008300499,0.618483270962932,1.9943114714306875
0.25,-111.01825037514702,68.08504494904243,175.25394400861828,0.1323773680754135,1.35615046873809,0.153291949249456,1.582598444079587,0.4110881127661699,0.6881211215852612,-105.05673086681723,41.07548547945748,179.45397007074934,0.2180870545735007,1.557360674728683,0.1641840741710189,0.5643047266550819,0.2827597905571652,0.5844196689189864,-178.04561309438694,6.424816738371763,0.8722842700619635,0.3433286615564847,0.0523133217801102,0.2321524103313124,0.2825406184433324,0.4830540590222054,1.096261858577757,-118.62233844915696,2.9703163568746325,11.59849591301055,0.0852378313574807,0.1072385344382894,0.2894484806788852,0.7147708484873608,0.6336457859173401,1.958540321565807
0.26,-111.3969846805588,66.39573639813297,175.00405687791098,0.1434111141228812,1.348389669366164,0.1555305229669475,1.6235523060971122,0.4186840049531197,0.7674161681760443,-105.2382893483866,39.39851150526999,179.29323342448828,0.2014496646261034,1.4604266535809391,0.1571584886204416,0.5897400289409553,0.2761074360134658,0.624237173396266,-178.0071006291225,6.4213644519528845,0.6564946214154769,0.3094057052434646,0.0565681129004808,0.2272749619662717,0.3055001297126103,0.5223021188664158,1.1026333074859722,-118.18899155795182,3.1329607757600075,11.673572558391786,0.0712202976938121,0.1180471802675129,0.2702930338081276,0.6733346688132436,0.6647242534912301,1.8857822981328851
0.27,-111.82009160299648,64.70477876098411,174.7544801238889,0.1555013986089551,1.3284230608840908,0.1573150135366108,1.656909354230986,0.4247498651034722,0.8370681038426185,-105.3440531002886,37.87023733165961,179.06444734912805,0.1848461787241417,1.3615027716948669,0.149142204662329,0.6294594993897225,0.2661014081027023,0.6622516591447597,-177.91949322232787,6.420836621682692,0.5286182302743491,0.2757484466446241,0.0609369233093712,0.2240921177848918,0.3298730861506095,0.5555525434327995,1.1192102512521027,-117.83838342154372,3.313152523883358,11.737816574069283,0.0587506120059201,0.1297725735650214,0.2586672206757929,0.657064902406081,0.7098864146474042,1.7817448839915628
0.28,-112.28197533745944,63.02963364365478,174.51575109212015,0.1677596454076865,1.2990228572897844,0.1588232089118642,1.677663608267639,0.4296959132838829,0.8902542237165024,-105.38296597388256,36.48265124251355,178.79097070915742,0.1692875494969466,1.2627561576862063,0.1404371973659676,0.67717771831189,0.2539212497094736,0.696006479757684,-177.79463606600518,6.423816481130596,0.4844661506480341,0.243458029139118,0.0652272127158084,0.2224482216632516,0.3543522015037033,0.5810051816474467,1.148542553237196,-117.5886223852057,3.5061736840954856,11.7941615621139,0.0484101520503843,0.1420544413290861,0.2573994087004373,0.6675146311012222,0.7656118723677943,1.6539647475000654
0.29,-112.7775126193203,61.3856130897437,174.29536703331524,0.1793671825822052,1.2628327583398808,0.1601999991122076,1.6811733441143566,0.4341216834700139,0.921962442707004,-105.36656335045627,35.225171363087945,178.49359610944097,0.1555687156179142,1.1661280780125105,0.1313633524979376,0.7263829574432056,0.2412117807660991,0.72321760307169,-177.6467128727493,6.430719169725027,0.517028050336701,0.2133268498169225,0.0693025788534379,0.2223426487042608,0.377653566929953,0.5975796764394281,1.1924142774627673,-117.45505192722638,3.7062720340451154,11.846222433272787,0.0407098504609236,0.1544934456743751,0.2683167288036703,0.7032639239014326,0.8270839850529976,1.5113399068820643
0.3,-113.30221764800174,59.78584919952225,174.09764567440243,0.1896519265065435,1.222151014732363,0.1615398212476675,1.6638232223610294,0.4388279674350983,0.929285746038594,-105.30774879496884,34.08552827544434,178.1897937588134,0.1442397878954968,1.0733064514757125,0.12223180755358,0.7709625142295812,0.2298916742303678,0.7420473557475691,-177.49154222091832,6.4417979476705085,0.6169419979114864,0.1858247879346053,0.0730771572378364,0.223882545164499,0.3985887386997419,0.6049244732073686,1.2515045246689571,-117.44929990592088,3.9072103389206094,11.898198560172832,0.0360921958482826,0.1667224470265139,0.291962081075464,0.7601181065086487,0.8886961351104407,1.3635004159758926
0.31,-113.85228104853314,58.24124064117356,173.9238377447051,0.1981470723235372,1.1788126981801947,0.1628813897720937,1.6235505110385806,0.4447757772335146,0.9115410822148776,-105.21964409587416,33.05053735789101,177.89327742481925,0.1356046943062282,0.985703299327174,0.1133253856181055,0.8057112100668349,0.2219419921101799,0.7513586385817201,-177.34563003325252,6.45718696933103,0.7730368541171708,0.1611337002425781,0.0765022664272309,0.2272135241600511,0.4161613083283367,0.6033552432023829,1.3251218152605206,-117.57843342933695,4.102906695515928,11.954739611031506,0.0349259900674636,0.1784791515775316,0.327445945119218,0.8315967997911285,0.94461885304069,1.2200526154170552
0.32,-114.42452025187504,56.76034440691227,173.77243160404217,0.2046250056387117,1.1341602311257164,0.1642130034688907,1.5601449562528968,0.4529838860155062,0.8702085181183018,-105.11459995729996,32.10675291716203,177.61388354361256,0.1297383074205466,0.9044344906596992,0.1048916407697042,0.8266994413373527,0.2192058570672374,0.750922219213173,-177.22506735920547,6.476968597097599,0.9728857767699994,0.1392166559117726,0.0795476674842113,0.2324352640673869,0.4296757309514509,0.5937527753330292,1.4110465414581754,-117.84428692104736,4.288099639389037,12.02076453747987,0.0374949128556025,0.1896677724608282,0.3724631298712618,0.9096487936825164,0.9893724268352388,1.089775806043313
0.33,-115.0162707295891,55.34924375470193,173.63959136530187,0.2090999241181732,1.0890759837788366,0.1654848528962164,1.4752862908395263,0.4643817437266639,0.808696589718742,-105.00342004410922,31.241009305517096,177.3577317631443,0.1265135393857767,0.8303040148953226,0.0971474039390793,0.8314979723175024,0.2232220746645496,0.741539137721568,-177.14439054692147,6.501246009829376,1.2033215460285558,0.1199055651740333,0.0821820089351515,0.2395153740194588,0.4388303467105533,0.5774503023811204,1.5055092693354972,-118.243036507497,4.45896776843065,12.1012365162414,0.0439836324455129,0.2003987888457377,0.4234851805729707,0.9855069604704662,1.0183505460038589,0.9798793254395092
0.34,-115.62521936700288,54.01146449163492,173.51968704862074,0.211795067258695,1.0440490416501431,0.1666236590809968,1.372348805277004,0.4796524784439324,0.731955727125319,-104.8948255480698,30.440855185424045,177.1276201081376,0.1256330603671082,0.7637984607823904,0.0902881361528201,0.8192683966511177,0.2351053707816303,0.7250369883516923,-177.11552998125234,6.530200232851315,1.450884669248335,0.1029926179916779,0.0843581689984869,0.2482209069906286,0.4437605041063814,0.5561333320901245,1.60332469607052,-118.76509084548344,4.613637100429935,12.20091073717565,0.0544659036826453,0.2109988509778351,0.4761156498524533,1.0505890456226965,1.028246844825108,0.8954259406245269
0.35,-116.2491545011008,52.74801778172927,173.40589804062324,0.213077714568571,0.9992549606036608,0.1675443361034764,1.2560453142912948,0.4991035086999956,0.6459775921987249,-104.7951687172137,29.69488280720664,176.92359725954648,0.126664690302061,0.7050943788662405,0.0844933885711507,0.7907305220842376,0.2554738530228504,0.704116225472571,-177.1469645499878,6.564114230586076,1.702199659554018,0.0883150446071216,0.0860082654134835,0.2580871154793115,0.4450082971273721,0.5317620662026971,1.698189811082152,-119.39535232715956,4.752519396504184,12.324082889606522,0.0688983674071061,0.2219870473121118,0.525570431460511,1.0973530280831565,1.0173482378796364,0.8389963054550419
0.36,-116.88560683871732,51.557623725465525,173.290884539183,0.2133755586825627,0.954637029773648,0.168154585579636,1.1319841375306725,0.5225912209574555,0.5572302238241015,-104.70838800537886,28.992954757425977,176.74364656541113,0.1290824985178583,0.6540739486564336,0.0799220302389813,0.7480128756882286,0.2844120544133803,0.6820601387804658,-177.2431740992683,6.60335290360189,1.944299185135076,0.0758271519355592,0.0870504033970751,0.268435314589489,0.4434181896335589,0.5065077358816489,1.7831350806480697,-120.11387158445368,4.878441060760134,12.474370497794162,0.0871221802077796,0.2340187720063271,0.5672233031177178,1.1200264437932017,0.9856733541024284,0.8106277269945061
0.37,-117.53139100961056,50.43713142789198,173.1675152790812,0.2130951652468616,0.9099869131255158,0.1683526004441457,1.006189212914223,0.5495090598068536,0.4720860509891949,-104.63618204135533,28.32634027140621,176.58441263661297,0.1323152003553372,0.6103410254067639,0.0766963635487917,0.6943907796256608,0.3214505909169085,0.6623596193577218,-177.4044439237948,6.648294926148098,2.164935193591936,0.065656748345894,0.0874063139044997,0.2784382410561855,0.4399806709271672,0.4826783931926195,1.8510898250682597,-120.89687466182691,4.996544575084212,12.654555475068806,0.1088723143381017,0.2478034933548407,0.5971427636908405,1.1151445662179258,0.9349476166801206,0.8080244452773001
0.38,-118.18211657843598,49.382112187589534,173.0296142217795,0.2125620379434717,0.8650282888955177,0.1680234177260983,0.8846184428024532,0.5788349503888748,0.3962988471508709,-104.57836409956366,27.687785839829957,176.44190404143407,0.1357997045608217,0.5732348443948585,0.0748799086456505,0.6339282796385048,0.3655472904140369,0.6483188852186428,-177.62702902753205,6.699220229625532,2.35292554217576,0.0581438180785265,0.0870270821282703,0.2872172457709244,0.4356590760962866,0.4626088515413619,1.8954977938642168,-121.71809186860314,5.113970683924527,12.866505223763982,0.1337917287856172,0.2640067401237743,0.6125434550576425,1.081850784260297,0.8684195084962074,0.8270060461747955
0.39,-118.83179308567397,48.38757084667591,172.87265588684843,0.2119935724685216,0.8195064369534393,0.1670417643803319,0.7727190157827881,0.6092285629651277,0.3345739051979448,-104.53334450701024,27.07154999160935,176.3121158556869,0.1390328352411746,0.5418479728601518,0.0744567466848783,0.5710625646468347,0.4150706881631097,0.6426984179415453,-177.9036409209848,6.7561652388887685,2.498579748936244,0.05385788268263,0.0859229769863777,0.2939476026599188,0.4312353702545298,0.4485049249639142,1.9109095638721476,-122.55026876332047,5.2393558323272105,13.111174271704003,0.1614458469212629,0.2831488598695266,0.6120851476342654,1.021932681327085,0.7905390232488645,0.8621308053613739
0.4,-119.4726762162069,47.4487010068219,172.69431650232184,0.2115053292521817,0.7732801495066995,0.1652862975753492,0.6750620075943768,0.6391672099635191,0.2902575414787139,-104.49867786001882,26.47342500797868,176.1915325069941,0.1416114744088797,0.5150602742696467,0.0753198766763171,0.5101878530035081,0.4678064619248667,0.6474322812713493,-178.22418669584752,6.818764083215603,2.594226836274115,0.0535886355130922,0.0841922629016379,0.297950435878023,0.4272018095351692,0.4422527350781784,1.893488874443248,-123.36670456437568,5.382200971102745,13.388673678475536,0.1913334227549372,0.3055134069380265,0.595975093040118,0.939589147558743,0.7065378752194683,0.9074078729272542
0.41,-120.09547097668252,46.56160573619214,172.49479193311936,0.2111410327025031,0.7264045433249205,0.1626636255791922,0.5950850696562698,0.6671050034835543,0.2651564701664591,-104.47160794348784,25.890753392824816,176.07749053499663,0.1432531402065412,0.4915980556239334,0.0772729646675135,0.4552969530348772,0.521017706919177,0.663443349451877,-178.5766745912051,6.886094300140886,2.6348351399749435,0.0583044155078036,0.0820428323025038,0.2987597260665557,0.4237111545302067,0.4452190589989375,1.8413906632542631,-124.14265483896068,5.552180315738824,13.69838682709177,0.2228932893430598,0.331076650417957,0.565864380974505,0.8409490696036788,0.6219640157693732,0.957007210482088
0.42,-120.68992354035072,45.723915244560594,172.27682811577824,0.2109101954585279,0.67918988511837,0.1591341286263946,0.5349467660866472,0.6916338709126775,0.2594892160966875,-104.44954799929585,25.322432349772257,175.96839701512133,0.1437952927014781,0.4701199762230688,0.0800459208405816,0.4097206765233183,0.5715846426416846,0.6905722519709298,-178.948199230413,6.9565393279851815,2.6186759497973724,0.0690763568479744,0.0798003659217528,0.2961623974490687,0.4205840276902829,0.4580760713642315,1.7549850807135925,-124.85646267899207,5.758459177889871,14.03911110321364,0.2555109243594391,0.3594671516829934,0.5245688084885933,0.7333913613052034,0.5422252921616617,1.005887532793535
0.43,-121.24572302184102,44.935250271342575,172.0454641610486,0.2108169239438634,0.6322245427133587,0.1547289232260364,0.4954771059109923,0.7116219715893094,0.2719672942779394,-104.4304475711798,24.768890380003057,175.8638089065169,0.1431791768491336,0.4493235678294646,0.0833214248033825,0.3759763854723728,0.616232342481299,0.7276252656108307,-179.3259247971807,7.027671746020001,2.547949587811899,0.0869722792659617,0.0778985788228729,0.2902123101219288,0.4173636289455276,0.4806832206702079,1.6369086330374358,-125.49034183773388,6.00907918858988,14.409213574912693,0.2885311612329106,0.3899610853978524,0.475676595615412,0.624744913545936,0.4721901575530199,1.0502759944659232
0.44,-121.75354084579334,44.19749662845779,171.8075402528318,0.2108699268097159,0.5863573512906927,0.1495502927855677,0.4762069873324733,0.7263071572786833,0.2999975820053593,-104.4130171513321,24.23201715597866,175.76438293786163,0.1414282439504068,0.4280610876756492,0.08676751002479,0.3557097437736157,0.6518336236129463,0.7725298999726735,-179.6979890640229,7.096157586471657,2.4292724815316022,0.1129314943231909,0.0768513326588374,0.2812161419001418,0.4134063520674003,0.5120492736999344,1.4919275658559517,-126.03080703980795,6.3104513915365,14.806798432171314,0.3212814083158796,0.4215150544537747,0.423117095929017,0.522467027442179,0.4158793681681353,1.0879408441651863
0.45,-122.205995506827,43.514868332232496,171.571052955299,0.2110736972870655,0.5426417531003057,0.1437553260645465,0.4754690505858426,0.7353308009217779,0.3399871233323,-104.39680407638224,23.7150302961602,175.6717099086426,0.1386297430749178,0.4054506612889912,0.0900706145342022,0.3496987075400552,0.6757534484126013,0.8225724684492568,-180.05425556703622,7.157686758966656,2.2739210246549075,0.1476371418294069,0.0772116578708926,0.2696871776909826,0.4079975661834677,0.5503817132009801,1.3266104574153144,-126.46880542171394,6.666978441086262,15.229887214429212,0.3531038429394592,0.4528335254845955,0.3707544529039002,0.4329026995332606,0.3762630845135546,1.1182104704885605
0.46,-122.59835581178616,42.89374597479775,171.3444450869381,0.2114085037980773,0.5022480565007159,0.137529822847889,0.4905690159150342,0.7387103900738827,0.3877202043584878,-104.38213323642084,23.22227031845441,175.58805538704394,0.1349223900637488,0.3809671831291844,0.092963782600784,0.3578901759475368,0.6861851484100288,0.8746866681724339,-180.38685126462863,7.20694501781746,2.0977418261585616,0.1914047120124019,0.0795265099538754,0.2562676603810512,0.4004807148362027,0.5932163888064782,1.148830493361734,-126.7996319125321,7.080810546063676,15.676606321114903,0.3833883458934304,0.4824631122708511,0.3220471419165994,0.3607124734338321,0.355158185689148,1.1417281727837758
0.47,-122.92886912449258,42.3422882211603,171.13590565817225,0.2118083810598796,0.4663514789686495,0.1310620813618193,0.5180217641124195,0.7367626404826817,0.4387693364779887,-104.36994138302168,22.75892695817265,175.51603983221548,0.1304871491480202,0.3544978023217036,0.0952456661239232,0.3794534945040475,0.682420815489625,0.925762671093538,-180.6904484972237,7.237652266703545,1.92066591362298,0.2441035578170286,0.0842966959429968,0.2416311982822731,0.3903847011642249,0.6376140201536961,0.9671458128740256,-127.0227092515667,7.551727363508133,16.14536221171289,0.4115941496170538,0.5089018999931477,0.2797913460455473,0.3085276161976504,0.3532085851995361,1.1599940104595674
0.48,-123.19869106902212,41.86982985512037,170.95274066116252,0.2121431938193448,0.4360052428896347,0.1245230773421977,0.5538356157705565,0.7299964011832989,0.4888995426694179,-104.36154321267948,22.33071270684476,175.45829965720932,0.1255357931460268,0.3263510650469662,0.0967876890833973,0.4128510164416336,0.6650001187704374,0.972944775240386,-180.96228292771156,7.242694723733928,1.7658052460987808,0.3051231745232872,0.0919489545136988,0.2263869945558603,0.3775312464973977,0.6804120659927744,0.7901272840551591,-127.14129138111946,8.077129678523882,16.634969661960337,0.4372496564548885,0.530710144984996,0.2459513504789587,0.2768566250295496,0.3699303112048155,1.1748077747844818
0.49,-123.4114717186397,41.48609778408663,170.80086315083278,0.2122079687667826,0.4120115661161256,0.118054194056964,0.5938224047586145,0.7189980605777389,0.5344285144551447,-104.35837062781164,21.943507914397152,175.41717060621352,0.1202938008773089,0.2972174399373326,0.0975294117269764,0.4559350620277992,0.6356960247425396,1.013881794438858,-181.20193629561064,7.2143730583844015,1.658162351586432,0.3733895401546085,0.1028228161247036,0.2110099493837356,0.3621024740639043,0.718524422998057,0.6257103384394694,-127.16212179728824,8.652120064927031,17.144690801220055,0.45992702044596,0.5466097544840222,0.2215746569804978,0.2642341540733465,0.4038105270756112,1.1877551745524284
0.5,-123.57270558991736,41.20029415656437,170.68443702548157,0.2117228481065191,0.3948067216483952,0.1117605325346635,0.6339133571557983,0.7043353253039513,0.5725115499353632,-104.36172310586778,21.60300358255672,175.39442477560098,0.1149780919980082,0.268089023666291,0.0974652718690083,0.5060808866068225,0.597324277344664,1.0468969397464003,-181.4109431745565,7.144777190765284,1.6230440210142048,0.4474305490228875,0.1171701451133643,0.1958132379185048,0.3446523473168715,0.7492786883981414,0.4806404564432298,-127.0950566103374,9.26965118509938,17.674149122666705,0.4791988211957835,0.5555639309216296,0.2067894021899675,0.2675761766559756,0.4524589556713713,1.1998572903814495
0.51,-123.68897444707804,41.02011293856352,170.60568828096996,0.2103481669622048,0.3843760386442313,0.1057084605422993,0.6704632321041513,0.6865035585269177,0.6013281780135759,-104.372557592055,21.31436519563665,175.391078038246,0.1097734600267787,0.240153071603125,0.0966281537822471,0.5603602343074976,0.5534013094087081,1.071061664840634,-181.5922947013271,7.026284882662413,1.6843289420481429,0.5254839962370368,0.1351617968145517,0.1809670890646169,0.3260568879053873,0.7707654396702258,0.3600634598580422,-126.95264854373733,9.920725178736555,18.22310460778188,0.4945938845878582,0.5568344405249618,0.2008816816197514,0.2826854621336078,0.5128132859983011,1.2114461112539512
0.52,-123.76720439051716,40.95077383066762,170.56487327464558,0.2077177816375554,0.3802110424607169,0.0999282359119981,0.7005189077548885,0.6659264239867979,0.6201561497013143,-104.39133446660612,21.081937726024115,175.407272954701,0.1048131990690357,0.2146752926408532,0.0950755527650183,0.6157521879409433,0.5077102337571577,1.0861859814160688,-181.74990642656093,6.85216911210963,1.8627832666878688,0.6056363321950432,0.1568947435196855,0.1665551838029559,0.3074147647770748,0.7821480558197701,0.26728680469115,-126.74968062664932,10.594638344004482,18.79110801517572,0.5055729786117444,0.550020214164313,0.202446964018804,0.3048407271514741,0.5813926281615058,1.2222647974078942
0.53,-123.81402843074969,40.99417309077925,170.56037620482823,0.2034890122102181,0.3813173751993303,0.0944233147595359,0.7220188873205571,0.6430035227108463,0.6293277462420795,-104.41792717542192,20.90901003362163,175.44223667892894,0.1001691927083135,0.1928861791984737,0.092882418482803,0.6693768746642106,0.463853046669151,1.0927567247008751,-181.888098199651,6.6172894686026975,2.174631333337209,0.6859758327546208,0.1823946094545216,0.1526523690562807,0.2899223632439637,0.7838582360770897,0.2037126188880288,-126.50263479832282,11.279279908708874,19.37708459683112,0.5115408295560918,0.5350846187767271,0.2096021660600663,0.3294004390343358,0.6545786115726995,1.2317399573215615
0.54,-123.83530470463322,41.14825740559231,170.58890685761816,0.1974016303774732,0.3862798223473279,0.0891866090463053,0.7338936571090472,0.6181818562759673,0.6300749866979425,-104.45159924797149,20.79765489499534,175.4943121322302,0.095854797850563,0.1758802877999592,0.0901417918549274,0.7187250390497943,0.4248622702210218,1.0918494121105464,-182.011113534548,6.318832754382672,2.630559707703186,0.7647413220479733,0.2116122808254497,0.1394050783613906,0.2747484808651845,0.7776022276887217,0.1689238053013578,-126.22908201313264,11.961506779091716,19.978921569165315,0.5119011476537335,0.5123776765893797,0.2202347620147047,0.3523551510053402,0.7288915179221537,1.2393412855028527
0.55,-123.8358025084161,41.40671633735729,170.645783533291,0.1893345772446311,0.39338645523506,0.0842217527873196,0.7360603193602617,0.5920206085218226,0.624285974713294,-104.49105057987512,20.748657192448636,175.5610608687184,0.0918408392000538,0.1645363084688882,0.0869711048256552,0.761849553038715,0.3929222079359599,1.0850153156424909,-182.122694736084,5.957053862661634,3.2352640181444423,0.840448451631904,0.2444174537400898,0.1270973126870984,0.2629256519859026,0.7661385384155618,0.1608956270353728,-125.94698928309026,12.627621425236384,20.593145589574668,0.5061504568482816,0.4826541534752427,0.2322556431642531,0.3707686095203401,0.8012265465578794,1.2449326002629286
0.56,-123.81904266396708,41.75905916621593,170.72530159758838,0.1793491652676043,0.4008050982163269,0.0795656378832596,0.7293326128656182,0.565220119237181,0.6142098097899885,-104.53453019462977,20.761537014480155,175.63943545656397,0.0880818193487662,0.1594647440578616,0.0835195305236219,0.7974892387584214,0.3692221251619466,1.0741284988255388,-182.2257300869786,5.535949758493276,3.987559249841875,0.911979842287784,0.280593906532966,0.1161882680746807,0.2552651234126569,0.7528490078851346,0.1763050027604884,-125.6739563614358,13.263973248240909,21.21477530247249,0.493997318497112,0.4470816529689838,0.2438177152015764,0.3830592735181969,0.869024877979486,1.2490274604958738
0.57,-123.78726626872476,42.19109934577909,170.82118875693962,0.1677097082566801,0.4067943772796096,0.0753073709181953,0.715276100452922,0.5385960756996508,0.6021532172329715,-104.58000403094488,20.83466706250339,175.7260158691076,0.0845465888152322,0.1609882809510198,0.0799710188659369,0.8251077994484969,0.3539412268576721,1.061186947858117,-182.32199362461648,5.063782647366747,4.880991847092821,0.9786318326824366,0.3198392447881366,0.1073121678353566,0.2522961118139009,0.7411823757268573,0.2109108615859578,-125.42641703205618,13.857684114190532,21.83741789111596,0.4754867163677163,0.4072281475858543,0.2534674807825664,0.3890926337751255,0.9303716152208608,1.2528898085379203
0.58,-123.7415014601342,42.68582336246417,170.92712790105818,0.1548747230860716,0.4099227261807044,0.0715983015167865,0.6960242574519458,0.5129979327643504,0.5902053067977451,-104.62535743304812,20.965475500729465,175.8172968270232,0.0812456753056209,0.1691554143347148,0.076539221164631,0.8448436526395315,0.3463503221236407,1.0480892324751403,-182.41199778822585,4.55336119841982,5.904835125256399,1.0401172694465133,0.3617675022076253,0.1012369735510733,0.2542296080707638,0.7340788280222255,0.2599756512444597,-125.21885892107444,14.397469072306627,22.453644176901605,0.4511055556879999,0.3650181011926908,0.2602138082623044,0.3900801054654947,0.9840299957555206,1.258459454277268
0.59,-123.68169671803152,43.22457669600113,171.03729768844866,0.1414552929541696,0.4092640708983517,0.06864849965093,0.6740548458079696,0.4891903431844618,0.580014912450587,-104.66860798066229,21.150716536167995,175.91000228798498,0.0782472386814419,0.1837805453767203,0.073453803671051,0.8573791455185624,0.3450054409514846,1.0364265787856577,-182.49497131800385,4.021996172015336,7.045323020505527,1.0965292124146104,0.4059100279893555,0.098785974757903,0.2609514774300325,0.7334821621149477,0.3186910991828831,-125.0631222664029,14.874490324125368,23.0556249668475,0.4218461685374304,0.3226509694079485,0.2635206533824506,0.3883076209721273,1.0294313791635017,1.2681216145975551
0.6,-123.60689109151603,43.78846046304802,171.1468591379829,0.1281442158411853,0.404539289594244,0.0667078683778754,0.6519280110569475,0.467729858182719,0.5726366136548404,-104.7081067297219,21.3867817183342,176.00139347585292,0.0756761248039753,0.2044970888742668,0.0709407551044401,0.8637539092541087,0.3480024195416261,1.0273260024087003,-182.5689619792912,3.4910691747751867,8.286976274960015,1.1482739345690325,0.4517108122549035,0.1007330023825963,0.272053525221972,0.7400235237716483,0.3825655798193081,-124.96782926456228,15.283156356633611,23.63595331694564,0.3892114786280576,0.2824838007020921,0.2632478373683092,0.3867400626770461,1.0666404907894054,1.284365833221609
0.61,-123.51539884668252,44.359801115040746,171.2523166582586,0.1156284830722008,0.3961790062192017,0.0660342584471597,0.6320066849516548,0.4488723837445355,0.5684575199926254,-104.74271211149106,21.670017013754133,176.08953275648386,0.0736952834050518,0.2308089611260584,0.0692005271996805,0.8651618043997537,0.3532579421609331,1.021363975361404,-182.63105053488684,2.9851874279621007,9.613891882495064,1.19598317109059,0.4985160571191143,0.1076862744503407,0.2869091734355909,0.7529275695010952,0.4477319194060575,-124.93797781134064,15.621768229945411,24.188532313386133,0.355156265950297,0.2468876352263907,0.2595693874813114,0.3885621822374841,1.0963061190189929,1.3093894159015929
0.62,-123.40499888466834,44.923538822299975,171.35170329105517,0.104503162742123,0.3852957137724612,0.0668542550170397,0.6161975644032112,0.4325392841790641,0.5672114532079939,-104.77192640664668,21.997008393041327,176.17346969324285,0.0724740061619463,0.2621313223891064,0.0683873117821229,0.8627703231238626,0.3587829271163432,1.0185554025381651,-182.67765240136683,2.530939723179587,11.0108934522845,1.2404156388671237,0.5455620458216393,0.1199771658221923,0.3047913324341888,0.7701548299494,0.5111462219771051,-124.97471722148975,15.892924651314535,24.709391583967463,0.3219697699291188,0.2180924319579168,0.2528937378744976,0.3967213779277272,1.1195937983026716,1.3447018138329463
0.63,-123.27313354567276,45.46838601298506,171.44457137264826,0.0952035986019584,0.3735686842762878,0.0693234143415365,0.6057531553684575,0.4183526495416246,0.5680770463967958,-104.79598752201066,22.36480528969471,176.25332692129214,0.0721510471162543,0.2978191685372631,0.0685918200334956,0.8575831385703152,0.3629195159864531,1.018409172169945,-182.7048777657288,2.1553162058525945,12.464470774858052,1.2823569971366693,0.5919680361354219,0.1375695960375473,0.3250163564367956,0.7887561457336828,0.5706659244915131,-125.07531549837866,16.103622688630583,25.197311124265976,0.2921123855100243,0.1980364890947183,0.2437996558296459,0.4135318327047788,1.1380865147539336,1.3907855541445524
0.64,-123.11712847096736,45.98763847843983,171.53180076093264,0.087966566258824,0.36305909932948,0.0734923288944977,0.6011634682609313,0.4057286675294456,0.5698439633053561,-104.81590916838644,22.77106509696781,176.33027897641182,0.0728016717564368,0.3371868909101019,0.0698294645887621,0.850346728012689,0.3645207957320365,1.020026810883769,-182.70891788375263,1.883904186836861,13.96346642550498,1.3225261340336552,0.6367410568721712,0.1600044530149831,0.3470839221898598,0.8053778555744842,0.6250104742266359,-125.23332677374566,16.26502442233322,25.65416923308944,0.2680231643176489,0.1882347257247073,0.2329908515611707,0.4403837066045602,1.1536374087879726,1.446864473168196
0.65,-122.93443793229402,46.47957053752594,171.61526280493544,0.0828236541623991,0.3559822325913424,0.0792840240659582,0.6021482559824325,0.3940017568555888,0.5711197808387319,-104.83346204137622,23.214117222587,176.40643268762366,0.0744160940677396,0.3795224603785255,0.0720355058696646,0.8414947243356765,0.363059094036846,1.0222124703362216,-182.686422226112,1.7390185976811416,15.499492424055484,1.3614942676826451,0.6787975060071416,0.1863912767377193,0.3707742917361269,0.8168256188220177,0.6736195865835701,-125.438966274366,16.391895355884486,26.08497862925452,0.251917201785469,0.1896771132311031,0.2212637160228044,0.4775803957083356,1.168166079905423,1.5108166665035772
0.66,-122.72290027197118,46.94740070078927,171.6973980087956,0.0796243624513896,0.3544676713430677,0.0864869591886358,0.607742022640485,0.3825474778252679,0.5705409341286632,-104.85108852885168,23.692957652687376,176.48462904752895,0.0768935067262254,0.4240993296446804,0.0750679239054813,0.831125579150096,0.3586544497336419,1.0235695161962264,-182.63482801923425,1.7379604771605897,17.067079618355233,1.3996220822903596,0.7170030276506286,0.2154549674496728,0.3961678245293588,0.8205819502648851,0.7164374828328581,-125.67969038628726,16.501754427273983,26.497619608186067,0.2455939536326398,0.2027648427512254,0.2094779765645242,0.5243074068056612,1.1834067017884031,1.5792502398902146
0.67,-122.4809666158054,47.398863904295794,171.7807767192673,0.0780825315319323,0.3603377485637611,0.0947660206976347,0.6164468130825688,0.3708783460083016,0.5669501489258889,-104.87174492814276,24.207193145880023,176.56819118030327,0.0800522972660437,0.4701891156450976,0.0787177724590637,0.8190108247826222,0.352021934183225,1.0225781348697225,-182.55260353920804,1.8916089916632672,18.66357764820724,1.437018830369898,0.7502277623674892,0.2456376412126524,0.423569399956679,0.8151849046632884,0.7536656709783807,-125.94095929353252,16.613804899482158,26.90231524570442,0.2502781047765017,0.2272878024439874,0.198519853300851,0.5787197042958678,1.200638533031613,1.6477428203706344
0.68,-122.20785495264022,47.84546306494543,171.86771253768163,0.0778369844122932,0.3749288113251797,0.1036911402885829,0.6264175922215197,0.3586982541849957,0.5595156377815738,-104.89866932210772,24.75695772866864,176.66064167427905,0.0836542213276404,0.5170776771413483,0.0827262111565741,0.804631506125323,0.3443446199065751,1.0176661489252494,-182.43937303365692,2.2035309318563194,20.28883576390866,1.4735253564174786,0.7774103683913434,0.2752453182679709,0.4533484103379073,0.8004075535184243,0.7855330017388158,-126.2071364533871,16.747735890283558,27.310919483764707,0.2665123611921909,0.2624428789877161,0.1892512248305431,0.6381201451265307,1.2204497906180616,1.7112309792155127
0.69,-121.90358872369606,48.30149237527331,171.95998600356754,0.0785156124600479,0.3989707455585166,0.1127796796041789,0.6356485201388263,0.3459130535278471,0.5477886927026702,-104.93508036626925,25.342822637230466,176.76540805714734,0.0874388135692818,0.5640855665299093,0.0868071355720668,0.7872422330329099,0.3370867363703844,1.00729070799536,-182.2959069225409,2.669731177848645,21.944704464993688,1.5087200654820558,0.7976238600654105,0.3026180791388506,0.4857322832553434,0.777219181429328,0.8121267661323027,-126.4624620916746,16.922492340739183,27.73610436705144,0.2941160225212227,0.3068892275284245,0.1824444061265057,0.699193914146864,1.2425924864650812,1.764513541928645
0.7,-121.56890547324898,48.78292715446093,172.05871220248878,0.0797922803734661,0.4325299055004289,0.1215455283113517,0.642144631440483,0.3326042204543235,0.5317121559767681,-104.98382069378826,25.96571500998423,176.88553058325735,0.0911638044352055,0.6105918120445548,0.0906735091519322,0.7659642785015719,0.3317690376348646,0.990041176940975,-182.12398506394803,3.279076741656475,23.634403421075756,1.541943885798418,0.8101391989706225,0.3262952031563377,0.5206066913191244,0.7475514104610882,0.8333163802058778,-126.69203007792603,17.155107568084563,28.19053717356216,0.3322146531879474,0.3588349638028681,0.1787075050302334,0.7582682286093174,1.2659702735115823,1.8028027936359727
0.71,-121.20505899352412,49.306264011960565,172.16435522444525,0.0814282547386169,0.4750123743507323,0.1295465395578135,0.6440801629559915,0.318978874487513,0.5115950778442987,-105.0469660350594,26.626852798836666,177.0233830995184,0.0946468655507395,0.6560585782207079,0.0940640352558575,0.7399071338764212,0.329735385542025,0.9647609226125936,-181.92616651738223,4.014328598706477,25.36180187782808,1.5723386296390935,0.814484539606945,0.345148491376228,0.5573743921881978,0.7139281260126564,0.8487823352507335,-126.8826970095737,17.45968158928925,28.68613084368812,0.3793355530204245,0.416150030597556,0.1784090245073066,0.8115804682993082,1.2887693642698077,1.822237131144032
0.72,-120.81357209579782,49.88737746457432,172.2768634673821,0.0832936277239897,0.5252198302310671,0.1364230805920736,0.6399487797194932,0.3053118762709883,0.4880631734951215,-105.12542614973869,27.327696180593893,177.18041552287826,0.0978032287575544,0.7000536711326428,0.0967656843712383,0.7083111912429537,0.3319431379883079,0.9306759996696868,-181.70551580801623,4.8536353594660815,27.130655629229267,1.5988936261687978,0.810496058642037,0.3584674702557593,0.5949099728079814,0.6790382654518171,0.8581353132553694,-127.0238582031626,17.846574208561343,29.233432951244566,0.4335536333559069,0.4765011347370029,0.1816137071236082,0.8555508201266177,1.3087113032570872,1.820273927707239
0.73,-120.39601238954194,50.540442762691846,172.39588074135,0.0853680363648266,0.5814481608814915,0.1419232115061985,0.6287021333147923,0.2918928513284285,0.4619880686232583,-105.2185667130542,28.06991153265422,177.3569253765054,0.100673199188873,0.742267987405292,0.0986277657577466,0.6706958802509433,0.3388067620915022,0.8875145180184999,-181.46533693423424,5.772295938410336,28.943843292151072,1.6204980508257307,0.7983528413909086,0.3659927395386913,0.6316246134065573,0.6453308177583724,0.8610801703169666,-127.10803796927304,18.32186591429258,29.841193376993893,0.4926660502029754,0.5375045156089082,0.1880443788096636,0.8870598213801474,1.3233861298190108,1.795909847604255
0.74,-119.9538549095484,51.27696564551392,172.52098284903917,0.0877230473497781,0.641617523261245,0.1459130829788644,0.6098638837338719,0.2789841373584432,0.4343952719585796,-105.32388368845903,28.85534394707747,177.551866336125,0.1034340717690307,0.7825255265667972,0.0995648622971121,0.6269917233645633,0.3501147157337894,0.835598854269781,-181.20895555016065,6.744586336161916,30.802647439928094,1.6359999640111245,0.778588056269133,0.3679009881638803,0.6656281016402643,0.6146961098163309,0.8575645622577002,-127.13125829812874,18.887122022918355,30.516123724261316,0.5543728991224579,0.5968896026830376,0.1970840695729318,0.9037262875895956,1.3306121810598042,1.749713406845826
0.75,-119.48846626729296,52.1049603933571,172.65189702718718,0.090490943513856,0.703421529374962,0.1483738303295713,0.5836051061188491,0.266789879301461,0.4063539386935486,-105.43676436142358,29.68599624155124,177.76270398089017,0.1063926484029839,0.8207838651166272,0.0995486639735675,0.5776344825389336,0.365028835147674,0.775892278556199,-180.93957525027707,7.745462649668954,32.70613390121726,1.64427567907923,0.7520728388271019,0.3647463410158428,0.6949511862648905,0.588275203630075,0.8478647371806773,-127.09316566016834,19.53947653218924,31.262836077975194,0.6164442068373023,0.6526622646356408,0.207827355692633,0.9041684081970522,1.3287610699052566,1.6836886724275757
0.76,-119.0012047794988,53.02832541991743,172.7886775659792,0.0938263014451201,0.7644836467949563,0.149388025959395,0.5507700174789432,0.255435450615521,0.3788597859665713,-105.55037178747548,30.564011792679487,177.98533218472588,0.1099572153988686,0.8571231409731741,0.0985918071469531,0.5236055953055184,0.3821667697307075,0.709985042679523,-180.6602207849532,8.751990716905157,34.650691976872075,1.6443128595840435,0.7199749805531407,0.3573629465816693,0.7177790127590856,0.566414682445554,0.8325920013114868,-126.9969080040195,20.27203194821979,32.08392795254642,0.6768585459526152,0.703252692766467,0.2191809787711245,0.8882135743751227,1.3169883679687864,1.6010112465208988
0.77,-118.49359433563777,54.046473917339696,172.93182756484038,0.0978672082786508,0.8225106614012971,0.1491192486105642,0.5128423066103271,0.2449586879869421,0.352729461738715,-105.65569039769308,31.4916531843757,178.21406664148523,0.1145910932427977,0.8917228513839641,0.0967291642886197,0.4664128252857461,0.3997599610596143,0.6400140269483182,-180.37376860589583,9.744404454250317,36.62980315030734,1.635307146776396,0.6836981136505831,0.3467379441930557,0.7326525473576236,0.5487581568772022,0.8126305331725141,-126.84876601104656,21.07454958699085,32.9801673477109,0.7339047479490639,0.7476319265707307,0.2300040076433911,0.8570104518292186,1.2953289047914227,1.505685035951635
0.78,-117.9675104965102,55.15427642978377,173.0823674315627,0.1027020450677493,0.8754344613103963,0.1477877212296697,0.4718452534870822,0.2353160679549552,0.3285246234550734,-105.74176780031328,32.47126237251846,178.4417338081147,0.120753078804039,0.9248284458320436,0.094002706630974,0.4080143091020888,0.4158694534836862,0.5685205617497919,-180.0830506075107,10.70675194213203,38.63409911767785,1.6167658824686324,0.6448072419505821,0.3338721535699189,0.7386155052373029,0.5344427284138086,0.7890303152441107,-126.65755736999098,21.934382144863815,33.95072885268715,0.78624447729303,0.785383318553933,0.2392696703689453,0.8130006942376728,1.2646484411869738,1.4021655068571193
0.79,-117.4253207913769,56.34235465687823,173.24185327023008,0.108345875396318,0.921533304417083,0.1456440936153038,0.4301796077077873,0.2264053441555306,0.3065182843910352,-105.79617906473972,33.50518635186125,178.65987273796864,0.128832473411578,0.9567120561471668,0.0904548084946469,0.3506956412359412,0.428630228461299,0.498259592586679,-179.79099986443524,11.627142546183997,40.65174664346371,1.5886055561351435,0.6049442845889998,0.3196534338554493,0.735304947054646,0.5223557299736552,0.7628838697752326,-126.43385020505303,22.837579399659848,34.99343830381113,0.8329386430261246,0.8167204760638525,0.2462262648142454,0.7597285647527657,1.226479089066822,1.2949893783131845
0.8,-116.86994273479334,57.5977286846664,173.41234530133832,0.1147281273985407,0.9595232876151892,0.14294311722784,0.3904192875281589,0.2181017608715903,0.2867089472234032,-105.8057225873058,34.59565720251446,178.85906182063076,0.1390872407535304,0.9876322151205396,0.086131999564489,0.2969132992188519,0.4364859138731164,0.431981434257293,-179.50079120419272,12.497651958825696,42.66915574302763,1.551225095049663,0.5657352441693366,0.3047688764206192,0.7229929893897217,0.5114063698860761,0.7352176797078106,-126.18903957668115,23.77008218563285,36.1049970043648,0.8734437887631529,0.842450052731366,0.2505336473283621,0.7014964845355817,1.1827904554836643,1.188444893698806
0.81,-116.30481309078304,58.90476822782418,173.59632225578423,0.1216909682910428,0.9886121419409588,0.139919195010021,0.3550962679473162,0.2103002629377648,0.2688810886604676,-105.75732993821444,35.74462534620345,179.02937024915417,0.1515928050215503,1.0177965195158332,0.0810975393386257,0.249119349453377,0.4383745768088695,0.3722151041524059,-179.21592141013895,13.313968517081946,44.67195277762856,1.5055380839285135,0.5286909735640701,0.2896739524526439,0.7025859364850526,0.5007727690476071,0.7069255537381738,-125.93435672545206,24.718911321608637,37.281173504100806,0.907585749408361,0.8638841707815089,0.2523541796516498,0.642904865363145,1.1357540137791826,1.0863101888272106
0.82,-115.7337899645526,60.246344913496905,173.79653604345077,0.1289962416386882,1.0085114278435383,0.1367659291801928,0.3265062014773156,0.2029535019984619,0.2527033479209963,-105.6391379911668,36.95355706875496,179.16091468907905,0.166206579658007,1.0473298065636665,0.0754481090631791,0.2095833029030127,0.4338359731447472,0.3210843961864525,-178.94018047818895,14.074870415600929,46.64610117619768,1.4529542770324584,0.4951068458360815,0.2746216024187727,0.675582756174552,0.4900904846512018,0.6787577960260248,-125.6798917290895,25.67325735078336,38.516967905549286,0.935517747686658,0.8827116700485638,0.2523823837407354,0.5883394215531937,1.0875453049836226,0.9916781774682288
0.83,-115.161026217404,61.60504422891982,174.0158041923786,0.136338498064808,1.0194083991008285,0.1336214373905556,0.3065572387871501,0.1960958402624653,0.2378494115591019,-105.44163553700994,38.22321857373353,179.2444780537794,0.1825510318270245,1.076248854020559,0.0693286137195981,0.1802281173488666,0.423028582126443,0.2801799869538728,-178.67748917177693,14.781611897029066,48.57900739992786,1.3953118889412426,0.4659713711149566,0.2597376502138691,0.6439905405304076,0.4795527207760249,0.6513589469510558,-125.4337132294703,26.625383522511587,39.80676723303193,0.9576691242256034,0.9008396079374804,0.2518055879389127,0.5414824231785903,1.0402066237995826,0.9068735675537162
0.84,-114.59085369489652,62.96428697871743,174.25674567348588,0.1433623267226201,1.021903390819201,0.1305605514876525,0.2966710398736518,0.1898469078854427,0.2241222968242235,-105.1587652072204,39.55347581891033,179.27212557305035,0.2000172474468159,1.1044437575109205,0.0629398466480502,0.1624970357958872,0.4066630697081621,0.2504952012468265,-178.43161459336082,15.43727546587318,50.46043987143888,1.3347723576257549,0.4418974269658033,0.2451168117099723,0.6101898396767177,0.4698996360313835,0.6253263829481177,-125.20116174300678,27.57126778150728,41.14451783826952,0.9746892103555996,0.9202172015293942,0.2521972886789527,0.5049224513937964,0.9955734279339902,0.8334530299883648
0.85,-114.02770470525962,64.3092351675217,174.52147656423216,0.1496834208109514,1.0169213877779295,0.1275942286334405,0.2977301590510468,0.1843938772175224,0.2115596047261682,-104.78884124458604,40.94314028704402,179.23774038889312,0.2177912644717541,1.1316670163759668,0.0565358452240658,0.1572634378248674,0.3858714622539015,0.2324168050728581,-178.2058125910542,16.046128398624766,52.28312647546172,1.2736941471863163,0.4230899305208352,0.2309103377900642,0.576740998417287,0.4622893107125959,0.6012540384396222,-124.98437614264364,28.510928599697184,42.52394090991944,0.98738933664121,0.9426543484907844,0.2553544124224916,0.4799214127996003,0.9552540390151112,0.7722681356057908
0.86,-113.47607668691953,65.62740738366328,174.81129233184467,0.1549139082328829,1.0056074140140074,0.1246755627028406,0.310052874654688,0.1799575773545363,0.2004951624589445,-104.33514043320666,42.38988471557526,179.13740215083132,0.2349051925944334,1.1575330552818388,0.0504101303179989,0.1647875510276358,0.3620386386119417,0.2257520252869832,-178.00246736517414,16.613015167141157,54.04297406253579,1.2145002560158686,0.4093587827801418,0.2173834310705498,0.5461328702341747,0.458066303835415,0.5797366746341417,-124.78208775523068,29.448403718599774,43.93881018968106,0.9966853706877248,0.9696465390943456,0.2630986434493341,0.4663715618801645,0.9206415328672768,0.7235652059203095
0.87,-112.94052568644372,66.90898698699935,175.12637065440472,0.1586925464375222,0.9892155553987242,0.1217109354483377,0.3333718403544571,0.1767512106836265,0.1915556429755812,-103.80604384308684,43.89023815911934,178.969550404657,0.2503126898559289,1.181531086532862,0.0448720917359854,0.1847159653325179,0.3366267156318164,0.2297714067177685,-177.82279288824972,17.14282427443259,55.73894314687295,1.159547646428663,0.4001760169703895,0.2049348969586521,0.5204998107145946,0.458470270445602,0.5613323885917637,-124.58968556394784,30.39138007043734,45.38329807308756,1.0035426133635543,1.0022181769565692,0.2770692137373717,0.4629439442407345,0.8929325651234192,0.6870959790468321
0.88,-112.42566005827372,68.14685665713992,175.46553134002284,0.1607189902757864,0.9690017223056158,0.1185746044738281,0.3668037872035781,0.1749404577960984,0.185584173737325,-103.21465727086152,45.4396463033017,178.734909044167,0.2629835873453792,1.203051978306969,0.040216475815568,0.2161161625002762,0.3110221906422837,0.2432531398534791,-177.66662976104308,17.640079472033158,57.37267834064148,1.1110001232629017,0.3947651821427149,0.1940858700671751,0.5013579903025663,0.464347030916745,0.5464983911331583,-124.39952500200762,31.350505012016164,46.852379517819145,1.0089231106174703,1.0407972887991497,0.298536740010835,0.4673996282043057,0.8731367246629205,0.6622182834249652
0.89,-111.9361006624663,69.33642603914375,175.82608789922807,0.1607890874931078,0.9461302707869924,0.1151254401146924,0.4088210337351175,0.1746116407325639,0.1835038359861025,-102.57791816072006,47.03255692797286,178.43619168353626,0.2720071671631656,1.2214266388611563,0.0366902596147146,0.2575383969942944,0.2864283734490331,0.2645259330800494,-177.53233153614798,18.10870841231468,58.94801884190208,1.0707030835777314,0.3922048556592671,0.1854518269084969,0.4894192025884762,0.4759272151178637,0.5355212395768252,-124.20143047550884,32.33843790049782,48.34226610971647,1.0137331273816992,1.0851350467167924,0.3282628626329435,0.4770119313171889,0.8620766407371558,0.647976133494572
0.9,-111.47637853096656,70.47533190998962,176.20381848703516,0.1588261439286526,0.9216029271791988,0.1112249462028555,0.4572561380111923,0.1757531692800527,0.1861516649814356,-101.91528959717618,48.66247611780822,178.07764760748498,0.2766901929573298,1.2359714938595017,0.0344619588409103,0.3070988658871804,0.2638131737558775,0.291520211093528,-177.4167075922617,18.55202777537074,60.47049485379531,1.0400605754961725,0.3915293794551377,0.1797100929193367,0.4845240267824959,0.4927203097331133,0.5284624579401352,-123.98333347397003,33.368721343439965,49.85082870314107,1.0187675927831028,1.1342815736109575,0.3664210507498048,0.4890338310153491,0.8603885644700809,0.6431580323677576
0.91,-111.0507552487997,71.56308196453351,176.59307153491778,0.1549022150644801,0.896214607014111,0.1067555759099091,0.5093734883676125,0.1782557452437653,0.1941195412197598,-101.24721570041866,50.32195232511295,177.66453134630407,0.2766352732356744,1.2460365657970682,0.0335983142568042,0.3625801628073642,0.2439089564755494,0.3218451705877842,-177.31498857617015,18.972951336582472,61.946871864801366,1.0199212409784837,0.3918156741671517,0.1775668855486911,0.4857067900339711,0.5135426872593603,0.5251362998103009,-123.73199180889996,34.454561344662395,51.37795838823381,1.0246499600129102,1.1866245279656948,0.4125837682827099,0.5011415190211962,0.8685276890529835,0.6463376468441634
0.92,-110.66297277682976,72.60068814038657,176.98700425459106,0.1492441793917062,0.8705361179762363,0.1016379676498516,0.5620253937118075,0.1819365204198916,0.2076322770463638,-100.59354195607848,52.00248383591919,177.20258126736195,0.2717870976206167,1.2510522725487634,0.0340522332237561,0.4215464919909539,0.2272508144946876,0.3529079058243294,-177.22080382670617,19.374381798731,63.38475619363349,1.010487005402817,0.3922506104042282,0.1797194729449946,0.4913760371868855,0.5366689360981345,0.5251267506043246,-123.43374497462042,35.607606542673764,52.92581427691142,1.0317702059977156,1.239990175826241,0.4657714242743936,0.5117943445244696,0.886768247867404,0.6559068628558641
0.93,-110.31596172466529,73.59030554850116,177.37793505250772,0.1422215367532605,0.8449204117855322,0.0958457226307646,0.6118872549065053,0.186588662550187,0.2264810439736267,-99.9720892589114,53.69439431653938,176.6975783953531,0.2624381965250275,1.2505711895879226,0.0356640551333568,0.4814695695617111,0.2142338702786928,0.3820812360891968,-177.12619433997185,19.75970031199991,64.79224081763381,1.0112628165952302,0.3921766831762847,0.1868051078130733,0.499573200035689,0.5600749744770868,0.5278384260825004,-123.07527044904992,36.836811982574105,54.49891546070686,1.04022924536263,1.2918001265335972,0.524549824070783,0.5204699395680364,0.9151776967106852,0.6701169739856966
0.94,-110.0115518684358,74.53487489427668,177.75778002573318,0.1343157806823682,0.8195275495041278,0.0894166855826586,0.655747195756249,0.1920506932456104,0.2500177436093923,-99.3975300554242,55.38675750295277,176.15503352905964,0.2491922852583593,1.2443011433726796,0.0381760944579767,0.5398567624241657,0.2051692389574883,0.4069127204973534,-177.0217123797313,20.13323468684164,66.17756093738089,1.0210639805067716,0.3911155104128501,0.199330932048637,0.5082612540557282,0.58173252584677,0.5325668246498166,-122.64431207135704,38.14746710563767,56.10405378666879,1.0498017281927503,1.3392720056939622,0.5871577607561583,0.5277520796526809,0.9535460653682418,0.687139499230173
0.95,-109.75023176423257,75.4377678810022,178.1185405477188,0.1260738967102023,0.7943628652052809,0.0824596590996125,0.6908116322240804,0.198282571196331,0.2772065265572367,-98.88066331403104,57.067460313293694,175.58002351899182,0.2328912709690608,1.2321271619833911,0.0412584438930375,0.5943705148441334,0.2003220165951759,0.4253528286393962,-176.89666698080828,20.50058132862031,67.54874195203291,1.0380890219564831,0.3887704278515562,0.2175871219775128,0.5155971802175837,0.5999153258553398,0.538570497362136,-122.13035253463028,39.5404641811772,57.7500290351372,1.0599284506379694,1.3796487868833305,0.6516463083777868,0.5352615343416073,1.001266854103002,0.7051421216657073
0.96,-109.53099819622624,76.30244890146845,178.45280804295322,0.1180508324047648,0.7693222090314367,0.0751548156750493,0.7149801858282511,0.2054304057727853,0.306723155772059,-98.42812723886738,58.72347117418816,174.97716926161232,0.2145192023251029,1.2141216200501803,0.0445425609601298,0.6429306297498768,0.1999219121449097,0.4359691799883798,-176.7395585288276,20.868681720400385,68.91324560746118,1.0600533966990515,0.3850111978673591,0.2415557893376062,0.5201563168889515,0.613479554118148,0.5451314383746891,-121.52519930644566,41.01187876560619,59.44722987272053,1.069745090954411,1.4104382602713894,0.716014436635985,0.5454307055247601,1.0571872869415937,0.7223623882235248
0.97,-109.35132587274568,77.13217726219072,178.75424751052353,0.1107480149036072,0.7442379083401485,0.0677455605852472,0.7270472255120596,0.2138597633213744,0.3370892902661837,-98.04252976358951,60.34133311621433,174.35072315620653,0.1950999547726023,1.1905429283560818,0.0476584392687601,0.6837958554566098,0.204144997996638,0.4381086764316935,-176.5387086120128,21.24560584619337,70.27763726210775,1.084367629435668,0.3798445263254674,0.2708354935177733,0.5210939034084618,0.6220777881802256,0.5515986040682863,-120.82345100966074,42.55291922922823,61.20709437102576,1.078148470300604,1.429641149135213,0.7783295952532261,0.561140583826962,1.119464493781286,0.7371664759000821
0.98,-109.2072750295026,77.92977357152203,179.01801426720078,0.1045568412443349,0.7189194076011162,0.0605203225846179,0.7268039405992367,0.2241399601522034,0.366825394133967,-97.72292606038135,61.90784191576012,173.70471813007765,0.1756041632715531,1.161822996734979,0.0502711357647206,0.7156246475766146,0.213071224120391,0.4319719453780908,-176.28304371742092,21.640057773673508,71.64729929760611,1.1083363298416449,0.3733733518476599,0.3046016853312277,0.5182386099739033,0.6262617303641973,0.557417153331888,-120.02281235037772,44.15027271684753,63.041481864990416,1.0838967053885968,1.4359447606139175,0.8368259085216957,0.585265153873463,1.1854775586209036,0.7480977321068855
0.99,-109.09373845421936,78.69746339807062,179.24105614872113,0.0997163060321701,0.6931832674607734,0.0537849564903063,0.7150328289207395,0.2369706046911064,0.3946040052251381,-97.46553793924076,63.41081751733492,173.0431263961136,0.1568761093121212,1.1285437585400615,0.0521127644061149,0.737516735353754,0.2266266274115647,0.4185770005299743,-175.9629478730532,22.06067537242912,73.02620455240647,1.1293534352896584,0.3657471209882638,0.3416170750650827,0.5121137883630948,0.6274354484523808,0.5621469111386015,-119.12423169920872,45.786832273357255,64.9619825388054,1.0857352086358345,1.4288596461084253,0.8899758096136223,0.6201922227757639,1.2518516288523651,0.7539308252646447
1.0,-109.00481045072392,79.43679723257033,179.42226261656998,0.096291818277112,0.6668689050430776,0.0478292941230205,0.6933979323224874,0.2530563284206081,0.4193855379589923,-97.26459564571482,64.83985090211834,172.36998175977473,0.1395852798270807,1.0914043419165853,0.0530065367176913,0.7490382152610539,0.2445220293428498,0.3996108637949292,-175.57107454410627,22.515232489500548,74.41674878684343,1.1450735612151812,0.3571065689746959,0.3802960063162858,0.5038825675182241,0.6276445746267897,0.5654684416890537,-118.13184817221548,47.44273989080362,66.97919524103527,1.0825359492754811,1.4087801400800797,0.9365335461015176,0.6673967356160075,1.314639974782111,0.7537412102817751
1.01,-108.93424176780894,80.14863408217879,179.56244316114493,0.0941783658053071,0.6398400036138707,0.0428935535205425,0.6642439108373493,0.2729505771350481,0.4405202093425617,-97.11318747888276,66.18691630930496,171.68943040774425,0.1242021658734054,1.0511823315274629,0.0528802580929799,0.7502315480830473,0.2662015910092556,0.3771918921351319,-175.10301029101876,23.009861057873863,75.81963235323306,1.1535474471308125,0.3475304775441101,0.4188164255167015,0.4952186820525394,0.6292247924069216,0.5671708033222637,-117.0527544241438,49.09663075494793,69.10202213677233,1.073433284185458,1.3769569270434636,0.9755519711650162,0.7271309238142551,1.3696738682191845,0.7469840245990954
1.02,-108.87593031791816,80.8331704852122,179.66414444332906,0.0931266490076551,0.6119761298533063,0.0391408283465322,0.6303283393218694,0.2968980965293527,0.4578021034648286,-97.00402301187113,67.44677316882607,171.00568831627444,0.1109947663356407,1.0086933878075497,0.051768217055226,0.7416058835046787,0.2908150616210892,0.3535823756110008,-174.55771018348702,23.54839537908488,77.23378281503196,1.1533176111398882,0.3369963415732602,0.4552639657215517,0.4881140883218337,0.6343720737909325,0.5671180585690268,-115.89660252897508,50.72692869499008,71.33704881498451,1.0579375411442862,1.3353816279573838,1.0063770899848548,0.7982745024402933,1.4130355271154442,0.7335653841817336
1.03,-108.8243901908088,81.48999830414952,179.73134086485123,0.092786792624459,0.5831625267488826,0.0366406383842403,0.5945191591726097,0.3247060339409071,0.4714680196323458,-96.93004491563887,68.61712652165575,170.3228969676944,0.100041509716755,0.9647526685186696,0.049802266672086,0.7240965170854393,0.3172267675656617,0.3308967267790676,-173.9376670252153,24.131911257090312,78.65631997076402,1.1434754002611236,0.325368176727715,0.4877874131455315,0.484642326989972,0.6447192840080896,0.5652022140842136,-114.67509575082651,52.3130378946839,73.68807836455527,1.0360086011352316,1.286597628700244,1.0286266862936015,0.8783658583113481,1.4415600640787385,0.7138881575103483
1.04,-108.7751429463197,82.11818130851289,179.76904954889855,0.092761851305692,0.5532866017503881,0.035366194223025,0.5594913862341689,0.355667310018186,0.4821442153779814,-96.88485510544344,69.69855363448427,169.64488265667643,0.0912571968919371,0.9201401414381272,0.047194085890504,0.6989847143460736,0.3440711503543764,0.3108475006101406,-173.2488183931732,24.758500568230964,80.0825762989566,1.12368191073676,0.3124204708345036,0.5147456579186935,0.4867027041301811,0.660999155978596,0.5613014711678539,-113.40141477437454,53.83630614486884,76.15585713474664,1.0080760968679132,1.233462563893032,1.0421592232081855,0.9638111165046293,1.4532531833392406,0.6888615863260471
1.05,-108.72498664988544,82.7163484620261,179.782923381274,0.0926628407820593,0.5222469267261978,0.0352053741006395,0.5274584321098935,0.3885508607131326,0.4907515297575426,-96.86294824982278,70.69423126792165,168.97483904730743,0.0844295558318415,0.8755711830728898,0.0442106623292478,0.6677845310118106,0.3698576477302895,0.294563337194042,-172.50022439407127,25.4232957382972,81.50619275949344,1.0941541349316124,0.2978980934996882,0.5348327320247446,0.4957763058650609,0.6828499547101481,0.5552656973403959,-112.08962519220684,55.28068716303006,78.73798257458205,0.9750003115083828,1.1788915851863089,1.0470374543076892,1.0502391436398877,1.4475304861366465,0.6598730519048611
1.06,-108.672118153689,83.28280694965456,179.77886449706494,0.092157799417515,0.489975325869028,0.0359828995335453,0.4999728292757849,0.4216647979305872,0.4983795670365685,-96.85976829860292,71.6095126130968,168.31496851857165,0.0792636562898326,0.8316732561436564,0.0411447206225435,0.6321207343003004,0.3931174605600321,0.2825014052074926,-171.7035582294062,26.118741224189915,82.91930814238619,1.0556163756346937,0.2816007743524658,0.5471757889953449,0.5127280966366009,0.7087926389432756,0.5469428462535517,-110.75410677343284,56.63308439439307,81.42894657836365,0.9379781619747536,1.1256082098185656,1.0434900522196535,1.132944682237486,1.4252307004322702,0.6287224563170267
1.07,-108.61610731593908,83.8156777009194,179.762680977452,0.091008891826856,0.4564668662584418,0.0374892219763534,0.4778222190186751,0.4529911347130336,0.5061394889983435,-96.87162196038994,72.45140661557673,167.6661339480196,0.0754296014017945,0.7889678632411907,0.0382822400944094,0.5936246607150408,0.412573814657158,0.274461693817707,-170.87244399167452,26.83509770623887,84.31284932459138,1.0092173744853152,0.2634718050551247,0.551405992101865,0.5376847198272116,0.7363835277549395,0.5362453727164583,-109.4090341940085,57.88340488495045,84.22025979862146,0.8984099643050676,1.075926376916441,1.0318759890016926,1.2073557084060598,1.388412364659216,0.5975138703318158
1.08,-108.55774097547332,84.31305083968964,179.73979120229302,0.0890936756165107,0.4218090822288329,0.0395106693213365,0.4610288293055083,0.4803828720964899,0.5150095042366079,-96.89549663812755,73.22800748508186,167.02758480588776,0.0726068282366591,0.7478554539255546,0.0358704418498214,0.5538589373696645,0.4273084625779417,0.2696924832950559,-170.0216636437383,27.56115333487669,85.67691305990841,0.9564168331379048,0.2436680414938646,0.547701835443293,0.5700051162726895,0.7625210256658944,0.5232415098638843,-108.06792392547176,59.02438563250885,87.10062478764301,0.8577509224282607,1.031585192297548,1.0126583259067556,1.2694777469797591,1.33999571729726,0.568495724395874
1.09,-108.49876553078496,84.77315145356916,179.71497123191767,0.0864090930690464,0.3862022098403778,0.0418556586408794,0.4489426587374085,0.5018049712659401,0.5256941823083905,-96.92883751080676,73.94791352889384,166.39682441554865,0.0705176975280874,0.708601913788022,0.0340905970981901,0.5142622921587203,0.4368928559234825,0.2670606240360265,-169.16625283010143,28.285099084288493,87.00121229997214,0.8988506974870685,0.2225934262620227,0.5367997325862927,0.6083465562508545,0.7838586544288613,0.5082461183317819,-106.74324713225134,60.05127401111805,90.05616441508103,0.8173722839194745,0.993653451879839,0.9863932514663516,1.3162844507351257,1.283340239050195,0.543850544032886
1.1,-108.44156195310995,85.19450127352142,179.69214208106544,0.0830593044660838,0.3499657259398566,0.0443729388051455,0.4404073651978339,0.5155909070467594,0.5385195536613393,-96.96933698658134,74.6196678050347,165.7696750610308,0.0689448850613233,0.6713285935815061,0.0330397386512847,0.4760999908464122,0.4414555557341676,0.2652536609695531,-168.32052165784984,28.995499579932552,88.2755452206335,0.8381900857434513,0.2008885077371175,0.5199620535183991,0.6508166002363194,0.7972588426864111,0.4918812179474979,-105.44609870448316,60.96144764319444,93.07074482164757,0.7784502055315371,0.9625117579427632,0.9537369324148284,1.346018220105852,1.221842784397379,0.5254564365874442
1.11,-108.38879061477644,85.57606118156619,179.6742011181343,0.0792309772233944,0.3135304970733546,0.0469594973076224,0.433973141168418,0.5206784759303956,0.5533790419364685,-97.0147786577889,75.251250864249,165.14057403676665,0.0677310817928691,0.6360101805877532,0.03272393610417,0.4404153625863455,0.4416694767465319,0.2629848426033253,-167.49706833097912,29.68226125175534,89.49023466292574,0.7760106745742729,0.1793794556056451,0.4988935978837158,0.6951920762628285,0.8002210379314137,0.4750806916278345,-104.18591058209589,61.75404937542607,96.12644191947103,0.7418899024927856,0.937907967818133,0.9154681035960868,1.3583479527526698,1.158612973731559,0.5146626859169329
1.12,-108.34304628951772,85.91734209091305,179.66290885949218,0.075161367189124,0.2774181279132541,0.0495579550344178,0.4281284141130252,0.5167864429757245,0.5697365704936156,-97.0629596582827,75.84965545319484,164.5031016116681,0.0667641031665357,0.6024835211822099,0.0330639352896642,0.4079896943181151,0.4386604192164957,0.2591802111529048,-166.70588605725993,30.337478319913824,90.63648226139092,0.7136870819781261,0.1589985053062226,0.4756062486560509,0.739178732298414,0.7912316183162121,0.4590286286208563,-102.97020434746668,62.42969189174623,99.20418301746145,0.7082845898023922,0.9190711405862916,0.8725175211270503,1.3543356435801353,1.0962536982429438,0.5121276030457268
1.13,-108.30656216294848,86.21847548188195,179.65884494128903,0.0711046717144394,0.2422094603846724,0.052145841348667,0.4215201390402888,0.5045012729152805,0.586685389616902,-97.11169570343806,76.42056965498865,163.85070956479348,0.0659540165943747,0.5704673018141968,0.033912166606785,0.3793207654412677,0.4338551405105542,0.2531318011032858,-165.95367927872186,30.956037383303343,91.70659119980948,0.6523227166863012,0.1406919258981547,0.4522441224063223,0.7806792017662404,0.770003529250205,0.4450399846792428,-101.80439245097767,62.99025669822796,102.2845573025198,0.6779053598042933,0.904862599925157,0.8259883295082593,1.3362035395447205,1.0367557598369288,0.5177540982648852
1.14,-108.2809925757784,86.4802383822856,179.6614439260541,0.067300916192621,0.2085043255999295,0.0547212084264857,0.4131332518489391,0.485259182232964,0.6030510880329925,-97.15889710329785,76.96818595472973,163.17759275888704,0.0652104856319439,0.5395907264638254,0.0350786068250677,0.3546266901221316,0.428796654719397,0.2446019292740728,-165.24349367393214,31.535888866853004,92.69403933264964,0.5927213943076308,0.1253311157744689,0.4308902420187349,0.8180312495026681,0.7375924040408881,0.434406012489158,-100.6916535153466,63.438781003747415,105.3487415377926,0.6507173212214636,0.8939404473036666,0.7771501402950913,1.3069496096847866,0.981501859127478,0.530735104508322
1.15,-108.26728977774128,86.70403138295333,179.66911418599588,0.0639501772672894,0.1768761349314466,0.0572895673104598,0.4024065949842476,0.461226115141733,0.6175155529592842,-97.20269286901936,77.4951410758653,162.4796268123418,0.0644281791179731,0.5094298727091426,0.0363619419119612,0.3338780145976188,0.4249549828885435,0.233865842303961,-164.57472865266269,32.07794156098077,93.59342589505,0.5354021113841468,0.113638078023338,0.4133769531985822,0.8501745635721187,0.6963878187560134,0.4282325966526107,-99.63291637598948,63.779403698175344,108.37944201577078,0.6264164814266053,0.8849152157508193,0.7273971886020367,1.2698999535122493,0.9313586981842288,0.5496984067753373
1.16,-108.26567569172562,86.8918133308904,179.67943373287633,0.0611941129782911,0.1478270935345546,0.0598558545485773,0.3892739974716063,0.435091065592998,0.6287346755011536,-97.2415727068574,78.00257950450828,161.75528066329665,0.0634860929880339,0.479550937604082,0.0375820822344545,0.3168579554528375,0.4235565043092993,0.2216870047115869,-163.9435532977189,32.585590522145594,94.40035487061694,0.480652451671661,0.1061304613666477,0.4011183182511996,0.8767092395390456,0.6499835591001258,0.4273008087328414,-98.62698429018688,64.01733434213898,111.36172179832197,0.6044809438302706,0.8764785768664688,0.6781728163106472,1.2282931391633218,0.886817844946382,0.5729237259510599
1.17,-108.27569884968702,87.04600189452933,179.68940755318843,0.0591064953539148,0.1217505926321926,0.0624226961566746,0.3741307760216169,0.4097963686907127,0.6354333187337767,-97.27451329124597,78.49032512286605,161.00640518577822,0.0622632980956533,0.4495581603824635,0.0386101955694512,0.3032453463676782,0.425448428068157,0.2092290109544995,-163.3436981919437,33.063935769702134,95.11134020996444,0.4286107452856982,0.1030864472112016,0.3949772340139182,0.8978292691573352,0.6029330009921923,0.4319769815796649,-97.67081509479858,64.15881516523064,114.28357400835668,0.5842305010884844,0.867493559238993,0.6308721761971255,1.1849629769534198,0.8481356874552132,0.5985937757909435
1.18,-108.2963584752248,87.16935294419456,179.69576310741382,0.0576940728551904,0.0989056688699012,0.0649936351291611,0.357735681663003,0.3882350995247743,0.6364791309265622,-97.30105702612552,78.95714012793336,160.2388017188079,0.0606693534119728,0.419141727015606,0.0393926601496836,0.2927068350730915,0.4310087498997274,0.1979164450928918,-162.7675521014091,33.51878366078243,95.72381560715976,0.3793634465802892,0.1045275479355005,0.3951752127386723,0.914146277657736,0.5603984523080503,0.4421923792496522,-96.75994872763133,64.21105899203346,117.13612634429676,0.5648910444363784,0.8570435073212711,0.586739771320708,1.1421409364050374,0.81543009776493,0.6250368550634886
1.19,-108.32627020032456,87.26483207624878,179.69525522012472,0.0569081289238931,0.0794055954199155,0.0675781570219572,0.3410672805366023,0.3729512220679412,0.6309473915795154,-97.32131906065854,79.4010472418008,159.46248755543814,0.0586831558770806,0.3881195281667611,0.0399654915217456,0.2849772818744361,0.4401075179073822,0.1892622674710778,-162.20745570323268,33.95554534732591,96.23630592493878,0.3330416516342948,0.1102170765667467,0.4012501243789917,0.9264465635610554,0.5277113007217538,0.4574996921780899,-95.8890464844727,64.18215839168487,119.91342199234252,0.5456625842860888,0.8444469317980963,0.5467783353948209,1.1013657105662664,0.788717308731039,0.6509244910001201
1.2,-108.36384106079576,87.33548938913218,179.68494997594252,0.0566656018107871,0.0632205857247221,0.0701948082361004,0.3251612286661506,0.3658803469165421,0.6181870019284638,-97.3359105242608,79.81968935946931,158.6915946976642,0.0563906148575691,0.3564670562867154,0.0404562369845631,0.2799051067074003,0.4521227324889445,0.1846819947473777,-161.6570542355065,34.37816122676616,96.64877349805224,0.2898989990347032,0.1196724805618819,0.4120676495555904,0.9354359749357564,0.5098754003524443,0.4771968980102762,-95.05248460636015,64.0809676910224,122.61180645829448,0.5257895546443645,0.829252816180163,0.5116816748879922,1.063479509071403,0.7679031889190515,0.6754012063871921
1.21,-108.40741745680442,87.384345846578,179.6624610164847,0.056877071022885,0.0501936555396891,0.0728694454061768,0.3109565170921565,0.3681653091531708,0.5978903921284024,-97.34578069250172,80.2106996971453,157.94386052800883,0.0540105962676138,0.3243313232932097,0.0410716937389925,0.277446953284415,0.4660116769136726,0.1853156626558448,-161.1125471103067,34.7881895743997,96.96309905892704,0.2503540357075948,0.1321908674520803,0.4258948171116185,0.9415270881856056,0.5110633512530118,0.5004910899453289,-94.24493489047146,63.91695965924996,125.22903218275476,0.5046288845764116,0.8112316272432537,0.4817992696671969,1.0286931619714588,0.7527569680570997,0.6981353390975908
1.22,-108.45537214257178,87.41429733083679,179.62612100391075,0.0574777170733065,0.040067927572594,0.0756272966703739,0.299171736265318,0.3800700070863881,0.5701647034955998,-97.35199560250469,80.57205485171032,157.23969731466042,0.0519004857865148,0.2920265335453409,0.0420721078960524,0.2776127969480115,0.4804327338318342,0.1918774964524143,-160.573658307998,35.184199537370084,97.18360837247036,0.2149856034493571,0.1468887753989322,0.4405452294403739,0.9447204760402848,0.534165510461663,0.5266610693517767,-93.46186831273408,63.70005831136086,127.7632446527226,0.4817078609430599,0.7903708000092584,0.4571363762876822,0.9966953342721848,0.7428849026793973,0.719284847805436
1.23,-108.50610779378492,87.42804023543252,179.57508322994926,0.0584564991028773,0.0325224019575642,0.0784795515221646,0.2902211463966543,0.4009981150093246,0.5355966719562935,-97.35548307202112,80.90238307155255,156.600867160918,0.0505365709947407,0.2600109007666152,0.0437349241304801,0.2803804255910194,0.4939035261739062,0.2045507753806609,-160.04415577806498,35.56159509736272,97.3175280045985,0.1844800711525029,0.1627582401519371,0.453600193973626,0.9446225864696656,0.5804513685808593,0.5551753075345168,-92.69993097810313,63.44045282366563,130.21202069309027,0.4567642362048402,0.7668742035320044,0.4373876129431531,0.9667726808594864,0.7377032153740971,0.7393764513332997
1.24,-108.55797462744368,87.42801936503018,179.50935888060084,0.0598780405740209,0.0272119472073799,0.0814071305961149,0.2841733603718235,0.4296051668064219,0.4952958984256324,-97.3567824260579,81.20120087095778,156.04884192484707,0.0504689224463127,0.2288456656988492,0.0463128333647604,0.2856078975768901,0.5049719643025437,0.2229420537468702,-159.53178353944145,35.9129566772937,97.37525553593407,0.1595412723833064,0.178739977054352,0.4626949874954882,0.9406167120948652,0.64939250819726,0.5857339361406672,-91.95716098487904,63.148402089216674,132.57159720289636,0.4297660371914634,0.7411585375494738,0.4219942422772116,0.9379184579208998,0.7364057211837476,0.7591094886232206
1.25,-108.60912285324324,87.4163953641437,179.42980109317912,0.0618913428920551,0.0238068044696749,0.0843456709782207,0.2807555860872863,0.4639792165859634,0.4508947354683808,-97.35584081049358,81.46905359179651,155.60298795561866,0.0522547278431663,0.1991396130178574,0.0499916204698785,0.2929716559070942,0.5123719809540436,0.2461043240179958,-159.0475428325113,36.2289161934881,97.37035702990076,0.1407829578443048,0.1938106685146537,0.4658383220030548,0.9321601300766824,0.7386758200133465,0.6182246677947879,-91.23303560687744,62.83403985423544,134.83637697438397,0.4009136414785213,0.7138381966937267,0.4102123240266935,0.908935108227504,0.7379350831495345,0.7791180026979084
1.26,-108.65733053932767,87.3950261889792,179.3380472924771,0.0647204613121565,0.0220272956605786,0.0871762054159413,0.2794070122115345,0.5018586109555332,0.4044859064545376,-97.35189635004592,81.70754111301925,155.27876874089154,0.0563777304592259,0.1714852442129217,0.0548533742983322,0.3019496800672854,0.5151388678311408,0.2726317254406238,-158.60436038047217,36.49948825926581,97.31924658571693,0.128626256129073,0.207075744396891,0.4617149688415256,0.9191325852549374,0.8444063277105844,0.6526059578647154,-90.52835547164824,62.50718772366821,136.99875080160876,0.3706276498091,0.6856924791710969,0.4011843264974324,0.8785565944554359,0.7409829987300499,0.7997449493697527
1.27,-108.6998581540662,87.36545627432238,179.23642814393716,0.0686354352201824,0.0216701430896106,0.0897252234607808,0.2793785109583029,0.5408534879491647,0.3584928437307659,-97.34348034211742,81.91922044601745,155.08618472668832,0.0631642822450094,0.1463954342117391,0.0608501415890625,0.3118564757699629,0.5126709755600595,0.3008184592737567,-158.2152922070811,36.71568591608022,97.2405498199976,0.123221494510257,0.2178532538366266,0.4499157781821306,0.902129588823706,0.961465618304412,0.6887510035472423,-89.84498389519806,62.177182239716565,139.049243867843,0.3395238939842898,0.6576126163420781,0.3940134512258055,0.8456112930601801,0.7440475283765653,0.8208857093794983
1.28,-108.73337959524127,87.32890818247664,179.1278474821478,0.0739063477710039,0.0226235294355516,0.0917758194104611,0.2798637435235114,0.5786417987230262,0.3154857310545685,-97.32855480363656,82.10739260810618,155.0286536825341,0.0727082140023965,0.1242507473389801,0.0677920892963662,0.3219214470262343,0.504740572235766,0.3288627583180832,-157.8915049086193,36.87117947683859,97.15419924666224,0.1244072977509697,0.2257310900888278,0.4310501101162282,0.8825975656306683,1.0839628148804594,0.7262972769908378,-89.18546877207096,61.85272292645354,140.97697396206763,0.3083752855874382,0.6305299363988358,0.3878396977951174,0.8092223868504421,0.7455599689105403,0.8419375792385084
1.29,-108.75402654326902,87.28627436758391,179.01563514034166,0.0807474460702362,0.0248687999895044,0.0930890500551875,0.2801370178455766,0.6131241030443748,0.2779700458056296,-97.30477905999678,82.27579898647582,155.10247902683267,0.0848168396369767,0.1052666110565212,0.0753527238150577,0.3313876461772923,0.4914680982509927,0.3550860876490225,-157.6403276591858,36.963733610737165,97.08034875336874,0.1317124241683152,0.230582390863769,0.4067195966822791,0.8627522598268752,1.205700766298164,0.7645416751670105,-88.5525862620589,61.54174699748227,142.77038805791432,0.2780605889235154,0.6053306643808007,0.3819113197727131,0.7690177738992753,0.7440676637330206,0.8618579185788625
1.3,-108.75756275983458,87.23811077684358,178.9033748048996,0.0892602425071811,0.0284675875467498,0.0934323161162506,0.2796707532246014,0.6425389376522098,0.2481795926690147,-97.26987414140892,82.4282672362714,155.29697638150307,0.0989886561730243,0.089485817803855,0.0830918030000295,0.3396007183377909,0.4732755635813035,0.3781329580298669,-157.46366083532214,36.996190318544464,97.038219230839,0.1443985443372435,0.2325338011505222,0.3793593677284012,0.845291371330437,1.3205892823751997,0.8024013009903479,-87.94885975969876,61.251332193447205,144.41821912999163,0.2495015613541845,0.5827670355380191,0.3756415281925353,0.7253075030264201,0.73843645465403,0.8793042719883839
1.31,-108.73968284514228,87.18463835085437,178.79471151608743,0.0993844574897388,0.0335342326020361,0.0926101437465272,0.2782092238849012,0.6655489121203545,0.2279019802778963,-97.22203227784298,82.56835397796651,155.59525207947576,0.1144297573943088,0.0767961997245936,0.0904943288543652,0.3460637504738367,0.4508299357355658,0.3971218836831313,-157.35696277783327,36.976845851536254,97.04499317665756,0.1615358860872807,0.2318948665969704,0.3519729261596491,0.8329749728437225,1.4229692493038346,0.8384363606684369,-87.3761194357624,60.987624513362846,145.91058127148867,0.2235912678064127,0.563377305834763,0.3686410225619926,0.6791848995725149,0.7280249325298651,0.8928150824135882
1.32,-108.69640915458486,87.12576142746946,178.6931471771915,0.1108647129086072,0.0401950268730573,0.0904923716076746,0.2757839382666674,0.6813006427522058,0.2183534934449444,-97.16030565182524,82.6990295155405,155.97556187242736,0.1301110404682452,0.0669679428817369,0.0970215644249254,0.3504505980313612,0.424983305633174,0.4117318354898506,-157.30893689414103,36.919174256708274,97.1148647233694,0.1820992580750063,0.2290676538258865,0.3277962916782624,0.8281739958007368,1.507852866677173,0.8709198988128765,-86.83517136858829,60.75578536760542,147.24010227165857,0.2011177220371023,0.5474274195700213,0.3607213110697505,0.6325147372678634,0.7127846816308593,0.9009878279405776
1.33,-108.62454180290126,87.06111194317847,178.60183628496085,0.1232399534556032,0.0485381969691791,0.0870354357070079,0.2726690350513527,0.6894491003940628,0.2201070173910242,-97.08490750339388,82.8224402496858,156.4131211407665,0.1448624027140297,0.0597019726876095,0.1021678645787363,0.352587714382536,0.3967156247927362,0.4222231954855346,-157.3019370914833,36.840950766882976,97.25832939350563,0.2050699097990876,0.2244599139038083,0.3099301058942862,0.8324740290538486,1.5711162403937864,0.897942062615958,-86.32563632500076,60.5599544181819,148.40298041159204,0.1826885951610259,0.5348837244196126,0.3518701096669069,0.5877880305584349,0.6932572942023807,0.9026190880064944
1.34,-108.52210075428052,86.99012473533385,178.52339719456046,0.1358612444137407,0.0585611331194763,0.0822939187070166,0.2692893736561723,0.6901345141245184,0.2330661424997219,-96.99737139837254,82.9397708053685,156.88218450876536,0.1574939622457559,0.0546806171089509,0.1055159448301788,0.3524228420064321,0.3670844815665157,0.4293997956846049,-157.31302252428884,36.76290409268683,97.48176996175664,0.2295283863580025,0.218423008548924,0.3009799950672299,0.8463893779325844,1.6096851109078467,0.917544149831309,-85.845994983343,60.40322949072364,149.39984632666182,0.1686645217274651,0.5254197781424473,0.3422057899804924,0.5478499092231558,0.670466255486899,0.8967895426733924
1.35,-108.38868909575528,86.91214366954486,178.45975613687074,0.1479405451938172,0.0701232017039284,0.0764211759448868,0.2661045831684309,0.6839122249717977,0.2564743493798002,-96.90053865314424,83.05121282436707,157.3581674301087,0.1669291436539039,0.0516131300363901,0.1067834952842961,0.3499968273757575,0.3371824184905762,0.4345185422693734,-157.3155310036024,36.70707042941094,97.78736270800022,0.2547243081720106,0.211228688277992,0.3027461900765834,0.8692139093186932,1.6217279426615954,0.9278812896550332,-85.39384255459608,60.28766986007332,150.23630994404525,0.1591099307355815,0.5184530851126807,0.3319205216746844,0.5155394503694767,0.6457295145564941,0.8829038716014302
1.36,-108.225708315189,86.82655301853165,178.41204141996437,0.1586276314678435,0.0829128993104933,0.0696591641562534,0.2634959538707072,0.6716524437782657,0.2889510378742961,-96.79837322834284,83.15603248715921,157.8195608820709,0.1723317300701522,0.0502703450290413,0.1058557605316229,0.3454271306754878,0.3080984660282958,0.4391514826337409,-157.28100314033838,36.695036621717705,98.17329321316528,0.280111436234154,0.2030875569668322,0.3160009065731617,0.8990198902421389,1.606827576077836,0.9274100184478036,-84.9663188857884,60.21432891056452,150.9230776493822,0.1537703020213559,0.513202410895608,0.3212219851293613,0.4933053133896992,0.6204361941941098,0.8607162997588391
1.37,-108.03637501916889,86.73292430767195,178.3805424073875,0.1671055870684771,0.0964370119688216,0.0623186318635534,0.2616792543105124,0.6544338655993016,0.3285529103454966,-96.69563062450898,83.2527161229521,158.2494095079167,0.1732094055420432,0.0505044123714048,0.1028012536824624,0.3389037755342243,0.2808811843353158,0.4450081969405883,-157.1812718683368,36.74625275260509,98.63423635504827,0.3053417475492958,0.1941992192755421,0.3403841360086849,0.9328097508030306,1.5660740983399255,0.9150856528719572,-84.5606475056808,60.18331467563521,151.47554300332828,0.152082658353441,0.5087553154927921,0.3102832540325908,0.4828675897488615,0.5958340468137289,0.8303704771312858
1.38,-107.82552391354308,86.63116453171617,178.3647403408331,0.1726897324443909,0.1100371346579327,0.0547518259438898,0.2606577691908814,0.6334485168993335,0.3728643833066154,-96.59742735747815,83.33916549852533,158.6361871062477,0.1694795141787076,0.0522513290148806,0.0978700753822329,0.3306945322419984,0.2565053185190379,0.4537350726411198,-156.9905281962321,36.87657317425815,99.16202745072351,0.3302207131830966,0.1848142014880915,0.3744347380968738,0.9668180943457272,1.5020290605046895,0.8905365354695937,-84.17469426685973,60.1938658281543,151.9127950702796,0.1532223525359732,0.5041387662507184,0.2992093001247832,0.4849833635885159,0.5728650253150355,0.7924573246808309
1.39,-107.59922448117314,86.52164617883227,178.36340650143867,0.1749132884327469,0.1229357901037833,0.0473208142913052,0.260220525466693,0.6099225926837896,0.4191216853793155,-96.50876813404004,83.41291326731253,158.97399654842724,0.1614880674320893,0.0555158511984184,0.0914755473917678,0.3211563823534943,0.2358476361977005,0.4667168413163983,-156.6871788278823,37.09715521044923,99.74643671831453,0.3546354806822321,0.1752844489679045,0.4157551734234063,0.996943221711858,1.4185449090406523,0.8541730767722144,-83.80744741658133,60.24442315253752,152.25605793462577,0.1561844083957989,0.4983906095064548,0.2880252289465879,0.4993482974705442,0.5520710078582461,0.7480649543937218
1.4,-107.36427286073818,86.40529418307284,178.37475173275723,0.1735864458418728,0.1343106007434273,0.0403652972676711,0.2599836338573935,0.5850499841126297,0.4643735608150999,-96.43408833954702,83.47133406338546,159.26211871237226,0.1499799700126021,0.0603406761106017,0.0841602933336397,0.3107501316915402,0.2196748256568636,0.4849074639659927,-156.25532644311195,37.41380711126664,100.37596030590608,0.3784745480795041,0.1660833916380732,0.4612870676723246,1.0192590320668418,1.320456646077807,0.8072021996199802,-83.45932815886621,60.33267704837201,152.5266749146926,0.1598915936719152,0.4906323373397293,0.2766870013162025,0.5246381776295191,0.5335764217100959,0.6987816169141888
1.41,-107.12763485686996,86.28360326667577,178.3966048183606,0.1688215350749195,0.1433903082062192,0.0341741938358982,0.2594669928648918,0.559936518108799,0.5056775130794295,-96.37686074773642,83.51183564308107,159.5040155593234,0.1360260134940046,0.0667645023690952,0.076548615136501,0.3000507791871145,0.2086387518840823,0.5087106149584981,-155.68573757595942,37.82682838282085,101.03855602529916,0.4015589283548716,0.1577865889532414,0.5076548620723089,1.0305306784188537,1.2131820005584673,0.7515450578688492,-83.13226380645503,60.45558031456781,152.74387377673557,0.1633142073963518,0.4801413804345971,0.2651121913535814,0.5586689145195974,0.5171404672480643,0.6466234789647665
1.42,-106.89591197331744,86.15856449794619,178.42659715790975,0.1610221918165469,0.1495610585195206,0.0289649163641217,0.2581921427941057,0.5355590251784211,0.5403215519213038,-96.33930020752985,83.5320244684914,159.70594714606614,0.1209184580247722,0.0747758290666122,0.0692888700528323,0.289741949375268,0.2032676448893343,0.5379198712587545,-154.97622191474076,38.3313267429598,101.72227499948916,0.4236006657775094,0.1510162552643416,0.5515222893374511,1.0286451874303857,1.1022773990676595,0.6896788707869057,-82.82949310132857,60.60932940294524,152.92266487976326,0.1655809946744449,0.4664155475218205,0.2532257962241567,0.5986345790915393,0.5022579686709745,0.5938853047878425
1.43,-106.67488894691832,86.0324932178912,178.46233539452638,0.1508380234618599,0.1524665096873662,0.0248728022368591,0.2557805949395812,0.5127449763799586,0.5660474169093935,-96.32218266013834,83.52984854812257,159.87539213732367,0.1060501979377827,0.0842701803684525,0.0629921351864752,0.2805851814885488,0.2039414248372864,0.5717204722584537,-154.13142357752034,38.91793584278189,102.41576519342716,0.4441968342572138,0.1463629750151764,0.5899070752238968,1.0128782667735632,0.993005260396542,0.6244327987170974,-82.55512210052409,60.789332714407486,153.072279383976,0.1660607845748927,0.4492180230396197,0.2410120689564916,0.6413748307596191,0.4882790492261312,0.5429362434420795
1.44,-106.46920560275092,85.90776970504078,178.5015489300618,0.13909041311447,0.1520828349555226,0.0219510270341332,0.2520301892357761,0.4921718887514993,0.5812400786917346,-96.32477922319472,83.50372542565228,160.01947034296435,0.0927921071923911,0.0950179112907793,0.0581752081310511,0.2733635655227171,0.2108469006636354,0.6087489930449493,-153.1621013969889,39.57381115604393,103.10864363964323,0.4628579144414732,0.1443025294916153,0.6204133372108291,0.98394780855942,0.8899694214676669,0.5587672736583786,-82.31350060355578,60.99019762542349,153.1955026453824,0.1644016445593521,0.4285924461727348,0.2285583116351197,0.6836289595030794,0.4745203404227484,0.4959921277153757
1.45,-106.28217901813052,85.78652483112967,178.54220388159493,0.1266807075206914,0.1487510860236499,0.0201793233347335,0.2469536910185659,0.4743768010262125,0.5850501877729478,-96.34489470743983,83.45266398292814,160.14355697222652,0.0823800571089038,0.1066484358092613,0.055215610955981,0.2688072070001663,0.2239194938391919,0.6472032123615928,-152.08403263156447,40.28375963411091,103.79174714614936,0.4790605751312912,0.1451249604683042,0.6413628717741332,0.9438464995695384,0.796863591157709,0.4955635968505927,-82.10852824709309,61.205775310210655,153.2890939896678,0.1605253122555667,0.4048439847269741,0.2160751824266845,0.7222508068524437,0.460351985507367,0.4548922792796346
1.46,-106.11578229571134,85.67032021282081,178.58257891686972,0.1144966141567269,0.1431553193606814,0.0194786636537811,0.2407757443990806,0.4597637616295701,0.5774328124084555,-96.37899346019758,83.37638499779446,160.25025330354106,0.075819030138339,0.1186547303027647,0.0543237637628918,0.2675116411808949,0.2427853520638355,0.6849918028868133,-150.9167014947796,41.031365246986304,104.45727514501392,0.4923087133434725,0.1488887147754216,0.6518287689177609,0.8954924025300206,0.7163517231428169,0.4374469978273482,-81.94301143392049,61.42930106039215,153.3452524348246,0.1545845823741927,0.3784906531850683,0.2038842944822669,0.7543781988910089,0.4452560050823182,0.4209043050133794
1.47,-105.97076401662662,85.55988062559425,178.62130207748143,0.1033328101191259,0.1362449181553478,0.0197289155078536,0.2338938604634018,0.4486046077708943,0.5591076532678008,-96.42239351471528,83.27543819896832,160.33883896919377,0.0738085107813891,0.1304192603002837,0.0555339372344603,0.269861545081928,0.2667191352919872,0.7199123130272489,-149.68192846791504,41.800002707204094,105.09883588292922,0.5021856466828611,0.1554066647397548,0.6515922102277184,0.8422741568519132,0.6500672569530976,0.3866574946034506,-81.81817381228024,61.65365580153594,153.35386187076006,0.1468969856004027,0.3501952715191688,0.1923752386146514,0.7775648368783649,0.428858352348504,0.3945800996414066
1.48,-105.84687112531272,85.45493190543309,178.65735125675496,0.0938369355752067,0.1291114857129764,0.0207869802044722,0.2268130943897722,0.4410391870192244,0.531460867923084,-96.46951225366053,83.15130499548974,160.40527952678798,0.0766917105424967,0.1412595449683851,0.0587121988155556,0.2759726260961943,0.2946316214837751,0.7498447263891489,-148.40256573237767,42.57367455699368,105.7114046643646,0.5083854661857925,0.1642638465128524,0.6410517969724477,0.7875818625918108,0.5986959339285498,0.3449679491282624,-81.73338481288799,61.87175238918925,153.30509901248826,0.137868780974156,0.3206901006620872,0.181943426736626,0.7898891783136042,0.4109416057721886,0.3756847467874798
1.49,-105.74312203743158,85.3541800003487,178.69002396315537,0.0864847830102502,0.12284077810836,0.0225034710010486,0.2200656953908727,0.4370850051392297,0.4964131804347943,-96.514152436725,83.00646862699601,160.4428024528096,0.0844306269396677,0.150488921378266,0.0635772949324826,0.2856630455604958,0.3250994051081171,0.7729459315225983,-147.10134366329407,43.33764815394982,106.29120599354684,0.5107203687181043,0.1748599185513082,0.621112068952657,0.7344027413884455,0.5621029372829751,0.3136342895207833,-81.68612878023498,62.07702231261624,153.19194642982202,0.1279206214689625,0.2907041404259122,0.1729229423902948,0.7900529035346452,0.3914485551387522,0.3632115061364904
1.5,-105.65806982518204,85.25544053744268,178.7188837740063,0.0815817579976672,0.1183648229059865,0.0247362208146859,0.2141293464615715,0.4366583673619885,0.4562778682165478,-96.54982447229652,82.84442986613723,160.44298823636345,0.0966084175030868,0.157485675665166,0.0697297665411947,0.2984608367032959,0.3564447850910275,0.7878294359680632,-145.79991964090283,44.078897404462175,106.8355401906978,0.5091087879908454,0.1864647373369028,0.5930667798410459,0.6850346419301986,0.5394713037477613,0.2933579372452964,-81.67220172482651,62.26395208512376,153.0122074353243,0.1174230785042572,0.2608998350932264,0.1655267118315649,0.777472054016396,0.3704859124141274,0.3554837827168047
1.51,-105.5900001839228,85.15590063817876,178.74369134797075,0.0792833374622304,0.1163376318861725,0.0273590733137786,0.2093590054408285,0.4395958849200527,0.4136284221124408,-96.57010607752387,82.66964870453664,160.3972540854219,0.1124597018080032,0.1617616408695695,0.0766854797680947,0.3136471475168168,0.3868660554983832,0.7937150202080437,-144.5181595865945,44.78636683053165,107.34258358033716,0.5035530798506513,0.1982752552184221,0.5584809400169453,0.6409438111540348,0.5294245947634677,0.2842486729031183,-81.68609536401067,62.42860116997426,152.76973438117648,0.1066482295317858,0.2318232469488532,0.1598035180696036,0.7523515313919777,0.3483307559660513,0.350336186348277
1.52,-105.53702672002336,85.05247308731624,178.76432762998226,0.0796252892068891,0.1170516869565133,0.0302650287350321,0.2059447157760237,0.4456587001281801,0.3711866557542537,-96.56904107573482,82.48740064680457,160.2985410007774,0.1309284263696912,0.1630202697517622,0.0839116222008352,0.3303296631405291,0.4146072860073844,0.7905317896862822,-143.27366745098615,45.451079139867936,107.81119364470544,0.4941153641323701,0.2094660778549629,0.5190708223375688,0.60276822413595,0.5301146744188151,0.2857925056631007,-81.72150708493659,62.56902841766629,152.47472746630973,0.0957422518205231,0.2038700562271262,0.1556183953959963,0.7157241829751454,0.3254335993359836,0.345363111880273
1.53,-105.49707453363064,84.94219160101505,178.78071667685623,0.0825540470633679,0.1204044897608296,0.0333639901213396,0.2039014616490775,0.454508800929322,0.3317275050651769,-96.5415733918555,82.30354811610628,160.1429613076889,0.1507516609752597,0.1611947903170431,0.090865137090119,0.3475368509870242,0.438144823310564,0.7789550505018348,-142.0815579409111,46.06611030567424,108.24074520778916,0.4808979623297094,0.2192317705934144,0.4765837812297233,0.5704417896419947,0.5392703397354334,0.2968432351130121,-81.77189966925647,62.6855608364175,152.14311575206992,0.0847223031710628,0.1772688526256029,0.1526583844437995,0.6694332577612316,0.3024068075333193,0.3382203003545438
1.54,-105.46777550077456,84.82259492102533,178.79275521563574,0.087948542789868,0.1259168010823657,0.0365765618689464,0.2030907346580642,0.4656637851741284,0.2979838894190633,-96.48399997077702,82.12424025031068,159.93114009964148,0.1705651666662828,0.1564595197323622,0.0970341570508385,0.3643201232004741,0.4563596629575336,0.7603589043912634,-140.954440435966,46.62646211150573,108.63101370929752,0.4640325980810573,0.2268233768403517,0.4326854160758189,0.543393438417017,0.5542218578760729,0.3156598003854532,-81.83102865128922,62.78085355900065,151.7951725593473,0.0734986744077817,0.1520826439828645,0.1504602556608309,0.6160451938720733,0.2799895527025013,0.3269592606760792
1.55,-105.44632664677688,84.6920539140699,178.80025488588564,0.0956275465815741,0.1327976196536921,0.0398260423290645,0.2032691878455498,0.47845264068311,0.2725331062748584,-96.39440844456028,81.95556573555008,159.66900656386258,0.1890221956845846,0.1492112614096225,0.1019811535588992,0.3798470552634519,0.4686642060704674,0.7366771231217217,-139.90255399870492,47.12886979924684,108.98211090300283,0.4436805237672334,0.2315832265341036,0.3888657009069187,0.5207684644433577,0.5719335839970483,0.3400027340179699,-81.8933605329657,62.859709227552536,151.45361900667774,0.0619206496562398,0.1282288509085154,0.1484538482715897,0.5586989866219367,0.2589898000334794,0.3103666787362614
1.56,-105.42937911494091,84.5500062680376,178.80290126061828,0.1053416846003028,0.140045914659158,0.043030851901089,0.2041564586907533,0.492000346940432,0.2576568190720629,-96.27304575826604,81.80319130327321,159.36786532071787,0.2049121742533895,0.1400222932570894,0.1053827903159487,0.3934674884888253,0.4750580093073251,0.710181414204331,-138.93397526904425,47.57158774422655,109.29446922718104,0.4200433767554013,0.232981046035695,0.3463754502031304,0.5016292952901946,0.5890851264233677,0.3672875302846963,-81.95432105080982,62.92864622644368,151.1415167047082,0.0498420191658294,0.1055173072130623,0.1460155795384914,0.5009196043228916,0.2402134814019942,0.2882723216695654
1.57,-105.41302470502907,84.3970752865276,178.80023256763187,0.1167557967792325,0.1465757890703686,0.0460993487609957,0.2055102016392111,0.5052603182556091,0.2551809820273225,-96.12255045390692,81.67202112427732,159.04369465992318,0.2172639740464408,0.1295714915373922,0.1070583528997552,0.4047406755975855,0.4760963307396889,0.6832031713224146,-138.05482136196707,47.9541942589277,109.56886397973248,0.3933818367869227,0.2306514679270881,0.3061989078218502,0.4851108792467389,0.6022343293987708,0.3947786902806577,-82.01033577394975,62.99522755235306,150.8802448691138,0.0371999792482653,0.0837051922256767,0.142529128227638,0.446431574637935,0.2243952243132769,0.2617813930417991
1.58,-105.39292951626908,84.2350617086693,178.79164148781518,0.1294323579200765,0.1513497728141113,0.0489284843661475,0.2071926003783913,0.5170961258820439,0.2663109246264643,-95.947983655385,81.565908386045,158.7157559123628,0.2254215352518706,0.118564856406382,0.1069789404817965,0.4134258723832179,0.4727671821587518,0.6578394029572331,-137.26939000533525,48.27744498154579,109.80645693677523,0.3640370240189322,0.2244296081810974,0.2690592269886411,0.4705228249583871,0.6080719748995879,0.4198014497360676,-82.05865281780677,63.06718515358817,150.68780771886395,0.0240993934327302,0.0625670432569884,0.1374514794879076,0.3989998784206875,0.2121444532625756,0.233385169957923
1.59,-105.36463483002332,84.0668103307343,178.77640460724956,0.1428275272318597,0.1535038707103717,0.0514071595931399,0.2092126055618794,0.5263966856582583,0.2914803859239969,-95.75661754901898,81.48744122556053,158.40472463361607,0.2290857045600342,0.1076589975474893,0.1052541693645576,0.4194529228268995,0.4662909702429747,0.6356924053869499,-136.58021137294557,48.5431848943244,110.00884162945384,0.3324487666293671,0.214378780210071,0.2354458654611858,0.4574015391062391,0.6037481150509102,0.43994937578757,-82.09696886848951,63.15139655550736,150.5776313890021,0.0108931488018036,0.0419763949480175,0.130382306722865,0.3623074140703463,0.2039182673799812,0.2069112312591415
1.6,-105.32401088133729,83.895966255785,178.75374424703958,0.1563075410945992,0.1524482386680062,0.0534243939241769,0.2117336350306878,0.5321990192929659,0.3302361695732015,-95.55748103757251,81.43781484790688,158.13063651529131,0.2283210494044168,0.0973993621065074,0.102099881912773,0.4228937427932911,0.4578804171549691,0.6176907103951601,-135.9880183524775,48.75430809097339,110.1780703818037,0.2991652492246862,0.2008033943796307,0.2056504133839324,0.4455201839045288,0.5872250755909418,0.4532714385690197,-82.1229131650385,63.25278931822897,150.55789667252117,-0.0017512609919342,0.0219931906634848,0.1211340685656524,0.3398629572030471,0.2000276232853574,0.1872920922660171
1.61,-105.26781427380864,83.72664784816084,178.72292570672613,0.1691866444949001,0.1479302523948757,0.0548812481380869,0.2150445725482665,0.5337907749685905,0.3811822186735843,-95.36070701438663,81.41679349848441,157.91095820843086,0.2235284454232672,0.0881802336925377,0.0977957794515102,0.4239472487837509,0.4485160716401034,0.6040224208238716,-135.49166629620956,48.91473811927848,110.31664701452,0.2648398806285504,0.184240890701958,0.1798002574080417,0.4348648370691066,0.5575974059081754,0.4584269801383764,-82.13347313115142,63.37326367093871,150.63134441331502,-0.0128085487671817,0.0029485724383322,0.1097990412217034,0.3349250796051799,0.2006744679739402,0.1801561311092864
1.62,-105.1942678845182,83.56307318975962,178.68338996957772,0.1807816777716067,0.1400528469613407,0.0557039416716245,0.2194982680335922,0.530768391032614,0.442003980865097,-95.1767598205209,81.4227603423286,157.75904848589025,0.2153855916226719,0.080228486876416,0.0926435231301597,0.4229339983303104,0.438792748523812,0.5941838565481589,-135.08804835403689,49.02939330825831,110.42747587406416,0.2302135167106929,0.1654294010511374,0.1578851740970603,0.4255855055896805,0.5153168087897444,0.4547988508476623,-82.12446120107997,63.51073527816541,150.7954248090922,-0.0208842270387598,-0.0144833498455885,0.0968076697257337,0.3504245226879762,0.2060059682744515,0.1912734249969435
1.63,-105.10355960650747,83.40918202098501,178.6349178495622,0.1904751877404539,0.12924883576661,0.0558546620278512,0.2254257465878282,0.5230358648045647,0.509583302234542,-95.01563689635968,81.45284881243232,157.6831903042631,0.2047607306382255,0.0736093900635511,0.0869335003270412,0.4202823464479724,0.4288732444558796,0.5871173591213394,-134.77205850674886,49.104102506148216,110.51376595743022,0.1960831705731247,0.1452524543909163,0.1397776181435817,0.417931633756846,0.4622759177672821,0.4425555584411865,-82.09011973674086,63.65840799873298,151.04266239004022,-0.0242411900288134,-0.0292381066328344,0.0829713715714377,0.3888687624754149,0.2161620861708102,0.2259158020586548
1.64,-104.99815306879395,83.26829446119994,178.57781505051923,0.1977782902315711,0.1162187074207562,0.0553371356105864,0.2330378731842808,0.5107455687480758,0.5801973398177999,-94.88613563689267,81.50314506766107,157.68627321150709,0.1926092094488748,0.0682505815387101,0.0809238227149067,0.4164859975115255,0.41855505556545,0.5813960322206604,-134.5366493564428,49.14544771188128,110.57889734300936,0.1632610836444724,0.1246668381309065,0.1252510099376092,0.4121817805396386,0.401737475011115,0.422655676735598,-82.0229414153002,63.80438718313836,151.3611605049649,-0.0208675795903284,-0.0398487288882029,0.0695029743585379,0.4522193481539623,0.2312904036247118,0.2882088069489179
1.65,-104.88282681260972,83.1428415838354,178.51309680492088,0.202384055921004,0.1018433190160949,0.0541960051786459,0.2423290150243449,0.4942031691476378,0.6497772632559424,-94.7952600055485,81.56894849246636,157.7661036635449,0.1798654646890648,0.0639793521364561,0.0748305016456023,0.4120268460029743,0.4074234023894966,0.575415322470273,-134.3730151636714,49.160528647087766,110.6262649880462,0.1325294381608221,0.1046227725685651,0.1140006973113516,0.4085765406268383,0.3381282353922113,0.3967924085644063,-81.91375292399833,63.93173287593798,151.73523412876307,-0.0085855974367391,-0.0444776498584443,0.0580082618496415,0.5417463012474337,0.2515118142376296,0.380559549181798
1.66,-104.7644056247764,83.03419294303403,178.44263641217358,0.2042010803430766,0.0870841518285787,0.0525111887961723,0.2529974426170088,0.4737724658845978,0.7141905624315248,-94.74781744357482,81.64507563720431,157.91623001807656,0.1673431507106421,0.0605678980718184,0.0688249621921708,0.4072774463127897,0.395039581666303,0.5675639993867795,-134.2709075779033,49.156664234823936,110.659120422807,0.1045957804280508,0.0859863445002517,0.1056699520884781,0.4072648293505266,0.2767327443543845,0.3672808911475111,-81.75207774878655,64.01902650695267,152.1462017995219,0.0148037003086331,-0.0409977731477174,0.0504419980722231,0.6578807363162413,0.2768397102391522,0.5032383484265167
1.67,-104.65120528209758,82.94259425839086,178.36923010161053,0.2033577912258636,0.0728835480139425,0.0503893845444863,0.2643955039617554,0.4498134790171834,0.7695098483404244,-94.7462296325544,81.72619106629497,158.1271041970761,0.1556545223345845,0.0577804878736955,0.0630348178653161,0.4024101762772384,0.3811070672823281,0.5563599241200871,-134.2190692409658,49.14106094881591,110.6804328937268,0.0800530959129186,0.0694734889492804,0.0998798248052508,0.4082748221026949,0.2233216725658168,0.3368942243206708,-81.52676402859761,64.04148425364193,152.57336983664345,0.0513501015658035,-0.0271227157672237,0.0490225150732484,0.8000988154861832,0.3070736056890201,0.6541758150180923
1.68,-104.55226247908551,82.86721600822854,178.29653105236372,0.2001736097782531,0.0600761725749829,0.047954429853977,0.2755214025299992,0.4226695575749312,0.8122418891487363,-94.7905537466997,81.80714496631354,158.38737644343578,0.1451581586461496,0.0554155744504634,0.0575455265400762,0.3973398659528853,0.3655732113087143,0.540545833498015,-134.20575359314503,49.1204844829714,110.69278748568595,0.0593473672497111,0.0556031703005696,0.0962585255875468,0.4115171642720269,0.1837438462699686,0.3086570286946098,-81.22683703851986,63.97259727884767,152.9952093052595,0.1027741719085844,-0.0005800520231423,0.0561019750650012,0.9668713572144568,0.3416974494375892,0.8290132577151705
1.69,-104.47645315366309,82.80630193904162,178.2288249533152,0.1951020215732357,0.049320706665964,0.0453371560745267,0.2850634132863296,0.3926963608801077,0.8395083131439006,-94.87868672291977,81.88329312521404,158.68513448177308,0.1359414358654161,0.0533359039195086,0.0524026925361078,0.3917176754594696,0.3486539568153777,0.5191483140075003,-134.21928942349876,49.10096792998177,110.69833031177426,0.0427547322760074,0.044674475906988,0.094464700492569,0.4168183253627237,0.1635064419253104,0.2856086996471402,-80.84251177504508,63.78621748303389,153.3906778302811,0.1702966498955015,0.0406850928697243,0.0739949180459919,1.155704090652762,0.3798127729525977,1.0214160215067054
1.7,-104.43161206351564,82.75739672276073,178.17065475031683,0.1886586229201808,0.041057516601791,0.0426648986951398,0.2915033868020095,0.3603078527689907,0.8491849789532953,-95.00670714319392,81.95077271035635,159.00894166382787,0.12784008264918,0.0514816218759454,0.0476159716512703,0.3849813340006205,0.3307952942431384,0.4915088114923243,-134.248645991318,49.087577873079766,110.69876257698245,0.0303697887073985,0.0367681464521964,0.0942002863701858,0.4239706241055855,0.167364061618871,0.2705528024602601,-80.3662785997527,63.458943406214665,153.74059635248136,0.2544972686337871,0.0982945742362741,0.1047747117301228,1.3632768435762146,0.4201309662987715,1.2236291797013237
1.71,-104.42375827518244,82.71762505198261,178.1263401760623,0.1813508190078643,0.0354942221408848,0.0400513700374239,0.2932771104502928,0.3260091076362758,0.8400122127220093,-95.16930023823598,82.00670909407691,159.34858348296277,0.1204919170580503,0.0498650305735655,0.043165345814063,0.3764532768991567,0.3125960086903909,0.4572980548826192,-134.28395710355494,49.08424475910331,110.69537793826768,0.0221057803603967,0.0317688099179369,0.0952118756391612,0.4327783502131789,0.1989355132327878,0.2658136965174917,-79.7939559466188,62.97260240308143,154.02896871260785,0.3552204388898708,0.1732326010723621,0.1500546362734986,1.5856689397879349,0.4610397530498913,1.4272241036860651
1.72,-104.45651080084224,82.68399089379139,178.09946494144492,0.1736242077682391,0.0326172921953579,0.0375884252016945,0.288975453681405,0.2903945286208612,0.8116809455834069,-95.36021149624884,82.04933505312044,159.69548526495686,0.1134165878764976,0.0485498019843212,0.0390095887839633,0.3654672568751345,0.2947139434814538,0.4165245316099621,-134.31696691374253,49.093653599714045,110.6891317789007,0.0177063153193592,0.0294014825465056,0.0972829660320009,0.4430806550087007,0.2603691121284213,0.273024584308795,-79.12559364273974,62.31658098038,154.24413061871826,0.4715390313568381,0.2656762558274301,0.2107761825165859,1.8186369794046096,0.5007472796739033,1.6239532757935888
1.73,-104.53075031190907,82.65366565544126,178.0924151322513,0.1658346782369647,0.0322246272176551,0.0353412635449874,0.2775564163600784,0.2541080211515943,0.7648861409203348,-95.57268140482016,82.07801315756242,160.04281054106593,0.106109021376762,0.0476207352244028,0.0350959707577619,0.3514987928374164,0.2777726199904652,0.3695427476356034,-134.34136375662703,49.11719053357776,110.68072743684876,0.0167672506307436,0.02927551535502,0.1002214826052648,0.4547419732852846,0.3520822364311388,0.2929704260521983,-78.36611411403065,61.48973357472984,154.3796250161258,0.601778226857333,0.3748833001058718,0.2870306519766538,2.057896685280374,0.5374934079751545,1.8066034335346743
1.74,-104.64455037630938,82.62423715549133,178.1060463457481,0.1582468015342816,0.0339720833337525,0.0333475802577115,0.2585300155726325,0.2177792366724424,0.7013282061703491,-95.7998255491594,82.09316351532084,160.38529020964768,0.0981321723286238,0.0471516061409581,0.0313700463074466,0.3342751094574021,0.2622820115612028,0.3170585002575523,-134.352971813399,49.15494807439952,110.67070388684266,0.0187667470739304,0.0309304471658335,0.1038470126153889,0.4676150966435687,0.4726048597378252,0.3255038395744737,-77.52559990975784,60.50160756630485,154.43471024550666,0.743591555437517,0.4991532583985534,0.3779406654324098,2.299359092334827,0.5698005102006589,1.9697240296051937
1.75,-104.7933694558078,82.5938965178105,178.13953580672646,0.1510511723432487,0.0374262532111274,0.0316199434271439,0.2320792814578934,0.1819592219919565,0.6236421912929441,-96.03493871593626,82.0961099573809,160.71886730303186,0.0891949103561959,0.0471781323083896,0.0277845305710193,0.3138447605548942,0.2485846665382981,0.2601211404669278,-134.34977761038033,49.20579953839121,110.65951191019148,0.0231012542727898,0.0338798267426016,0.1079809829528974,0.4814933498791078,0.6185574116689176,0.3695441187781955,-76.61917237704542,59.37276299106018,154.4144111493813,0.8940744388179298,0.6358690234659997,0.4816251827024101,2.5392845577375485,0.5967153346672021,2.1101188469390784
