0.02,-313.5273132970019,84.61488841301222,4.822375802727354,0.038447167218668,0.0148169956445533,0.0112516803488296,-126.43517423968022,87.1909747928185,177.25449511870227,0.0467059731257189,0.1091466283568238,0.0157438618632156,-169.0830768753564,1.576506710092297,11.170810975586374,0.0030024778690028,0.0061205728636074,0.0199985971991518,-158.45553706660232,14.065039653223304,9.439112742450282,0.0510585440162678,0.015030585115501,0.0029891084209075
0.03,-313.56364856676265,84.62616336867144,4.8201079009156365,0.0421330275436713,0.0254370710476613,0.0148478357873079,-126.42712247993164,87.19386317054351,177.23601286195083,-0.0141723820694365,0.0823837502595817,0.0179408688344545,-169.04890460681716,1.5695803659602063,11.249849870322402,0.0042679868159427,0.0157401138876737,0.0043618477207283,-158.43828987884035,14.129608321545383,9.438213890787642,0.052111258307605,0.015628687157962,0.0089757551215759
0.04,-313.6272224521473,84.57620819827356,4.78603245456052,0.0052452517296869,0.0223994030441687,0.0001970767430351,-126.44520357522616,87.11252427786668,177.25242415216164,0.016725095197822,0.0673637479498524,0.0195426462297915,-169.0229958884868,1.5421877399661914,11.244961859933472,0.0321732705785703,0.003396938069825,0.0020772885034943,-158.42826724244108,14.130896756192527,9.506437979528274,0.0436959905291704,0.00854113337976,0.0268786558468218
0.05,-313.63144019105687,84.54747547936893,4.826490198647563,0.0432846661239907,0.0243079335043545,-0.0001315618610646,-126.4470714033922,87.1187883017766,177.24736813975625,0.0267578838410689,0.05573762738742,0.002996048998172,-168.99070394207897,1.5759466959336192,11.304883406450887,0.0201536754903669,0.0060289702514671,0.0106396673802602,-158.43456609724433,14.130854754371512,9.553989478913934,0.0247798083975524,0.0265333089547312,0.0094123945692401
0.06,-313.68386762579127,84.55350096196221,4.794668066427942,0.043272119307796,0.0144869694083432,-0.0076186806057636,-126.49522457793243,87.11438122091388,177.244042088037,-0.0009176288859254,0.0784169783722733,0.0196567362854883,-169.05258555617087,1.6137455337338773,11.308908201558674,0.0041387648596816,0.014583777905691,0.026697355846295,-158.520730436141,14.171156469829526,9.636322990968306,0.0356635926122741,0.0241207995781243,0.0377849249378783
0.07,-313.74774898735564,84.51019093347254,4.804126203540792,0.0456015309877167,0.001168095902207,0.0054619267277337,-126.49065690586752,87.06436270432499,177.2465682715549,-0.0060051424053484,0.0619811915084118,0.000761405525176,-169.1092656658581,1.6204045955987083,11.348977642661406,0.011067148295547,0.0294574988354595,0.0360096649349732,-158.55896219789724,14.183637097349145,9.691937233173997,0.0184138578652981,0.0365958747606459,0.0839868497738048
0.08,-313.80779461711006,84.5003515015046,4.824664048498213,0.0395104174163302,0.0141745752210418,-0.0106238001577311,-126.50280320953117,87.06039677545456,177.25838759560727,-0.0040991314069847,0.0326554139276095,0.0073153912596303,-169.12460989625566,1.635965071707581,11.378352446328668,0.0124210167830652,0.025806492525558,0.0509887282164411,-158.63812539581585,14.18516520594398,9.687171888680725,0.0052108373766476,0.0185607223053301,0.0679442524814388
0.09,-313.8609511236467,84.50404357661849,4.818336283942216,0.0603728008597141,0.0114771459866079,0.0099834235040423,-126.55194885022924,87.05727571618542,177.26639915325012,0.0207463680986331,0.0293495248457254,-0.0078501624307915,-169.1151657686258,1.6205361486964878,11.4512555264037,0.0191999332395191,0.0446907517456169,0.0431670253373396,-158.71146991456948,14.190214413374646,9.739782788225734,0.0300241847526395,0.0250368586901584,0.0791239396085091
0.1,-313.9400256456195,84.51532855729421,4.811413703812638,0.0690756911981958,0.0171290349725112,-0.0063191783385925,-126.58229354195876,87.06586813273425,177.25782349509996,0.0291089972731431,0.0177732824731324,0.0072166992909569,-169.19260923962082,1.6457676214819397,11.471337734747513,0.0126606208001288,0.054337156263853,0.0377266937143336,-158.8137115953749,14.190461030654005,9.75492493675373,0.0025807883928638,0.012516442788845,0.0749545891413118
0.11,-313.9921482009905,84.50619973729407,4.813130700600563,0.0464517694569719,0.0042519693390596,0.0043932882410881,-126.56064259235264,87.07409644692773,177.25722492883125,0.0116615480931544,0.0193365083445827,0.0026818606764753,-169.23532993215892,1.680339281695301,11.499626373872433,0.0316335226935954,0.04377951983114,0.0402820493180418,-158.84230401517496,14.214424334156142,9.751549800056148,0.0166077783480126,0.0304089985692833,0.0793326659939087
0.12,-314.0048471828596,84.4912032412254,4.800651029835541,0.0610328912863732,0.0101969030430667,0.0317675476121413,-126.55469209933682,87.0691696962444,177.23779890619363,0.0271971172219833,0.0385623561344752,-0.0037469576569853,-169.2567888095076,1.7002677309826462,11.49811779808224,0.0161364940445968,0.0313349763479555,0.041949962437979,-158.86512077279707,14.236784270503705,9.76853442270621,0.0073649207286265,0.0142744028818632,0.08024167627211
0.13,-314.07534032508283,84.48195615036566,4.762392542500206,0.0777723181645641,0.0083354382947927,0.0174784013406734,-126.61974748847314,87.06149784796933,177.2543023261298,0.0393325318767792,0.0440813044406271,0.0144496333996576,-169.30117661482635,1.7502221186243172,11.505979006251543,0.0194115327349444,0.0484103870627863,0.0041111279365087,-158.95826092657668,14.237473200820729,9.7813838945847,0.0092762294051934,0.0302021770251747,0.0969785782353431
0.14,-314.1105113134311,84.5207622772899,4.742357955412909,0.0542685157195161,0.0150384861723964,0.0088294129121765,-126.63058774165027,87.04616669451366,177.24700928186317,0.0001182412426181,0.0050555918716244,0.0145692252985855,-169.32060987580462,1.741901604123163,11.552839394018656,0.0301859565338657,0.0166295013698495,0.0279797162381775,-159.05503873817406,14.243472902526689,9.821970956645258,0.0017214672087966,0.0348198712251117,0.1125901261526864
0.15,-314.2041728011864,84.52124440995821,4.73935933861955,0.044069542381151,0.0041079656417861,0.0054614313562915,-126.62377822746896,87.11854500912979,177.23007354433346,0.0667711439042855,0.0674024373756092,-0.0294339497554212,-169.3711217832721,1.7522505411349123,11.552055378938178,0.0288457832618992,0.0200581609216255,0.0627286778897615,-159.2047306844571,14.247903762312776,9.8046524263708,-0.008484995395626,0.0250911808594401,0.1116845250397415
0.16,-314.2506481238331,84.51361073314077,4.751313276986367,0.0420454681103937,-0.0120016834262725,0.0148454851357623,-126.76937745992012,87.13674439471774,177.22585222189224,0.0999576110086092,0.0692966347778533,0.000269253873598,-169.43335622137892,1.8023427050279464,11.62913504975444,0.0255211300024132,0.0298697777095935,0.0543680880701785,-159.31565528468545,14.186150170066256,9.809830724540976,0.0102698134757055,0.0082893176983265,0.0672302269408329
0.17,-314.248170016651,84.50165367266877,4.752698318228122,0.042417531530501,-0.0007131039834555,-0.0080458375559235,-126.82464084931756,87.12742377142283,177.25802350789374,0.0167286912709392,0.0656052611695619,0.0075396609275848,-169.51177251776215,1.8078346980848228,11.626374075657676,0.0070887500482611,0.0269141257385894,0.0809947866479683,-159.3713079585377,14.19447572495407,9.87355552678827,0.0207594849271987,0.0174409624320551,0.0548755829430376
0.18,-314.3089369721493,84.49685906364368,4.751845076003455,0.0175665371491433,0.0148281267417334,-0.0081172168217297,-126.88040350565244,87.1201960640635,177.2612163019887,0.0332239822849309,0.0407478384968649,0.0185596900509962,-169.54959588334722,1.7956372382716503,11.691702877958228,0.0304857409794356,0.020592537249383,0.0949914981159349,-159.43370064433708,14.193422317224917,9.805642460471256,0.0260730937584422,0.0181426835532173,0.0452850722473688
0.19,-314.3156231316322,84.50961572418615,4.754396054792629,0.0211107016609505,0.0123550173034724,0.0127491109916343,-126.8565408105866,87.12134137800764,177.2668460137361,0.0508380231171956,0.0966264163951078,0.0350391604040992,-169.70834159248406,1.8013296794694855,11.70313357893312,0.0168290577749658,0.0297373856920842,0.0839269920596507,-159.50678719132802,14.192146568815485,9.795278900052017,0.0162521258536284,-0.0042918074492907,0.0533828962575129
0.2,-314.3013420404845,84.49999913301131,4.759795331146896,0.0230015003837022,0.0092968287642834,0.0065579231821475,-126.9391507456428,87.14835571784397,177.2578854373873,0.0732911183724854,0.0747065319121889,-0.0103693841742752,-169.87623278962883,1.7921459277965248,11.71363538253433,-0.001323232614574,0.0318579998474278,0.1168636721640216,-159.552128977124,14.169361731586722,9.806632660894826,0.0393258198234449,0.0229882403554532,0.0599563660242785
0.21,-314.3882642517064,84.51246194919317,4.751225103347135,9.86664365984144e-05,0.0024578578401547,-0.0113415610871641,-126.9926835029882,87.17575458607755,177.2487853422624,0.0684135507787821,0.0475829412315655,-0.0153222018220597,-169.92585265358022,1.8209824468025928,11.695217202501077,-0.0079597072270427,-0.0010477872310319,0.0904599133333275,-159.70884970857503,14.175227727217491,9.82054316159562,0.0143634746302248,0.0077504032566703,0.0501106067695927
0.22,-314.3712205003587,84.48608824853066,4.758639391776487,0.0293859767378996,0.0081825039845854,-0.008574740464348,-127.05670998658518,87.20618855512316,177.26194605714414,0.0740906452386831,0.0635368338253247,-0.0061784594172311,-169.98574641632518,1.798311687771556,11.684964481765816,7.317441935625595e-05,-0.0041332994464127,0.0865969759737032,-159.7217810846563,14.154880628229677,9.808779039136232,0.0482661846893553,-0.0034607984048904,0.0553304549122551
0.23,-314.3573996447733,84.51808096135859,4.726028634301803,0.0231912123324814,0.0227023137271047,-0.0171664121102982,-127.11849345904228,87.19279142813829,177.2634430610462,0.0669914016452132,0.0744630888101654,0.0011121181463676,-170.04616290067037,1.776859154913636,11.691429098340077,0.0001306986669971,0.0049360258094699,0.0952405567162443,-159.73144444855097,14.140536160152005,9.809140864629082,0.037308817714813,0.0063588930022557,0.0489712965346489
0.24,-314.3716222427999,84.48155364671064,4.751008926769743,0.0115628798363657,0.0122933858295668,0.0031962437054772,-127.2101075615103,87.25093727874844,177.24011765830804,0.0328362000104332,0.0856194773350165,0.0076910860628637,-170.12863610986557,1.7381713060277564,11.699787884548783,-0.0053691921599458,0.007036470708804,0.0593785552982184,-159.79880583132945,14.131136356685404,9.745646891840323,0.0292956616705877,0.0018415423615342,0.0202952300168912
0.25,-314.37424090579947,84.49644379535349,4.758697075324146,0.0350784713971875,0.0166342349744341,0.0106239293684645,-127.1824789822388,87.24045696136115,177.24104332956634,0.0298190309432329,0.0760509256662945,0.0109489866220273,-170.1802238166261,1.754883401831496,11.692035821415423,0.0125147841326701,0.0054141845725494,0.0627744395330121,-159.85611377653564,14.131650680046388,9.750067613141365,0.0501470897968223,-0.0137542002577519,0.0673887006154409
0.26,-314.4289032916881,84.48042462203907,4.754691463781791,0.0286842255164068,0.030889500120267,0.0094511456823996,-127.25161324967914,87.25881088715664,177.2382903556737,0.0311332757470166,0.0151899039664814,0.0086311673448,-170.24152843452737,1.763959135829382,11.68985787576319,0.0161327523749173,0.0011975763815534,0.0708029621338717,-159.92416555479497,14.133151506051634,9.682561611259192,0.0276375214962216,-0.011048664058491,0.080896993659716
0.27,-314.4475977436845,84.46781852347668,4.749685561568661,0.0118151941245592,0.0331531607062007,0.0077500732059998,-127.26263042919216,87.26076577633337,177.25173060602685,0.0277850339947492,0.043918657912712,0.0011844293072939,-170.30011650407133,1.7533837877956369,11.673733052285636,0.0108754487341182,0.0243275478798176,0.0493452449374752,-160.0062560194385,14.130929080432036,9.699449034748683,0.0468676620523864,0.0067350567196124,0.0854769102960607
0.28,-314.4464587980273,84.44393274036963,4.757630369032067,-0.0038461848695556,0.0243222246136244,0.0046379821716002,-127.31047718083988,87.24484853043343,177.24560428707875,0.0001325523737216,0.0469228133150144,0.0077468724833204,-170.383256213784,1.751501611772714,11.688533826445497,0.0001493630056085,-0.0008281816906318,0.0403007624664078,-160.0634295905125,14.116844792951214,9.662126892074,0.0441578577341392,-0.0007927339222806,0.047468870132953
0.29,-314.38260209875824,84.44455301620374,4.752883965050361,-0.0167360987879115,0.0151750588912374,0.0146929061721523,-127.3002812219501,87.24830205308967,177.24805452887094,0.0186236376169787,0.0844368720837994,0.0092759212302304,-170.4377276922675,1.742843443999864,11.69108096051927,0.0010384319744973,0.003838916646846,0.045290729107178,-160.1216386051122,14.145918077796535,9.628044115935236,0.03597196221371,-0.0002575308832854,0.0419647977809057
0.3,-314.3801326102352,84.45248901710126,4.756919721775841,0.0026279285282381,0.0170321226613363,0.0001223454611524,-127.32105913710087,87.25643745262626,177.25932864247622,0.0096616196817158,0.0350541326287378,0.0080189957825784,-170.48929547589,1.7631732374145124,11.683279661383695,-0.0053311712748213,0.0413276123834245,0.028098222503459,-160.10967972101454,14.047329836650404,9.622918803834636,0.0081892043222614,0.0012793459346593,0.0300183808262901
0.31,-314.3754978935408,84.42715848233017,4.740572498319942,0.0213325124722231,-0.0026364568263243,-0.001118554204999,-127.29883038224884,87.25964303542891,177.24363290768866,0.0099421846634729,0.0327770654633273,-0.0039965098772728,-170.54740252156265,1.759091970846093,11.684645906560696,0.0214963171135227,0.0143722464795429,0.0484170057371602,-160.1334910876383,14.052566535628593,9.619291797817633,0.0065626297273871,-0.0098605494398989,0.0277894699255433
0.32,-314.3754745674242,84.44189745728646,4.7604682017993225,0.0016933847549757,0.0093334207611807,0.0051484964669011,-127.30112135225056,87.24762292870838,177.2324390655733,0.0133038856583824,0.0504257021186564,0.0099390323201506,-170.56307885306197,1.7549881200624795,11.69621790744589,0.0214340988112771,0.0078180831636619,0.0224825146432582,-160.19095494917232,14.064744903614304,9.63814752118705,0.0090074699570747,-0.0291923289845531,0.0032454454622721
0.33,-314.3661834803953,84.4520843993384,4.749969554738385,-0.0004267256311208,0.0144080852253075,0.011273037161025,-127.33498984694752,87.23768479806333,177.25259865045783,0.0152558121964085,0.0818850621429092,0.0011645066415487,-170.56249577066086,1.7574845816546198,11.661497924347438,0.0162416849862699,-0.0024824616720336,0.0102825270645379,-160.18699747753803,14.062725038595564,9.620760252074737,0.0185529211212859,0.0104249672707346,0.021757522976833
0.34,-314.3715291582498,84.43575503427355,4.753456004729311,0.0196463405059728,0.0241419299187667,0.0128678300089312,-127.39688072208462,87.2443752618003,177.26002995342682,0.0200788217575924,0.1086209691657292,-7.654787832791567e-06,-170.569504950433,1.7285112590090026,11.66985283800439,0.0237382920196794,0.0096143406975993,0.0276239815611947,-160.1979009600336,14.059061117209025,9.61378290706107,0.0199325847266155,-0.0194810526126343,0.0069292091825679
0.35,-314.3908330954477,84.44238705299642,4.753005569345437,-0.0073507703953284,0.0063792693341132,0.000166274588732,-127.41466698996744,87.25568156167138,177.248395312353,0.0136904053737252,0.0881598010417347,0.0118857335176256,-170.56615517829766,1.737064807708626,11.6296974962825,0.0227659961082102,-0.0199526994919026,0.0084398879017989,-160.1916769145368,14.064115842047933,9.635118379507617,-0.020064360642884,0.015282205336792,-0.0091392869406283
0.36,-314.385629160236,84.3590002518348,4.758094588475177,0.0170927482428047,0.0149061939972538,1.1917704127223355e-06,-127.46116762184784,87.26260791343135,177.24833516931088,0.034592496217609,0.1000046042116488,0.0270578103945498,-170.56067557813657,1.723874694593995,11.624619746369332,-0.0186514760771725,-0.008422322511272,0.0159643958921454,-160.18858526291683,14.061873394971329,9.613986195849089,0.0005437261189989,0.0154441747232135,0.0040459415347882
0.37,-314.37258472092753,84.36722130432143,4.756234865033181,-6.792364535458846e-05,0.0251165156840451,0.0109801192167675,-127.45907814608276,87.25966334207436,177.25680693246443,0.0165608137272681,0.1154732745265179,-0.0016360727816539,-170.58136065207404,1.748523968188184,11.625283875179829,-0.0080951278464616,-0.0001143307123759,-0.0025115995176157,-160.20504367746992,14.054889849390367,9.62300082359206,-0.0018677393897993,-5.387019639625481e-05,0.0058897971193626
0.38,-314.37671054579914,84.35199835818167,4.742346114444327,0.0120769240572077,0.0039779618541735,0.0234701102996887,-127.45485150873029,87.24260965910169,177.24717757068586,0.0225855630209377,0.1123911463659669,0.0038322153385794,-170.55977803298182,1.7646224864758409,11.622245158574396,0.0204958958491275,0.0162510254724481,-0.0006545941170794,-160.19856803272452,14.084483869758344,9.620740698483576,0.0218198544645317,0.0047481673770908,0.0224246517738029
0.39,-314.3976058549716,84.36848159913201,4.746987413593984,0.005639887243161,0.0068419718582759,0.0030974247954752,-127.42951675959696,87.26229072526067,177.24512661663726,-0.0045437330789426,0.1067530946934772,0.0179956715620686,-170.6135140976697,1.7546173802733045,11.63713122975846,0.0224774817366444,0.0043219688952957,0.0076989791668866,-160.1247950274536,14.044863781250276,9.627957022080537,0.0085753195992331,0.0086852829228217,0.0527308124189887
0.4,-314.38054623633093,84.35740970392273,4.740652773386833,0.0036088640452932,0.0011133056518736,0.0130639753184174,-127.49302801987368,87.18174067521105,177.2368679376381,-0.0050376934260402,0.1011776811231272,0.0271947215914293,-170.62246874799487,1.7676502478454763,11.638703344087064,0.0259983097801946,-0.0281491479773839,0.0225195408327267,-160.05520149621472,14.12545094991099,9.552492032339533,0.0189802145154236,0.0149640335492327,0.0520031785801386
0.41,-314.3878646643061,84.3651654821165,4.743429860764434,0.0009458811409393,0.0008035318043337,0.0013344875094116,-127.5049244181686,87.19940645192447,177.24164172720077,0.0167984004215337,0.0986613353722249,0.0201110899659707,-170.62544702397312,1.7508535589641825,11.634815290357531,-0.0052236844946521,0.0064234329326114,0.0036326919613415,-160.01627628524898,14.131336974888624,9.552700927345786,-0.0010661599843363,-0.0019517175267369,0.090784438826338
0.42,-314.35868254428914,84.36539023099733,4.754234480496218,0.0062341975042151,0.0164861606112908,-0.0008144834100091,-127.49229337030508,87.1148231478034,177.2333163195022,0.0165099864482125,0.1217862225987342,0.001772639091308,-170.61376020108608,1.7488299496085988,11.623911261706128,0.0042081499310838,0.0130609335614251,0.0314828359790546,-159.8720425810794,14.137319500480162,9.568063030432318,0.0112453869837063,0.0120044609606533,0.0805421314866912
0.43,-314.3866307101929,84.36496733039658,4.74350683691364,0.0079107147316975,0.0229638301738323,0.0003308796255553,-127.51214882099148,87.07118492829416,177.25853622298058,0.003586729905255,0.1299970058767948,0.0126762876906627,-170.57440029169013,1.7515636061024669,11.637410592678473,-0.0087062050112426,0.0049862027344959,0.0504050939638815,-159.81063636287217,14.132592552747417,9.563356535636975,0.0071584783087875,-0.001190015880503,0.0554076503599237
0.44,-314.39027354589206,84.37461890361801,4.747961170929228,0.0195290443869191,0.0139887180592845,-0.0124977542150341,-127.50868585226468,87.02801600922521,177.24508812775625,0.0093749990832205,0.1242975932819494,0.019806647241855,-170.54013793126504,1.7545088277674197,11.647094674216955,-0.0095126605172377,0.0217546283389233,0.05197352182664,-159.76379283694547,14.123933683602836,9.52730760927384,-0.0021359912717659,0.002655282104199,0.0572464629704868
0.45,-314.37048547225595,84.37763260983634,4.752925984430738,0.0043376342515515,0.0115468271112435,-0.0012036216259833,-127.48213241063416,86.99576144928406,177.25280615382806,0.0207921304737403,0.1174828998698596,0.0004595752983391,-170.524336985573,1.7491748058092231,11.633017141118737,0.0013221810808002,-0.0012657320273845,0.0482525787525458,-159.75430240431734,14.114275566156584,9.51207213734311,0.0079660111613419,0.0138479623496201,0.053158407013019
0.46,-314.3687766841224,84.3733742613531,4.750989873782933,0.0023545356175276,0.0104914911868686,0.0283285539604427,-127.5756598927203,86.94264203835522,177.2607487138013,0.0306075123420097,0.154624810306868,0.0085381412073471,-170.4250509045257,1.755044521488632,11.626416350790423,0.0183056776772905,0.0180320859038344,0.0734748530353451,-159.68352180217886,14.182391109112798,9.496283391981455,-0.0078348455486254,-0.0018508591487758,0.0726765428962394
0.47,-314.3792841892845,84.36583376213126,4.753191329494705,0.0021084851260765,0.005424299146774,0.010160900474355,-127.58093484513483,86.90382376428704,177.26963023241169,0.0269706279533258,0.1170547355935367,0.0042179153894154,-170.3002135267697,1.7371864670243091,11.632546474155657,0.0215656654913838,0.0025010900436029,0.0644116899246685,-159.5682661882653,14.200361001017052,9.494373104816454,-0.0059576753925524,0.005123618096713,0.1189493685799778
0.48,-314.3760654261618,84.37461376371026,4.745757801236051,0.0164334708546797,0.0131841264255646,0.0219539209446767,-127.60284125571276,86.87184284028709,177.25177865302453,0.0110306065498646,0.0683690222515562,0.0064362874499228,-170.25304677129014,1.8147174989305368,11.565861254339913,0.0221035068072857,0.0088420141949917,0.0467582584280487,-159.3570985858727,14.189622672879986,9.436326656477783,0.02494971840185,-0.0021826043448444,0.145165924224626
0.49,-314.2955689765556,84.36965147540248,4.753853902945984,0.0051273135859198,-0.0064361013800188,0.0254742117832762,-127.63764784352796,86.8645901744235,177.24723147741335,0.0035156291474206,0.1076447443600833,-0.0046807622617763,-170.24074197685033,1.81030234025572,11.552621163388824,0.018154882290737,-0.0099970648947395,0.0236929988882543,-159.25058735747487,14.193439453020735,9.367970328083704,0.0252766171493166,0.0238168794911725,0.1529573279137503
0.5,-314.3114686610416,84.38243948622099,4.740885493798191,0.0264322819848307,-0.0050242621450755,0.0157764571274201,-127.5529206059793,86.82160152176489,177.23892488667786,0.0126065972090547,0.1287875664926151,0.0061516818723408,-170.1672731657847,1.8205931083603708,11.54149183119194,0.0339176194048281,0.0181511991030492,0.0434187546278304,-159.12915735253196,14.23999130786552,9.305642963895773,0.0597301807989012,0.018105552812179,0.1353051855803576
0.51,-314.30651419428176,84.38089734637204,4.747120576231367,0.0238497702757109,0.0044298661033135,0.0215875148362534,-127.56583031094426,86.70539572813001,177.2726665289673,0.0275114368655104,0.1771115095454105,0.0060914177261244,-170.1197279112108,1.813914752790538,11.497183348963263,0.0360866009896482,0.0164453251059656,0.0417145709733985,-158.951913410477,14.248756527293777,9.189270932327926,0.0759875534218882,0.0373314919009056,0.1196757770769033
0.52,-314.3023061070388,84.41099733857011,4.735703506014744,0.0013221976040695,0.010624042013013,0.0029796763779471,-127.61555071293004,86.62005073380348,177.2580811370885,0.0073412580270486,0.1652960569558997,-0.0022910190959986,-170.0824201711929,1.7908123103536422,11.445987687959343,0.0580567661755872,-0.0136522247887863,0.0878331706225013,-158.82058463134246,14.276384189370184,9.038272307293695,0.101260827172119,0.0260999848891819,0.1203509041779101
0.53,-314.3063076284949,84.44433014750103,4.748533885340052,0.0007543925072906,0.0365177327981881,0.0078689769049994,-127.61976924967404,86.5019557999283,177.25849053717454,0.0209474139601647,0.167140541185295,0.0077063568161824,-169.85663524765076,1.8857146381078145,11.378442165073292,0.0982991107560471,0.0155397702569717,0.2251711846263135,-158.68141948110977,14.291018274494908,8.884173988734597,0.084273886310055,-0.0048571916867961,0.1122326180731933
0.54,-314.2480415686203,84.42315655534549,4.683268767396913,0.0010872466913179,-0.0104891556863483,0.0071443569113214,-127.69575993829118,86.31386485352621,177.25735405772977,0.0409060391157111,0.1637118405254439,0.0131545108331357,-169.56324584227852,1.8980033977228017,11.320653368717291,0.1022286952272715,0.0496760444413996,0.2808220174566095,-158.614849256087,14.314620277815996,8.742759583171813,0.0593613178184932,-0.0194517142071109,0.0882519103742783
0.55,-314.2334981485961,84.43947354653957,4.691607152856506,0.0313953362279318,0.0077626650821194,0.001090587156419,-127.6929785907681,86.2208840072795,177.2384337645503,0.0119013138952453,0.179716059566177,0.0123081085144411,-169.45118525374266,1.906773484241776,11.266223314680568,0.0835977345738191,0.006308924745817,0.2587248037421935,-158.5506518300323,14.35765194234776,8.752527174993883,0.0454721731712724,0.0184236147001412,0.0751177897328503
0.56,-314.2093946158826,84.42722672803693,4.694573098154249,0.0472529649299182,-0.0093145878080726,0.0071833600550104,-127.71778095381246,86.17027182749393,177.2228780692589,0.0115016469472282,0.1981132984432428,0.0172998213892759,-169.30363785037977,1.931773453384616,11.193345912911568,0.0814734806734072,0.011660782686737,0.2273356197565597,-158.50473866133134,14.354745891534757,8.75705145413423,0.030107421954022,-0.0031175290813271,0.0697983942369539
0.57,-314.1975868960026,84.43916717418907,4.679071870654621,0.0425189209999786,0.0085735212171889,-0.0023532030961678,-127.76205024726455,85.99393900682891,177.17291678674715,0.0210488412489651,0.1884626522475192,0.0301272254671354,-169.13323649672353,2.0029399555656457,11.129394578597548,0.0638442778678666,0.0375933514317136,0.1534814782498493,-158.45639305365617,14.382132166956918,8.774565544232736,0.0301125123686169,-0.0162324262597685,0.1546469114046103
0.58,-314.1214522711919,84.51222858329861,4.679180170205108,0.0506067259330356,0.0514161998771581,-0.0022297488654526,-127.78993821930996,85.74705227372777,177.12233256647136,0.0398684368588214,0.2384349015102412,0.0150659666740318,-168.95097006046987,2.127159282041259,11.000040695527233,0.0515411414042408,0.0687763260947811,0.1383273266538643,-158.18055107525012,14.434773986261444,8.69641075498528,0.0426834116602749,0.0272681250246818,0.2254401880632509
0.59,-314.0883711200205,84.56595663589484,4.70655600120681,0.0607395934430951,0.134155815518344,0.0035916364585485,-127.8200342416884,85.55793714684222,177.1024897515606,0.0441770032179866,0.2830060207363135,0.0398858754980204,-168.82371423087008,2.265584926876328,10.933874469951384,0.0481584903022382,0.056724659378982,0.114390637442695,-157.93929768125795,14.51535365010084,8.75249708928772,0.0516887650715076,0.0515130496807032,0.2580668632942177
0.6,-314.0617507575719,84.63057761767956,4.685236488601319,0.0543515796962712,0.1593441572204639,-0.0082793062216541,-127.88282416631698,85.30173515009004,177.0575306767908,0.0085169104008073,0.2567085737014057,0.0486427062824661,-168.6880867692967,2.302571683807559,10.89731479225845,0.0789868676019662,0.0593746385093722,0.1476502447419272,-157.62897069892074,14.638270888682404,8.7898622042875,0.0802029279154595,0.0399181773197524,0.3020549595101315
0.61,-313.99541971042987,84.70262764230878,4.672719691394358,0.0944075007198427,0.1305769485741092,0.0090111915025394,-127.95128642747832,84.99785591865164,176.97747561782396,0.0089048231073474,0.3067493229353537,0.0275360673779573,-168.60791868458347,2.371624067958484,10.818559054191272,0.079255132904355,0.0420810527356569,0.1673108512084545,-157.27167856088838,14.719562943171844,8.80061441488918,0.0693893136585885,0.0470130401684289,0.3029727509416811
0.62,-313.87521871648977,84.74650858457925,4.706487607172698,0.1104219174446645,0.1786192917115485,0.0257444446388721,-127.93082661613046,84.85412575550264,177.01130167779945,0.0351215203444993,0.3269243091168525,0.0371094925883269,-168.3633468451724,2.434431923458124,10.753634632724529,0.1084131856884787,0.0268095328075414,0.2309568173912099,-156.93656062403102,14.815382716655431,8.816385234410362,0.0700874749487784,0.0316868635782675,0.3288410390676748
0.63,-313.69024254640124,84.86926893978375,4.616344773410368,0.115522541730105,0.2287827397342074,0.0333537829529131,-127.99960882923804,84.49695616253284,176.93432921542086,0.0261909103711346,0.3887432736427734,0.0533246499544881,-168.1341829735373,2.5617644490499187,10.619683208912168,0.1143655686018575,0.0162809145385885,0.2779621493691084,-156.62486347765443,14.865475705128103,8.792360581731026,0.0709919943021069,0.0508616830328954,0.2595577885502331
0.64,-313.50026542143735,84.99200046015822,4.618781335856942,0.1587080000881559,0.3638574665504959,0.0249326209647958,-128.1184279852644,84.13043262447248,176.93376638035215,0.000944830151141,0.4070943130606026,0.0444958048482521,-167.8040590291532,2.6312633635087086,10.4925166705038,0.0785146947107228,0.004262015325403,0.3051110822173301,-156.41244984231932,14.924975406711877,8.853483613874852,0.0683509253867113,0.0188880861300439,0.2017875139059605
0.65,-313.36849044397985,85.19336346531254,4.606855915218212,0.1696323715564782,0.4459156184840202,0.0146907652978508,-128.19588557595543,83.70369362933434,176.859028157399,0.0441061127186276,0.4774060539784481,0.012823776877062,-167.4944482969021,2.6789327006509573,10.445796246881848,0.0750065629413515,0.0257985756121001,0.2728134215466855,-156.1981969423566,15.01360335832565,8.87608957449268,0.0521111590740059,0.0069697391882086,0.1244268474316452
0.66,-313.2615844703919,85.25522801781463,4.619864953030405,0.1938565001129526,0.4514588531986452,0.0031840666273166,-128.22264946275914,83.40001799615844,176.86464962305774,0.008891577845972,0.4853348678408781,0.0275766106882721,-167.3759107199591,2.726869802926553,10.403457768342353,0.0963259640307548,0.0130846968734332,0.2343636847392588,-156.13580826501757,15.011898317249567,8.887350253608572,0.0782796073927269,-6.365303583388826e-07,0.1035872066734943
0.67,-313.1740590088354,85.308023491186,4.627868103177652,0.2445514067242543,0.4701251496713058,0.0020149383178934,-128.22074442693494,83.12049619169424,176.86233615865075,0.0243488332286785,0.5247906037678175,0.0109518261777761,-167.23929805940622,2.75460799683427,10.38711363310696,0.0726334782286017,0.0259419033146269,0.2124354539737845,-156.05448049411555,14.978985702233029,8.880267839155465,0.0526081012775936,0.0076239577801792,0.0882070501586383
0.68,-312.99312345640567,85.27959775731519,4.6278157628339605,0.2381564809276805,0.5418843460842393,0.0227022755765005,-128.25826525986983,82.56338541326177,176.87247204916466,0.0061474571440415,0.6036435794978913,0.00496485394314,-167.06513392942082,2.822081561717618,10.250890035553311,0.1060436498926714,0.0058498366168182,0.1689463875067467,-155.87021505953004,14.981261788837111,8.956498497438803,0.0472555497420477,0.0686050354302205,0.1763447057393011
0.69,-312.8297723319014,85.24045587894899,4.610154183870272,0.2038889833928145,0.5384319848170033,0.044644211015221,-128.2540455236613,81.87757040968002,179.1306820660466,0.0038277261027616,0.6668134275086636,0.0240607503230428,-166.9062042095054,2.838082681123273,10.112350482900396,0.1447928697703505,0.0287837297612345,0.1442151205236883,-155.68075573577016,14.932171808297255,8.946944753238741,0.0322909037455564,0.0623695631551193,0.2295683254545626
0.7,-312.809507582232,85.01782207559269,4.554032718566754,0.0637519573152675,0.818246255416657,0.1061072130842808,-128.20249316087805,81.0767127034172,181.279754373752,0.0504927035592453,0.8177304534638599,0.0032513852351174,-166.7430591080687,2.8470529370438697,9.942352108339968,0.1942590008878244,0.0336901244614492,0.1361355336637881,-155.41694016056627,14.85691116295394,8.887403112184314,0.0279180386751377,0.0613326131082501,0.2319641371918706
0.71,-312.9993849159911,84.49000382869808,4.4236745063727305,0.0341126740312522,0.8770973713595158,0.0970307302186195,-128.17769983808765,80.24350842576561,183.408530918934,0.1046422682586437,0.9410537532683884,-0.0019978160770231,-166.61026937666912,2.8134832572082518,9.69108083253329,0.2363897508226261,0.0484810838534786,0.1854841516276359,-155.1251467206467,14.902058263281434,8.81229050629345,0.0213916537706418,0.0818038450497308,0.2445203457592074
0.72,-313.17421742582536,84.00580511058209,4.320190087434024,0.0181770308080872,0.9612576846775088,0.0815557026103965,-128.09733815701426,79.2555672629754,185.3157576081116,0.1423321857838444,1.0218879066809243,0.0180449409643728,-166.3012942107423,2.73892829426262,9.371868468568897,0.2667891333043422,0.0643325859652175,0.278416217974727,-154.86357882746344,14.808707985301456,8.745686096887868,0.0001178217309193,0.1067350005727735,0.1969665047228371
0.73,-313.3231470867418,83.37416497756276,4.224420911436169,0.0305926760660205,0.8910592933888036,0.0489422329591101,-128.00389344511464,78.17600011196149,187.13059970698467,0.1109067284910527,1.0262620004620662,0.0016223521244043,-165.99968325836568,2.74505914299782,9.144813649488702,0.2424996700348049,0.0856652850276507,0.3009908387050192,-154.70643422278698,14.747707346171405,8.68725745589398,-0.0110145904096285,0.0731304194512746,0.1195103499793769
0.74,-313.43838642211193,82.60735025776779,4.231178378692592,0.0112845854294274,1.0421140057936291,0.060828907270883,-127.81289008002656,77.11165464554384,188.68659949912708,0.1348159473407664,1.0056819318284322,0.0809200668997219,-165.61966559312432,2.6920432133855905,8.806663167308603,0.2422910666706836,0.0729621825386011,0.275014145555445,-154.5742510078415,14.618901508382022,8.68524711395616,0.0173987544595489,0.0879529795884805,0.1200844919404434
0.75,-313.6942911244052,81.6831656799374,4.237130914840551,0.1144761109709436,1.1850085549033138,0.0971309768041292,-127.62196328954369,76.01385992021284,190.16139653869823,0.147089410471368,1.026399231687929,0.0736698157033802,-165.38365123728516,2.575684666078099,8.559006658192349,0.2739307604812782,0.1274596085610599,0.2547642008251443,-154.36751550511147,14.555537349382304,8.696693216544272,0.0125980535627307,0.1273301715762114,0.117500969185251
0.76,-314.1236560703483,80.50092738407399,8.614134705260977,0.1641152491973817,1.2588031839604163,0.1197690804801632,-127.3691425518384,74.74684782144733,191.6866487444684,0.1346789495517837,1.2671444955484197,0.1037087625731386,-165.0693642150636,2.4443132860744847,8.197779694011189,0.3067750879668925,0.1512241089058093,0.259470973034707,-154.2104166602775,14.441478296321684,8.6759322934252,0.0271628320852658,0.1263600014740994,0.2523334168335964
0.77,-314.397786364434,79.88226169311245,10.389823499191436,0.2032180869845076,1.2496235646009732,0.0940588494591261,-127.25202686818704,74.0930722821677,192.29295596809297,0.1517118722524622,1.23670071155169,0.084867374439319,-164.92492941477263,2.3961868594894207,7.979700418177508,0.3156686552142966,0.12824851892585,0.2236245636361007,-154.02191081731783,14.367746110233655,8.689934709579818,0.0225381811768157,0.1249968449317614,0.2468490173176684
0.78,-314.69383784425975,79.25919709776494,12.192711662365827,0.2471478851922043,1.2602425772511576,0.0713320825111398,-127.12636480809832,73.43646770604911,192.8974850898488,0.1344014037099023,1.2236242051955946,0.1111575479388958,-164.809803980271,2.36327962147689,7.83155080408673,0.354426621074778,0.1190218543762356,0.241341407672581,-153.86750553170987,14.316520639319666,8.690442533024568,0.038594621683852,0.124076146752099,0.2593374832733618
0.79,-315.257149909479,78.19937660824432,14.561611762083292,0.2839630442243847,1.012454194587442,0.0271235361279728,-126.8904525899717,72.128636660925,194.2132473467404,0.167667119904807,1.1905846314910318,0.0910649365183675,-164.5619412136838,2.2612898418456564,7.35698490378242,0.3515730445909374,0.1038228421294242,0.1814383535592353,-153.61964242638632,14.240063151927552,8.62122096506226,0.0500172903871634,0.1231284948670103,0.1852173224102406
0.8,-315.7976167706308,77.33245628748297,16.432748784467076,0.3474944193937909,0.8699799592348719,0.0252442848641102,-126.69616636467084,70.81724749919658,195.1289568559995,0.0716897689807237,1.1911662262815264,0.0888567483204612,-164.36664195593704,2.183372091018393,6.987979410371263,0.3569129830589295,0.0901397033151639,0.1576720903435342,-153.3642691663767,14.134376570760104,8.632330790014395,0.0717846478171827,0.1195669504935811,0.1322410693567359
0.81,-316.4437075835631,76.45133354417145,17.91875347367565,0.4296689555986622,0.9273189484412372,0.015294773479039,-126.74901661777936,69.43960652467737,195.654674789166,0.0591443090408469,1.2676420622264188,0.0707470159564035,-164.3231528923273,2.129877903138984,6.801622480525036,0.3327939389430699,0.1022535647911248,0.1668110480478438,-153.17944632083737,14.015002500266451,8.690729941612853,0.0853266132147022,0.1173826298939867,0.1835524530339091
0.82,-317.22308745041886,75.40713223062139,19.11993616529002,0.4247840619840911,0.982797525583656,0.0151956604676347,-126.8282307505538,68.0594537716143,196.16362613473285,0.0394916588960982,1.3161824033401823,0.0463685406222108,-164.11038860448298,2.015951370753007,6.448440140471469,0.3311197166183701,0.1152910825744506,0.1588569487845048,-152.99831690907843,13.93409923082177,8.777225515078394,0.0563008479020837,0.0521629640031924,0.2085133143455274
0.83,-318.00541575367464,74.37698739806353,20.346741382875308,0.4109540230804604,1.0569137552573995,0.0426802173356374,-126.86762174036946,66.61381429742723,196.6771104370479,0.018820781196824,1.3816867213340154,0.0765113158077617,-164.0112040161681,1.896339256470105,6.136093337338066,0.3185528947312715,0.1142056237474119,0.1037889221322768,-152.74967228940113,13.933807408836785,8.711224982318036,0.0210059399386309,0.0310126572508018,0.2258746527580374
0.84,-318.7040346684123,73.30381632882025,21.310782423616036,0.3060703340474959,1.0137155844641217,0.0424816713199619,-126.9375092113572,65.11846477636124,197.107476941498,0.023845683119879,1.351744383217218,0.0755827803342886,-163.80215110477732,1.8131653232428189,5.756564047500582,0.2987446198944131,0.090657093291291,0.203820037762376,-152.5402229555225,13.9367922273916,8.6323874744555,0.0428611680270979,0.0036459084344427,0.1416664854335468
0.85,-319.3798986239185,72.3670922237006,21.8106541098554,0.2598642412150789,0.810242322801726,0.1255906838728646,-127.00674042363364,63.73837126938456,197.4230308232306,0.1386828715543855,1.1328078872438132,0.1019286414773701,-163.57304370698984,1.6868182307104784,5.44393597373185,0.2910722737056305,0.0987594526541587,0.2953714061368422,-152.43446868086028,13.931580324027586,8.539930880460068,0.062559561646914,0.0450163629614027,0.0127851501961874
0.86,-319.93182758714,71.63265710207236,21.92939231770037,0.1620474069332911,0.5982926319205067,0.1168957967548368,-127.24171818949166,62.552246713227184,197.6858308807637,0.1826906367965208,1.0636999435118797,0.12556072520045,-163.10957530821872,1.619531913991981,5.19224207103082,0.127249441388298,0.1028715919341571,0.3540934191148888,-152.45826545001862,13.883683500945718,8.499056077666076,0.064174492613311,0.0743331237303361,0.0501427589277892
0.87,-320.31539066594604,70.98745386899567,22.1121274127913,0.0676946906510579,0.5282913827445099,0.0919056484847068,-127.75040957163868,61.44177035720698,197.68099776709363,0.3600763173933859,1.043720060143755,0.1182053868623994,-162.75269202747145,1.5714689980439331,5.060239329376255,0.009036814842003,0.0879721900684683,0.2492859979169964,-152.61423485856525,13.760115929126282,8.493326882337543,-0.0031963612715426,0.0849694769065333,0.2237762103122214
0.88,-320.40394182560203,70.69823986641546,22.36648342480644,0.0359260263093527,0.5726788042619856,0.0562822903747,-128.09277408209144,60.86020482955085,197.67793221003205,0.3182437217816966,1.0979891535793986,0.0997034566505753,-162.62956686086292,1.5190376617816888,5.075345839976999,0.0098076638768846,0.0851730400846106,0.2186276954780271,-152.73954770050233,13.68430603084484,8.522165448139669,0.003713076619284,0.0965784021401733,0.2339989740894192
0.89,-320.5070791512035,70.37695557398432,22.599888244519697,0.0182076541159648,0.5876399207809475,0.0606693353387846,-128.42307334586778,60.24841732664122,197.66963517816703,0.2920937550101582,1.1622319371066547,0.0713656099827788,-162.50800864314633,1.4984157123574202,5.0587231549143095,0.0221950534183702,0.0788601869017831,0.2076693594311351,-152.86805812424743,13.619212871049962,8.554243359260578,0.0330593609132546,0.1289070287366891,0.2416920017300373
0.9,-320.68083915656297,69.49608702383131,23.502543940840365,0.0300544074147301,0.99229263261099,0.0282512923469791,-129.00291978049054,58.98791719784734,197.55298134563895,0.2561065638196432,1.0834249342319118,0.0086656217275172,-162.36453401055772,1.3654542879025078,5.016868409089054,0.0048517198689143,0.1199982621777511,0.1015493793361329,-153.06308076212008,13.434805122098698,8.674135929311324,0.0950564117455865,0.1497679333243685,0.1752999540366658
0.91,-320.8839749385414,68.28896165544744,24.416873972992597,0.0639301520509514,1.100109617955093,0.0416433104709447,-129.80502951138317,57.872938036186966,197.3046097151327,0.3499822166853072,0.9645335524315892,0.0429867012850492,-162.24681531129255,1.2462345817529004,5.0637073435954765,0.0173868510876408,0.1496835075099069,0.0493089477598797,-153.11741086366845,13.253223028902411,8.882012675088001,0.1653547417942666,0.1334039053533118,0.0247851539210463
0.92,-320.9518753683173,67.24693374957562,25.227233134597306,0.1277976592678708,0.9096262362587172,0.0171624884590313,-130.62040691778304,56.74724890732601,196.9136459501206,0.3443638641154877,1.009027286880106,0.0811642814291799,-162.29709754971478,1.0980981047584577,5.03925822584683,0.0147518995952685,0.117638484563463,0.1407572475552041,-153.0541114348962,13.11995294024818,9.058405899652424,0.1804116116167089,0.1006588013947047,0.0606482444758812
0.93,-320.73933722430206,66.44024085958631,26.11835252080588,0.2046493042596084,0.7725872682289462,0.003669162472601,-131.43371058041774,55.63258026818438,196.6070191521212,0.2674468358856291,1.0161707337483343,0.0807205041969241,-162.56258097425388,0.94445931850468,5.062524384783169,-0.0002936357375632,0.1111686854983082,0.2011098384796941,-152.9499997286797,12.992496864692669,9.262543740560368,0.2002183592475987,0.0950712683674172,0.1103715678978516
0.94,-320.5650714151779,65.5495576020121,27.05764001187956,0.1932484360116922,0.9000534084162839,0.060929801923648,-131.9576527645393,54.50269942510925,196.54760522725692,0.1535963171293379,1.079843921656317,-0.0156540318100698,-162.80929620760904,0.8079295997058895,5.065863029051831,0.0254845800820659,0.1038242427596528,0.1339864001029382,-152.75093024613452,12.962981092081918,9.43724044458585,0.2144574520103349,0.1085590005173591,0.1007116778698859
0.95,-320.50252030737,64.44317432302667,27.98553597256552,0.0975237847893193,1.1051413039291835,0.0579956911722327,-132.42900423267656,53.312836916045306,196.5366290062385,0.166929390653774,1.0717645808644731,0.0118748189573699,-162.797306482396,0.6994938977178675,5.132242657951006,0.0260334220367968,0.1074560464475553,0.0323815669355026,-152.6312920604838,12.74117382183526,9.62320410300142,0.2134132377391777,0.1709518638050721,0.0572818989511432
0.96,-320.61339239650493,63.24211073947055,28.78225630853927,0.0269694637054152,1.0952596075404497,0.0598194822741286,-133.0777457404137,52.06391594441832,196.47561990655603,0.2747932373584938,1.1193639065873144,0.0747812494305289,-162.56389314333654,0.6207158118862173,5.190576110252523,0.0500310971567119,0.1226574162539436,0.2375935000334471,-152.6558940184857,12.514382844943732,9.85249498925512,0.2071685980475108,0.2144583043525567,0.0818406013380871
0.97,-320.94571036301335,62.175597122518965,29.2381993881069,0.0987062902200349,0.9248771054269472,0.0183929850285974,-133.74443616552003,50.870782355698736,196.49765916455985,0.204702121888119,1.1079804328762586,0.047780327857779,-162.10652444326192,0.4302562766391685,5.2085700016902425,0.041418454095706,0.2021386280863226,0.3800742791411057,-152.69502143144587,12.243469805619153,10.148055654626711,0.2223880982171157,0.2637862602710719,0.1141469946170259
0.98,-321.44956584210104,61.25347446652328,29.41773364905305,0.1118561843155427,0.8378277033142837,0.0800666896995602,-134.12720779757325,49.6869601316138,196.47209809500976,0.0410047263249859,0.9975160400891387,0.0227354400723062,-161.70796866913972,0.1868377716757863,5.196752778754063,0.0756647034166469,0.302335930215669,0.3320582062741546,-152.79924857817318,11.93851854411396,10.361025207812526,0.1636782555741342,0.2292854651582074,0.153487940890268
0.99,-321.64663550886246,60.80268718021505,29.458031838935494,0.1011900059460959,0.8190515893391132,0.0936740503197523,-134.14448937964926,49.17839742393696,196.56062386718216,0.089057148008076,0.9963643886076452,0.0350763098610831,-161.49054947443827,0.1193056705245668,5.117356959890548,0.0965424441553754,0.3072192285675392,0.339982355987088,-152.86943545719524,11.824246569066483,10.478793435746828,0.1895088183262783,0.2043146093006156,0.1296230623495699
1.0,-321.88564835106763,60.38170290746129,29.482066366601632,0.0815704227759384,0.7942634313946989,0.0780866905856193,-134.18711821961767,48.63365701270229,196.6178334456145,0.0819945249248715,0.9928808130471312,0.0694752576194942,-161.31401668592238,0.0662170318377841,5.061710881453492,0.1031529293258568,0.3285977426458707,0.2951116859010783,-152.88815077029687,11.687021722862283,10.58800227779677,0.1864791747252402,0.2138655967493082,0.1122566977069859
1.01,-322.1163786447778,59.622642656409575,29.743912272029903,0.012444986959187,0.6427626693833379,0.0011954683258499,-134.1183693728812,47.51392170135296,196.7950560457567,0.1456302070410106,1.0419533438427298,0.0620183657005473,-161.06275194910168,0.3563655460760049,5.017616296416183,0.0370209798292561,0.2400245876127258,0.0592544752042475,-153.00079804139963,11.428058387101949,10.815280235514482,0.1896671779230286,0.1979114855644867,0.1341851857626659
1.02,-322.11110340499806,58.98790632796009,30.08635089021685,0.0718357351141361,0.5802516754390018,0.0221780715530401,-134.18702446470402,46.308439473095575,196.93046851678943,0.0428392973129363,1.0639635839587736,0.0449689627720517,-160.98440289691413,0.6424669459661825,5.069788215172582,0.0734818119146599,0.1948262325394129,0.0331596995173706,-153.1230716501626,11.207782861539132,11.048896364453103,0.1962919519892982,0.183561179452924,0.1502160728498207
1.03,-322.36638069384384,58.32961917823528,30.28651934141465,0.1173113341658842,0.653329092131283,0.0764397652730559,-134.19451772231915,45.25326200595629,197.13107927729072,0.1168293972179942,0.9606963231660136,0.0760185806875274,-161.09642554975375,0.8123906827377961,5.188196953026718,0.1154435827897569,0.1899576404630626,0.0871399170963958,-153.22795225326627,11.013473496130674,11.255466719943168,0.1552666005535913,0.1270346548122256,0.1349776389107564
1.04,-322.6265079930422,57.66620417091288,30.48878695469215,0.1834813124041591,0.7518011379454866,0.0941507138706794,-134.20553741440727,44.187099970039206,197.3061634241612,0.2224672826045018,0.8489306751357598,0.0907463622787193,-161.11081172068992,1.1077424640953442,5.314980601603381,0.0628159091040574,0.3423354891034973,0.2203925512222475,-153.3092502533109,10.892031576549758,11.4229014813271,0.1318672795561822,0.1201297493520419,0.1014838698099246
1.05,-323.012430618736,57.24584488484319,30.49551323896522,0.1787903181113073,0.701382693326803,0.1508242031296829,-134.00094461466247,43.238484810504175,197.4820534630065,0.1719656652414475,0.8737143008837441,0.1012223064451809,-160.81842874415696,1.4329126969880714,5.4522538198225785,0.0755976361995513,0.3839785924591435,0.3243176561508791,-153.39320620867906,10.693517872335832,11.55405514416665,0.1457840579901901,0.1675233058518088,0.0541763063849646
1.06,-323.4471396441908,56.64218405214604,30.36425222719085,0.1602059431288914,0.4658971591758335,0.112945858874351,-133.94067948610171,42.317174715757616,197.5928680024888,0.0911589275673283,0.8543651010652924,0.0646858307974268,-160.29501893302992,1.8187412274583696,5.556878500761057,0.2288385846230544,0.3195267725952975,0.3740324626843207,-153.3713964903317,10.496768432179907,11.80497378585778,0.2252251489607472,0.1514952822912235,0.0372652933851666
1.07,-323.88267423446007,56.05861356007917,30.228342376890357,0.1116515225792887,0.209457529231427,0.082836133911413,-133.85545902696768,41.80784469161394,197.61625437372876,0.0519003628383287,0.8247027752816202,0.0365591630898465,-159.93307335639932,2.121188556444221,5.863774840859223,0.2932708743996486,0.2640857352590222,0.2984534105364224,-153.38510630163083,10.301565652655423,11.946949102300294,0.2551423083485962,0.15759290035413,0.005578088725477
1.08,-323.68654003041684,55.70589953928555,30.47389361646269,0.1597660394881208,0.2580562362081648,0.0176740085535571,-133.88700099385989,40.93513082666298,197.73833919375383,0.0537074820045783,0.8330374118846574,0.0155117735752765,-159.75651915738538,2.3315644389546346,6.252898387823353,0.3231596657521793,0.233845542460018,0.1737171014377437,-153.10270169574636,10.202374645051488,12.197370650942386,0.2784175564626352,0.130602628430838,0.1728868778494222
1.09,-323.44324990826124,55.38225023978557,30.811394747533186,0.1583072817826916,0.2967457359238037,0.0480940848486231,-133.8847344840017,39.99754339951476,197.8983605081705,0.1915735056308311,0.7824003891048297,0.0069456663250401,-159.57290177822978,2.549712912446713,6.565895706951872,0.2229138433115267,0.2452783347822377,0.208120356788355,-152.83481794414843,10.127762060064342,12.45323707659322,0.2777132968348325,0.1357347696128403,0.289693765850733
1.1,-323.31013988968954,55.29777222631294,30.912003775141027,0.2495820983834697,0.1991638091166742,0.0752946760940505,-133.81798995908233,39.57480720234228,197.9853381701304,0.205791563106185,0.7907275677465853,0.0187248824562333,-159.42581477668423,2.7321252126996614,6.628362905099944,0.1874675466268296,0.2376338468881611,0.2136138413921598,-152.6691082499757,10.10589794507754,12.572495296562067,0.2857011787284051,0.1284891072423835,0.2671221852433666
1.11,-323.1825406752871,55.25817797639959,31.05691148270853,0.3173853294927785,0.0784024047631705,0.098918659089902,-133.74639751967524,39.120943391728886,198.1001460202599,0.2118426248920664,0.8194480694261067,0.0259196366000648,-159.32057080228492,2.8558527744275586,6.699207827019249,0.1616072342779335,0.2384993399206607,0.2217406711493678,-152.49979818767105,10.060965694786468,12.687405168382618,0.3122985243368149,0.1371282667751462,0.2872214111895135
1.12,-322.3880861550931,55.26940669468609,31.55871788561523,0.396364992367413,0.0995850602370206,0.0538931016162163,-133.67351427414505,38.26587361083331,198.3728914408135,0.1486420279845733,0.7763524725719475,0.0306612482818114,-159.09671904650872,3.050328577738479,6.774090173924723,0.1266358849137177,0.1988024515073342,0.2062915623135244,-152.30754166505227,9.985875241157515,12.879509449942937,0.3220734238768353,0.1095854501582318,0.1680440395327832
1.13,-321.6374408335835,55.37395396816023,31.91265100150705,0.1940724286522509,0.0573153955245812,0.0542541378156388,-133.68697043592144,37.55447980268546,198.4400669250801,-0.0106697011267165,0.4392021417980599,0.0409604042312171,-158.85814105450325,3.2547137134939814,6.877138549222539,0.1080619958328794,0.1425596289000431,0.1944825334942144,-152.1172967710799,9.941003031301276,13.193564863023392,0.3034461703742921,0.1283553243082463,0.169571901487504
1.14,-321.4490664767961,55.24486429520334,32.03567451546411,0.0455453508118558,0.205013553157692,0.1508436120256461,-133.64420652452762,37.126213031978224,198.36149362207271,0.089851106349861,0.3583138998790536,0.1174778711491348,-158.6337220513115,3.308966387421407,6.939772219979812,0.0214728584160495,0.1204981978976902,0.2328884406958689,-151.8768404511887,9.804270536759905,13.49970000872134,0.3510583372400174,0.1508150648787155,0.2640698080073829
1.15,-321.496904028816,54.99601619679039,31.91331854728485,0.0864602127411365,0.1824404032892077,0.170514558690898,-133.42824345072816,36.71663207854016,198.419993508966,0.1094214670586541,0.4069420146777703,0.1264579974591446,-158.35832124477483,3.356485547096441,6.936183130661448,-0.0059414838672389,0.0736493209566587,0.1805790593661187,-151.51475399379942,9.753229840547782,13.778962018817587,0.3336824694173681,0.1567240720423517,0.342726015320034
1.16,-321.1814812932635,54.94334867593565,31.987816498010364,0.3127003987811273,0.0590658225100157,0.0254115995545675,-133.31725432141968,36.01251290099946,198.4872609821629,0.1021219649196441,0.6306720525942583,0.0915701582385504,-158.37403211429736,3.5101333837943285,6.929221531462888,0.0104592651437299,0.0524780904304248,0.0477310185895574,-150.9984843717291,9.695125060579354,14.135846167366,0.2855844943212918,0.1695222603649147,0.3945064621676027
1.17,-320.4518182588257,55.00367331547514,32.40665455917227,0.3042225566148807,0.0638201407951363,0.0784059305785855,-133.25313022631366,35.439133220877025,198.42783858845263,0.0102486282737677,0.536899881360984,0.07950578703329,-158.50932473118695,3.5487300680074485,6.866185685233217,0.1293055498424393,0.0521607059299395,0.0845099572204256,-150.50082809948336,9.634740471352313,14.28895508143535,0.2513507801142649,0.1739686337303395,0.3872281521000004
1.18,-319.8854962872704,54.92976552085992,32.872753858751146,0.2205708527052653,0.1325297254566272,0.0764695677692193,-133.13181754935252,34.942491232439714,198.49554495022667,0.1265096809838871,0.4126064963198091,0.1219616805981593,-158.50632086440712,3.614371378523644,6.689158211563729,0.1688585932914892,0.0486162144842968,0.0039176245437472,-150.03925384078906,9.566747838547885,14.488525879394464,0.1658830922004728,0.1033924406386628,0.3607195099822751
1.19,-319.7495589858041,54.73830757512783,32.98038158784188,0.0110433719837903,0.0695642227164122,0.0210720882528795,-132.8697267660223,34.449036171819934,198.6935353885076,0.3885871817659967,0.5296477735351909,0.1800092289299423,-158.38689889401363,3.618120284536992,6.504396668509658,0.1806260887769742,0.05075263771459,0.161257192067597,-149.64157265035286,9.55124223675907,14.5806711607181,0.1329363318494594,0.1031754186445071,0.3283485928656887
1.2,-319.68564742424024,54.74120454610738,32.990143828395084,0.0408024503474932,0.040226871187344,0.0132480405960233,-132.57654747672456,33.81064884693472,199.0612233792505,0.4181364506363353,0.590814523552224,0.1479924120912115,-158.12505471833106,3.622457410769458,6.356313733642272,0.1053033045693526,0.0309950639199431,0.194597569320203,-149.18943112689976,9.553389358214128,14.61057103416154,0.078119163659553,0.1176362925234957,0.2954683759697062
1.21,-319.5551580187798,54.7645471450457,33.054535336531444,0.0993903633267876,0.0427468460571614,0.0342572347569961,-132.45251415388708,33.57699992656935,199.20827898584497,0.356734267227312,0.474939404324634,0.1221633673167701,-158.0309171537127,3.655582226588459,6.347251096679467,0.082355771837877,0.0376876708333979,0.2083725383808412,-149.0974954041281,9.46927008185282,14.674261746133489,0.0596898802430458,0.1824100639018157,0.1554701569993868
1.22,-319.4512041604956,54.74589830118271,33.09895525049692,0.1557583121028246,0.0691209837269306,0.022886553400444,-132.32921343638918,33.299382764433744,199.36764298299408,0.2803297646108056,0.3515105654213842,0.1144740366782668,-157.92284397951084,3.702381504223027,6.31859275244965,0.0822258386866085,0.0301427317376408,0.2021189777523135,-149.00131882257088,9.36984062926452,14.692987685009829,0.0426798745126425,0.2512175255858744,0.0149123341673458
1.23,-319.1246236387601,54.634779008790645,33.375406838948,0.1244918298811061,0.1701996923727423,0.0278504458677666,-132.20306462143586,33.148179312564075,199.35960780092452,0.0717916462681485,0.1017316109666339,0.1098612333505761,-157.68841513233716,3.695095079386588,6.185140841609483,0.1314103838317937,0.0641022392499631,0.1775948278862773,-149.00144154252865,9.130254503344194,14.554826216739436,0.0721589082912199,0.2271822436635981,-0.0158944539485551
1.24,-318.87331649179254,54.44671505971861,33.60891559387204,0.1128665026461589,0.1760466004701073,0.0080482642038889,-132.03107090144343,32.78323069947725,199.356940103686,0.0973912852861673,0.2911770494881527,0.0879888266878784,-157.57119588021672,3.8113208843434423,5.990858016808402,0.1396655191273842,0.1118924195048631,0.0975540286861481,-148.86216573435502,9.000394310985039,14.460432996532916,0.1304447781421424,0.1573712805737073,0.1283769979152303
1.25,-318.6846913446018,54.39347748200432,33.72973379414679,0.1801777065533722,0.0287288598809647,-0.0031397135489758,-131.88277495576423,32.44222273200104,199.3689815643844,0.1201097196364747,0.4805989581772655,0.1127857943397459,-157.5533028986928,4.058368006207746,5.937076605779245,0.0730135497526111,0.1006907295600953,0.0441232797357557,-148.6310029199105,8.886662937142235,14.197081109212595,0.2430112269906922,0.1841767626199201,0.2539905891037886
1.26,-318.36581434039334,54.3644363137044,33.85957353135467,0.1598158681232983,0.0140772683298241,0.0086968840159724,-131.69186355728792,31.941656860047004,199.53067607356616,0.2428916412751526,0.3808885159735639,0.1111551783565352,-157.68618078915404,4.25307531271953,5.944727422633445,0.0611898899655778,0.1062500799442236,0.1032187021870277,-148.24617828402808,8.688616782569587,13.890931906689628,0.2323873765670275,0.2280595643708959,0.3015728422852237
1.27,-318.0694290906859,54.32200200378217,34.0500124090629,0.1480426582282358,0.1146735755157814,0.0073644651713802,-131.56811879867797,31.7447531182863,199.68141537977743,0.1284186767199272,0.1636079648185553,0.107002644920055,-157.8117419310794,4.409482281040289,6.057652048493124,0.1501013154524468,0.0851032135103218,0.0325116533982118,-148.0034050469299,8.43685262158118,13.54890457871857,0.2596245905421373,0.2767975445472866,0.1545406523646524
1.28,-318.0170525796421,53.93379200522949,34.185433134877776,0.0194729087764502,0.3006649724757774,0.0233461710523269,-131.44039702157465,31.61665041535811,199.63413746973367,0.0379631284727193,0.1255387420419609,0.0617226733521061,-157.61703464279742,4.518096137559928,6.255314199408353,0.1698353615925525,0.1460411591321882,0.1466536470867021,-147.811637595308,8.16761847421703,13.254864676138425,0.1769051715737999,0.3435295572074356,0.2445158938821371
1.29,-318.06265733103345,53.70105177127027,34.24243275442441,-0.0106288285966194,0.2051188344453341,0.0268699357162754,-131.37583497550025,31.38060142609849,199.55251732397485,0.0112077098709304,0.2457133012295121,0.0576494763268477,-157.35811042684966,4.670516727919378,6.435627893392025,0.1480314262521795,0.1878156816113264,0.3073038061739707,-147.16693632872855,7.881524368218002,13.058698677442992,0.0940076022249511,0.4188950655751123,0.6000556811189753
1.3,-318.1221299607717,53.56269939908987,34.300666156197146,0.0150296834355564,0.0535626076694015,0.0222568348429102,-131.31100793285984,30.984363125494724,199.61658194601264,0.0694045918167966,0.3003401995155063,0.0649435666464634,-157.1934126714831,4.759242702000167,6.573738043868788,0.1487476176839024,0.2431125307629458,0.4071197650172741,-146.32780315241027,7.725519909126023,12.98038919862676,0.1199070203210459,0.3057488113663026,0.5376324726208411
1.31,-318.1914088664368,53.51207341423415,34.29244927562352,0.0460891935521739,0.0918202412919796,0.0280018901914188,-131.27138765518046,30.81505039538924,199.5965971708121,0.0492400582959683,0.158722616162233,0.0461131079487595,-156.75159052036412,4.99427060202262,6.769390290291513,0.1695854194195068,0.2633113942966749,0.3102755595657995,-145.42943012223284,7.547319062519019,12.94805585905936,0.1646380742965474,0.1940585543774182,0.4261532432327009
1.32,-318.3198100839933,53.381018652663776,34.295173515616305,0.0639973510251501,0.1953493156624179,0.0420799650393642,-131.22796487914303,30.70531815639417,199.65646718856863,0.069056668092095,0.1344408752483984,0.0406584357206591,-156.60449501074416,5.132172868617926,6.8942565157785305,0.2234809923267907,0.2606682047001971,0.2582234946726372,-145.58992194600785,7.40562410579317,12.95773987050518,0.0903275534045007,0.1877520521335227,0.4787482020749007
1.33,-318.4282799642688,53.24145653877505,34.25488833643489,0.1085907669717246,0.2662010477176295,0.0181925157624364,-131.19921657162868,30.59567158078372,199.68935735863255,0.0711846106204703,0.1227921943998517,0.0409361659801753,-156.44739876315288,5.248836013925488,7.064801010188057,0.2782995959654196,0.2377280026440776,0.2102646134665004,-145.7685146772113,7.243082625622801,12.999765360303185,-0.0011881612772096,0.1810041051093781,0.5291055601444353
1.34,-318.8768161538953,52.95886497676784,34.05099914023873,0.1162139660112664,0.262723515571951,0.0518738068062316,-131.13523815752274,30.44984189314076,199.80945251181305,0.1554290227792444,0.2327463910283877,0.0177274822217158,-156.23364947140723,5.434297728638366,7.366817453907834,0.2585289052902313,0.3227319398744465,0.3934239399034704,-147.22844305016733,6.848291171681849,13.08685334645455,-0.0138940799921843,0.117530548709534,0.9660028506130904
1.35,-319.2534008766988,52.75708022310748,33.85896612111073,0.14472130506767,0.1147918144068218,0.0343495005796843,-131.0665000831296,30.07239453329175,199.98847103936905,0.1411013262410093,0.3519563302059965,0.0050355121810482,-155.6764919742217,5.808476238494753,7.66539185091718,0.1574911854253093,0.4725078387622873,0.7522948310130098,-148.76275096553087,6.437150333748232,13.206910763836168,0.0202723467013027,0.056655609857783,1.4036265210441703
1.36,-319.587770237984,52.663529704458206,33.70346779806431,0.1372986784929394,0.1048423987390354,0.0347526342906824,-131.01995122856428,29.749432352793825,200.16750853738344,0.1714523525197476,0.2471374865994698,0.0057097911975972,-154.56362988477656,6.18133759270096,7.974866871523322,0.1735193421763911,0.477733732122288,0.80814655994421,-149.5496856676858,6.304406519741311,13.763035119848944,0.4805053036226733,0.0296308932328567,0.6170720969780854
1.37,-319.93104612925345,52.61929602316555,33.54593646908784,0.1287134495975511,0.1275409604707863,0.0357236833418135,-130.95038034633245,29.623755004966323,200.30136377993003,0.1075906830252996,0.0693519914088662,0.0084397797270571,-154.28746125235145,6.411979669610177,8.417805156879036,0.2740327238260306,0.2534506065200943,0.5858553338532309,-150.01693923843567,6.258013727558351,14.448139325300964,0.6718928785535608,0.0955629666125005,0.3014178844891099
1.38,-320.1163890380566,52.564849655976566,33.42941974778801,0.105609527854433,0.0668408410609783,0.0119425941235587,-130.9692557566953,29.413462391873765,200.2734018047264,0.1088595163790919,0.2035177995360744,0.0142700097773463,-153.98540821337303,6.635301202805698,8.809565825385786,0.3654807694922632,0.020222278435033,0.3401087808004998,-150.1223650626652,6.313454000489992,14.86856661372622,0.7604514798423465,0.1812931921316257,0.1777935945154462
1.39,-320.35105752723945,52.65517214809845,33.30459145079234,0.0939365785098447,0.0480380383359253,0.0026493823029398,-131.02368602238744,29.181863503643445,200.23345529834916,0.0699275490350205,0.3109909916850435,0.0262406495273544,-155.06460094614442,6.66747909418418,9.007857133879504,0.2681552170905749,0.1826661899607859,1.257350631614532,-150.2571345169423,6.513351123745288,15.754481743803366,0.8543411551609436,0.2042988093592284,0.0906706437756954
1.4,-320.5492779306484,52.76146759911449,33.19279519733073,0.126631522082988,0.0401554325030057,0.0068382447410486,-131.0831678574217,28.85219675647673,200.2345954791993,0.025074014076126,0.2309674102437228,0.0515043090386723,-156.68286372872984,6.625848275016044,8.873455125611216,0.0084905179983879,0.2667146258128116,1.4513198866435066,-150.32107087632565,6.674564528676955,16.747556066159937,0.9402592103889362,0.196440377519074,0.1310006381089659
1.41,-320.793850401732,52.94529897936109,32.91291622492182,0.1286125396715168,0.1937036802940162,0.0268402634534999,-131.13153503970935,28.85879792967689,200.3113178537969,0.0105757678247946,0.0560508288351765,0.0503756422528554,-157.57952645679916,6.562652419043121,8.562615775143906,0.2897252105179328,0.2051477789440592,0.6755486806061621,-150.12443111964663,6.951526438955365,17.812368169100058,1.0244698308679432,0.2109316679019408,0.197043270648874
1.42,-320.991130897644,53.312043162149926,32.72948151593946,0.1023119105190752,0.3716058907612827,0.0160061243404915,-131.12039153942496,28.960401440299425,200.258233039294,0.0683714403797499,0.1256414926187329,0.0707177465833838,-157.62166941549165,6.37487400719944,7.988451680759598,0.5772270196425592,0.1819721159376798,0.1256194945547504,-149.80004134420545,7.310480265845614,18.94068585641316,1.0211049496121938,0.2523608288747979,0.2271529771520107
1.43,-321.0539959544425,53.569432612871935,32.608993001179165,0.1264623569125742,0.4208233373896656,-0.0107616828985112,-131.19778713555027,29.00786343466873,200.23707443585727,0.0611377457443475,0.0850929052370176,0.0875823624714956,-157.40602508640927,6.2132849836828825,7.648301836436457,0.6160039569926948,0.1958189014967961,0.2530666474067899,-149.678553776532,7.461766177015463,19.498616926828557,1.0455828177885391,0.2473372246546906,0.2138507607301178
1.44,-321.135739579516,53.81118539528431,32.4829480285133,0.1613439858347122,0.4569044334577971,0.0216804650350301,-131.26436992855363,29.05009232075065,200.2495204224533,0.0515584043812542,0.0282123046759694,0.1004175046051488,-157.1943795605633,6.066786921524737,7.310878818665663,0.6838068141717185,0.2323645623495711,0.369628405528919,-149.56761236212654,7.623177994847782,20.063816533365884,1.064634528751193,0.2666805702777655,0.2165577041512691
1.45,-321.2611685664521,54.389697016596,32.20850570539866,0.1191941765179273,0.5184160862223289,0.0199495072890123,-131.373811766999,29.058885412657155,200.2426526069145,0.0412945332563955,0.0940146341323878,0.1070352502414537,-156.75276395163067,5.741837959854023,6.573598569835622,0.7256637204485626,0.2210958617194706,0.3365159511173012,-149.32708562810848,7.98965372550269,21.199058753419216,1.0615723344445585,0.2917640550508911,0.257062771071363
1.46,-321.3205913428336,54.98681113338955,31.91563554721981,0.1639927155233252,0.6676580604842179,0.0090769636230978,-131.4960441157079,29.24364807814869,200.2182864174124,0.0957940928247539,0.2696492508631672,0.10093341730102,-156.59455703766884,5.469237766757541,5.702343434242308,0.7320703077429459,0.2332275391925863,0.196090258048962,-149.06535462395755,8.44140305316309,22.369934331614864,1.066125948559624,0.3459050629390975,0.2401371403199242
1.47,-321.36354924202953,55.43929118143676,31.754622172114125,0.1652508926861184,0.8216303187639116,0.010594140670647,-131.64932088404294,29.527148577978185,200.17221025995835,0.0990603854694003,0.266052512466921,0.1130033573732199,-156.42891545539467,5.167745983139364,4.863444008461459,0.7568086659909178,0.2581906784668432,0.0348897001391809,-148.8171487139834,8.9292342741126,23.609415137944787,1.17261500408961,0.4337917612330508,0.274592302539719
1.48,-321.374264265039,56.46546204391434,31.280140007705008,0.1371905453298583,0.9583035168281951,0.0298196681928134,-131.82820599875043,29.82079528799,200.14298606308557,0.1321086650097677,0.2440860683129452,0.1257945653897247,-156.63907882497415,4.870909222849423,4.050471843111129,0.7154426832511293,0.2835112019509889,0.2016446280710787,-148.5528246307196,9.57852981723628,24.87108467589453,1.2124740837166332,0.4786052534420991,0.3090571750349677
1.49,-321.37845031833024,57.51062169415918,30.844421118810303,0.1005117710538234,1.0706468591141238,0.0582733613450543,-132.0559386536727,30.12145621026617,200.057612867316,0.1318705153319351,0.2716929177088637,0.1627647524951077,-156.85843952869092,4.6089159779678806,3.315914352648462,0.6090601581060203,0.2384587544235827,0.3162218135873776,-148.1807078129111,10.116778609045934,26.320855848647614,1.3096852586249237,0.445961163191945,0.3303960843641587
1.5,-321.1721973831933,58.770700526317896,30.49674103629532,0.0936399920745681,1.1537669279163294,0.058506975146928,-132.24736583503352,30.482047673365937,199.9238900323135,0.1984468902001578,0.380893045376043,0.1582313794453401,-157.0086553895874,4.451243779313674,2.6061123277319083,0.6426408030516815,0.1907601393952029,0.3320108474728797,-147.6984295724976,10.815941010372669,27.74136019130209,1.3510859896204002,0.4213022641146499,0.5114885852560933
1.51,-321.0102717127003,60.0072899580906,29.994412192412444,0.1116363717558115,1.1472842058887556,0.0614853119213415,-132.510989468028,30.98849019726397,199.78668520495387,0.2489319228816449,0.4400434333415214,0.163445501667716,-157.31624372505016,4.2343730316128605,1.8527709162177968,0.6696439029764192,0.186269996541894,0.2782894569589527,-146.86885403334574,11.61953314245995,29.193032538898457,1.4069802999950922,0.4649512524044655,0.7390002999021718
1.52,-320.88301731680536,61.3049719423742,29.41215968870449,0.0997538427497882,1.2702960649605275,0.0740056961442746,-132.75117682204768,31.49226144787893,199.621687107308,0.2284824397849671,0.5034723976675739,0.1526645746415782,-157.37063010390006,4.0022511795619975,1.0601678354704285,0.7196622102305263,0.2599215411012406,0.2364445617408682,-145.90754582757526,12.553652891280308,30.69849259664541,1.4568331528562772,0.4321445902748462,0.8251109506062853
1.53,-320.681375533583,62.69235618138146,28.79570434212117,0.0900055615513302,1.262460310308091,0.0941606935715013,-132.94017970239952,32.18412953299239,199.4347216713765,0.2121471711525344,0.5983891464638406,0.1421001569216604,-157.61132016925666,3.6286943554186326,0.2492107627788026,0.7021238176939654,0.3617508434176544,0.3012408918762064,-144.93175393024953,13.444848111243294,32.17986706805727,1.4969195013910213,0.4413093906865569,0.8670456955428121
1.54,-320.59789742588816,63.40645642352601,28.49099981236648,0.0814970880571737,1.2591721200831585,0.0855986251812026,-133.07704456020065,32.550998289177606,199.3317213560048,0.2523303578130842,0.646994870969015,0.1608392772852379,-157.7960007495178,3.3775160562663302,0.3781762012826704,0.6926903835371012,0.3833795873895365,0.2862007276730797,-144.44199620125983,13.863111241335178,32.99693317203515,1.527110106244968,0.3823115933015804,0.8358492048298773
1.55,-320.484792796664,64.12469582139485,28.1754095112398,0.0811488189137524,1.2722968753342934,0.1092269301651588,-133.18797464420996,32.882760103585724,199.23295640093485,0.2518018166385571,0.7211498913962198,0.1686298449321164,-157.94539592703475,3.129447224298721,0.4857882489456942,0.6644981406277465,0.4271744019484605,0.2919146599833314,-143.92752307477454,14.310063163953329,33.8160498383469,1.554909070089551,0.3361169290657287,0.7902506692359825
1.56,-320.2500728534952,65.50391123201291,27.5728847511474,0.1080340228275373,1.267309330558887,0.1091153326616995,-133.43082703502128,33.7940471892647,199.1408306236158,0.248845671825449,0.8713148950486586,0.1628966931647295,-158.26965466900796,2.4954225732581903,1.2633135849145474,0.6822479672348902,0.6066683141671946,0.3671731483073828,-142.86755464979993,15.182059369332368,35.40423348932041,1.5787804207088671,0.4368204198843791,0.8797565802356314
1.57,-320.0071123749082,66.8759916562376,26.86052520079025,0.1099379709303731,1.2570135649991632,0.1331174962228972,-133.74661290062505,34.80880585486845,198.89005834246808,0.3069766942255655,0.9294405809787596,0.1782084481095111,-158.66875712269402,1.7296354004077397,2.0603798244733955,0.7040404378367872,0.7044274398088065,0.4184857101665251,-141.79297558335264,16.061378729699825,37.0082275359475,1.5660601697744103,0.5059502707375881,0.9467857452465978
1.58,-319.8127036921327,68.16517168900168,26.17329072649564,0.1447827452394581,1.1432358455809164,0.1589457957585904,-133.98754545560027,36.05688288265969,198.67979221747456,0.2432144137345816,1.0465028782580483,0.152777288110824,-159.11032543065045,0.8839008079302454,2.878575400700759,0.7340619002285421,0.7807471195067506,0.4073066675169785,-140.621980945985,17.262265639700185,38.56078386305484,1.6275731855257207,0.5952923139714085,1.0150321896914758
1.59,-319.74941509542555,69.36515686913478,25.54809091589261,0.2248008284091969,1.109950258934125,0.1460577444652802,-134.25360102267894,37.31874758376017,198.49481679480505,0.1703586806109382,1.1984450343185806,0.1223789269015041,-159.51723155819514,0.9185395147095532,3.696659768081588,0.7591726866756197,0.8353761631050663,0.3436560388206149,-139.44798712041737,18.509766769336103,40.31142259907214,1.7272263363170024,0.631399186625175,0.9870220781846668
1.6,-319.76750474204226,70.76876678353338,24.500767093723056,0.2428851156605096,1.1522009231303556,0.1369882693655921,-134.38158829025448,38.73215898288295,198.3566487572572,0.1371943615230655,1.352288715272901,0.1697237936312327,-159.7954819221825,0.93989020515783,4.507076121246072,0.6884250040064716,0.884136342146226,0.3240296437860486,-138.2372268602672,19.6849071989227,42.187823420696965,1.7735621949549552,0.5231049505556804,0.9089528927117956
1.61,-319.7589353267275,72.13383833156036,23.370937358439136,0.2492586669128918,1.236832344135544,0.1536858255763553,-134.55843060247906,40.39158000197381,198.3086858895346,0.124967569186547,1.452991541087178,0.1525677237099283,-160.01346464698045,1.5004898379311375,4.889840897684133,0.6483812922108819,0.9142595505213432,0.3247283520147604,-137.01120229730242,20.81245742436049,44.00898002689959,1.774427317054291,0.572747336404865,1.036030538207981
1.62,-319.6184714947845,73.68627408995832,21.869617565754297,0.2394795127369391,1.391233282981622,0.2379306001199551,-134.75590491261866,42.055129982523006,198.2497633212494,0.0853140576938806,1.515109817686095,0.097323912929752,-160.30250545314564,2.5731262017023915,5.546184796393114,0.6587100064497093,1.052645602230044,0.343752870347094,-135.6738242998037,22.30380183334098,45.87416239305765,1.8323468440995268,0.752415941120007,1.2003059195203127
1.63,-319.4894207218089,75.24345820247,20.405317431742784,0.218929371349434,1.53906817544334,0.2487102470625818,-134.83033792020188,43.86956023412384,198.1834828930499,0.0678991165547322,1.6670589453515692,0.1177403742706024,-160.62018283792344,3.798211122405856,6.256393232841519,0.6206146925740867,1.1236851742463043,0.3640030367221827,-134.3625030018964,23.88287882597877,47.935969851777934,1.9263164808552296,1.0611220808974835,0.8919508367117053
1.64,-319.3106447131411,76.93676891972144,18.347294526692785,0.2523033783181775,1.444117720156757,0.227388557218651,-134.81810535651024,45.80858972589933,198.19407417051067,0.0313670560589015,1.7549443244981429,0.1152533376493373,-160.87313731468382,5.054995351281852,6.863200406798052,0.5222506884121904,1.06639962807728,0.2341254271446935,-133.44504656159432,25.38478715812865,50.25050495124167,1.9169280895047025,1.2053981757718215,0.7261959550105113
1.65,-319.2852057227166,77.67458359618064,17.211314925055582,0.2675036047443077,1.3558344900417258,0.2033937606972186,-134.60847647587397,46.82772392962299,198.17012639986444,0.0234857283048276,1.7896592831913187,0.1148138162011062,-160.98019781265876,5.671088426501672,7.1601062448573005,0.479809553992078,1.1344171838099215,0.2802218986613884,-133.26763434203488,26.05900379990895,51.50374040057727,1.8718287622967265,1.3301958358207293,0.5366769790791489
1.66,-319.26517533686354,78.45050108277802,16.103396732038878,0.2806367830422095,1.2440360996127664,0.1788854563795425,-134.37035176195357,47.803486780151566,198.16573213351467,0.0398873749947018,1.839034908023058,0.1138252631107306,-161.06270384873534,6.325579807883814,7.435273751103711,0.4422398073384226,1.152197245107704,0.3297702560240326,-133.12803333557585,26.73570576802095,52.73940967868709,1.8061718438890768,1.4575917687717932,0.3523228226464709
1.67,-319.23655725226524,79.73473150974331,13.306890500246052,0.2737079552341619,1.2197735437180988,0.12196202398928,-133.81953071602862,49.99578304314464,198.23323438454847,0.1020012972812677,1.985498979054555,0.0730675355055661,-161.44367713484758,7.620335966017914,7.869272622862418,0.3898680253569747,1.1981918893242176,0.4048897161302652,-133.40387188868698,27.847737505808254,52.73981984391399,1.9447332251704847,1.643740370826417,0.2225641845762399
1.68,-319.3059625927163,80.99522373811179,9.30490477742748,0.2432292884028128,1.262165011047044,0.0585525192043466,-133.27738529801496,52.31426055944239,198.23798268965163,0.0890436063221793,2.1749401110702458,0.0512203296147484,-161.94237226780805,9.063936857141428,8.110928353854181,0.0776068199457593,1.2259011256349996,0.6496150330667122,-133.68798324380035,28.948297585012387,52.734132318992735,2.036715438512769,1.7890193767502498,0.0959091206792248
1.69,-319.4426367030387,82.13462574081177,9.310288715263011,0.162430797818711,1.1992398989529809,0.0285967538967288,-133.1456045830863,54.86820203522877,198.0460612178559,0.1262620946053996,2.3280048138687386,0.0388280196557681,-162.73347017268466,10.496863852613815,7.861014262903869,0.1820122629710479,1.2162223606049796,0.8448048351132967,-133.85776907610662,30.05512577890145,56.12814075541248,2.174845207838393,1.7919368961802995,0.0276651076334711
1.7,-319.4402945951449,83.07318886088224,2.612605429807779,0.0519919058750298,0.985609179291715,0.0174538610790293,-133.42573866122706,57.416946426792,197.58129427872043,0.1805793072085693,2.287426621514125,0.045826864577581,-163.50517515157108,11.934161341857608,7.564884598619286,0.3250824497536093,1.218615378519927,1.024880744872726,-134.16664567606065,30.87731319801579,59.56604549711784,2.170281882941004,1.7429112538095308,0.0573727144675046
1.71,-319.3753315552785,83.74393564863973,2.6172486851217025,0.0199896792285033,0.7771157056069853,0.0586358245460216,-133.7106082829991,59.99022768647587,197.12354001689795,0.2740964848555117,2.2665506010800143,0.0399307091810266,-164.87719319069728,13.493933486206624,6.699474428449907,0.6526289400207412,1.333916662139244,1.6779949231576547,-134.43668937392783,31.557584377800104,63.14295646669136,2.282536189871556,1.6668303385013796,0.0484496047869908
1.72,-319.1586021192827,84.26007691393339,2.677557129206565,0.0633891403724655,0.7535939894063068,0.0827251424716097,-133.82195796876923,62.43471483539148,196.6368194750169,0.1887268150463398,2.1711964071709127,0.0482195829073221,-166.66626557714457,15.175348054682452,5.360653733908478,0.6903987952186781,1.3078692820044526,1.648030642583881,-134.35510920364396,32.297402772379044,66.86642841473076,2.3861934365451667,1.7330555864759771,0.2221240772130708
1.73,-318.93547259366204,84.75497249766963,2.746816630602626,0.1168573116211624,0.7420960953996019,0.133883306578338,-133.89324655717962,63.62336088109386,196.388728952173,0.1550024417839124,2.114313603396519,0.1010019725865143,-168.45579204279727,16.87118697666091,4.058104753541144,0.7608772775276282,1.295423571667118,1.625199815877764,-134.43215846512334,33.173888017909746,70.74890017720439,2.458959949234537,1.7823139884240078,0.3381773915739842
1.74,-318.62487540024136,85.11340840626117,2.840978907626388,0.1082695526556164,0.6933392832000977,0.079140691199425,-133.9037999169738,65.93743321120108,195.9187888311945,0.1526910634579971,2.073163570722301,0.0702773426131396,-170.0641238012636,18.372854130669577,2.7474323203573223,0.7328984046258846,1.3097745116232906,1.5737500770103172,-134.12468131988106,33.81591339643748,74.81819173054268,2.649361135305928,1.6044682849536722,0.1551157248964163
1.75,-318.3634230399598,85.36064197391082,2.935864939967642,0.1107743431878442,0.5846861687479917,0.0524002800741237,-133.94883174630544,68.25285786024926,195.36258903405667,0.2470120288528114,2.0935600919043766,0.0938505970697896,-171.50270244476624,19.947058657698783,1.3590013309060307,0.7411039429198969,1.3176111416533904,1.437052400445618,-133.75185143062222,34.389742157804804,78.92282844054445,2.6629990859913275,1.5926418870159382,0.4290962476465349
1.76,-318.2989099743616,85.40172872092252,2.941386820315436,0.1156847219193307,0.555037356776097,0.0410247370434415,-134.01052126000616,69.3859564680354,195.02941135504335,0.2751726549324009,2.028310950243964,0.1093930033852657,-172.25784645313004,20.65727647902364,0.7129941247297567,0.811840734072419,1.3650963985147904,1.5325597922390748,-133.31632660796217,34.80354034647556,80.93807720057605,2.6100786603036794,1.607489102504274,0.5046009918569933
1.77,-318.1937389693354,85.4539153007746,2.9258988577430194,0.1179252084659354,0.4547355292241634,0.0340112557333195,-134.07268197792064,70.49859451887944,194.6994719355397,0.2585857953473396,1.9675074237780144,0.1461293852957719,-173.00424093638074,21.38103657800169,0.0617002826815211,0.8848173101350187,1.3702894021450718,1.602989455716273,-132.88817543454226,35.23687821187539,82.96912753722238,2.532446467851904,1.62560284649689,0.6026058866541876
1.78,-318.00134607398724,85.43231367644566,2.9340642084519173,0.1143858239196899,0.4134666269714859,-0.0041335428162267,-134.27986524833804,72.69451177827682,193.92537692955335,0.2276862546843048,1.8345252305720976,0.0965531831638268,-174.7454494832744,22.93259825259502,1.87617648331187,1.0000912202314156,1.4099516066627065,1.693289705236816,-131.99483019509196,36.044356809803226,86.98622226719695,2.369112749946368,1.6489523094141645,0.7728465163726765
1.79,-317.8098678795076,85.30861078980948,2.927117913136671,0.1624830137703716,0.4151498389615572,0.0194994989642416,-134.32076847769093,74.61254863366747,193.1078823024246,0.1724765986165254,1.7929513316875108,0.0871327248688774,-176.4457369653292,24.32784070562373,4.047391340711672,1.1898547359821816,1.3034403017346743,1.7337977474615345,-131.4925376857125,36.56762457049252,90.93109918478228,2.307146063264687,1.6365602664776155,0.585791332129679
1.8,-317.4917901914986,85.25385973681753,2.8639008476180243,0.2327145419819447,0.404133101026256,0.065804028714,-134.258631257482,76.6155110412613,192.0829313866164,0.0218893684313277,1.7461979256997606,0.0044125968363127,-178.10695797101783,25.557047013863382,6.387719847539164,1.278818085247795,1.2568680266862706,1.7536474977670362,-131.1929236412614,36.74207578538952,92.9117277840182,2.316412149425799,1.690938887716965,0.4335745217709792
1.81,-317.05345168904404,85.24889848307078,2.8117927002704617,0.2346062519506032,0.1850969151242736,0.0816696548885781,-134.1711542726523,78.33912897839429,190.42174952787167,-0.0054487630364538,1.6048209052363591,0.0339472125474421,-179.97340848250735,26.58335735524609,6.368030857839611,1.3101787896726262,1.204534734791902,1.7578844588847826,-130.6897908784759,36.79845359240153,96.9894772518891,2.38589109470912,1.6917229212336211,0.2410241381597549
1.82,-316.74429514062706,85.24937484558191,2.683277991140987,0.2145923448644072,0.1249942997865795,0.0661348249157278,-134.0685520023994,80.04756669174367,188.80673134315128,0.0325118979471961,1.455843163445998,0.0215517780621283,-181.79246002850425,27.614914989480148,6.360842041128009,1.3953851272899476,1.1224791243927243,1.7716217221912756,-130.73834525744238,36.54078299927554,100.98412660604036,2.374936670898936,1.682189934486582,0.256511421019334
1.83,-316.4756329734822,85.28065443732004,2.61712008969065,0.2160660268918484,0.1243507917602156,0.077577913225633,-133.8782462506873,81.56243150520186,186.87736596933013,0.0425938707063479,1.2540871986978708,0.0305219710098942,-183.37977858757196,28.299760548418803,9.122466215210023,1.5104318754390058,1.0093669288796454,1.720787347058276,-130.10407861642653,36.30646851416189,105.06271835639444,2.484842071276698,1.6373418268998827,0.5257618561440196
1.84,-316.18799182055136,85.31510633645259,2.5595909256515177,0.2002391050914865,0.0623386428022131,0.0711826444081665,-133.7306554627832,82.75119895404269,186.8714735022571,0.0815933284155111,1.1351358434568255,0.0153808669109871,-184.9406637314256,28.803652827008356,12.05805673995044,1.67407637495586,0.938422055244848,1.6293154855147092,-129.3756967489998,36.24473719075433,109.23340862124502,2.509001067550068,1.522867661637926,0.6391477980052235
1.85,-315.87226511848746,85.39414919230953,2.495801823162549,0.1895880381959934,0.0369864962004622,0.0801241299826931,-133.57830578470708,83.93533657317958,186.8769118553029,0.0910813356795905,0.9953791384557806,-0.0125570567488371,-186.45018250632103,29.19176015977969,14.993240156384973,1.6801146578861892,0.8896628142579265,1.6090630668219736,-127.74904715362528,36.191434603959664,113.26073271083683,2.433977740433154,1.3293530953129988,0.8069560701836427
1.86,-315.73822165746463,85.4095636459266,2.4985367817585664,0.1574633350562525,0.0483211656130175,0.0524610418553935,-133.45323258702214,84.94227391646592,186.8603290106533,0.1335719048159803,0.947914060858738,0.0182259708705639,-187.88417096056992,29.365685678143784,18.052952984583047,1.7750688176177412,0.7548794276274826,1.647675509791758,-125.86669977698112,36.25186439287894,117.1792722423547,2.384978561270488,1.278715771873118,0.837944349172193
1.87,-315.67998752621173,85.42175835556763,2.497457809757732,0.1298863313247694,0.0451042740906883,0.0189464448585063,-133.3567179343072,85.3744479372103,186.869090807556,0.1230342217187446,0.8947718977241217,0.0191426763610574,-188.6207783796549,29.37238936028924,19.65469691978705,1.8700626102015043,0.7468796949566019,1.7243078571622472,-125.08468516282308,36.11701997941389,118.99247435599813,2.3357159432137835,1.263970429723028,0.7095748911525713
1.88,-315.60527630390226,85.43322333514718,2.4895514333065885,0.1079479367727546,0.0583575333505616,0.0020829157148653,-133.24227644235552,85.80689959462997,186.8819993682951,0.1284722599826753,0.8672375132847612,0.033451333530176,-189.37669858783164,29.358479264657294,21.24969420395572,1.9494246557943165,0.7408229243853863,1.7928789804594063,-124.2827101552792,35.99268714551202,120.8133017727787,2.2995898457098862,1.2128004637725391,0.6147648445309393
1.89,-315.5085838634388,85.45092566481202,2.48835154465239,0.1498589630390278,0.0471463949592702,-0.0010745813038632,-133.07149680591544,86.61198218751285,186.80853893794688,0.1795946492047096,0.8685805726730552,0.0428621497033149,-190.99263846756892,29.189416581964867,24.689183256324423,2.048310565751979,0.7811636024555365,1.8369520545101317,-122.66727473300608,35.75320235927385,124.4163761297998,2.2488982436897764,1.144325326737717,0.4277974125597836
1.9,-315.372933499035,85.51220790800262,2.503246863890108,0.1669993226338194,0.0761572689493761,0.014617649835111,-132.90828838919177,87.26169957059261,186.74632262060004,0.2350228265365319,0.873985544533234,0.0776048904033897,-192.4984387105982,28.879262148039277,28.11253576232021,2.0561528872647883,0.6845609527968558,1.47642462844872,-121.57161547380134,35.18673862153311,127.672519271228,2.1630797980496563,1.1386850111477012,0.3102478567805267
1.91,-315.18233280410834,85.51338835356887,2.4937622650133795,0.1811806481094695,0.081796146216646,0.0102635580304853,-132.70275420818922,87.51432457429645,186.68496999180823,0.1922093577973707,0.6542684058755115,0.0694346808683704,-193.61726099079772,28.64374607374381,31.23771681569608,1.9989110693614207,0.6331919787525134,1.286214264040154,-119.580757412115,34.63822678202467,130.5195566345845,2.0489478878428584,0.9443061857469008,0.2774779344062653
1.92,-314.9364767690278,85.5646423846994,2.4159438590398308,0.1769801958539033,0.1499308363572664,0.0203922665763817,-132.4421510411097,87.61995916157974,186.62377677526493,0.2514015585424817,0.6072393471649105,0.0459996804142264,-194.2490694027794,28.401199979150583,34.11951561353635,2.032917771599621,0.4813091054358134,0.8623256573661551,-117.61879021037396,34.07290959915475,133.36501770247958,1.939714216359232,0.7873640513703912,0.2749733609525556
1.93,-314.7647285572175,85.68933307498476,2.431650877222478,0.1758218443812081,0.165695691684505,0.0316975114051269,-132.2649365607558,87.57246235169049,186.6236903571762,0.1737528941201208,0.5136639784491588,0.0242415023015683,-194.8563001680928,28.182863185839487,37.00541434985594,2.0364418365429486,0.3398866054081438,0.4374934256272522,-115.80986302236796,33.75098869565439,136.00423754665053,1.890094138162364,0.6678728216898518,0.4325592010361357
1.94,-314.49992769843925,85.75443592643501,2.380767153192377,0.1547091883230183,0.1086372018232678,0.0289974040489765,-132.07410299561244,87.35920459775919,186.61297509816973,0.1460257017326344,0.4726675259935079,0.0377964894084149,-195.00780711746464,28.130826429006834,39.56721971685677,2.0073745804814296,0.3106157240137801,0.4278168920119764,-112.6251820136253,33.67542456621062,138.66909199743276,1.8395246774825664,0.4978119248137151,0.6463940334369612
1.95,-314.280007428314,85.81856095248183,2.297762855960192,0.1798999471274052,0.084381258025095,0.0214702111228897,-131.89578364439413,87.12281980831345,186.6911381135379,0.1335314552683314,0.3890607523074315,0.0177080943731202,-194.99368792408205,28.01300139903056,42.20071855990651,2.001518146267352,0.4863176906567635,0.4773544145101276,-109.7989666147775,33.70032523242219,141.1195328448951,1.7713713761949363,0.3043661576671446,0.5329375754158269
1.96,-314.05508399247566,85.86146740972978,2.23854229551357,0.1784402269951537,0.035042962388303,0.0132745595795568,-131.7029634023227,86.86605531203088,186.6932427640962,0.1869104797694841,0.3801295404491168,0.0444079406856071,-195.1348574455626,28.012393970095555,44.81276411010239,2.040396063807054,0.5561716239503277,0.4561642504958597,-109.81857658278854,33.687725337640565,143.4244794495341,1.7120764183289598,0.2313192548518373,0.3782563626073796
1.97,-313.81164723928543,85.96038132394239,2.2387433379631427,0.1495491698697726,0.0457757381033291,0.0224200808966693,-131.58648560278544,86.57471656630177,186.75652339956,0.1845668947732974,0.3766723407362438,0.0619495398611839,-195.23990287025572,27.9937472748164,47.50813880445761,2.052227020783697,0.5662509663008257,0.4562909085221231,-109.6164918445846,33.742761301587386,145.62284144340651,1.729941535557706,0.1015520677896293,0.3539508246944388
1.98,-313.75789995107857,85.93017810760362,2.237757451340629,0.1289604982960973,0.0681054994869283,0.0115811430753451,-131.4654680909017,86.4202762577036,186.77766847658623,0.1897490120048484,0.3481748419646818,0.0435034467264907,-195.25541619063532,28.00287314673416,48.85851739838472,2.006869166108842,0.5420751366520443,0.3341884444089305,-109.4536336963222,33.799978673971964,146.6336470360225,1.6742649582177056,0.0860766204279788,0.2841813256490115
1.99,-313.68088278581746,85.94132629515663,2.250296080880811,0.1084750923437105,0.095146986835524,0.0189746086919739,-131.36633793906566,86.31809391000154,186.8152310613558,0.1963491565485818,0.2857278053932807,0.037687467468111,-195.24319679079176,28.000376007210694,50.20607564236852,1.9536122464982448,0.5199001922096594,0.2193321256174803,-109.31022072787675,33.897692038213215,147.61185823204053,1.621173835244694,0.0677693332028693,0.2493570200882857
2.0,-313.5663760827064,85.9915300184745,2.183306991048342,0.0860686668185697,0.0614839284210644,0.0276494757690796,-131.24676162873556,86.20236100183467,186.81610395460407,0.166091941776177,0.2274226297760763,0.0143119150061402,-194.9366269753775,28.25047530462776,52.56364282040246,1.927313123952043,0.4038130367521463,0.0649448671372042,-109.1964301077392,34.15460678053601,149.46524546360274,1.4790735892033349,0.0991704364237556,0.4228901727809868
2.01,-313.44725703621634,86.06089178725576,2.127274411993947,0.0619032213061329,0.0135203232930143,0.0598169497641123,-131.05194134680826,86.0031220964827,186.81531874035207,0.1932204531682495,0.2131411496728422,0.0324302267533532,-194.3140180682044,28.55716709288747,54.85490401531242,1.958413588609318,0.3260857769574439,0.1900638031394532,-109.09083297142602,34.45079295820225,151.3115929556683,1.3029606766170954,0.1343926498744453,0.6010945837583909
2.02,-313.3241175313219,86.08456655692387,2.058220339180361,0.0361360122318384,0.0141543097138259,0.0534820257538228,-130.87288936628804,85.8034848406166,186.865570316018,0.1695833162019266,0.2173765657493031,0.0240631032403937,-193.4370864639412,29.121047521617022,57.19365546794643,1.9351666706129325,0.418809546745243,0.4281317868433723,-109.75336142007704,34.97878210620861,153.30763032651467,1.161783908192128,0.1097561564910216,1.0553394571828238
2.03,-313.2492682741691,86.11160720417622,1.9922833645924505,0.0447834339404951,0.0379772060846456,0.0276115560914441,-130.70015697901349,85.61739823252204,186.86123681728392,0.2225372733945995,0.2193202638344961,0.0257518158028186,-192.59385529877045,29.811097108618696,59.78668771493376,2.028570099990658,0.5927369178237619,0.346024315080335,-110.36383597908006,35.496201722720684,155.17508042742497,1.0457870731628898,0.1283529652527617,0.8537263382111502
2.04,-313.0527331889346,86.1789991121545,1.9413691132429287,0.0754503451854244,0.0330579157458756,0.0421226694956303,-130.42006071682272,85.54471571217562,186.88187038298952,0.209349712390461,0.1269529731217046,0.0317182001067066,-191.6908530247666,30.498317065006766,62.37259920242407,2.146469547294218,0.8132298183954897,0.2578076111980468,-110.6202732188666,35.681989155017185,155.93519788127753,0.9114504056315218,0.1677893984260889,0.7024843288203113
2.05,-312.9350968403453,86.21666122496792,1.927355680640378,0.0936969803185326,0.0252100014256418,0.0403773147068659,-130.14532189428752,85.42925251452347,186.87011312598943,0.1988918724837638,-0.004831271909359,0.0844730978716551,-191.053616111886,31.1066864997,65.18235514498105,2.0838861358693794,0.8655386872944851,0.238070426218206,-111.06822699064536,36.12325064200254,157.4978252935184,0.8794676356776734,0.1127733987328162,0.7418959983077642
2.06,-312.87113338001063,86.22357912624113,1.9139869000293768,0.0850368219365083,0.0752213662250063,0.0301034607721244,-129.88871380008297,85.50246368973558,186.7979017301871,0.1914476972298386,-0.0158562534296825,0.0849914288867222,-190.7433710801325,31.4441558692944,68.07328681604434,2.1043102990824605,0.8961100724934584,0.0229041349025496,-111.44157440928925,36.454723047985965,158.88000119575813,0.8099415059839699,0.0600916496177174,0.5772374474953583
2.07,-312.8088567535904,86.26878703589925,1.87225040048956,0.043683261329584,0.1337901985906886,0.0389541510833276,-129.64183697222532,85.57488231295463,186.73972189757072,0.1493371600121872,0.0053113545897299,0.0775162363467833,-190.3765946197208,31.753371393472023,70.9334002690131,2.092528276180786,0.8761402046411819,0.0468727313385566,-111.56512843333032,36.47692246777494,159.86532987064228,0.6014389233834446,0.0663417678312034,0.401683192687833
2.08,-312.747127207587,86.30071151292901,1.8906163869966943,0.0324999156220396,0.1366592456217948,0.0384552188730459,-129.31925257530622,85.56677857147834,186.69381959502104,0.2221733412282756,0.0007797343603077,0.0171748658467546,-190.01210034243,32.19142658777992,73.6787884811009,1.986538556528768,0.7667206148831303,0.3644519920541142,-111.797682151458,36.56542745802573,160.87374234573804,0.4952689272352706,0.1170092667038507,0.1685505924444425
2.09,-312.69202597508337,86.33909411011189,1.871663198923704,0.0539585895670535,0.1153381123066516,0.0414068043776458,-129.20259669030295,85.59071936752275,186.6885766598124,0.2237240952383336,0.0147789705805025,0.027588944753853,-189.34483373330684,32.68703673803329,74.89991714222836,1.8816013749151144,0.6994758438355758,0.6368628269454265,-112.18105648967462,36.459006703334296,161.14559593345604,0.4820089136005648,0.1677095182463863,0.1371372201166591
2.1,-312.6582106157084,86.36578613722646,1.8264340701444268,0.0650160497669441,0.1018040976156354,0.0128596465171706,-129.07974380110784,85.61761693921112,186.6857900568401,0.2350333664618702,0.0229938427393334,0.0173025278653561,-188.6721501433182,33.180053977283784,76.12314579670303,1.761399641121085,0.621067865956151,0.9211857684697622,-112.54500000503832,36.394363847796654,161.43821981368467,0.4786953654163982,0.1916485378246278,0.1095011570014232
2.11,-312.5677280354677,86.45487325732033,1.7996010102455426,0.0738840242986212,0.1110142315884629,0.0272646053803241,-128.88067225888216,85.5599626791361,186.67143819832583,0.2406304402443521,0.0315758501587175,0.0005010145938844,-187.4947629214766,34.310065437193686,78.43612000068136,1.7832392122763894,0.5735108129917059,0.9210185911675436,-112.49425292662906,35.99531281731688,162.18540342597387,0.53146900507824,0.5025999144889175,0.5130921040320745
2.12,-312.49568475158503,86.5012596634569,1.7232553044650052,0.0409059164079355,0.1488944684532904,0.0430944207366441,-128.68955569454556,85.51129956000159,186.7507602268972,0.1293005571014999,0.0765932745781424,0.0289844116173504,-186.02051844821497,35.25292610036549,80.68600126848135,1.7491874268511736,0.4704577864848099,0.7273804589690425,-112.93859030987994,35.56134471486536,163.25202942935965,0.498548130242298,0.59834782486639,0.4870668155203103
2.13,-312.39291856666955,86.55875388240385,1.6850286139392,0.0579500417415572,0.1326995310177606,0.0083781043652095,-128.55839591493304,85.50373919085354,186.67583193232755,0.1057495876403807,0.0368118182836462,0.0293961978425749,-184.8169803850608,35.81689222843247,82.86911244783863,1.6466799260187477,0.491564948421985,0.3703669821557417,-113.82900294158586,34.956473377863524,164.06517931046636,0.5426298748370362,0.634410694488327,0.1572539663139806
2.14,-312.23898019027376,86.6549011713316,1.670403342235161,0.0757313549700254,0.1077682042718031,0.0137293582402679,-128.45007814954627,85.57231298467538,186.6937288679279,0.0107010314538607,0.0709039451501294,0.0181840219752531,-184.07638437917865,35.99674159664945,85.04574571415469,1.6557422126084336,0.4064925742969228,0.0594207113437264,-113.74775072877875,34.143644590093565,164.87144757964876,0.5707610398494999,0.726214031805573,0.0456555391497929
2.15,-312.1958940379738,86.63694631252594,1.6251339953611776,0.0601169385935738,0.0683721491696012,0.0231187055678201,-128.38676830754156,85.50549390815996,186.7301796028735,0.0727677051981171,0.0884978591826736,0.024297363156695,-183.2964339807926,35.849751199317474,87.25069037792143,1.7046627718795335,0.3447179771491773,0.1069638465127397,-114.38469979165056,33.254105247671845,165.61395364943317,0.5445984391904731,0.834432084299705,0.0897616732708461
2.16,-312.0574954168636,86.69262917116373,1.628894555274618,0.0515770305381587,0.0901981586347119,0.0282670090682702,-128.31116806604723,85.42709970398484,186.74791184750515,0.0991785356328933,0.1457552063875514,0.054370690104126,-182.81308743839213,35.4996215408153,89.51628455291001,1.8166514440171535,0.3492064812354087,0.3871071279158697,-114.45051845049592,32.248495957540946,166.3747848730517,0.4479023129096197,0.9591522548540172,0.1884251842439207
2.17,-311.9977855045707,86.74717178793124,1.549953298326426,0.0554881310916336,0.1186725028636407,0.0157353571498936,-128.31988758302384,85.37489825602708,186.7703441331721,0.027468818003942,0.00904329997192,-0.0020924279547226,-182.0542248443035,35.18708926412814,91.66041164815668,1.838674522449784,0.1500337322116202,0.1953582454021344,-114.94944238940936,31.18723476371941,167.17562885128228,0.3595473333323284,1.1003299994950309,0.5796490280639489
2.18,-311.905932153017,86.79436883530403,1.556820917008585,0.0867704500323773,0.1332028476522332,0.0247663345076961,-128.1511903183155,85.41826842590251,186.73055754436965,0.0714403282166111,0.0062705097697776,0.0242325262106936,-180.6917282545056,35.24584227156945,93.62310813161136,1.7208625978402308,0.0701239761268761,0.1059876295150865,-115.87826457655582,30.006255720223574,167.6729999348369,0.1534473588929811,1.0510018093262696,0.1316513868604262
2.19,-311.8033436562325,86.80741087621347,1.5444892001509836,0.0777909169425129,0.1558780227025298,0.0314439364152032,-128.01082342569148,85.44230559699399,186.6944384741116,0.1199736216865273,0.013380476054682,0.0535655186271243,-179.25197151559908,35.37504909167619,95.443680061272,1.6670768485610838,0.0587042217681368,0.1081565097783649,-115.55835525365654,28.871756937142592,167.74730577472332,0.0923409358204352,0.9884182950391548,0.405190043361139
2.2,-311.774218134692,86.8087990296325,1.532439116155853,0.0658888704079698,0.1437875582360362,0.0252573535011567,-127.90480473440296,85.43323221357532,186.6767451677816,0.1373279349767323,0.0200994357569697,0.0247174224348044,-178.6958248401506,35.3395855148318,96.36634874089532,1.658257059293853,0.0466403149903656,0.1307523156755923,-115.70003598888152,28.317605898314135,167.68750961513112,0.0923533406551285,0.9890919613067336,0.3722618933043454
2.21,-311.75531390919025,86.80115017043475,1.562818700262046,0.0449852296839117,0.13194864939151,0.0116475086395307,-127.80812317980964,85.42870511902694,186.71143418867004,0.1957135378344029,0.0022010821556663,0.0132740020786965,-178.12636982881975,35.31318063687519,97.30238492953784,1.6777141675024612,0.0530286141268993,0.1674142819868677,-115.8817091428934,27.739639675645112,167.60564364985572,0.0806328794014245,0.9457003691063792,0.3300462010740649
2.22,-311.7188962809697,86.79215979984991,1.5406540982032757,0.0490540172713883,0.1589850375641559,0.0353166707170584,-127.632010203832,85.38611691871161,186.70220820653168,0.1730181230863339,0.103781619182874,0.0031049978460647,-177.24819159172483,34.86980317794695,99.191720666554,1.6656435969156085,0.0870514377855564,0.4411553906419042,-115.93822927232796,26.801789154943265,167.6770338525613,0.034105577226872,0.8043198482814842,0.071881753507045
2.23,-311.6699247942059,86.81147022164897,1.5690483416008345,0.0539842569918438,0.2089588538914099,0.0183855831913724,-127.44329344295971,85.24974436666115,186.7023303987952,0.1839391179831629,0.0764504960044365,0.015082412683614,-176.56159979422878,34.36484596292921,101.00152089049703,1.6840385569573229,0.0819254931485402,0.4386830559988866,-116.1937368758762,26.09660846122763,167.6863462317488,0.1349266318482849,0.6130841108419326,0.1582671937582076
2.24,-311.6819781502056,86.81637456244331,1.548803794182812,0.033818654461788,0.2294925801500839,0.014224612720677,-127.26535679522176,85.310374196445,186.69421978688104,0.1615040274051095,0.1275968804008649,-0.0083128875283762,-175.689163671531,33.93434376180971,102.85602244790888,1.6617886752817037,0.1058115125330624,0.3157137225596669,-117.3922096533983,25.52988251324902,167.67861392378043,0.1553420302190973,0.501160366714825,0.3398840465796313
2.25,-311.68942441514,86.75576121888056,1.485798517240904,0.0097692162965323,0.1880774461206086,-0.0034078219827881,-127.11970000772985,85.49221218744208,186.68594227649064,0.1146331762340939,0.1176233462586459,0.0168166173616044,-175.4300683762085,33.85598611245421,103.75441899262115,1.533124415411517,0.09562905554369,0.0268196622033477,-117.90746979687846,25.146171727252465,167.64784157205986,0.1346918232345015,0.3988845889436153,0.1822701219858143
2.26,-311.6867797610071,86.7447397508786,1.4806630260409863,0.0305657126088416,0.1862115665925466,0.0059365948159466,-127.01220939694664,85.60669130913102,186.695836105597,0.0515898602783412,0.1059448710361813,0.0260470648736866,-174.20874964717322,33.95450161876363,105.5451563738366,1.486470717621051,0.1543366444114652,0.1057356056857772,-118.43564310437736,24.75911313609583,167.62651144941316,0.1170768860326926,0.2616543283763914,0.0485093000044178
2.27,-311.7543959618667,86.67772819766431,1.481320816188551,0.0281814427012761,0.1675952529430637,0.0150551480444511,-126.9363327851383,85.83867104392115,186.5818115767202,0.0649361821272642,0.185971757185702,0.0695388481610948,-172.99505206625787,33.99627687937752,107.2951098238133,1.3997750767062285,0.1775309265471006,0.2501693712731341,-118.37793493837052,24.49814414456309,167.4207632756584,0.1027580168175191,0.2060079176446557,0.1479184128667803
2.28,-311.88693236974666,86.63250583701767,1.4900488868462023,0.0450340968033254,0.1513264086975677,0.0035310231420214,-126.88589283574568,86.0519111280117,186.49868462927225,0.0626173958439138,0.2548232436416006,0.0979352783924048,-171.70051779938635,34.299927007349574,109.06255337616597,1.3532263275092162,0.0112447050395046,0.6386640496144124,-118.48330068505771,24.114085130622005,167.35982075317511,0.1099584570682118,0.3491197034877482,0.014057018476789
2.29,-311.86795350391293,86.57240825261762,1.4965109869579716,0.0278997079120085,0.1662730474268323,0.007149499962969,-126.87899184800648,86.31938198257119,186.3695481350576,0.0577919621663663,0.2226755795041161,0.0628730360717812,-169.69623929148446,34.93310653386644,110.7406509457415,1.2993081450655897,0.0184222313504046,0.4813607251270561,-119.63010663620952,23.699668807245917,167.11153880392038,0.3746826140800023,0.4126288399502609,0.3351956305665816
2.3,-311.87177099406347,86.5638509060461,1.4443256582534076,0.0175054459383673,0.1754756870480611,0.0253491714839742,-126.88018418435962,86.44572355010604,186.3035617899664,0.0127758243362545,0.0937775004364733,0.0419775698696381,-168.1808624846441,35.38038328891735,112.32410354943546,1.2771717261232471,0.0485861079809113,0.415077875615032,-119.99328497482328,23.495653665656807,167.06417323672116,0.1650161496639798,0.4527690283984463,0.9122526239267388
2.31,-311.9031432270136,86.5242011881453,1.426901124525023,-0.0037176584135577,0.1485564040950001,0.005008075074467,-126.83352680633244,86.57373847777633,186.3021460697464,0.0054999703301516,0.1837396653153743,0.0744051853951688,-167.36434407627297,35.55223778984642,113.08219385831624,1.2063586156285504,0.0644997197709666,0.3492843829939495,-120.50558830608132,23.298043721720184,167.21505127080826,0.1438798137950752,0.3384714631475509,0.5589832980870224
2.32,-311.9376728733408,86.49995466676666,1.4366900096535162,-0.0015558575715573,0.1543544176027653,0.0265161655526791,-126.75432872432876,86.66290595499837,186.2456999396784,0.0177949747830633,0.2374324392995198,0.0978507805593604,-166.56728848163988,35.745655206662015,113.87590551094512,1.15774989311132,0.119271290216671,0.3063303291690213,-120.99799921288844,23.117906981985392,167.36040396027352,0.082200527798456,0.2221248717033879,0.1784766044170955
2.33,-311.8627092572304,86.46768175125904,1.4619200472862697,0.0181088395159782,0.1554895892833274,0.022774068975428,-126.74702425641314,86.88624978562497,186.18668979474143,0.0743380173938146,0.3775498934423545,0.1096043286192855,-165.2071197818129,35.943094425134795,115.30573707148748,1.146640581099378,0.1268703974835861,0.2497110777005474,-121.79275205838528,22.879586552114404,167.36544721179922,0.1041405631609578,0.0924100305459021,0.0486385985574943
2.34,-311.8166120974035,86.45025465171162,1.486570710652011,0.0345264861693294,0.1536337708142887,0.0510936949927776,-126.6943645309571,87.25612470847999,186.05723374204013,0.0459359630467628,0.2450715705633973,0.116047232081417,-164.3088749257758,36.13803962002195,116.68682378673016,1.0321989373911418,0.0974845261059218,0.3161014686999889,-122.28756624173931,23.015287815884907,167.33937159051789,0.0796001822470191,0.2029295933598705,0.224499793904351
2.35,-311.80247813809785,86.35898359718003,1.541291722659594,-0.0039981366263183,0.1090422869776922,0.0277867543105452,-126.63505256167024,87.48535605288687,185.936168823731,0.002513154627347,0.2316973757427418,0.0691363885800385,-162.86989079589912,36.29117069768924,117.94143646803074,1.0414852153394656,0.0262379810561293,0.1287287338518619,-122.7454151627312,23.184312284848,167.32069976091967,0.0906407526945382,0.3210455127427508,0.430091803412361
2.36,-311.8149058291081,86.35138334732032,1.5522207200689626,-0.0044772228340325,0.1269089837618562,0.0279855445327783,-126.56120266767056,87.79438981912908,185.87824246281372,0.0061296413098148,0.3963255419806303,0.1322849005045244,-161.61945129965068,36.61515822702867,119.11898208401284,0.8949086103854578,0.0978407616067153,0.4119244890707093,-123.31481418553614,23.735909974147354,167.35932174761024,0.3157727355626759,0.3785456831206009,0.3944780258201249
2.37,-311.72542234409343,86.31225978293047,1.5439960531217742,0.021403129078439,0.0959207642013717,0.0354099794775303,-126.4447649913498,88.19132475305604,185.74252347132705,0.0822821934645925,0.4380523585760276,0.1327456876645485,-160.11170006031614,37.11263882469204,120.19458224494244,0.7663545579299,0.000611262984177,0.5118024510709234,-124.02423158390388,24.120012541869084,166.92878628836263,0.5388031872263134,0.282274573053382,0.3130682994645922
2.38,-311.7689359985218,86.29527941824774,1.5875305476457144,0.0193259803088268,0.1006990535493722,0.0338182135768496,-126.39909857454607,88.47241923829638,185.59304538194493,0.0542318896476954,0.3200123915361801,0.1093345554938529,-158.63860515848032,37.43126956660432,121.31294086257856,0.8727645228103432,0.0085420495555828,0.3375941579881218,-124.75526817779864,24.488367613258085,166.49384583107002,0.7617288780884334,0.2120756267623867,0.2282071446375183
2.39,-311.695422026638,86.24603397177286,1.689907255069549,0.0359028589674414,0.1129109622487826,0.0291376287355378,-126.374474326221,88.75719005217515,185.4290581139348,0.0067568628099003,0.2044635177968285,0.1123819979692957,-157.2424555565373,38.06642876388484,122.56839934179024,0.7203412137095812,0.0367543661765471,0.8670509551917174,-125.23728125918034,24.7523941038088,165.6759173585587,0.950858781337344,0.1379164179764399,0.4225512038536684
2.4,-311.6301654102557,86.26479379293811,1.6852453884397989,0.0181061257615168,0.0966695338862933,0.0098613879557962,-126.26791394457705,88.88277482314483,185.425851742361,0.0177688250531239,0.2512818895453675,0.1237385641472636,-155.19025026196886,38.88670536610424,123.80206892361598,0.7787399574666911,0.1006789998640203,0.8331867406152181,-126.54792922021478,25.01201030500721,164.87675470071193,1.0400454960152494,0.2052573927498184,0.6988227362124042
2.41,-311.64009219002105,86.18035131144624,1.7070927195594952,0.0807538421865194,0.0909002932557032,0.0260162366989356,-126.29059525766586,88.79250060155292,185.5340889544979,0.0529764004756294,0.2304362262627929,0.0718432200265116,-153.62292904697654,39.52242348204752,124.65164661017305,0.7231153928568632,0.1336799576509192,0.7655764015045314,-128.137679953039,25.61266667493163,164.19278962642636,1.23035778532658,0.4375298058026598,1.3168900867511366
2.42,-311.66444904373446,86.1609225069009,1.7199253186914425,0.1033475296410002,0.1145429744937429,0.0175609729326786,-126.3054738847816,88.74318258302809,185.59293147491107,0.0833819445609928,0.2110405736314182,0.0859100027814435,-152.85550463379565,39.86981417149023,125.07213764577996,0.7105670012787008,0.1777203000278813,0.736156502561989,-128.98924612537675,25.99816826583568,163.83423421696617,1.232012501377725,0.4418554258998994,1.2918357639498104
2.43,-311.67434518617887,86.13865626352629,1.7441895033313894,0.1373674830717353,0.1209467887760109,0.0184979027744225,-126.31793816647566,88.66921036647547,185.6264845765632,0.1088317228061438,0.2006743943784068,0.0667026294508876,-152.0761248496105,40.19385344682426,125.49810159967402,0.679029828669182,0.1781994377843328,0.6996088237164858,-129.85760983279044,26.38374603358342,163.49825875437062,1.2239952229881448,0.459744955943909,1.2778552177720202
2.44,-311.8770595294351,86.0576682931925,1.7248243694542764,0.1780109697948406,0.1011814102669142,0.0103375429392585,-126.2439267291445,88.51648430412473,185.76378721319853,0.0507301354917466,0.198454575662141,0.0442553726720999,-150.25186279267416,40.802614992144285,126.55360437900494,0.6381883658625854,0.1002307919424181,0.4717552442395291,-131.5451455823792,27.19272472945269,162.55495629814598,1.232462969630853,0.6151834830457409,0.7536384052123306
2.45,-312.0853252660268,85.95990574001675,1.722870696003379,0.1195173074142533,0.1036000584402136,0.0059786139713652,-126.20262813040846,88.17454156820015,185.8090481816034,0.0321086080940704,0.4310639160015755,0.0736180285079695,-148.7387544364904,41.28750811957101,127.43446106111568,0.5879604681167871,0.1167599621910059,0.4468050385180155,-131.796473448916,27.94319494848208,161.0624279138928,1.2864664295409869,0.6455802999277525,0.2826029596037627
2.46,-312.3019336223132,85.87885853646351,1.6694906183695757,0.0810223172812901,0.0813819171320193,0.0176103024063928,-126.06480588345188,87.7549210792946,185.8834443455358,0.0061658284280717,0.4031688859646226,0.0713973478631587,-147.25189820860223,41.73330871589918,128.31261223779973,0.5991766069362092,0.1548626012801458,0.5668167502799152,-132.49841212560142,28.2484849798744,159.67457820963372,1.1609597374619731,0.2072345263046867,0.1406441134556325
2.47,-312.44122281102614,85.80043108302958,1.6720199157047029,0.0775217682078106,0.0920088980502611,0.0179745386524791,-126.11430934191888,87.51617425818725,186.0078312025209,0.1322533177029905,0.2953139499294204,0.0942371595631133,-145.30355045588647,42.44041385925773,129.26107759505535,0.5234263285519732,0.3326163471953735,0.956588252422886,-133.06005749107777,28.44214503071896,158.56276618482283,1.054582531317173,0.079808607685153,0.2571288552490837
2.48,-312.55182023051674,85.68288386648014,1.6789624199675044,0.1155643649475736,0.134467796728213,0.0344450294950232,-126.20561165400927,87.17492509260742,186.06513303475367,0.162638628128581,0.3161749303359961,0.1007448326551411,-143.31128823307935,43.44563424207279,130.26358037214936,0.4741608682388834,0.4301984361898864,0.8692569217458253,-133.62620107065877,28.689510588884705,157.55071380519198,1.117246868696687,0.2517327741740223,0.3038992867619478
2.49,-312.68590436038875,85.56456940627334,1.5926938676441185,0.129114855931422,0.1517271086390689,0.0089819554529252,-126.38151529704766,86.6804946274888,186.13099609225276,0.2277113306584298,0.515516608063961,0.0723216558211804,-141.1050462458939,44.49014791745712,131.10571634978294,0.4413881365739845,0.5290632012673293,0.6902264190164596,-134.49913889748302,29.30167912424744,156.29536669717191,1.1873173695713355,0.5386858593656622,0.2677891961059664
2.5,-312.7557714144642,85.51998936957408,1.6818836347202044,0.0508765433168501,0.1518303523952714,0.0130143347373297,-126.57813156612342,86.19996352317796,186.2440752756009,0.2210656892000419,0.3748077165946477,0.0774272514384792,-139.55786061371998,45.30980180048261,131.68607152662537,0.4364979365675139,0.4976542211493416,0.3525142156530953,-134.87267429101314,29.86819228638568,155.11851598232903,0.9888620513908,0.4968404808856123,0.0629811025701274
2.51,-312.74315765747764,85.37130299188681,1.6774415542679515,0.0399186890802097,0.1068909945045342,0.056012005422184,-126.70445981961878,85.82161248152582,186.34450795618372,0.1365636952982029,0.3377925348712113,0.0731386178016747,-138.43531968834034,45.70015924690996,131.92340719023196,0.3980866556323296,0.1811130066906844,0.12917445685529,-134.92359114254364,30.0618915054249,154.5752507093534,0.7585514795742908,0.1995185459535984,0.1466966528479744
2.52,-312.63357379365084,85.36816118830609,1.8084115074821256,0.0748327077785491,0.0904929277287555,0.0283027127938041,-126.76509155127972,85.38462034205251,186.37932691808564,0.1227975079954071,0.4570455019701793,0.0548718349205788,-137.88448160509174,45.638480538150205,132.1232318480885,0.3742446104067755,0.0903636517281854,0.2863340349384795,-135.06264516012715,30.127830574554043,153.5576868620185,0.7295280890097473,0.16944018334526,0.6394248728840778
2.53,-312.5131058878585,85.34913373710641,1.8360930155092945,0.0642201909676619,0.0856436528877553,0.0560937741599485,-126.82559620184382,85.09833842083255,186.4134222159883,0.1569899077410552,0.4942180997589695,0.0566569015567859,-137.72354575921955,45.62312523442235,132.1946377285586,0.3338964371824232,0.1323053232171262,0.1750490795699316,-134.77850040048114,30.125755089443363,152.90556964661798,0.7864834819643814,0.3191619859026161,0.7115303551767158
2.54,-312.436639571833,85.30675126677933,1.8578120860720024,0.0706319805417204,0.094500182482919,0.0546285276945779,-126.895440954812,84.803515310255,186.4284427900968,0.2049625731637477,0.5290100318309852,0.0747426082564199,-137.56550337149784,45.63595744074556,132.24796298103192,0.3040682051851552,0.164868029534906,0.053515707404333,-134.50420251307617,30.11365637098997,152.25157525123575,0.8219679470466411,0.4513101251121167,0.8360962343571832
2.55,-312.31344544011347,85.31910182447798,1.920487330379686,0.0514581655296894,0.1086869652626579,0.0535756922710849,-127.0202236148503,84.23077540687164,186.50429663197897,0.1644352905340954,0.5038318475282175,0.0845921155602624,-136.04915473948142,46.370893509327445,132.75099872441416,0.2128019091031855,0.4023280093436494,0.8036818009748498,-133.82545121545073,30.25964654969859,150.74602658007993,0.660828515450613,0.5019258444798291,0.4612347120218775
2.56,-312.2199807420485,85.24000988992425,1.9584554515363164,0.0515181911538901,0.0696880712416729,0.033105559709826,-127.05870952767592,84.00467957347209,186.51855422123765,0.160217749033618,0.3387747016076047,0.0717925575711068,-134.13027005307174,47.62110753627199,133.42739549959074,0.2031855973115475,0.587713388179384,1.029914266654303,-133.6079215183367,30.616962131659225,149.81382727071,0.4556617109430546,0.186924419570826,0.0286489429843882
2.57,-312.1151976476625,85.17696340595207,1.9876490369074693,0.0610593509652418,0.0327714206323477,0.0303056812441146,-127.20050801851588,83.62953325064208,186.5088021729579,0.0803727440579971,0.2654666035769659,0.0543483048617585,-132.8091769177339,48.376276632847066,133.8271835091934,0.1847040817287668,0.3425521669034801,0.3235901020816694,-133.70593379802042,30.76331665362658,149.31083952829337,0.3840973487408861,0.0671757839791925,0.0440387325455781
2.58,-312.007943472986,85.25537256158118,2.0470224622157107,0.0687915084355475,0.0504532046592138,0.0185340593264903,-127.25615168829708,83.3252006163483,186.45109630213608,0.0706859575863833,0.407518876521012,0.0529781937310769,-132.36219396286128,48.57738626372064,133.8069811612503,0.1116688158756251,0.1881896427254397,0.0241029944163274,-133.37689611792604,30.488988701376275,148.62652163177535,0.437140218180092,0.0181362215683048,0.6034580390369532
2.59,-311.8633365835959,85.31015736998295,2.0499933392637906,0.0847154000441382,0.0625915990856533,0.0105606959100496,-127.27705696767718,82.81213453370403,185.37885834688333,0.0537676965878467,0.513914970534274,0.051833250831182,-132.4479714481637,48.6947974583873,133.692015794587,0.0559265260009799,0.1869567116832091,0.024223393487074,-132.82469848791308,30.09516133499797,147.64236008261187,0.4493418436693709,0.0225908229603809,0.5673110682568352
2.6,-311.71301056539164,85.4342938589665,2.118875708124976,0.1096634393614127,0.0254809441716316,0.0061592476430536,-127.2668998318856,82.2692768557857,185.10082137706743,0.0618397184039378,0.496908483942295,0.0341564678273846,-131.9877937930275,48.85841238438023,133.50138509373738,0.1999838451585998,0.3615914303451655,0.1030232933227292,-132.25125475735052,29.69601360662168,146.6753429633242,0.4361162282462918,0.025949405595271,0.525060299207187
2.61,-311.6178924443221,85.44041958759688,2.133300106782451,0.0888593977661846,0.0036436012280071,0.024809588662508,-127.31531904516174,81.86667572024336,185.0698265762005,-0.0140977384991608,0.2126802770574736,-0.0101063996328945,-131.12849048159808,49.32123757215636,133.5613322667402,0.2620298978058992,0.3693208305063375,0.1847456139537599,-132.00149412064258,29.506365878209166,146.00059334781568,0.4955834969039874,0.0294755271670859,0.2760777754481672
2.62,-311.5636162883437,85.50692950685556,2.1198141539719324,0.051940335287351,0.0072860762782969,0.0149019478007713,-127.25909453674416,81.65226471645833,185.0749334116781,0.0339491426994824,0.1988130181349593,0.0040396984128812,-130.25541382370625,49.5723676266545,133.60399930998702,0.3912851604874827,0.3161283438755272,0.1725055385331552,-131.88892715223213,29.301200335086275,145.22970385480934,0.4775810868313014,0.0483715007971403,0.3032189107832906
2.63,-311.4935774786787,85.55437945582423,2.11524546125916,0.0699446359290386,0.0373399063877447,0.0268682057247759,-127.1357279196789,81.21099207702487,184.87736698043545,0.0787095744326365,0.4377825384259027,0.0335003458577138,-130.14435874162498,49.40782997438736,133.4624967516905,0.3487811540101592,0.2129621660327849,0.4304973151179357,-131.889788262639,29.115190235832276,144.75871032544927,0.384500503491972,0.0213998195973342,0.1607228480822167
2.64,-311.4387881523461,85.58355364118324,2.133465392221623,0.0839966937468909,0.0374433326369247,0.0253988288227687,-127.08951167368348,80.88361746388816,184.80155667252157,0.0856753031397839,0.4693898436061144,0.027335922208512,-130.1042520091816,49.30719052299576,133.38497108947269,0.3374032477919659,0.1591826810211775,0.5702692664222865,-131.87694342588057,29.10836274006704,144.52601736696255,0.3013251981588402,0.0073469083691883,0.09973693597031
