0.01,-111.20063994921655,40.46436647668782,176.42707057066184,0.3301098534347386,0.036977503092641854,0.1102647566873158,1.059577451869717,0.08390919096368596,0.03986732209190122,0.5197950068968935,0.7799898052817118,0.16996951738720165,0.3002714597971362,-101.24345489006774,23.142047821584125,179.53318050444014,0.013591757963301997,0.19331638533360215,0.029272951218164086,0.5732378922331804,0.6125776536319291,1.0170004097769616,0.619853826390595,0.7598930296498276,0.1202987323065467,0.16064248951898308,-185.09264206898683,7.95873589473254,24.235427508567636,2.016993240199276,0.9587783755454712,0.1856023939075612,0.019844010697754825,0.18701950947997723,0.3650339207391028,-0.0798116845285261,0.20171590603487635,-0.9785088606448394,-0.028515918805190783,-114.94429269070811,2.1170378955337132,13.05951600457208,0.014283982092393292,0.047610798679890695,0.11487455043027556,0.8619947683125482,0.26148478083433546,2.624970045147837,0.04997562294585781,0.10955110090294691,-0.8400783546910128,0.5392421580132272
0.02,-111.1894489314358,40.559969139152294,176.41945645244232,0.3014566457810726,0.08447059293392303,0.10056944196959201,0.9774482140932925,0.1111327513752221,0.13641114966942164,0.5201670618215101,0.7794183686750016,0.17057661669692478,0.30133916661964655,-101.23130513410031,23.222741997318806,179.5896750682502,0.02558204284154227,0.17961216068287916,0.029681981035946475,0.6165462777251398,0.5610675885814698,0.9705995484585855,0.6201077365063363,0.7601233784159571,0.12209678335549286,0.16037804201708242,-185.30242592703868,8.791426269614249,26.50472027723584,2.0294986174075413,0.9334252365255323,0.19185097434725487,0.14457340722377582,0.32885288119371975,0.42279685749361884,-0.08721212513627978,0.22125893247024403,-0.972413538430338,-0.02672431351577915,-114.93566487686066,2.2663359801438285,13.02299349810253,0.01457782330480862,0.08295847651791115,0.12190287958462255,0.745275636578709,0.3398563529443625,2.566671439470158,0.047685892190457234,0.10903182912265146,-0.8394111310424591,0.5388510929375484
0.03,-111.17986467505335,40.66618038694483,176.423561321865,0.27315087594954646,0.1309616235279592,0.09134210410145492,0.8973204772817277,0.13533560503870953,0.22803675545154894,0.5205012857007498,0.7788328755934101,0.17130460620068957,0.3024152319125935,-101.22214943729745,23.3009660238259,179.64626539708073,0.03652149592779534,0.16768304344715526,0.030412962718324152,0.6603690806815815,0.5117265935236065,0.9294581068789796,0.6203438940363962,0.7603276395934001,0.12384273716115642,0.16010875966487562,-185.5106089530328,9.61091665615999,28.750848084054688,2.045111466340271,0.9080733292508258,0.1990565809621857,0.2626484123807643,0.4678387001074065,0.47687270977792523,-0.09455737066717573,0.24055155213813786,-0.9663924751641972,-0.024930690680582884,-114.93008663560126,2.416036601461699,12.981095330701104,0.014562072596656234,0.1154571033764391,0.12805410898680736,0.640310723226172,0.4169678759793416,2.5004309474447606,0.04538487736106383,0.10855086564446736,-0.8388418724129313,0.5384870894768109
0.04,-111.18044601821175,40.79401662802869,176.4473214562182,0.24567976515207063,0.17553372514844223,0.08299347046119164,0.8221559933453373,0.15518851824056965,0.31037974019534126,0.5207145315214725,0.7782482389241153,0.17222766921389343,0.30353153995348797,-101.21846453536641,23.384306824131812,179.70141696001508,0.045957981249686676,0.15964010338063453,0.03156053369739095,0.7041371062720309,0.46642846304845337,0.8969360308153136,0.6205363976903817,0.7604812155092913,0.12552537058096336,0.15990851647657997,-185.7076792584115,10.411852472364169,30.988110480964593,2.0650874851963645,0.8825838797263935,0.20817834201457225,0.3688001819368204,0.601994829747367,0.5250198998614771,-0.10178072407325317,0.25963371235546584,-0.9603474023874624,-0.022985210883528173,-114.93161167740436,2.5681810816807533,12.937765207814275,0.014432913834406218,0.14348930408827593,0.13284414610645986,0.5555542859143384,0.4889802998445502,2.421199565150972,0.04311319207480926,0.10818502722604646,-0.8384117277641712,0.5381393622198953
0.05,-111.20092892633147,40.95261943688545,176.49637673889083,0.2194973437753633,0.217170106240867,0.07582916482765013,0.7547529771472674,0.16983887945998538,0.3799352948903492,0.5207194415724665,0.7776887009447163,0.17339249328480366,0.304723270000257,-101.22233932057127,23.480479466435714,179.7538283870061,0.053609376445979275,0.15729490467053714,0.03317579439968796,0.7472490703549535,0.4268936520515043,0.8753999318252483,0.6206605625689166,0.7605618922203097,0.12714296804949113,0.15984970015981467,-185.88405935295432,11.190051962426168,33.23141912457882,2.0902170819684556,0.8568029910525246,0.21991267626910788,0.4587004048449721,0.7293430895041145,0.5653337624509226,-0.10881628586916049,0.2785598336187176,-0.9541780360369368,-0.02074270241851475,-114.94301580787679,2.7244684760781537,12.898108311822053,0.014429030361569457,0.16578980767384985,0.13585900087112202,0.4976352929812441,0.5522670855569691,2.325823287630718,0.04091821912764457,0.10801220684858999,-0.8381405200633374,0.5378017569000559
0.06,-111.25209063752777,41.148578551952646,176.57343071379248,0.19500929664617078,0.2547738637612711,0.0700169508842837,0.6975785089132762,0.17899883174494466,0.4343568117724495,0.5204265512964205,0.7771890057896169,0.17481145668295112,0.3060287561145949,-101.23530381802782,23.597124535860047,179.80245503176792,0.059399507723510644,0.16203622395329004,0.035260081855401026,0.7890812895158054,0.3945393317100571,0.8659252962459777,0.6206934478065018,0.7605504307353972,0.12870502549802273,0.16000062328093045,-186.03010497068576,11.942914238188543,35.49523566490592,2.1206910849068388,0.8305585635474921,0.23466696849484053,0.5292728510057302,0.8478041097067589,0.5963619092095787,-0.11559930690717361,0.29739422944513816,-0.9477851426856824,-0.018066498845790424,-114.9656319147016,2.886039195521179,12.8682139028158,0.014838525522382386,0.1815638340040417,0.13678801352309394,0.47073109786850037,0.6036936213375296,2.213581315386008,0.03885282169789511,0.10810612312918097,-0.8380235778829033,0.5374725632350037
0.07,-111.3452884396831,41.385496783939885,176.67799219719916,0.17256403277865293,0.2872272678529373,0.06557293100947716,0.6526384685955554,0.18297060367801649,0.4726206797974641,0.5197485631469622,0.7767937659002645,0.17646053353439412,0.30748777625083334,-101.25819876103797,23.741622166236034,179.8464671816937,0.06346603710812676,0.17475289315473685,0.03776240760004926,0.8289726961387025,0.37034390950666407,0.8681723228126917,0.6206144975531045,0.7604311633067895,0.13023213847593473,0.16042344681700574,-186.13611356741384,12.669684043381215,37.79260378645091,2.15602226429523,0.8036639789604836,0.25256108207541633,0.5788599947130223,0.9551591529804928,0.617197053932023,-0.1220666156972193,0.3162060901916136,-0.9410732812827046,-0.014831122010774946,-114.99943210792232,3.0533508810463723,12.854824872008924,0.016002318540791198,0.19057463928424404,0.13545466797088507,0.4761744795002721,0.640850795252858,2.0864378095084555,0.03697298516193275,0.10853036905467539,-0.8380324177403017,0.5371529667252164
0.08,-111.49166523148143,41.6638339328242,176.80650547054813,0.15244525122658475,0.313489180416157,0.06236825032789734,0.6213712570021717,0.1826096221249263,0.49503522931965216,0.5186066240416368,0.7765547800570959,0.17828209856436442,0.30913847904987557,-101.29109612907376,23.920921991087276,179.8851524142933,0.06614304137468106,0.19580576309846962,0.040580804512478245,0.8661848858565182,0.35473709590098745,0.8804430957502017,0.6204063054606889,0.7601925849804193,0.13175424935481883,0.16117268979518168,-186.19238925231556,13.37153974170467,40.13429924153836,2.1950313254635603,0.7759343520311497,0.2734562783103484,0.6072414417870096,1.0491132065337716,0.6275609510768428,-0.12815708177083815,0.3350639344157866,-0.9339533217080991,-0.010924228976949547,-115.04334738464622,3.2261503428818186,12.864849366098193,0.018311767403956524,0.1931868873000206,0.1318441606465327,0.5123370585180232,0.6622216106031186,1.9489401917398692,0.035334342005250666,0.10933210797552363,-0.8381192460037116,0.5368442205379931
0.09,-111.70107252066646,41.98104432560155,176.95281906906357,0.13486304891876785,0.33272232445480915,0.06015454374990873,0.6045505204275233,0.1792326432828392,0.5030957752630301,0.516937898196385,0.7765262884749884,0.18019214707238795,0.31101353361725187,-101.33327584001593,24.141388855522187,179.9177817607569,0.06792426625121313,0.22504468171216713,0.043567808179812956,0.8998514720768173,0.3475299380658813,0.8998933093419532,0.6200554550371902,0.7598278828387024,0.1333077193927521,0.16229439292434267,-186.1893974562425,14.051504467865598,42.528123723806544,2.235896976470953,0.7472154415936502,0.297010334399491,0.6155337515231653,1.1274734201645529,0.6278836158636384,-0.13381210728992818,0.3540295825006151,-0.9263447770241641,-0.006248209577485841,-115.09577723402047,3.403529396536816,12.904727767534391,0.022198553687277023,0.19035591334816407,0.12612655876957865,0.5748025511057709,0.6672685046289161,1.8077423539029045,0.03398757249981947,0.11053593966080244,-0.8382245913320294,0.5365438405015767
0.1,-111.98081519064318,42.33199737936901,177.1089070887043,0.11994416491250888,0.34443436674475386,0.05860362298756299,0.6021971128836361,0.17448109758705038,0.4992168126539247,0.5147033899517728,0.7767584245649823,0.18209093987455827,0.31313624893714,-101.38325938188423,24.408664311695915,179.94346417331283,0.06941359644142985,0.2618621303484795,0.046540187985516526,0.9289420587766989,0.3478989960911227,0.9228495363300491,0.6195533291480464,0.759335300338843,0.1349318259115859,0.16382597678285982,-186.11801052367886,14.714214865064534,44.97837196451128,2.2762615023655606,0.717417529197116,0.32275612585007774,0.6060214813275975,1.1884206316759884,0.6193640909614555,-0.13897621719450318,0.37315193810179503,-0.9181779063324519,-0.0007215705677685536,-115.1552116730831,3.5840433486694883,12.979691263444755,0.028115768541319447,0.18355913501748744,0.11867291510987849,0.6568102563697157,0.6564417282033301,1.6707970386322684,0.03297280300548339,0.11213861834715629,-0.8382869254168533,0.5362413775285454
0.11,-112.33436514259897,42.70964288334507,177.2657433024608,0.10772405238565924,0.3486100344148357,0.05735552137293851,0.6135193711171693,0.1701509509220726,0.4863945172256278,0.5118948965930668,0.7772894320818186,0.183875748095904,0.31551736782941237,-101.43889834405229,24.727545465414565,179.96101417315887,0.07126801609829399,0.3052743252418747,0.049292586210532625,0.9522642581439784,0.3544330838283075,0.9451820702770886,0.6188967326000921,0.7587182023577633,0.13666526553335795,0.16579676338479757,-185.96980686806765,15.365606964484703,47.48550194843839,2.313378180364584,0.6865422380642513,0.350198058211102,0.5819663092040696,1.2308136569059045,0.6039836917042277,-0.1435978645848778,0.39246109666565937,-0.9093954773852595,0.005720033364980782,-115.22086935632247,3.7658699584683113,13.092974054486003,0.036510650367351204,0.1746732356615171,0.11005993577573844,0.7499176784305721,0.6311227353376614,1.546329681197644,0.03231337468595402,0.11410541628452396,-0.8382529535031877,0.535914573816073
0.12,-112.76021964761073,43.10585610617946,177.4142310125238,0.09814303116221351,0.34580907957764656,0.056068850979684885,0.6369074829308021,0.16800151454151088,0.46785756613736534,0.5085400936452074,0.778137540507882,0.18545420186265313,0.31815308750032056,-101.49751365171323,25.10188586765806,179.96885566943487,0.07413630535340926,0.3540214471115565,0.051614011232298904,0.9685129708005639,0.36524175654214264,0.9626970291557236,0.6180881448335686,0.7579846996267962,0.13854309893159358,0.16822900926804157,-185.73735947752468,16.012585607798474,50.046029128326666,2.3442862317490465,0.6546928701188929,0.3789167041826144,0.5474193792046649,1.254451841706082,0.5844372926967493,-0.14763054148422103,0.41196342194533336,-0.8999540590923532,0.013123388694311027,-115.29324847344124,3.94699251124881,13.245066319124799,0.047791284529638045,0.16580788175769048,0.10105830579553769,0.844807463618248,0.5935250875580842,1.4417541909374436,0.032009652715183204,0.1163689542756488,-0.8380872985061211,0.5355268820250866
0.13,-113.25109087403132,43.512377938037176,177.5461017782765,0.091046972518206,0.3372083803865572,0.05446749140517165,0.6699972425652337,0.16955782356327742,0.44675228634142705,0.5047049712676982,0.7792936820710751,0.18675672871578333,0.3210246561103126,-101.556078395583,25.534526123608874,179.96498223656715,0.07859526164002338,0.4066789210155868,0.05330569231710263,0.9763607711880162,0.37811612959027535,0.9715223978463241,0.61713542925822,0.7571467214602515,0.14059437660618979,0.17113917092259956,-185.41444767923502,16.662729707037947,52.65264648892793,2.366002224027369,0.6220658958349181,0.40866666277033836,0.5070369033218892,1.2602431218110324,0.5639575966942013,-0.1510342017261112,0.43163817604185817,-0.8898247685045029,0.021518137202079644,-115.3744920322773,4.125400228152146,13.433114733808493,0.06229123789432588,0.1591122819816339,0.0926012094290561,0.9321520507954401,0.546574441346001,1.362703246403565,0.03203375426904361,0.11883123108164528,-0.8377804509373307,0.5350273093832304
0.14,-113.79359956711033,43.921755953826256,177.65470780873173,0.08619164633772299,0.32457437502508596,0.052377418985809755,0.7098007633282225,0.17592441890062532,0.4258885545772547,0.5004930658871913,0.7807163863509067,0.18774669940483218,0.3240996660266605,-101.61143327909674,26.02726247824987,179.94699035613263,0.08508570479612508,0.461770726610458,0.054199117352993875,0.9745766700735993,0.390727664192853,0.9684615294814786,0.6160508864991515,0.7562185055133978,0.14284054255038653,0.17453906349695966,-184.99615083303073,17.324054959660465,55.294551870055045,2.3757202579203325,0.5889267984747605,0.43944684104668374,0.4658834608837921,1.2502599484232657,0.5460326639410562,-0.15377690389679183,0.45143609743903135,-0.8789934969346965,0.030918019028162623,-115.46848486215347,4.299309210094354,13.650587380422419,0.08023688977477274,0.15657369626661707,0.08573193370503682,1.003449178645417,0.4937813821348397,1.312318230336084,0.03232610535128271,0.1213693667070019,-0.8373540356548211,0.5343532872038588
0.15,-114.3686014735831,44.32819389606101,177.73564441853486,0.08325012444503328,0.31016194651531515,0.0497478775602847,0.7528900202960301,0.18763126046066622,0.40755628945372363,0.49604116133744847,0.7823300638097637,0.18842717136333628,0.3273349441646249,-101.66052007912157,26.5808588724657,179.91219539965144,0.0938531436122106,0.5178750417298777,0.05417385113834466,0.9621607213065773,0.4008481846036499,0.9512813038858479,0.6148496619120476,0.7552146109495939,0.14529466804537294,0.17843662062849536,-184.47882496223167,18.00481738215832,57.95795025838093,2.3710124803761996,0.5555752863449586,0.47151962118173385,0.4292040287479382,1.227681926294373,0.5340485958533281,-0.1558364987442184,0.4712800890775169,-0.8674607317789348,0.04132267962054112,-115.58062482044961,4.467414395300536,13.887317631109854,0.10172177798443693,0.1598270129094028,0.08153187866693715,1.051749276714877,0.4391123889799937,1.290889584586117,0.032794613502898244,0.1238452759617255,-0.8368626359430853,0.5334368199351364
0.16,-114.95219485928355,44.7282271248017,177.78715249710294,0.08182416165800863,0.2965463751739764,0.04665338372453656,0.7956175701438087,0.2045330351546439,0.3934139994505946,0.4915114637073093,0.7840274108129653,0.18884349290773728,0.33068074329093256,-101.7006162755654,27.19510303808764,179.85782841045943,0.10490103344395743,0.5737135971585552,0.0531750189942847,0.9384803962510527,0.406571844860215,0.9189032621732388,0.613547690351978,0.7541477405679325,0.14796155565356753,0.1828360945110829,-183.86000901761832,18.713306650462094,60.62669134462631,2.3500160272272024,0.5223058732369651,0.5053597673619755,0.40215152788400116,1.196621872323307,0.5309105203463896,-0.15720212085030671,0.4910679670184373,-0.855241156511178,0.05271951348191598,-115.71724424540653,4.629185256147731,14.130026312913786,0.12669084178212045,0.16999288543159904,0.08103341413197965,1.0722096958063079,0.38685641107862623,1.2958779072025892,0.03331704330609746,0.1261191920895175,-0.8363916224869188,0.5322136549558396
0.17,-115.51734684168302,45.12115734065186,177.81026878517932,0.08146190022786912,0.28640535931759015,0.043277173970023224,0.8343615052731792,0.22578001703367218,0.38444763049807645,0.4870807565668005,0.7856759185845643,0.18908146543940993,0.33408573882257087,-101.72955328292332,27.8689025017729,179.78129526687962,0.11796559920939509,0.6282186121617687,0.05122963696210898,0.9033907388583807,0.4065166546134489,0.8714788838133478,0.6121595183193627,0.7530268093153143,0.15083867378100618,0.18773770693452957,-183.13834240532483,19.457559518603382,63.28299690226127,2.311586998136082,0.4893722503809579,0.5415263987488749,0.38946990612794363,1.1618355040049633,0.5386982943229145,-0.1578752021933629,0.5106770427319137,-0.8423632640624115,0.06508483362350488,-115.88469913866743,4.785214017846643,14.363393022104768,0.15493562739420727,0.18755963454723015,0.085126071592954,1.0624311437487906,0.3414748743766765,1.3222933412081912,0.03374695339949505,0.12806670331655948,-0.8360506707073728,0.5306347265127567
0.18,-116.03596323053763,45.509201517798815,177.8087140711862,0.0816844103450769,0.28227685424759363,0.03988081865309708,0.8657802740005239,0.24987179387983194,0.3809929409887042,0.4829275948053441,0.7871276926525227,0.18926123696143937,0.33750216144172,-101.7459013922853,28.60041346240791,179.6804625665468,0.13251929649348068,0.6805738826924859,0.04845988239332542,0.8573214964598461,0.39997992661865495,0.810348946812658,0.6106963874719761,0.7518557194209147,0.15391771996162762,0.19313692873232613,-182.31358829664157,20.24492893476975,65.90822737487365,2.2554017080619233,0.4569657065645661,0.5804693021577377,0.39514998646154725,1.1283322447345803,0.5584038665680481,-0.1578697438052209,0.5299701627302404,-0.8288692448841828,0.07838361562069333,-116.08819092627677,4.937615308081973,14.571705540882029,0.18609994863241033,0.2123210012900085,0.09446784043888266,1.0225579458699108,0.3074147358498386,1.3633680478568184,0.033923301172432876,0.12959868618143985,-0.8359629236133734,0.5286787102925886
0.19,-116.48115488595228,45.89733949867183,177.78853370057544,0.08202233791381999,0.28632273069296316,0.0367668793756213,0.8870560527098911,0.27479501025691927,0.38280625916034683,0.47921891291533303,0.7882312723338208,0.1895275621416036,0.3408903737150312,-101.74910695421572,29.387194444749646,179.55392298513146,0.14780602145788624,0.7302294185919989,0.04509079400750247,0.8013221134503474,0.38701945776976365,0.7379033048109629,0.6091648503957569,0.7506331485566785,0.15718645688814903,0.19902367679787003,-181.38684135989453,21.081475411829512,68.48363528234934,2.1819915708229347,0.42521563758395964,0.6222998748531328,0.42208763737874083,1.100921334333896,0.5897823414299999,-0.15721170145741142,0.5488027059525697,-0.8148153652766629,0.09256723484684827,-116.33043349816307,5.09046173411159,14.741060996404162,0.2196945058411031,0.2433774751603792,0.10941386984612199,0.9551514216248631,0.2888674793990388,1.4114237046753948,0.033683533427026416,0.13068311787882478,-0.8362500724163476,0.5263642072141212
0.2,-116.82944849782459,46.29288013514465,177.75752747195446,0.08206161937734383,0.3001258532952747,0.034241201805776667,0.8961014374021529,0.29823388141284396,0.3891628872471312,0.4760973513085199,0.7888440142492384,0.19003741995658824,0.34422240096391005,-101.73957143505231,30.226376972264607,179.40119219209944,0.1629062119359814,0.7768924780608686,0.04144985107700322,0.7370615162028706,0.3684363434987676,0.6573667328959488,0.607565985255219,0.7493533891278105,0.16063042900849114,0.20538174787405467,-180.3609542324299,21.971197512450818,70.99105716788509,2.0927075896584273,0.39421308162799995,0.6665719621200935,0.4717759850844181,1.0837335377367991,0.6313312179055475,-0.1559375442055062,0.5670299497108626,-0.8002729190860788,0.10756903403524215,-116.61031810571241,5.250223220685459,14.862025455036246,0.25511839323111857,0.27920389698969633,0.12997255000502533,0.86486928849271,0.289475138613859,1.4588162663797184,0.032879654936658606,0.13136719292035723,-0.8370139792906821,0.5237598856264855
0.21,-117.06273408569865,46.704799257765366,177.72452490581315,0.08149398207601197,0.3245404364878259,0.03257967464819489,0.8917119160427965,0.31783005534234704,0.39896529400401987,0.4736702943312599,0.7888437692535123,0.19094618893358897,0.34748423565904213,-101.71866657438468,31.114846667930635,179.22280073206204,0.17682460081080034,0.8205008934219584,0.03795611365722597,0.6667794686468165,0.3456533750727674,0.5725378445112148,0.605895100432497,0.7480080108653376,0.16423428392627884,0.21218876566686543,-179.2411526855408,22.91517590522592,73.41350571166872,1.9896196836673616,0.36404905022836104,0.7121237352687009,0.5440607220352313,1.0797588997061793,0.6803935750558552,-0.1540922570850227,0.5845141786824577,-0.7853296542578447,0.12329818426594083,-116.92175187929709,5.426162104275752,14.932584047077086,0.2916847719415408,0.31778111325263775,0.15579486456733954,0.7580009543951473,0.3120076967249237,1.4988363721669733,0.03139641271830788,0.13179754207121894,-0.8383158414423754,0.5209908834757732
0.22,-117.16979611376487,47.14292630901836,177.69857672240047,0.08016428710828803,0.3596069058753884,0.032002229348810717,0.8736614560842153,0.3314592123115706,0.41085246538658216,0.47200134398697485,0.7881388370402287,0.19239367734932236,0.3506769546199403,-101.68868397133221,32.04942866928977,179.02026413815344,0.188588766446116,0.8611850573255544,0.035097357409991765,0.5931861112719459,0.32051075295777415,0.4875034201050994,0.6041417568061483,0.7465879401058757,0.16798262034007141,0.2194168119891257,-178.035739492799,23.910755775688088,75.73563825512619,1.8753636383615386,0.3348528991152651,0.7570252229109004,0.6369875676462314,1.0904437346673368,0.7333664251199127,-0.15172719049076566,0.6011309571968199,-0.7700913782630984,0.1396329871796731,-117.25284577400322,5.630624149308261,14.961138208201698,0.32864711770193206,0.35678398709126513,0.1861977717255455,0.6419187549253756,0.3580529942491107,1.5264542128797114,0.0291703777209033,0.13223582473005496,-0.8401542676789248,0.5182399404134851
0.23,-117.14731516842585,47.61706809475636,177.68814351460483,0.07810444261660093,0.40453664520503707,0.03265514827931594,0.8427459550499857,0.33748716038550686,0.4233096613901654,0.47110483972139905,0.786675403060731,0.19449133297402052,0.3538167418107138,-101.65272154498903,33.02706918361554,178.79593673008864,0.19734461185517505,0.8992225923749678,0.0333953582963002,0.5193134332835069,0.29502224713901243,0.40634509987010603,0.60228999138836,0.7450854908554393,0.17186043691584615,0.2270337462639528,-176.75672905276573,24.95092204825383,77.94409697709467,1.7529546524500936,0.30681567183546743,0.7986575409796132,0.7467733201673282,1.1154005172687824,0.7859918802645472,-0.14889813529426915,0.6167741319042652,-0.7546832328738159,0.15641529118908734,-117.58560186323369,5.879160296179855,14.969240765757274,0.36522206710601535,0.39381079306387085,0.22021669539619995,0.5245085664610796,0.42776766022662555,1.5388186708710636,0.02620838814341356,0.13306671570116438,-0.8424439720507817,0.5157421217139923
0.24,-117.000254133481,48.13615926381915,177.7003655926502,0.07554459478260976,0.4577684878482084,0.03460155648747868,0.8007720529194052,0.3349691690623796,0.43477922394584373,0.47094398925961417,0.7844418405880553,0.19731191329844897,0.35693386026192825,-101.61451440027456,34.04500060384597,178.55277282960427,0.20243633244443177,0.9349871963450284,0.03336187220042866,0.4483350797176663,0.27113841458960813,0.3328547693772733,0.6003187337893494,0.7434959510026458,0.17585329121337773,0.23500503074926105,-175.42022632198115,26.024022274829072,80.02773730661032,1.6255896118483042,0.28018940126130315,0.8339243134389341,0.8679308661526746,1.1522987015813773,0.8337155685051302,-0.1456638267630401,0.6313593573558182,-0.7392499192808727,0.1734478683318461,-117.89619963520036,6.190416623139782,14.993717375915836,0.40060611134836455,0.4266305395501048,0.2566774048971718,0.41363857156034967,0.519736376759259,1.5354502192252955,0.022603593571096526,0.13479544750582279,-0.8449970396879891,0.5137726073781951
0.25,-116.74157145488684,48.707520300465184,177.7404910358812,0.07289660641712513,0.5170943880310699,0.03781924702266278,0.7504760147910905,0.3237641346645679,0.4437700338837959,0.471433061038937,0.7814694479909754,0.20088274770884246,0.3600705494448357,-101.57822323735108,35.1008738372167,178.29402983992944,0.20346223114707973,0.9688930309546686,0.03544993260568168,0.3833797348403399,0.25055211876764094,0.27027878173184555,0.5982024634047872,0.7418185008705511,0.1799472338315817,0.2432957609501751,-174.046376761184,27.11396172297871,81.97777752967102,1.496457343016079,0.25526239890952435,0.8595711864646116,0.9935697421286426,1.1970053371879101,0.8721030189013195,-0.14208486056788106,0.6448261725295543,-0.7239540433878602,0.19049635053896688,-118.1559122862638,6.585741431444927,15.087817918678747,0.4339865744930359,0.45341811229944057,0.29427557776455593,0.31671046347626086,0.6309755607990039,1.5181056808218956,0.018547266240084518,0.13803264206360447,-0.8475088394685035,0.5126277828210906
0.26,-116.3912487685602,49.336284842902344,177.81152049221757,0.07071033601444995,0.5798445111338806,0.042204641489503474,0.6953534917430401,0.304549414431779,0.4489611993064734,0.4724438095010095,0.777829455276036,0.2051834159465946,0.36327779627458484,-101.54819768684686,36.19284157627721,178.02295068285596,0.200302132540721,1.001338107121753,0.04000608340645475,0.32736036989687334,0.2345655511871131,0.22111333956242119,0.5959121137971233,0.7400564489219883,0.18412855254543606,0.2518726204736273,-172.65877063653434,28.2009386431935,83.78790363868058,1.3685678990524273,0.2323181120103524,0.8725716384939411,1.1158769954849432,1.2440131196593167,0.8972990949170433,-0.1382228759902662,0.6571388217288696,-0.7089718731802616,0.20729670754212468,-118.33260622382711,7.088478854301185,15.321082481226618,0.4645511496496395,0.47294580321440904,0.3316540620528579,0.24031336258363992,0.7570961540597754,1.4903387734185962,0.014334665559318144,0.1434651618228678,-0.8495506006383613,0.5126006643141867
0.27,-115.97469023497253,50.02503197948474,177.91409639086265,0.06960776686714952,0.64311306611668,0.04758167055053774,0.6393917193908929,0.27873938274420246,0.44929640883234395,0.47381579899269466,0.7736265355785333,0.21014815216232413,0.3666110180438968,-101.52873306489566,37.31958076292663,177.74246052228332,0.19311615267412044,1.0326522053903668,0.04722897753068288,0.2828280717664588,0.22402408199256263,0.18696904141229806,0.5934161534319314,0.7382169080533242,0.18838338664411605,0.26070560181950325,-171.2832765208402,29.262711250380203,85.45434402493896,1.2446044763305073,0.21158878764949898,0.8705269359431341,1.2267595557640187,1.2871303497866255,0.9064971242898329,-0.1341398676349928,0.6682860466947138,-0.6944862221539805,0.22356836440250602,-118.39270077654525,7.72294853165655,15.777695030030328,0.4915025311517132,0.4847052981387851,0.36747232216492265,0.18997304261264197,0.8926132251995273,1.4568269529672437,0.010363541353010439,0.15181307868576588,-0.850570400436929,0.5139524340008642
0.28,-115.5206439995231,50.773632395854044,178.04662317809735,0.07020290300945424,0.7039981107278354,0.05371457859832792,0.586717169747662,0.24832662079565201,0.44406615731467924,0.47536959742490714,0.7689895872369216,0.21567257526120845,0.37012496451496785,-101.52383673955113,38.48024943392077,177.45490650151328,0.18231809411675065,1.0630550961810918,0.05713881623719641,0.25184570280691887,0.2193126122106716,0.16851270729539683,0.5906817544527432,0.7363100585448753,0.19269731352106176,0.2697694402508427,-169.94638847805865,30.276299181150687,86.97589581130995,1.126800925165805,0.1932155425019078,0.8520229386986922,1.3185998404281107,1.3203352270338946,0.8983632125184178,-0.1298975575175285,0.6782799682537096,-0.6806768125603535,0.23903202150088,-118.30340107142239,8.513150788462031,16.553229486145288,0.5140841373698857,0.48894515905065034,0.4004676150113361,0.16996841528794143,1.0313637845544745,1.4225733744042992,0.0071242846976081,0.16377450213553146,-0.8499038120447004,0.5168825180471318
0.29,-115.058885161888,51.579295640830246,178.20556460566752,0.07301703715078238,0.7598245841353186,0.06032382164923467,0.5411956294114735,0.21567566286605325,0.43297345668274406,0.4769211822336913,0.7640610437482962,0.22162361420783822,0.3738684883327562,-101.53701578802814,39.67437989879908,177.16186029018124,0.16852982013634368,1.092628877648008,0.06956087911512877,0.23587391037941652,0.22040465290942837,0.16548377906890038,0.587676018586147,0.734348110378091,0.1970550060638651,0.2790447129239744,-168.6732751984822,31.219935214646224,88.35385861804586,1.0168535401640657,0.17722502296561285,0.8168871872196771,1.3850415595546253,1.3386502971695828,0.8733494177068213,-0.125556798478459,0.6871540244035538,-0.6677091243917234,0.25343024109269036,-118.03497528813477,9.481283368996808,17.74985914589468,0.5316200353606643,0.4866222034968305,0.42951087278747424,0.18318258364825055,1.1669735300195119,1.3921136297537982,0.0051812627843443055,0.17996178945731997,-0.8467947532184024,0.5215001658927246
0.3,-114.61793952289449,52.43679074349267,178.38584081894263,0.07840008935318749,0.8083232379442407,0.06710406413295637,0.5060389356692346,0.18330269094496804,0.41617592639026946,0.47829570861543275,0.7589861540214469,0.22785103232698192,0.3778799908100374,-101.57109237126302,40.901715509974515,176.86399213604722,0.15252530991050336,1.121305444150197,0.08412506133217384,0.23567007579539848,0.22695164015715688,0.1767746707847729,0.5843672923360881,0.7323440796478871,0.20144000170330462,0.288518485997146,-167.48579066795216,32.075020083472396,89.59183339818715,0.9158804270275773,0.16353013896885196,0.7663000903982056,1.4216898567667953,1.3388937539514834,0.8338337125697057,-0.12117695673158153,0.6949599074148888,-0.6557231781358588,0.2665481585447107,-117.56283763490536,10.646201161802775,19.47028788807351,0.5435680109016624,0.47927816245438193,0.45366052550245844,0.2309676340127768,1.2933043215611937,1.3688524852127657,0.005145563189056407,0.2008344108170431,-0.8404262116216904,0.5278007408773453
0.31,-114.22309406040284,53.33880245520239,178.5812509377426,0.08646897443187818,0.8477490116981408,0.07374290791181246,0.48347687463854017,0.1536697641568018,0.3942958613007386,0.4793391650492497,0.7539034383034247,0.2341989433591805,0.3821841726728646,-101.62804807351306,42.16200282545334,176.5610134948374,0.13517380835696552,1.1488684736502155,0.10028170709286567,0.25121109441650413,0.2383971142192909,0.20056005558769582,0.5807266141245108,0.7303105387492265,0.20583456014904097,0.2981843329218771,-166.40072645792597,32.82781459493186,90.69537584199071,0.8244376539213755,0.15195806628095637,0.7027363884898219,1.426599233436033,1.3201994614722286,0.7840455823059614,-0.11681518613113247,0.7017636056775858,-0.6448238022005786,0.27823145510076447,-116.8692268045919,12.021983191045086,21.810849985286744,0.5495799065317963,0.46886339041312486,0.4722143548781214,0.31302266138149865,1.4048249744867785,1.3546245882053054,0.007640272894779191,0.22663522661452778,-0.829959590005673,0.5356497791483309
0.32,-113.894855754537,54.27637971721553,178.78486839312552,0.0970725170465703,0.8769359793318109,0.0799388401799382,0.4745437328958241,0.1290119392890121,0.36839213868522125,0.47992711634758717,0.7489370471882096,0.24051607249506265,0.3867903313578328,-101.70889395047826,43.45475623957998,176.25167634791745,0.11738961402648035,1.1749694983104364,0.11733213846796463,0.2816566491835658,0.2540958218551333,0.2344579855616985,0.5767292943803844,0.7282585113638771,0.21021956640222386,0.3080415527774933,-165.4285513629401,33.47063665211687,91.67153391393578,0.7425882807806513,0.1423029492354245,0.6297447151600452,1.4004556173191385,1.28423370601534,0.7297685155711022,-0.11252552716663028,0.7076408719508739,-0.6350737116430408,0.2883990365258528,-115.94433312857512,13.616780473020954,24.854385962431206,0.5495587657554767,0.4575350583222221,0.48475483166639927,0.42730338903534365,1.496877655374093,1.3495247771104726,0.013260447016499553,0.25733782812255435,-0.8145805097643266,0.5447773062294692
0.33,-113.64792969007797,55.23943219815886,178.98938157298204,0.10978895334124246,0.8952965986419479,0.08541726468715363,0.47900978504077923,0.11120463001609802,0.33989445323342626,0.4799703251366677,0.7441913109386086,0.24666401226670903,0.3916920989013065,-101.81356038985074,44.77901820749905,175.933814109675,0.10009178926608235,1.1991578010364476,0.13447070702834923,0.3253698473414526,0.2734144344693954,0.2757059502843466,0.5723565591870947,0.7261966150406062,0.2145744740677934,0.31809349398782727,-164.5728021544717,34.00241034428205,92.52832160398101,0.6700054944089521,0.13439441576086367,0.5516056662308372,1.3464304180443252,1.2350663447809755,0.6778436095216506,-0.10835784989602018,0.712672538938734,-0.6264902846681278,0.29704865552634224,-114.78681122284239,15.432095735950647,28.66359890246232,0.5437001265972787,0.4474568368316728,0.49118061050510364,0.5699931770521811,1.5658440799786084,1.3520046891378943,0.022530858432785607,0.29261253736047205,-0.7935481458895559,0.5547840125622405
0.34,-113.49071899622241,56.21723501519417,179.18737259322515,0.12395724543595392,0.9027785269147433,0.08994428721225883,0.49546248202076726,0.1016698657433689,0.3105088311092293,0.47941738254436933,0.7397474784147735,0.2525231741753856,0.3968683399226864,-101.94080182124341,46.13314294802934,175.60441213818856,0.0841722154584193,1.2209221316988113,0.15083461772289758,0.38000744313946844,0.29579340835792634,0.32133879744425786,0.5675971154479131,0.7241304621365706,0.21887735885103463,0.3283450192667925,-163.83017697061618,34.428523592944934,93.27417894050774,0.6060834151770363,0.1281677005593105,0.4729302097284136,1.2697579994418136,1.1787001983635252,0.6355217919137481,-0.10435676076111051,0.7169400618831961,-0.6190463929870361,0.30425487772760423,-113.40370054756022,17.462587429544183,33.27558857837994,0.532507046054223,0.44062144252153146,0.4917176913388914,0.7355675649592891,1.6092325874661748,1.3591947944829417,0.03586519677565773,0.3318173871455676,-0.7662446941617433,0.5651597723700412
0.35,-113.42530651646963,57.198909673192254,179.37154178495325,0.13873847730034689,0.8997937439521267,0.09333874302998778,0.5215162934234631,0.1013147494195529,0.2821082390652612,0.47825462636567934,0.7356624598928406,0.2579964742325592,0.40228489951576135,-102.08811716037067,47.51463278908937,175.25970246258035,0.0704673929203939,1.2397390463835793,0.16555830477624736,0.4426827888111266,0.3207594256668234,0.3683618598181312,0.562448453838069,0.7220623003700862,0.22310520714125662,0.33879931215727976,-163.19126889833407,34.760062877424566,93.91745497561756,0.5500331626969766,0.12371868321082409,0.3982616712067782,1.1771296567796583,1.1223303120479573,0.609724654953628,-0.10056065154200311,0.7205215828033724,-0.6126751095714661,0.31016004368042605,-111.80985071589102,19.696402670237056,38.69811750231255,0.5167743114566058,0.43870925968833585,0.4869068700223293,0.916978349763282,1.6257090503308593,1.3673882437327318,0.053530393425439596,0.37401782239175413,-0.7322215479963321,0.5753137224205619
0.36,-113.44785275643872,58.173858774769585,179.534896657448,0.15319957357979952,0.887133426823543,0.09548319388049373,0.5541113657891031,0.1104935850068945,0.2566195263964546,0.4765036901281527,0.731969248589222,0.2630110081668025,0.40789692943435263,-102.25169719924592,48.920053714676335,174.89528288225586,0.059729617220786964,1.2551201477698106,0.1778300920985378,0.510192441790175,0.34789034009944364,0.4139173677994689,0.5569177068783989,0.7199909093336965,0.2272345454286615,0.3494544042758645,-162.64179356677025,35.012576991677335,94.4659437470673,0.5009547418115299,0.12132851555361837,0.331727670934762,1.0760034620262595,1.0734605494011806,0.6062819460589937,-0.09700105791244473,0.7234887636230001,-0.6072776408167001,0.31495983816650536,-110.02700056000396,22.115949938793353,44.90789096090263,0.4975434598732209,0.44298819427512987,0.47756745768239084,1.1059706867232921,1.6150919982583247,1.3726143006143123,0.07561912800345402,0.41803522863368936,-0.6912392030694265,0.5846138351551265
0.37,-113.54932955498113,59.132141096703805,179.6709310020793,0.166409210511723,0.8658787673632954,0.09633378309171949,0.58985370892416,0.12898666710143702,0.2359097435349015,0.47421708454423583,0.7286786093956273,0.2675180852318779,0.413651575527097,-102.4264215945047,50.345051218226025,174.5062619474454,0.052595860068581704,1.2666501631104614,0.18694910990203342,0.5792837018194722,0.3767450435148219,0.45544193746433004,0.5510219011991027,0.717911787166413,0.23124242615072227,0.3602999715241865,-162.1641301023589,35.20455620993626,94.92651032374907,0.4578891028351699,0.12144721704182734,0.27676410732624485,0.9739155090103361,1.0390152554658194,0.6292215008465882,-0.09370242311810324,0.7259046282048384,-0.6027334660147986,0.31888548145668366,-108.08267896363465,24.698953096261654,51.85080685881113,0.47603416331477083,0.4542535132245758,0.464740085958961,1.2935311600092494,1.5783300022490765,1.3712317695412755,0.10203251281819282,0.46252042686084127,-0.6432986131016071,0.5924328270537572
0.38,-113.71650213991111,60.06478044372167,179.77381903064276,0.17753498769594703,0.837313948277478,0.09592707849337212,0.6253520805099784,0.15599305563294688,0.22166759556246626,0.47147229675278857,0.7257816174155299,0.27149202541069417,0.4194908494535244,-102.60593538871892,51.78447932958751,174.08742916817417,0.049555535365482024,1.2740099130371492,0.19237941002706946,0.6469271449391261,0.40677766705788293,0.4908083496652098,0.5447874683518807,0.7158176114673763,0.23510768127423917,0.37131505930280023,-161.7390064335445,35.35580051308675,95.30485697625168,0.4198616356819476,0.12463245848988624,0.23591315718154832,0.8778548896571969,1.0245515650305825,0.6801924883890217,-0.09068226838579643,0.7278226293783815,-0.5989114700505701,0.32218442996104474,-106.00907717648151,27.419602830376654,59.4438646421357,0.45355919161435265,0.4728023316224328,0.44961359046647015,1.4704491299296392,1.5174750629544194,1.3604814976487547,0.13247383751297456,0.5060449635098321,-0.588662394045097,0.5981965222706982
0.39,-113.93307314770908,60.96400569779443,179.83863904529343,0.18593073730864604,0.8028443343473975,0.09438051141845821,0.6575133325329456,0.19014110061947487,0.21527548425886908,0.46836498163501444,0.7232526931357599,0.27492811611436835,0.42535451396686086,-102.78283411364305,53.23264120263293,173.63344812704335,0.05091972173279865,1.2769819981698882,0.1937967945545401,0.710550119199355,0.43725827217582175,0.518439326054859,0.5382489221175999,0.7136988924750827,0.23881227580975922,0.38246735587931474,-161.347197275514,35.48581122972245,95.60548306778443,0.38592667153787835,0.13144795802343576,0.2106879880118049,0.7937375910351787,1.0336355619304207,0.7581007631688829,-0.08795169508429536,0.7292870519301835,-0.5956808583793483,0.3251010731976949,-103.84199427729814,30.249639493081016,67.5782962316334,0.43143055075271763,0.49843569542758637,0.4334422954611032,1.627959139429556,1.4356577898679639,1.3389469933991316,0.16645339366845852,0.5472010651853486,-0.5278647134513839,0.601430525371003
0.4,-114.18090745527662,61.82342166199335,179.8616243604027,0.19120267783719203,0.7639213885912799,0.09188309133452793,0.6837646368028266,0.2295274336927104,0.21767537349788946,0.46500185505257213,0.7210528779676548,0.2778400915658001,0.43118278822686257,-102.94897688136932,54.683614947312975,173.1390724940835,0.05679447251320076,1.2754408623188749,0.1911235067264,0.7681907686162784,0.46721975886795186,0.5373783735825172,0.5314467019841167,0.7115447383476764,0.24234252172957801,0.3937143407744709,-160.97114054589355,35.61229985978266,95.831876410675,0.35521644659400947,0.1423347312579447,0.2014986678217898,0.7259925129255861,1.0674219726981495,0.8590226491381557,-0.08551608884356003,0.730334675972773,-0.5929208332301809,0.32785853483507615,-101.61989450598321,33.159249500356495,76.12350157315349,0.41086422544470547,0.5304814823678354,0.4174605064468023,1.758418863030552,1.3370597168052658,1.3068815888788694,0.20330385389717304,0.5847005973106835,-0.4617088875763735,0.6018011967700405
0.41,-114.44126223419046,62.638112140130936,179.84042246147968,0.19324390950943804,0.7219755320622149,0.08867503302154275,0.7021808049474039,0.27179939791530866,0.22924292404157087,0.4614938497438438,0.7191331885757657,0.2802574346362737,0.4369186692111504,-103.09593073563336,56.13160888533828,172.59938982883088,0.06706034710236358,1.2693315623622727,0.1845468381470463,0.8185487885992682,0.4954450314871529,0.5473060800942808,0.5244243307009596,0.7093437231229949,0.24568983282806567,0.40500612452885487,-160.59639617829208,35.7498830542647,95.98693967963924,0.3269922433695714,0.15747619716670005,0.20764125146139642,0.6772653749472318,1.1244743552360266,0.9764381893462659,-0.0833758607936181,0.7309974416504817,-0.5905283051374789,0.33064249390740447,-99.3830527159873,36.117720532689,84.93149003496485,0.3928905875340599,0.5678329805890331,0.40280087840484996,1.855965251624512,1.226867486905617,1.2663695685606056,0.2422053738095516,0.6174639554527932,-0.3912517775913776,0.5991473378526316
0.42,-114.69595179221385,63.40467872064266,179.774331378151,0.1922300378851917,0.6783581717832232,0.08501791820629775,0.7115136396687642,0.31429394614411765,0.24969184237623954,0.4579499816869556,0.717437946610398,0.2822226995118032,0.44250971442216525,-103.21553033666501,57.571273324477716,172.0100995861242,0.08135967011982656,1.2586431858565894,0.17451860309973138,0.8609315651314489,0.5205036835722153,0.5484997535596129,0.5172251928937889,0.7070849061922669,0.2488506785512981,0.4162892969197297,-160.21286579559663,35.909027611974686,96.07361197844837,0.30069198396672886,0.1766823176079871,0.22735814128669798,0.6482540607946469,1.2008594540563198,1.1017865856556899,-0.08152707365924242,0.7313057548534676,-0.5884231896582405,0.3335879465263183,-97.17271483647166,39.09386503081281,93.84168634357411,0.3782771711080813,0.6090003149870657,0.3904228237130291,1.9170821436026027,1.1111851667457062,1.221298143830207,0.2822194259604801,0.6446911991257314,-0.3177742244270074,0.5934995732622046
0.43,-114.9283838074856,64.12122025966748,179.66447633295329,0.18857488757031268,0.6342936911711858,0.08115991122336685,0.71114513853443,0.3542361084259423,0.2780298982205875,0.4544722296565124,0.7159079899728409,0.28378893914585923,0.4479092372343485,-103.30051808998905,58.997904999998816,171.3678257726294,0.09909273242789954,1.2433838915223,0.16173247440993613,0.8951138804474278,0.5408437755916223,0.5417460486422687,0.5098893310151972,0.7047590450739755,0.25182552875705827,0.42751087687897094,-159.81567337348224,36.09531702768937,96.09560391893801,0.27596743480948016,0.19931658286088824,0.25797788105523867,0.6377018374745446,1.2905278747023454,1.2252990677119993,-0.07996186750353622,0.7312920417999881,-0.5865510068670273,0.3367699347086512,-95.03017313100844,42.05627597216974,102.6861034127753,0.3674701871330683,0.6521742039745713,0.38105639511560774,1.9410074956083359,0.9968766333689314,1.177128031900789,0.3223302669669297,0.6659096635956399,-0.24273713964502658,0.5850851545930287
0.44,-115.12441464933357,64.78725830738021,179.5138895687347,0.18285314560696236,0.5908413884291047,0.07730246409396693,0.7010039851663501,0.3889829982003693,0.312580921775819,0.4511515749849167,0.7144836794229039,0.2850172217831714,0.4530769772778415,-103.34521349729287,60.40751121088285,170.6704529899629,0.11942483674406236,1.2235645961930912,0.14707645510738346,0.9211428798424717,0.5549364329736944,0.5282243746998413,0.5024506414505918,0.7023600022854742,0.2546168612132523,0.43862157933109,-159.40559344984018,36.3091195626848,96.05813470260682,0.25270507793432384,0.2242829029616071,0.29613556884016096,0.6425776284840863,1.3859559576369211,1.3370140543495506,-0.07866866037749311,0.7309941338107275,-0.5848825709263928,0.3401993347695566,-92.99565664118353,44.97351561599769,111.29497433875288,0.3605606633114773,0.695303238218678,0.3751660843507483,1.9299101356914459,0.8913114210196362,1.1404635572719521,0.361492772829201,0.680994535559081,-0.16772354388345798,0.574316850225571
0.45,-115.27298707315983,65.40361298511499,179.32746134992706,0.17570416722748275,0.5488669738467886,0.073575202000979,0.6814835339431623,0.41627933377109416,0.35107791117794734,0.4480652009928128,0.7131076795931236,0.2859741292907971,0.4579793776961277,-103.34614804791796,61.796736928947624,169.91746136447654,0.14130769165766618,1.1991965503497939,0.1315603210152017,0.9391285159352581,0.5614562198655809,0.5093801374518762,0.4949347874406268,0.6998863085541657,0.25722658115030583,0.44957793913400707,-158.98891889977264,36.54573474058404,95.96854918012095,0.23102688873083044,0.2500795080712993,0.33806322046002013,0.6584548927169707,1.4789807117005271,1.427835218737549,-0.0776320957867345,0.7304580260591724,-0.583410623862046,0.34382468283108014,-91.10696701546601,47.81435189630215,119.50294652123866,0.35728010494826445,0.736186478119107,0.3729375675010259,1.888777718071294,0.8019957249143125,1.1184392830533345,0.3986850479837467,0.690161260725361,-0.09436783669482375,0.5617657606334004
0.46,-115.36653233267153,65.97223343783243,179.11174060874072,0.167735548601221,0.5090239895428614,0.07002404907365369,0.6533823408268788,0.4344766275091404,0.3908246956688399,0.4452747204425716,0.7117275939094272,0.28672905573043705,0.4625896193043992,-103.30259408667743,63.1626862374589,169.11022337668237,0.16351998258197908,1.170304463297764,0.11622326733111057,0.9490636011786697,0.5594645568355846,0.48680224956179996,0.4873580765493919,0.6973427824875601,0.2596533335210277,0.4603431749959515,-158.5766926970168,36.796070861900674,95.83670456224678,0.2112698804935519,0.274916583721332,0.37992675095502104,0.6800653129788569,1.56171558320304,1.4904701321788068,-0.07683267199239867,0.7297395650341643,-0.58214343860863,0.34754062968243027,-89.39784631683493,50.54814665518709,127.15586264388773,0.3570287312819165,0.7725823253820231,0.3742884464904319,1.8249825787725176,0.7360859206414503,1.1179594965981174,0.4329636472474296,0.6939310251250443,-0.02427489930992995,0.5481192824540504
0.47,-115.40113785595001,66.49598806859319,178.8745797714151,0.15944465843713773,0.4717467754739816,0.06661466044550136,0.617868442682802,0.4426708757719524,0.4289171686740961,0.4428251988630049,0.7102985686734068,0.2873511349109853,0.46688754343230415,-103.21691445089836,64.50268427639757,168.25221587718337,0.184731535181259,1.1369527050792536,0.10203308431904143,0.9507150378955749,0.5485576269976477,0.4621122767035321,0.47972746147691003,0.6947419998884508,0.26189016474310556,0.4708869356491068,-158.18329046412833,37.04785577616306,95.67504699047069,0.19394584057092926,0.29688559365201755,0.4181766329506911,0.7019634183652106,1.6273999647582964,1.5201039609452531,-0.0762460002403434,0.7289047387370126,-0.5810957445712696,0.35120294379821787,-87.89613956559032,53.14546633776528,134.1179929896974,0.358936476198888,0.8023322436554748,0.37890138928163025,1.747532129399945,0.699804363727683,1.1448488977652347,0.46351846333013264,0.6930728151679808,0.04106677679325468,0.5341269636227148
0.48,-115.37649807714216,66.97842188550057,178.62463781987725,0.1511712505501083,0.4372566556113572,0.06324998922617224,0.5764545628889631,0.4407350422928248,0.46250678071276774,0.4407447125675659,0.7087858902177665,0.2879057582422434,0.4708595633863682,-103.09466765615267,65.81402770956944,167.34909866412448,0.20359250746693244,1.0992789007922772,0.08979163877495325,0.9436160997740828,0.528949698690453,0.43686678547680596,0.47204169362801945,0.692105316542596,0.2639229094724643,0.4811842257007176,-157.82443066540964,37.28730951681654,95.49833966219344,0.17968465168248393,0.3141610585904508,0.4498739289742308,0.7192077616436598,1.6710353816505956,1.514725011433867,-0.07584174812244736,0.7280284438385203,-0.5802777916048816,0.3546490799658909,-86.62189990410593,55.57893369081854,140.27936479654943,0.361953219308159,0.823494280132747,0.38627493316707084,1.6660621872934789,0.6978038491796873,1.2029954804552692,0.48972347512576486,0.6885276252381534,0.10037205514967223,0.5205385324467594
0.49,-115.29567804408691,67.42348995769002,178.37077339541574,0.1430864345125795,0.40558125408052836,0.059798443831167024,0.5309639568407686,0.4292521190531273,0.48907759828283376,0.4390442360802659,0.7071674306480337,0.2884508154277967,0.47449864127449626,-102.94442380530624,67.09376335842842,166.4086222267045,0.21884356643131236,1.0575274588531696,0.08006055938200136,0.9271686719552792,0.5014817122814695,0.41247272153296294,0.4642935294170464,0.6894631666193403,0.2657296095898397,0.491213870506033,-157.51479641463516,37.50112141860137,95.32305026733451,0.1691654547813074,0.32520832675460387,0.4729513099475472,0.7279534240862845,1.6897152334591423,1.4751037420995587,-0.07558250483182509,0.7271917974608949,-0.5796838648516915,0.35772233356996574,-85.5856639518313,57.824276153192386,145.56259661653095,0.36496068452391817,0.8344772045183887,0.39578426687092966,1.5896852322464279,0.7325530085736296,1.2935858509721843,0.5111788470226214,0.6813221386189616,0.1526388528691338,0.5080397784415124
0.5,-115.16472644850221,67.83527668552145,178.12137112319377,0.13521530073898472,0.3765849396507919,0.056128023248606745,0.4834675688249338,0.40937693943390885,0.5066987572276647,0.43771773447308115,0.7054356627623616,0.2890328783428087,0.4778043975808522,-102.77727777408082,68.33852123407688,165.44035061680498,0.2294360617950681,1.0120750031876897,0.07311692496994755,0.9008387357622968,0.46756185686269214,0.39011825409986306,0.4564727985640126,0.6868544911203827,0.26728118468668655,0.5009568668691968,-157.26555590402967,37.67849395410317,95.16645431210607,0.1630400963284285,0.32896449917502024,0.4863715535151982,0.7258646635663979,1.682643191096549,1.4044925673904474,-0.07542295830499082,0.7264782100002016,-0.5792819333508546,0.3602966957224364,-84.78718159842497,59.861463748944345,149.92844327876006,0.3668948495052111,0.8341624303860179,0.4067425942962384,1.525847086061875,0.8038336918857685,1.4145438873192353,0.5277395396265643,0.6724804795380527,0.19721231355460875,0.49719297652521915
0.51,-114.99217655661491,68.2177115785739,177.88364928704942,0.1274846882906802,0.3500079565034314,0.052141706315354516,0.43618422687973785,0.3826634573004356,0.5142143285370969,0.43674238122928016,0.7035989424780075,0.2896835429377255,0.4807834009166552,-102.60608335047128,69.54441668370234,164.45521298579152,0.23464487005941825,0.9634404026095718,0.06894375840060847,0.864404361770866,0.42905398164647546,0.3707256437517466,0.44857006619975165,0.6843253149085847,0.26854340269512217,0.5103949013051712,-157.08213698783868,37.812964318686,95.04555876348309,0.16185386959500872,0.324959946701314,0.49015927892585104,0.7122936892516685,1.6509098791387709,1.3081348360606435,-0.07530977226360698,0.7259685781350768,-0.5790062033223422,0.3622989608417217,-84.21489802348127,61.67577998274816,153.37915740088937,0.366865156947835,0.8219987328493565,0.4184540852355748,1.4793633753220952,0.9084469063198326,1.5602806627824504,0.5395258818984789,0.6629431406226016,0.23382528485036813,0.48838887729700586
0.52,-114.7884708783518,68.57429455850641,177.66299880275182,0.11978478611490101,0.32551209512683194,0.04780962462122689,0.3913499685384601,0.35089200845896545,0.5113448906356545,0.43607885539344493,0.701681854708978,0.29041613595368165,0.48344962777076933,-102.44446958792102,70.70703131445943,163.46492184941516,0.23415359394295454,0.9122743898586472,0.06725560542046705,0.8181970807174298,0.3881333845329431,0.35493419698231193,0.4405805309305831,0.68192661029762,0.26947996735321883,0.5195092245918888,-156.96261547619585,37.90371582475587,94.97598490319558,0.16596977353695527,0.3133595079287573,0.48530579664575846,0.6882195290161276,1.597128450703053,1.1926578431692174,-0.0751823484687011,0.7257361212566773,-0.5787540753740247,0.3637246827896875,-83.84643527963406,63.258649031620514,155.95885048078455,0.3642556375195736,0.7980550601569198,0.430252211358538,1.451795567052918,1.0402115286127804,1.721843030582712,0.5469127556010532,0.6535015834148231,0.2626084252753944,0.481816583154866
0.53,-114.5653407177076,68.90784679024058,177.46240428975332,0.1120327453604547,0.3027302056174503,0.043193962216795945,0.35107098287447414,0.31592316333616394,0.49869367650335983,0.43567176306725275,0.69972457016441,0.2912230362215263,0.485824996154357,-102.30573414960517,71.82148201290124,162.48131574966217,0.2280943082075645,0.8593274365429308,0.06755539445409292,0.7632701736360973,0.34713105251616755,0.34311760905547106,0.4325077373987256,0.6797116359475686,0.2700563526823366,0.5282799773142609,-156.89700309464467,37.95615476199481,94.97095473306645,0.17550343903821436,0.29492192783142257,0.4735713276366651,0.6559822468008674,1.5250235741559377,1.0654074049673357,-0.07497437679770912,0.7258415103431642,-0.5783884088747867,0.3646453501927012,-83.65019289190961,64.60806446835237,157.75034500412593,0.35879350506749635,0.7630202819507071,0.44152190275703135,1.4412847420426278,1.1903076481372947,1.887508214003959,0.5504963461586314,0.6447550209312449,0.28406645172922795,0.47745561636709966
0.54,-114.33516752020454,69.22030535127797,177.28199694173986,0.10422733673097782,0.28131545475145087,0.038463355232400166,0.31717632000827356,0.27959373435912416,0.47766650688771295,0.43545039302708666,0.697781265001609,0.2920739204160336,0.4879397958571913,-102.2017318847541,72.88258574540738,161.5156983232812,0.21703189726026362,0.8053992314427624,0.06921482835670949,0.7014403561398685,0.30838634314185687,0.33543125604206464,0.4243666832662296,0.677732917806343,0.27024395140271973,0.5366859910670911,-156.86758302499015,37.981644167212366,95.04049605622312,0.19027529995302764,0.2708936407647706,0.45722066148403573,0.6188720561555413,1.4390431259365835,0.9337819492427483,-0.0746159215264315,0.7263289106204982,-0.5777451987742682,0.36520550354824177,-83.58799261706486,65.72852976691807,158.8685299910043,0.3505734426382706,0.7181458763132762,0.45170897712295127,1.4428933144432101,1.3479666149162008,2.0438125078139744,0.5510406164549984,0.6370926032424289,0.2990216896867841,0.4750912596243448
0.55,-114.11034971196145,69.51258097101551,177.1187834252487,0.09648560096824495,0.2609851304592162,0.03389497491312013,0.29108572023526297,0.24365855985166382,0.45032419183932315,0.4353301689626729,0.695917666262159,0.29291526374316357,0.48983279002142416,-102.14188368997736,73.88512011576212,160.57825247631237,0.20189380835115325,0.7512780866246817,0.07156721060012744,0.6351846700343539,0.2741220511265706,0.33187428398678936,0.41618594311793167,0.6760389592815045,0.27002413830210803,0.5447050511257377,-156.85027210773094,37.996426405941214,95.19092798740009,0.2097844644021938,0.24286135673113937,0.43872593015013384,0.5806403659389746,1.3440271163105826,0.8046359708659966,-0.07403586937247278,0.7272233305706046,-0.576645927293872,0.3656101054611683,-83.61847865901122,66.63051093427184,159.4508381671809,0.34003142931878344,0.6651373530526903,0.4603238968126624,1.4494182529036945,1.5014503688371013,2.176925469265904,0.5494090287909615,0.6307002749603178,0.30853116874614056,0.4743505076960017
0.56,-113.90269608022335,69.78449707808129,176.96658452926786,0.08905526442331133,0.2415537768471369,0.029863991621984956,0.27370607138313957,0.20977167199703353,0.41918901477020604,0.4352151686076709,0.6942077616276459,0.29367138113366986,0.4915507748391639,-102.1324175792308,74.82416514137245,159.67760480338268,0.18385685170604377,0.6976820208990837,0.07399982478275385,0.5674178619964857,0.24634508346699427,0.3323438269886953,0.40800849181890747,0.674670700437969,0.2693919029406014,0.5523145761825322,-156.81682938080178,38.019896982180306,95.42463224535868,0.23320675493857623,0.21258734514499425,0.42046359464756444,0.5449954442849804,1.2449311368295914,0.6838222498214547,-0.0731647685143676,0.728529347749143,-0.5749131284343362,0.36610394806146296,-83.70081818928071,67.32948744008071,159.64596500028807,0.32787040323385025,0.6060099262600482,0.46694822971076266,1.4525458863166676,1.6392025388100349,2.2741930915141393,0.5464895897408805,0.6255879561978971,0.3137875523300516,0.4747527719400068
0.57,-113.72286500822418,70.03482474193116,176.81620498217876,0.08230035166938202,0.22295163690176592,0.026820933748007824,0.2653669934845956,0.17949330822961745,0.38702589016412947,0.43500189066296635,0.692729738102794,0.29424719862213217,0.4931474612829722,-102.17592245532738,75.6954940675859,158.820599357606,0.16421107602144136,0.6452133035951151,0.07603326412902188,0.5012061950331737,0.2267658038191638,0.33666005602529975,0.39989102637087504,0.6736577831345115,0.26835873543941025,0.5594926247283916,-156.737614536567,38.07248223234597,95.74007592724794,0.25941904191177817,0.181847009259557,0.4044314817141236,0.5151360341014168,1.1465757503160683,0.5759164117832218,-0.0719382086572119,0.7302310555964548,-0.5723872498044879,0.3669459538009007,-83.79817948931921,67.84474588432101,159.60220455236592,0.31494928408685086,0.5429303298882081,0.4712513111883235,1.44413989338032,1.7510050586025703,2.3255997308388596,0.5431222872344655,0.6216302727843173,0.3160161432093248,0.4757676717302069
0.58,-113.57986773755756,70.26142172779494,176.65584696975108,0.07666196507629071,0.20522644973951587,0.025257444619703157,0.2658023724081697,0.15430385652555365,0.356616715027186,0.4345841771210296,0.6915612921716845,0.29453284702236565,0.4946816312592806,-102.27125103019512,76.49596730692568,158.01230865806616,0.14422453736688134,0.5943349839845427,0.0773771742460257,0.43948064901391665,0.2167257038784492,0.34455275244546685,0.3919017916026601,0.6730148485825218,0.26695446515941634,0.566219089139181,-156.58454538847465,38.17340821928177,96.1320369666081,0.2870521200490233,0.152284253438516,0.39201510895201336,0.4933678934781156,1.0533936427916109,0.48412596164940785,-0.07030081098908322,0.7322930427722054,-0.5689427988029311,0.36838172616583154,-83.8805105043895,68.19808395788975,159.45674598436486,0.3021539126863789,0.478067670993304,0.4730211782149735,1.4174250976450873,1.8289584600968294,2.324887035086435,0.5400372360799306,0.6186131965787175,0.316379850747346,0.47687207310257296
0.59,-113.48065137832351,70.46147556823398,176.47177541199855,0.07260097676223035,0.1885288854339916,0.025661019038159576,0.27417971274279096,0.1356026918523831,0.3305449114492623,0.43385902627785083,0.6907745154875067,0.294410105597083,0.49621455500965983,-102.41376069928056,77.22388025804887,157.25626469889534,0.12503077829603867,0.5453729337748973,0.07795526451270814,0.38479931330154993,0.2171270600595028,0.3556175073770531,0.3841171543206939,0.6727383162585409,0.26522779081791664,0.5724769227984591,-156.33390917737216,38.33863165786633,96.5919889682215,0.3145720662611408,0.12529624474624135,0.3838332981054301,0.4808407821484062,0.9691718778724052,0.4103480346298045,-0.06821066355951547,0.7346623105590054,-0.5645019815973216,0.3706176433395601,-83.92627915763957,68.41258402413312,159.32700851530905,0.29027138810164693,0.41347139059603605,0.4722076048712008,1.3678743682217032,1.8681398590782512,2.270149783041202,0.537809660385769,0.6162795530851068,0.3159017649952807,0.477599718360641
0.6,-113.42977320316828,70.63184079758022,176.24923565317462,0.07053284410250042,0.1730838444132326,0.02846054772025422,0.2891727702221914,0.12467245984682686,0.31100492773612454,0.4327330160042016,0.6904305892647279,0.2937606472577318,0.497806654042142,-102.59584034499169,77.87922417251086,156.55484437868344,0.10755390240775237,0.49854155938568795,0.07789687499369147,0.339185970639634,0.2283646658482785,0.3692637794693386,0.37661733424624294,0.6728042296307881,0.26324533823544355,0.5782532763775374,-155.96873107072847,38.57915474797941,97.10861482097756,0.3403842857074763,0.10195418826757444,0.37968695309023615,0.4774326928859249,0.8968144789399652,0.3553187276420213,-0.06564378810583675,0.7372711119120082,-0.559044452037373,0.37379932037001995,-83.92302820959846,68.51158237329089,159.30469054850943,0.2798878840543009,0.3509851841496497,0.4689678390142827,1.2937037809561611,1.8668673389773998,2.163869769352098,0.5368348568899547,0.6143680098292819,0.3154115578089675,0.4775788044105296
0.61,-113.42917468984591,70.76944956293882,175.97360325786556,0.07076576721499848,0.15915159092765468,0.03396696727384882,0.30906799113500366,0.1226002243202881,0.2996468010428152,0.43112906933744727,0.6905745809238482,0.29247585774672236,0.4995134493262234,-102.80764443573499,78.46383494936877,155.9097087665315,0.0924765508517987,0.45398662868282347,0.07749748313325552,0.3040493377570397,0.25026460424165525,0.3846817528570043,0.3694817294907664,0.6731677148066196,0.26108924956413265,0.5835404808541327,-155.48047224938284,38.8998852007488,97.66842729993604,0.3629479509415785,0.08296125043920356,0.3786230316775603,0.4817935824414603,0.8381571079326008,0.3187948756083178,-0.06259806900057512,0.7400406681267685,-0.5526122428454132,0.3779965777477218,-83.86679655730484,68.51790726011795,159.45277523258505,0.27132477905540636,0.2921965372768046,0.46370010077910445,1.1959769596936212,1.8265790105530413,2.0124722091917575,0.5373232272351198,0.6126423473187553,0.3155180583623874,0.47655517047844953
0.62,-113.4780641783891,70.87176371825711,175.63170789385757,0.073452149540026,0.14698416005518616,0.042315901702320226,0.3318945726891162,0.13016273105165882,0.2974604681033324,0.42899319316890294,0.6912307528246432,0.2904676940039937,0.5013810055251274,-103.03794463682168,78.98142110324657,155.32218660160552,0.08024638714269368,0.4118356551754697,0.07715550364626735,0.2801713660713907,0.28203863379957833,0.40084933377750803,0.3627842071588573,0.6737644027124317,0.2588535020872,0.5883368732544705,-154.86990486776529,39.2991426718291,98.25647606828821,0.3808853666785555,0.06864460535944315,0.3791100487587861,0.4915457021933666,0.7938517856135989,0.2997226978153065,-0.059096054077493625,0.7428856025611017,-0.5453093752619927,0.38319627621782654,-83.76063016141556,68.45339517501368,159.80534248684344,0.26461954884433725,0.23841750731681965,0.4570473843016393,1.0783750877813147,1.751397731721944,1.8255442351629945,0.5393128844506612,0.6109100520757261,0.316606651913119,0.4744009649189591
0.63,-113.57291947927209,70.93722671652841,175.21322769762926,0.07856065121156973,0.13678310048238057,0.05342063821953249,0.3555699078970042,0.14769607508780572,0.3047016712942425,0.426300612163113,0.6923988958425749,0.2876796845376572,0.5034413134652538,-103.27500994151507,79.43747449857298,154.79351189149048,0.07110936072897986,0.3722454691062118,0.07729639442815192,0.26774463351406846,0.3222655836582251,0.41658784975111207,0.3565886556846043,0.6745138895219296,0.25663929553606485,0.5926474803779692,-154.14708887959904,39.76885344186525,98.8571165691824,0.39307290804101025,0.05897670815373979,0.3793028908476793,0.5036224916869813,0.7633280531264497,0.29636996939051846,-0.05518611947528758,0.7457188065708077,-0.5372960400680609,0.38930358046146823,-83.61252681668145,68.33863700265118,160.36972414578062,0.2595483820082816,0.19069345647210237,0.44985671106831526,0.9467085312302062,1.647490835811855,1.6148505617208355,0.5426954964870013,0.6090311847802304,0.31885711849175086,0.4711105517595241
0.64,-113.70762324086796,70.96566640933,174.71201163729577,0.0858726159816467,0.12866424069240043,0.06694359316326061,0.37805343042409484,0.1749747934962944,0.3208617194657302,0.42306052619863405,0.6940522190931029,0.2840968609600444,0.5057082284897342,-103.50743497831765,79.83907447906644,154.32486678391328,0.06515513053846037,0.33543742950032573,0.07829636278304801,0.26643555413547176,0.3689110449935564,0.43065912932731315,0.35094506907396067,0.6753250042453274,0.25454989935133243,0.5964845447997038,-153.33045901032128,40.295410502822584,99.45481087144712,0.39870596888706705,0.053620801256652,0.3773562023884585,0.5147104967534541,0.7448421506984614,0.3064217132125772,-0.05094161159065192,0.748456380773496,-0.5287776580263641,0.39615140057755566,-83.43321180190642,68.19287146410018,161.1303380531137,0.25568033149237607,0.14983680160226015,0.44309009541720135,0.8082516719074183,1.5223456196777065,1.3932575525735327,0.547250068161398,0.6069197517594586,0.32227559687707735,0.4667867539835281
0.65,-113.87374263010268,70.95859679896365,174.12716659308137,0.09500271345461708,0.1226345167961064,0.08229273199368739,0.3975013041068155,0.21112258200407394,0.34468541515546697,0.41931865798155826,0.69613724953673,0.2797532309953057,0.5081746159021581,-103.72485057192849,80.19459859044548,153.9172325997075,0.062362059754057515,0.3017125494516434,0.08041666870445416,0.2754510102171801,0.41939246249720274,0.4418813007541431,0.3458864417309257,0.6761023438553735,0.2526853595745192,0.5998678214686912,-152.44511984955196,40.86110344290592,100.03492478336271,0.3973364139754626,0.05199592022178538,0.37173270451608,0.5217394073718278,0.7356358413720439,0.3270569650566501,-0.04645772546055808,0.7510222830556745,-0.5199895906520271,0.40351689461621193,-83.23411262855032,68.03393900801287,162.05348442279364,0.2524501455698116,0.11647862843729251,0.43770162308740823,0.6709863770433547,1.384073685762181,1.1736634209240313,0.552679400438116,0.6045402239944121,0.3267338465807383,0.46162104129041387
0.66,-114.06096014999551,70.91937013117882,173.46374849768443,0.10543999664619381,0.1185852653287827,0.098646538442129,0.41241284303888076,0.25457066389546307,0.3742430316551022,0.41515687906930426,0.6985760274431898,0.27473542938748136,0.5108112314857506,-103.91847001770552,80.5133532478663,153.57110069206584,0.06263436888828693,0.27144202589812655,0.08375657532777198,0.2935939218320388,0.4706908971961731,0.44923090931828924,0.3414267565288803,0.6767532861344203,0.25113746814328575,0.6028245333948498,-151.52053750757224,41.445947925674936,100.58447865754982,0.3888847967546765,0.053355987028235255,0.36145087569714723,0.5223496572249802,0.7322198415983614,0.3550311396239481,-0.04184611787295715,0.7533523559169071,-0.5111787784770563,0.41114304271240143,-83.02579711620389,67.87822742281948,163.09248428760745,0.24923757867837065,0.09112502925535104,0.4345110791521286,0.5428397996118098,1.2408390234114883,0.9680277101831872,0.5586449520474555,0.6019014515921389,0.33200986278754463,0.45587088749460014
0.67,-114.25765317949917,70.85314232669181,172.73292371043573,0.11660294147711706,0.11630468970312026,0.11500746452740952,0.42175845533212647,0.3030733754480644,0.4070605815444628,0.4106894851883608,0.7012706279540947,0.26918146146272953,0.513567642576223,-104.0814473466503,80.80513861960834,153.28612746150426,0.06582949196311229,0.245033886725605,0.08822975060116175,0.3193078677095476,0.519505995239796,0.45190105792132945,0.33756030665973824,0.6771945950159136,0.24998536120542358,0.6053888760089597,-150.58789332675326,42.029683482581675,101.09280178848238,0.37363049456900055,0.056875888432990525,0.3462278395244297,0.5152619274682805,0.7307682217799251,0.3867847259287633,-0.037227624142593084,0.7553974808757306,-0.5025840903365626,0.4187626158977921,-82.81699437010411,67.740567612205,164.19272779923367,0.24544262214858795,0.07420243389677632,0.4341088103773498,0.4309946218881479,1.1004693109568338,0.7865802510048593,0.5647973836650179,0.599049383231829,0.3378256916897456,0.44983654925920064
0.68,-114.45160506379216,70.76663467914639,171.95151591216563,0.12790036486268452,0.11550841842640923,0.13027978817204613,0.42507934037222195,0.3537843551245728,0.44030676985046235,0.4060560725056083,0.7041097318536296,0.2632739772196811,0.5163752653724989,-104.20904714700858,81.07976636417459,153.06082617333425,0.07177722812926986,0.22288239716304514,0.09356607873243256,0.3507247584915831,0.5624470809535153,0.449301541783076,0.3342624730384127,0.6773578421680937,0.2492919976097408,0.6076009936052497,-149.67740854442567,42.59368006413116,101.5520361784415,0.35218191866827453,0.06173588207559839,0.3264963034440081,0.5004830533863852,0.7275735503304258,0.41858900454286363,-0.03272384296953887,0.7571256702257894,-0.4944175556324942,0.42612159574601643,-82.6141797672899,67.63406384547378,165.2963943174492,0.2405480819535411,0.06607924701925673,0.4368167093164687,0.34133342689420193,0.9702510904599281,0.637263310314449,0.5708016148659498,0.5960591775661214,0.34388026191856436,0.4438384572794051
0.69,-114.63081030139888,70.66770096325492,171.1409221118259,0.1387892117428762,0.11588201153138879,0.14336393712823686,0.42254908076174685,0.40339100850698767,0.47102778364927145,0.4014114056271475,0.7069766836084582,0.25722821115256006,0.5191523984325549,-104.29864572728366,81.34655635001705,152.89237307467653,0.08029312264686393,0.20531070234353013,0.09933815843646371,0.38573527478087233,0.5962498483346119,0.44101129843076375,0.3314919054352209,0.6771931296436805,0.24910161139425893,0.609505403698246,-148.81594268991876,43.122511940851076,101.95743995955371,0.3254276894941844,0.06719541267325539,0.30330269617067585,0.4793097952827495,0.7194856290008075,0.44672811953278047,-0.028448578988289876,0.7585229370184655,-0.48684873439387055,0.4329993639281871,-82.42160694556391,67.569862102622,166.34674492912234,0.234163725019621,0.0670584386287203,0.44271164151751374,0.2780553052982342,0.8568435627668801,0.5254295066688115,0.5763563518598493,0.5930267551980257,0.3498766009995492,0.4381956429852758
0.7,-114.78431307915932,70.56473786909933,170.32546404695793,0.14882095482332416,0.11712528238867519,0.1532561951638367,0.41498273708271044,0.44830154013584494,0.4964140696733616,0.3969131495193245,0.7097582610178123,0.2512754915722166,0.5218109277129684,-104.3495978264094,81.61384606065624,152.77657414231476,0.09118720833692966,0.1925176476163813,0.10500887633350175,0.4220979060277289,0.6180049559920449,0.42671378333165144,0.32919388707838554,0.6766709126212493,0.2494381129046342,0.6111489309807474,-148.0251120971901,43.60502136928252,102.30745607372516,0.29446946800971685,0.07264881759077478,0.2781182144011894,0.4541313646760939,0.7042512727409986,0.46770668839819535,-0.024500088692692573,0.7595928368638032,-0.479994117779352,0.4392236927110162,-82.24162310838642,67.55687241770461,167.29195205597637,0.22604946549328003,0.07734390832760168,0.45169779587294534,0.24347716481255116,0.7662050459552701,0.45378829793759123,0.581208668816023,0.5900596359262604,0.35554370452664114,0.4332052824188704
0.71,-114.902998634252,70.46600292217128,169.53032802099705,0.1576717131840247,0.11898743437370535,0.1591411054346776,0.40377303525420305,0.48487959258463587,0.51407329356378,0.3927087828814838,0.7123532415112104,0.24564394668571649,0.5242641269711278,-104.3630105318303,81.88855103858948,152.7080000995537,0.10426748606625558,0.18453800285688543,0.10999367458200016,0.45759087872397924,0.6253816537424155,0.40615182808568706,0.32730452409814065,0.675782025244443,0.25030437281956275,0.6125783433325346,-147.320083572466,44.03478773474897,102.603535578115,0.26053866230457384,0.07765816098122315,0.2526079584632801,0.42807143145591786,0.6806938518671639,0.4784653848075365,-0.020954846173959783,0.760354704901689,-0.4739126845529972,0.44467951402241596,-82.07510393713777,67.60146970845784,168.08842747137706,0.21611810617847937,0.09698906232262239,0.4635993641107678,0.23801146837936088,0.7034352883936501,0.4225664258458666,0.5851644381024194,0.5872670076216981,0.3606535970909256,0.4291235231631186
0.72,-114.9802495267889,70.37892208354329,168.77931980567178,0.16515572354433045,0.12128491819170839,0.16046461044432112,0.39073782878910995,0.5097236358644747,0.5222705365537746,0.3889232648381891,0.7146797988301783,0.2405385795027793,0.5264347343352617,-104.34146645978468,82.17581471337087,152.68025985614608,0.11933712214836453,0.18122260890371855,0.11372926895742991,0.49019437140115363,0.6168251730139466,0.3791280460732439,0.3257552883610424,0.6745362772643381,0.2516823449118131,0.61383801012084,-146.70909559500444,44.410015949116485,102.84973213644133,0.22490237277872133,0.0819618965923181,0.2284035753801963,0.4045372663375548,0.6487132908803357,0.4765857758429367,-0.01786328598917061,0.7608407890542244,-0.46860777720406604,0.44931137591988624,-81.9218798046522,67.70720627058502,168.70355881866877,0.20442112316296054,0.12583814632375917,0.47823929861998904,0.26029957902531176,0.6724942010636344,0.4298268266402755,0.5880952642909841,0.5847493368500838,0.36503392565893683,0.4261481952032976
0.73,-115.01238976407313,70.30947440572443,168.09270377124807,0.17122424436109843,0.12389972390044782,0.15697912739076286,0.3778851401001814,0.5199844199698173,0.5200901931050491,0.38564898015541554,0.7166808528091796,0.23612312364582821,0.5282623619816184,-104.28873194879816,82.47877982859231,152.68635677691142,0.13618566574801227,0.18224102106505904,0.1157400111956134,0.5182733593097902,0.5917023716533444,0.34555629883381306,0.32447738996059394,0.672960162698176,0.25353402182975276,0.6149679439835146,-146.19366764065586,44.73293788256132,103.05210979849352,0.1887676594491825,0.08546131600503543,0.20691461309777376,0.3867522991175189,0.6091309493143489,0.46046859778714044,-0.015247772800778749,0.7610926273648428,-0.46403455029759577,0.4531202295116024,-81.7810802214805,67.87457857098437,169.11769863779188,0.1911237507258351,0.1634708597234149,0.49547622293101334,0.3074735892256858,0.6758330140390924,0.47188130867267347,0.5899421518714166,0.5825883454808073,0.3685760110096327,0.4244045882514668
0.74,-114.99886758946981,70.26173162487603,167.4853977318912,0.17595114573981965,0.12676218203530645,0.14875645734038404,0.3671311983042931,0.5136988957008735,0.507484861466231,0.3829391623225294,0.7183267594324452,0.23250596282319932,0.5297093544941203,-104.20947435571303,82.79850023627779,152.71906675483888,0.15457640979634266,0.1871040965946319,0.11569358890673583,0.5407225715234509,0.5503716792108604,0.3055499910464862,0.3234055277809936,0.6710942273831162,0.2558032261913006,0.6160024926056321,-145.76939094867313,45.008869776455356,103.2180264702599,0.15319571505822974,0.08818908302231947,0.18919848315346302,0.37734146337990815,0.5634306676036651,0.42947114040185713,-0.013102887921078105,0.7611570852879692,-0.46011156204884673,0.45615567244210575,-81.65137959151208,68.10089810168026,169.32521274343958,0.17647676148713193,0.20916004934409252,0.5151875755903601,0.37551566544895576,0.7140290760825261,0.5437349980769064,0.5907156352100436,0.5808386174407153,0.37123795739906007,0.42393589481728466
0.75,-114.94216457780851,70.23760807948133,166.96575954453238,0.17950516022774932,0.12982628124861997,0.13616935640461364,0.3600248473658776,0.4900958471782022,0.4852037573540261,0.3808054958259611,0.7196151259133002,0.22973192324049457,0.5307644170603169,-104.1089985109494,83.13399239357798,152.7712911013573,0.1742330404632715,0.1951996016687684,0.1134390050363891,0.5570398269860657,0.4941648546588925,0.2595225423528165,0.32248077366280364,0.6689904599680765,0.2584181929438472,0.6169697386254906,-145.42715409932424,45.24508620470187,103.35536817057043,0.11903729968606079,0.09026575668435835,0.1758941099678538,0.3780216399905458,0.5134542828715268,0.38398676048959307,-0.011397981155461562,0.7610824604412093,-0.4567347213830553,0.45850502756112815,-81.53116826429067,68.38031646560749,169.33442250131452,0.16079074280152905,0.26185104938271353,0.5372061021083999,0.4596793597202736,0.7855310742209668,0.6395136809147607,0.5904918235461647,0.579522203141087,0.373042425933697,0.42469990168471317
0.76,-114.84745357470264,70.23684521629347,166.53513601774867,0.18211069451248896,0.13304556741680815,0.11984687869414348,0.3575309314003075,0.44980820778156305,0.45462475200128855,0.379220047884648,0.7205679563813435,0.2277810198645698,0.5314435834924037,-103.99299997992215,83.48240617570124,152.83635914308235,0.194828833818956,0.20583283332718205,0.10902189881668273,0.5673111506551531,0.42528501746684155,0.20827403394659622,0.3216526018597935,0.6667097904909108,0.26129482757694306,0.617891436604024,-145.15463889038907,45.44966442795224,103.47181237097273,0.08689771809322072,0.09185172653453318,0.16721361968571707,0.38942783144402715,0.461106150600738,0.32544721621600814,-0.010081773090158942,0.7609150006395045,-0.45379176020092654,0.460280675928477,-81.41869127881452,68.70404621655875,169.16637555407905,0.14441536757997822,0.3201692089885642,0.5612327745143846,0.5549301256033343,0.8866024910426312,0.7528477157881204,0.5894039637023557,0.5786272229670686,0.37406907693130415,0.42657298518337233
0.77,-114.72205292212804,70.2572209796706,166.18825412177824,0.18400398918819957,0.13635524423458245,0.10061166494522211,0.35991127251107946,0.39492461043910215,0.4175367994510617,0.3781211703694331,0.721226669592725,0.22657435599139752,0.5317883078212051,-103.86732536950947,83.83928275737598,152.9082717132908,0.21598152582414368,0.21826688281428597,0.10267558080513026,0.572115380315667,0.3466377846503724,0.1530390045026738,0.3208802459342073,0.664319545181315,0.26434049305024565,0.6187831905445138,-144.9379187389297,45.630430903863115,103.5741917073691,0.05713479417628341,0.09310314052112359,0.16298050251975865,0.41108450998028656,0.40811325802882,0.25623267613594014,-0.009088586445456844,0.760696089202299,-0.4511755759447627,0.46160693485229154,-81.31219427106848,69.06080203755364,168.8525245433405,0.12772320828246628,0.38245917491619597,0.5867592406459962,0.6563539576026418,1.011511756395556,0.877212008377277,0.5876296630884635,0.5781107406539734,0.37444234143814864,0.42936158022894605
0.78,-114.57473793975038,70.29494419504722,165.91442126713244,0.18539506946385953,0.1396636073012681,0.07940840064894579,0.36672272363756947,0.3288370751402137,0.37592510611800983,0.37742258249639515,0.7216457310794038,0.22598643654055528,0.531860673949396,-103.73772911015075,84.19886842956336,152.98188275873986,0.23725673195826175,0.23176103246195956,0.09479030443433924,0.5723791605438519,0.26161523746650633,0.09547079537171141,0.3201335730506153,0.6618906189713323,0.2674582048450104,0.619654619483201,-144.76299881229076,45.794111128309325,103.66801375682778,0.029888007517809814,0.0941398778033339,0.16270040790439297,0.4415136825254687,0.35587483090830424,0.17948560469955885,-0.008345573245414113,0.7604602483963143,-0.448795087525432,0.4626075805415467,-81.21009736232402,69.43746315901085,168.43153623938977,0.1110960247972509,0.4468554545889934,0.6130348314031364,0.7594816905461294,1.1529687735507077,1.0062385070844335,0.5853746191556407,0.5779053685655334,0.37431582644974065,0.43282031677239524
0.79,-114.41497629127612,70.34517386405295,165.69937519302687,0.1864448003870495,0.14285420380206115,0.0572313442494145,0.3769313325813645,0.2558866356094339,0.3317989660893612,0.3770244911076288,0.7218857144570691,0.22586227377867565,0.5317360418389732,-103.60962190036918,84.55446526995756,153.05301691527288,0.2581816844219436,0.245607755633261,0.0858668231328278,0.5692232665529773,0.17385036295895798,0.03754386349228367,0.3193935504972564,0.6594942115916413,0.2705511368202576,0.6205094242003556,-144.6171543957545,45.945749153147794,103.75717168934311,0.0051321308629472375,0.0950306795071857,0.16565069778204958,0.47845654950068855,0.3054160611345355,0.09883970765196923,-0.007780159608081921,0.7602340117308962,-0.44658264541003895,0.4633949559285068,-81.11119175268726,69.81992832530416,167.9455570616184,0.094911033912918,0.5113791683006409,0.6391035037817311,0.860492182654047,1.3027595999427906,1.1340170634482234,0.5828543077737657,0.577928467873455,0.3738550646890545,0.4366751419338092
