0.01,-112.88,75.69,165.56,0.02,0.01,0.02,0.16,0.05,0.45,0.37,0.7,0.25,0.56,-100.06,83.12,109.31,0.11,0.19,0.01,0.07,0.06,0.04,0.1,0.71,0.02,0.69,-155.06,2.62,2.44,0.43,0.13,0.3,0.81,1.0,0.14,-0.02,0.03,-0.98,0.22,-125.87,9.81,7.56,0.02,0.02,0.04,0.02,0.11,0.19,-0.05,0.1,-0.88,0.46
0.02,-112.88,75.69,165.69,0.02,0.06,0.02,0.12,0.03,0.4,0.37,0.7,0.25,0.56,-100.19,83.06,111.0,0.08,0.18,0.03,0.07,0.02,0.06,0.11,0.71,0.03,0.69,-154.69,2.69,2.12,0.21,0.01,0.45,0.95,1.19,0.3,-0.02,0.02,-0.98,0.22,-125.81,9.81,7.5,0.02,0.02,0.05,0.03,0.06,0.19,-0.05,0.1,-0.88,0.46
0.03,-112.94,75.62,165.81,0.06,0.06,0.03,0.09,0.03,0.44,0.37,0.7,0.25,0.56,-100.25,83.0,112.62,0.05,0.16,0.02,0.47,0.22,0.08,0.12,0.71,0.03,0.69,-154.12,2.62,1.87,0.19,0.06,0.42,1.06,1.17,0.62,-0.02,0.02,-0.97,0.22,-125.75,9.81,7.5,0.02,0.03,0.09,0.07,0.11,0.25,-0.05,0.1,-0.88,0.46
0.04,-113.0,75.5,166.06,0.1,0.08,0.02,0.35,0.2,0.8,0.37,0.7,0.26,0.56,-100.31,82.88,114.18,0.09,0.29,0.02,0.43,0.41,0.21,0.13,0.71,0.04,0.69,-153.56,2.56,1.62,0.28,0.01,0.54,0.93,1.57,1.15,-0.02,0.02,-0.97,0.23,-125.62,9.75,7.44,0.01,0.03,0.13,0.25,0.09,0.5,-0.05,0.1,-0.88,0.46
0.05,-113.12,75.37,166.25,0.11,0.13,0.01,0.12,0.14,0.51,0.37,0.7,0.26,0.56,-100.44,82.75,116.93,0.13,0.46,0.03,0.53,0.35,0.01,0.14,0.71,0.06,0.68,-153.0,2.5,1.5,0.22,0.06,0.64,0.95,1.45,1.42,-0.02,0.02,-0.97,0.23,-125.44,9.75,7.37,0.02,0.03,0.15,0.4,0.27,0.72,-0.05,0.1,-0.88,0.46
0.06,-113.19,75.25,166.5,0.02,0.12,0.03,0.5,0.03,0.62,0.37,0.7,0.26,0.56,-100.56,82.44,120.68,0.12,0.51,0.05,0.77,0.26,0.1,0.17,0.71,0.08,0.68,-152.31,2.56,1.25,0.3,0.11,0.58,1.03,1.24,1.67,-0.02,0.02,-0.97,0.24,-125.25,9.75,7.37,0.02,0.04,0.21,0.71,0.16,0.57,-0.05,0.1,-0.88,0.46
0.07,-113.19,75.06,166.75,0.03,0.15,0.04,0.94,0.03,0.73,0.38,0.7,0.26,0.56,-100.69,82.19,124.99,0.08,0.58,0.16,1.37,0.32,0.08,0.19,0.71,0.1,0.67,-151.56,2.56,1.0,0.29,0.03,0.75,1.18,1.11,2.12,-0.02,0.01,-0.97,0.25,-124.94,9.75,7.31,0.03,0.04,0.26,0.75,0.14,0.51,-0.05,0.1,-0.88,0.46
0.08,-113.12,74.81,167.06,0.06,0.29,0.02,0.95,0.13,0.71,0.38,0.7,0.26,0.55,-100.81,81.87,129.37,0.05,0.61,0.19,1.48,0.27,0.36,0.22,0.7,0.13,0.66,-150.94,2.69,0.69,0.29,0.14,0.6,1.22,1.08,2.55,-0.02,0.01,-0.97,0.25,-124.62,9.75,7.31,0.05,0.01,0.29,0.84,0.33,0.14,-0.05,0.1,-0.88,0.47
0.09,-112.94,74.37,167.31,0.1,0.45,0.02,1.27,0.21,0.77,0.38,0.7,0.26,0.55,-100.87,81.37,134.37,0.03,0.99,0.16,1.42,0.18,0.48,0.25,0.7,0.16,0.65,-150.12,2.75,0.5,0.26,0.09,0.62,1.2,1.05,2.67,-0.02,0.01,-0.97,0.26,-124.25,9.81,7.37,0.09,0.02,0.38,1.06,0.39,0.06,-0.05,0.1,-0.88,0.47
0.1,-112.75,73.87,167.62,0.11,0.49,0.01,1.38,0.47,1.05,0.39,0.7,0.26,0.55,-100.94,80.56,134.37,0.07,1.13,0.12,1.64,0.39,0.48,0.25,0.7,0.15,0.65,-149.38,2.87,0.31,0.23,0.1,0.62,1.04,0.92,2.92,-0.02,0.01,-0.96,0.26,-123.81,9.88,7.37,0.1,0.02,0.42,1.08,0.39,0.16,-0.05,0.1,-0.87,0.47
0.11,-112.62,73.25,168.06,0.07,0.65,0.01,1.71,0.65,0.61,0.39,0.7,0.26,0.54,-101.06,79.56,138.87,0.08,1.16,0.1,2.17,0.25,0.4,0.28,0.7,0.17,0.63,-148.75,3.06,0.31,0.2,0.11,0.5,1.07,0.67,3.28,-0.02,0.01,-0.96,0.27,-123.31,10.0,7.37,0.08,0.02,0.45,1.07,0.73,0.69,-0.05,0.1,-0.87,0.48
0.12,-112.31,71.31,169.31,0.09,1.06,0.04,1.69,0.19,0.57,0.41,0.7,0.26,0.52,-101.12,78.37,142.75,0.19,1.38,0.04,2.24,0.15,0.33,0.31,0.7,0.19,0.62,-148.19,3.31,0.31,0.37,0.26,0.53,0.92,0.45,3.39,-0.03,0.01,-0.96,0.27,-122.75,10.06,7.37,0.04,0.01,0.51,1.03,0.67,0.9,-0.05,0.1,-0.87,0.48
0.13,-112.19,70.0,170.06,0.02,1.2,0.04,1.24,0.16,0.54,0.41,0.71,0.26,0.51,-101.31,76.94,146.12,0.22,1.5,0.02,2.49,0.28,0.21,0.33,0.69,0.2,0.6,-147.69,3.44,0.62,0.27,0.11,0.41,0.76,0.41,3.08,-0.03,0.01,-0.96,0.28,-121.44,10.25,7.12,0.03,0.01,0.61,0.82,0.34,1.67,-0.05,0.1,-0.86,0.49
0.14,-111.94,67.25,171.44,0.01,1.25,0.08,1.52,0.06,0.15,0.43,0.71,0.26,0.49,-101.38,75.31,148.81,0.2,1.55,0.02,2.65,0.43,0.26,0.36,0.69,0.21,0.59,-147.44,3.5,0.88,0.23,0.05,0.14,0.69,0.55,3.06,-0.03,0.02,-0.96,0.28,-120.75,10.25,6.94,0.05,0.03,0.58,0.76,0.21,1.87,-0.05,0.1,-0.86,0.5
0.15,-111.88,65.87,172.06,0.04,1.28,0.09,1.55,0.26,0.4,0.44,0.71,0.26,0.48,-101.31,73.56,151.0,0.09,1.84,0.01,2.66,0.52,1.09,0.38,0.69,0.21,0.58,-147.13,3.62,1.12,0.24,0.12,0.24,0.55,1.03,2.79,-0.03,0.02,-0.96,0.28,-119.62,10.25,6.56,0.1,0.08,0.5,0.53,0.26,2.79,-0.05,0.09,-0.86,0.5
0.16,-111.56,64.37,172.62,0.16,1.43,0.11,0.77,0.15,0.24,0.45,0.72,0.25,0.47,-101.12,71.56,153.0,0.09,1.99,0.01,2.1,0.07,0.41,0.4,0.7,0.21,0.56,-146.75,3.87,1.44,0.3,0.26,0.31,0.23,1.08,2.97,-0.03,0.02,-0.96,0.29,-119.06,10.19,6.37,0.12,0.14,0.54,0.39,0.1,3.03,-0.05,0.09,-0.85,0.51
0.17,-111.0,62.69,173.0,0.3,1.58,0.09,0.27,0.43,0.07,0.46,0.72,0.25,0.46,-101.0,69.31,154.81,0.17,2.15,0.04,2.21,0.29,0.22,0.41,0.7,0.21,0.54,-146.19,4.12,1.62,0.18,0.26,0.33,0.1,0.75,2.57,-0.03,0.02,-0.96,0.29,-118.44,10.13,6.12,0.14,0.16,0.59,0.38,0.35,3.13,-0.05,0.09,-0.85,0.51
0.18,-110.31,60.94,173.31,0.26,1.58,0.14,0.38,0.41,0.11,0.47,0.72,0.25,0.44,-100.87,66.94,156.18,0.11,2.16,0.05,2.74,0.32,0.08,0.43,0.7,0.21,0.53,-145.69,4.44,1.75,0.15,0.21,0.42,0.07,0.44,2.9,-0.03,0.03,-0.95,0.3,-117.81,10.0,5.81,0.15,0.15,0.55,0.22,0.36,3.42,-0.05,0.09,-0.85,0.52
0.19,-110.19,59.31,173.87,0.02,1.49,0.14,0.53,0.18,0.21,0.47,0.73,0.24,0.43,-100.44,64.56,157.25,0.07,2.19,0.07,2.01,0.33,0.06,0.45,0.7,0.21,0.51,-145.44,4.56,1.81,0.23,0.16,0.53,0.08,0.16,3.18,-0.03,0.03,-0.95,0.3,-117.37,9.88,5.56,0.13,0.16,0.31,0.19,0.18,3.31,-0.05,0.09,-0.85,0.52
0.2,-110.44,57.69,174.5,0.23,1.48,0.07,0.33,0.62,0.04,0.48,0.73,0.24,0.42,-100.19,61.88,158.18,0.27,2.67,0.19,1.37,0.16,0.59,0.47,0.71,0.2,0.49,-144.81,4.81,2.0,0.06,0.2,0.65,0.02,0.27,2.55,-0.03,0.03,-0.95,0.3,-117.06,9.75,5.37,0.12,0.16,0.27,0.03,0.21,3.17,-0.05,0.08,-0.85,0.52
0.21,-110.94,56.06,175.25,0.37,1.46,0.09,1.03,0.72,0.19,0.48,0.74,0.24,0.41,-99.94,58.94,159.06,0.3,2.66,0.17,2.0,0.1,0.56,0.48,0.71,0.19,0.47,-144.13,5.0,2.0,0.04,0.12,0.67,0.14,0.15,1.7,-0.04,0.03,-0.95,0.31,-116.75,9.56,5.19,0.15,0.19,0.27,0.14,0.42,3.02,-0.05,0.08,-0.85,0.53
0.22,-111.75,54.63,176.12,0.32,1.32,0.24,1.18,0.42,0.82,0.49,0.74,0.23,0.4,-99.94,56.19,159.94,0.27,2.29,0.02,1.54,0.53,0.72,0.5,0.72,0.18,0.45,-143.19,5.19,2.0,0.02,0.05,0.78,0.45,0.22,1.93,-0.04,0.03,-0.95,0.32,-116.37,9.31,4.94,0.2,0.25,0.44,0.24,0.14,2.77,-0.05,0.08,-0.84,0.53
0.23,-112.12,53.31,176.63,0.04,1.12,0.15,0.24,0.12,1.26,0.49,0.75,0.23,0.39,-99.87,53.63,160.68,0.18,2.36,0.02,0.84,0.25,1.22,0.51,0.72,0.17,0.44,-142.44,5.25,1.94,0.05,0.02,0.78,0.65,0.23,1.67,-0.04,0.03,-0.95,0.32,-115.88,9.13,4.56,0.23,0.24,0.45,0.32,0.24,2.62,-0.05,0.08,-0.84,0.53
0.24,-111.5,52.13,176.44,0.31,1.1,0.05,0.18,0.06,0.95,0.49,0.75,0.22,0.38,-99.44,50.81,161.25,0.05,2.68,0.01,0.19,0.1,0.03,0.52,0.73,0.16,0.42,-141.62,5.31,1.81,0.12,0.05,0.64,0.94,0.23,0.71,-0.04,0.03,-0.94,0.33,-115.5,8.88,4.25,0.27,0.25,0.31,0.49,0.14,2.75,-0.05,0.07,-0.84,0.53
0.25,-110.56,50.75,176.19,0.32,1.31,0.03,1.62,0.26,0.48,0.5,0.75,0.22,0.37,-99.0,47.75,161.87,0.13,2.78,0.06,0.92,0.02,0.07,0.54,0.73,0.15,0.4,-141.06,5.19,1.56,0.17,0.15,0.57,1.06,0.31,0.61,-0.04,0.03,-0.94,0.33,-115.31,8.56,3.87,0.28,0.27,0.17,0.54,0.03,2.85,-0.05,0.07,-0.84,0.54
0.26,-109.81,49.25,176.06,0.2,1.34,0.03,1.22,0.71,0.73,0.51,0.75,0.21,0.36,-99.0,45.0,162.62,0.25,2.4,0.11,1.0,0.22,0.45,0.55,0.73,0.14,0.38,-139.88,5.0,1.12,0.2,0.24,0.45,0.63,0.9,0.08,-0.04,0.02,-0.94,0.34,-114.94,8.06,3.25,0.25,0.25,0.26,0.42,0.51,1.74,-0.04,0.06,-0.84,0.54
0.27,-109.69,48.5,176.06,0.04,1.16,0.03,1.64,0.47,1.94,0.51,0.75,0.21,0.35,-99.0,42.31,163.19,0.22,2.46,0.02,0.18,0.69,0.82,0.56,0.74,0.13,0.36,-139.62,4.75,0.88,0.26,0.2,0.04,1.0,0.48,0.79,-0.04,0.02,-0.94,0.35,-114.56,7.81,2.94,0.25,0.27,0.43,0.39,0.4,1.59,-0.04,0.06,-0.84,0.54
0.28,-109.5,47.31,176.12,0.21,1.02,0.14,1.35,0.25,1.85,0.52,0.76,0.21,0.35,-98.93,39.5,163.56,0.08,2.6,0.06,0.79,1.07,0.04,0.57,0.74,0.12,0.34,-139.44,4.37,0.19,0.36,0.25,0.15,0.57,0.11,1.5,-0.04,0.01,-0.94,0.35,-114.0,7.56,2.56,0.25,0.25,0.52,0.44,0.19,1.16,-0.04,0.05,-0.84,0.54
0.29,-108.87,46.06,176.19,0.25,1.54,0.23,1.27,0.49,0.75,0.52,0.76,0.2,0.34,-98.62,35.44,163.75,0.1,2.0,0.1,0.59,0.06,0.57,0.58,0.74,0.09,0.32,-139.25,4.06,0.13,0.37,0.17,0.36,0.72,0.29,2.31,-0.03,0.01,-0.94,0.35,-113.56,7.37,2.25,0.2,0.16,0.34,0.49,0.01,0.92,-0.04,0.05,-0.83,0.55
0.3,-108.87,44.25,176.31,0.12,1.89,0.02,1.73,0.06,0.28,0.53,0.76,0.19,0.32,-98.44,33.31,163.87,0.08,1.97,0.04,0.39,0.02,1.47,0.59,0.74,0.08,0.3,-138.62,3.94,0.56,0.43,0.14,0.41,0.96,0.38,2.68,-0.03,0.02,-0.93,0.35,-113.25,7.25,2.0,0.2,0.1,0.32,0.4,0.25,0.11,-0.04,0.05,-0.83,0.55
0.31,-108.75,40.75,176.63,0.46,1.09,0.17,0.19,0.08,2.2,0.54,0.77,0.18,0.3,-98.44,28.31,164.31,0.01,2.35,0.11,1.97,0.27,1.27,0.6,0.75,0.06,0.27,-137.88,3.81,1.06,0.51,0.08,0.82,0.58,0.06,2.79,-0.03,0.02,-0.93,0.36,-112.88,7.19,1.69,0.2,0.01,0.3,0.45,0.14,0.13,-0.04,0.05,-0.83,0.55
0.32,-108.31,39.5,176.31,0.49,1.18,0.19,2.01,0.55,0.64,0.54,0.77,0.17,0.29,-98.06,25.88,164.37,0.15,1.7,0.03,1.22,0.31,0.85,0.61,0.75,0.05,0.25,-137.0,3.69,1.56,0.37,0.15,0.75,0.76,0.21,2.84,-0.02,0.02,-0.93,0.37,-112.75,7.31,1.5,0.14,0.12,0.11,0.42,0.01,0.04,-0.05,0.05,-0.83,0.55
0.33,-108.5,35.94,176.87,0.24,1.53,0.05,2.05,0.81,0.4,0.55,0.78,0.16,0.27,-98.06,24.12,164.62,0.31,1.36,0.02,0.33,0.4,4.47,0.61,0.75,0.04,0.24,-136.06,3.5,2.19,0.38,0.1,0.87,1.4,0.26,2.78,-0.02,0.03,-0.93,0.37,-112.69,7.75,1.37,0.05,0.22,0.02,0.65,0.32,1.33,-0.05,0.05,-0.83,0.55
0.34,-108.56,34.44,177.12,0.05,1.24,0.11,1.9,0.13,0.02,0.55,0.78,0.15,0.25,-98.12,22.56,165.06,0.35,1.51,0.02,0.17,0.41,2.67,0.62,0.75,0.03,0.23,-135.19,3.31,2.69,0.49,0.08,0.64,1.37,1.14,2.52,-0.02,0.03,-0.92,0.38,-112.81,8.06,1.31,0.02,0.27,0.16,0.82,0.25,1.34,-0.05,0.05,-0.83,0.55
0.35,-108.37,33.44,177.19,0.01,0.79,0.04,1.8,0.63,0.05,0.55,0.78,0.15,0.25,-98.12,20.56,165.31,0.1,1.88,0.02,1.59,0.07,0.47,0.62,0.75,0.02,0.22,-134.69,3.12,3.25,0.47,0.15,0.31,1.15,1.41,2.74,-0.01,0.04,-0.92,0.39,-113.06,8.31,1.37,0.04,0.23,0.21,0.56,0.64,1.77,-0.05,0.05,-0.83,0.55
0.36,-108.37,32.56,177.31,0.15,0.88,0.02,1.37,0.42,0.47,0.56,0.78,0.15,0.24,-98.12,18.44,165.5,0.28,1.68,0.09,2.24,0.61,1.19,0.63,0.75,0.01,0.2,-134.69,2.81,3.94,0.71,0.29,0.24,0.92,1.66,2.72,-0.01,0.04,-0.92,0.39,-113.12,8.5,1.44,0.03,0.14,0.04,0.67,1.23,2.72,-0.05,0.05,-0.83,0.55
0.37,-108.75,31.37,177.69,0.39,1.06,0.08,1.55,0.25,0.41,0.56,0.79,0.14,0.23,-98.25,16.69,165.81,0.31,1.42,0.1,1.33,0.98,3.03,0.63,0.75,0.0,0.19,-135.06,2.5,4.62,0.59,0.3,0.44,0.67,1.31,2.46,-0.0,0.05,-0.92,0.38,-113.0,8.56,1.44,0.02,0.09,0.19,0.97,1.31,2.82,-0.06,0.05,-0.83,0.55
0.38,-108.87,30.31,177.87,0.06,0.71,0.07,1.38,0.63,0.52,0.56,0.79,0.14,0.22,-98.31,15.38,166.12,0.28,1.15,0.06,0.64,0.26,1.93,0.63,0.75,-0.0,0.18,-135.63,2.25,5.31,0.52,0.39,0.56,0.44,0.99,2.0,-0.0,0.05,-0.92,0.38,-112.62,8.63,1.44,0.06,0.02,0.42,0.73,0.61,2.67,-0.06,0.05,-0.83,0.55
0.39,-108.87,29.63,177.75,0.1,0.58,0.04,0.77,0.76,0.2,0.56,0.79,0.13,0.22,-98.31,14.06,166.31,0.11,1.16,0.03,0.71,0.01,0.18,0.63,0.75,-0.01,0.17,-136.25,1.94,5.81,0.43,0.16,0.57,0.72,0.21,2.11,0.0,0.05,-0.93,0.37,-112.31,8.63,1.44,0.04,0.11,0.51,0.68,0.27,3.21,-0.06,0.05,-0.83,0.56
0.4,-108.81,29.0,177.75,0.06,0.58,0.07,0.96,0.67,0.21,0.56,0.79,0.13,0.21,-98.37,11.69,166.75,0.26,0.92,0.07,0.57,0.64,1.79,0.64,0.76,-0.02,0.15,-136.81,1.81,6.25,0.37,0.21,0.36,0.57,0.33,2.09,0.01,0.06,-0.93,0.37,-111.75,8.5,1.37,0.02,0.12,0.5,0.81,0.13,3.18,-0.05,0.05,-0.82,0.56
0.41,-108.68,28.19,177.94,0.1,0.75,0.14,1.49,0.66,0.35,0.56,0.79,0.13,0.21,-98.37,10.88,167.0,0.17,0.71,0.07,0.41,0.83,1.65,0.64,0.76,-0.02,0.14,-137.12,1.75,6.62,0.04,0.29,0.36,0.38,0.86,1.69,0.01,0.06,-0.93,0.37,-111.19,8.38,1.37,0.03,0.09,0.44,0.71,0.85,2.89,-0.05,0.05,-0.82,0.56
0.42,-108.62,27.37,177.81,0.14,0.71,0.07,0.98,0.09,0.08,0.56,0.79,0.12,0.2,-98.44,9.5,167.06,0.03,0.44,0.02,0.59,0.54,0.89,0.64,0.76,-0.03,0.14,-137.5,1.5,6.75,0.2,0.24,0.29,0.04,1.82,2.15,0.01,0.06,-0.93,0.36,-111.25,8.38,1.5,0.05,0.03,0.36,0.29,1.18,2.85,-0.05,0.05,-0.82,0.56
0.43,-108.75,26.81,177.62,0.08,0.42,0.09,0.53,0.26,0.65,0.56,0.79,0.12,0.2,-98.37,9.31,167.0,0.07,0.32,0.03,0.24,0.13,1.61,0.64,0.76,-0.03,0.13,-138.06,1.37,7.06,0.11,0.47,0.81,0.1,1.08,2.47,0.01,0.06,-0.93,0.36,-111.69,8.38,1.62,0.09,0.03,0.46,0.6,1.3,2.55,-0.05,0.05,-0.82,0.56
0.44,-109.12,26.37,177.56,0.01,0.33,0.04,0.51,0.52,0.14,0.56,0.8,0.12,0.2,-98.37,9.06,167.0,0.09,0.12,0.04,0.07,0.16,1.55,0.64,0.76,-0.03,0.13,-138.94,0.94,7.19,0.18,0.5,0.63,0.27,0.59,2.51,0.01,0.06,-0.93,0.35,-113.56,8.38,2.37,0.21,0.01,0.83,0.52,0.04,2.54,-0.05,0.06,-0.83,0.55
0.45,-109.12,26.0,177.62,0.06,0.33,0.01,1.16,0.28,1.2,0.56,0.8,0.11,0.19,-98.31,8.94,167.12,0.07,0.16,0.03,0.16,0.04,1.86,0.64,0.76,-0.03,0.13,-139.56,0.5,7.25,0.04,0.41,0.57,0.99,0.89,3.21,0.02,0.06,-0.94,0.35,-114.31,8.38,2.69,0.14,0.05,0.43,0.05,1.82,2.33,-0.05,0.06,-0.84,0.54
0.46,-109.12,25.75,177.69,0.04,0.18,0.02,1.35,0.06,1.73,0.56,0.8,0.11,0.19,-98.25,8.75,167.19,0.02,0.2,0.05,0.01,0.45,1.46,0.64,0.75,-0.03,0.13,-140.25,0.19,7.25,0.01,0.34,0.7,1.15,0.22,4.04,0.02,0.06,-0.94,0.34,-114.81,8.44,2.87,0.01,0.18,0.56,0.26,1.3,1.9,-0.05,0.06,-0.84,0.54
0.47,-109.5,25.62,177.81,0.08,0.14,0.04,0.9,0.97,1.12,0.56,0.8,0.11,0.19,-98.31,8.56,167.12,0.05,0.08,0.05,1.3,0.34,0.15,0.64,0.76,-0.04,0.13,-140.94,0.06,7.31,0.05,0.35,0.45,1.15,0.35,3.53,0.02,0.06,-0.94,0.33,-115.44,8.63,3.0,0.04,0.22,0.62,0.08,0.41,2.13,-0.05,0.06,-0.84,0.53
0.48,-109.5,25.56,177.87,0.06,0.01,0.03,0.2,0.78,0.45,0.56,0.8,0.11,0.19,-98.37,8.5,167.06,0.02,0.02,0.04,1.08,0.44,1.61,0.64,0.76,-0.04,0.13,-141.19,0.37,7.31,0.02,0.24,0.35,0.42,1.14,4.41,0.02,0.06,-0.94,0.33,-116.06,8.88,3.12,0.07,0.32,0.45,0.08,1.15,2.43,-0.05,0.06,-0.84,0.53
0.49,-109.87,25.62,177.75,0.16,0.07,0.01,0.51,0.24,0.3,0.56,0.8,0.11,0.19,-98.44,8.69,167.06,0.04,0.27,0.02,0.27,0.01,4.23,0.64,0.76,-0.04,0.13,-142.13,0.62,7.31,0.03,0.26,0.87,0.59,1.91,4.86,0.02,0.06,-0.94,0.32,-116.62,9.19,3.31,0.1,0.34,0.54,0.18,0.04,3.01,-0.05,0.07,-0.85,0.53
0.5,-109.81,25.62,177.62,0.06,0.06,0.02,1.27,0.15,2.01,0.56,0.8,0.11,0.19,-98.44,8.94,167.06,0.02,0.26,0.01,0.4,0.64,4.15,0.64,0.76,-0.03,0.13,-142.81,0.81,7.37,0.01,0.24,0.83,0.12,0.85,4.3,0.01,0.06,-0.95,0.32,-117.69,9.63,3.69,0.28,0.43,0.52,0.43,0.08,4.03,-0.06,0.07,-0.85,0.52
0.51,-110.25,25.12,177.75,0.01,0.1,0.03,2.51,0.79,1.44,0.55,0.8,0.11,0.19,-98.5,9.25,167.19,0.18,0.28,0.03,0.9,0.27,1.42,0.64,0.76,-0.03,0.13,-143.56,0.94,7.06,0.27,0.17,0.48,0.09,0.02,3.91,0.01,0.06,-0.95,0.31,-119.19,10.56,4.87,0.34,0.56,0.6,0.95,1.18,4.42,-0.06,0.08,-0.86,0.51
0.52,-110.12,25.62,177.69,0.07,0.52,0.07,1.17,0.3,1.2,0.55,0.8,0.11,0.19,-98.56,9.69,167.43,0.22,0.53,0.13,1.28,0.4,1.85,0.64,0.76,-0.03,0.13,-144.13,1.06,6.75,0.36,0.08,0.54,0.05,0.31,3.33,0.01,0.06,-0.95,0.31,-119.94,11.12,5.37,0.31,0.54,0.72,0.03,0.27,4.65,-0.06,0.09,-0.86,0.5
0.53,-110.56,26.12,177.87,0.22,0.38,0.01,0.75,0.39,0.81,0.55,0.8,0.11,0.2,-98.75,10.31,167.62,0.18,0.66,0.11,1.25,0.46,2.52,0.64,0.76,-0.02,0.14,-144.56,1.25,6.19,0.45,0.25,0.34,0.12,1.47,3.27,0.01,0.05,-0.95,0.3,-120.94,11.56,5.94,0.35,0.52,0.93,0.82,0.84,5.37,-0.06,0.09,-0.86,0.49
0.54,-110.68,26.37,178.06,0.13,0.24,0.09,1.56,0.57,0.65,0.55,0.8,0.12,0.2,-98.81,11.19,167.75,0.11,0.81,0.01,0.45,0.17,2.78,0.64,0.76,-0.02,0.14,-145.0,1.37,5.75,0.51,0.31,0.4,0.04,1.25,3.45,0.0,0.05,-0.95,0.3,-122.0,12.31,6.75,0.66,0.8,0.48,0.95,0.46,4.75,-0.07,0.1,-0.87,0.49
0.55,-110.75,26.81,177.94,0.06,0.48,0.09,1.89,0.41,0.82,0.55,0.8,0.12,0.2,-98.75,12.13,167.87,0.07,0.83,0.04,0.51,0.03,2.07,0.64,0.76,-0.01,0.15,-145.5,1.62,5.19,0.59,0.21,0.51,0.04,0.76,3.54,-0.0,0.05,-0.95,0.3,-122.44,13.25,7.75,0.83,0.92,0.42,0.24,1.79,4.17,-0.07,0.11,-0.86,0.48
0.56,-111.19,27.19,177.87,0.05,0.71,0.04,1.96,0.2,0.73,0.55,0.8,0.12,0.2,-98.75,13.06,167.87,0.01,0.89,0.01,0.83,0.02,2.13,0.63,0.76,-0.01,0.15,-146.06,1.81,4.31,0.78,0.17,0.53,0.17,0.42,2.71,-0.0,0.04,-0.96,0.29,-123.38,14.19,8.81,0.73,0.92,0.55,0.42,1.33,3.95,-0.07,0.13,-0.87,0.48
0.57,-111.25,28.06,177.94,0.1,0.99,0.03,1.21,0.17,0.14,0.54,0.8,0.12,0.21,-98.75,14.25,167.81,0.09,1.08,0.02,0.94,0.03,1.09,0.63,0.76,0.0,0.16,-146.37,1.94,3.5,0.68,0.19,0.23,0.26,0.76,2.66,-0.01,0.03,-0.96,0.29,-123.81,15.19,9.69,0.64,0.97,0.31,1.13,0.24,3.95,-0.08,0.14,-0.87,0.47
0.58,-111.31,29.12,178.0,0.04,1.02,0.03,1.11,0.1,0.33,0.54,0.8,0.13,0.22,-98.69,17.06,167.62,0.12,1.32,0.04,0.49,0.03,1.63,0.63,0.76,0.02,0.18,-146.31,2.19,2.75,0.68,0.21,0.16,0.07,0.3,2.53,-0.01,0.03,-0.96,0.29,-123.81,16.31,10.5,0.73,1.08,0.14,1.08,0.12,4.26,-0.08,0.15,-0.86,0.48
0.59,-111.56,30.25,177.94,0.08,0.9,0.02,1.26,0.02,0.86,0.54,0.8,0.13,0.23,-98.62,18.5,167.43,0.14,1.28,0.05,0.69,0.17,1.46,0.63,0.76,0.02,0.19,-146.62,2.5,2.19,0.51,0.34,0.26,0.01,0.73,2.3,-0.02,0.02,-0.96,0.29,-123.81,17.62,11.44,0.89,1.16,0.16,1.18,0.22,4.2,-0.09,0.16,-0.86,0.48
0.6,-111.56,31.25,177.81,0.05,0.99,0.02,1.4,0.27,0.15,0.54,0.8,0.14,0.23,-98.5,21.69,167.06,0.21,1.54,0.04,0.94,0.12,1.24,0.62,0.75,0.04,0.21,-146.94,2.81,1.62,0.46,0.28,0.26,0.43,0.66,1.88,-0.02,0.02,-0.96,0.28,-123.69,19.5,13.19,0.89,1.13,0.12,0.83,0.51,2.58,-0.09,0.18,-0.85,0.48
0.61,-111.81,32.38,177.75,0.08,1.05,0.04,1.63,0.48,0.44,0.53,0.8,0.14,0.24,-98.37,23.44,166.81,0.21,1.61,0.04,0.95,0.2,0.58,0.62,0.75,0.05,0.23,-147.13,3.25,1.19,0.32,0.47,0.13,0.44,0.11,1.18,-0.02,0.02,-0.96,0.28,-123.69,20.75,14.19,0.79,1.03,0.43,0.57,0.09,2.07,-0.1,0.19,-0.85,0.48
0.62,-111.75,33.69,177.56,0.18,1.22,0.05,1.88,0.13,0.02,0.53,0.8,0.15,0.25,-98.31,25.25,166.56,0.18,1.66,0.01,0.86,0.06,0.8,0.61,0.75,0.06,0.24,-147.37,3.75,0.81,0.35,0.43,0.25,0.68,0.21,0.86,-0.03,0.02,-0.96,0.28,-122.81,23.12,15.69,0.71,0.92,0.34,0.38,1.12,1.67,-0.11,0.21,-0.84,0.49
0.63,-111.75,36.63,177.06,0.16,1.37,0.01,1.75,0.05,0.19,0.53,0.79,0.16,0.27,-98.37,27.19,166.31,0.17,1.77,0.06,1.13,0.36,1.15,0.61,0.75,0.06,0.25,-147.5,4.19,0.56,0.17,0.38,0.26,0.67,0.21,0.81,-0.03,0.01,-0.96,0.28,-122.37,24.19,16.44,0.75,0.93,0.44,0.3,1.13,1.52,-0.11,0.22,-0.83,0.49
0.64,-111.75,38.19,176.87,0.04,1.45,0.03,2.2,0.01,0.48,0.52,0.79,0.16,0.29,-98.44,28.25,166.19,0.26,1.89,0.07,1.03,0.23,1.03,0.61,0.75,0.07,0.26,-147.87,4.75,0.5,0.08,0.49,0.57,0.52,0.11,1.02,-0.04,0.02,-0.96,0.28,-121.81,25.31,17.19,0.76,0.98,0.52,0.3,0.59,1.3,-0.12,0.23,-0.83,0.5
0.65,-112.06,40.0,176.87,0.07,1.66,0.01,2.16,0.08,0.48,0.52,0.78,0.17,0.3,-98.5,30.31,165.75,0.28,1.92,0.05,1.07,0.33,0.37,0.6,0.75,0.08,0.27,-148.62,5.25,0.5,0.07,0.42,0.53,0.39,0.28,0.92,-0.04,0.02,-0.96,0.27,-121.19,26.56,17.87,0.71,1.06,0.38,0.21,0.52,1.15,-0.12,0.24,-0.82,0.5
0.66,-112.06,41.88,176.75,0.04,1.75,0.01,1.55,0.02,0.4,0.51,0.78,0.18,0.31,-98.5,32.44,165.37,0.27,1.93,0.03,1.04,0.13,0.01,0.59,0.74,0.09,0.29,-149.12,5.81,0.81,0.24,0.57,0.32,0.54,0.32,0.72,-0.05,0.02,-0.96,0.27,-120.81,27.81,18.69,0.7,1.05,0.25,0.16,0.7,0.71,-0.13,0.25,-0.81,0.51
0.67,-112.12,43.87,176.37,0.21,1.76,0.1,1.4,0.33,0.28,0.51,0.78,0.18,0.33,-98.56,36.88,164.56,0.22,2.12,0.03,0.92,0.53,0.4,0.58,0.74,0.11,0.32,-149.56,6.5,1.06,0.15,0.73,0.51,0.4,0.09,0.11,-0.05,0.02,-0.96,0.26,-120.5,29.0,19.56,0.71,1.02,0.24,0.15,0.57,0.67,-0.13,0.27,-0.81,0.51
0.68,-112.12,45.81,175.87,0.25,1.77,0.12,1.3,0.74,0.88,0.5,0.77,0.19,0.34,-98.56,39.25,164.12,0.21,2.23,0.02,0.39,0.29,0.83,0.57,0.74,0.12,0.34,-149.81,7.25,1.37,0.31,0.6,0.14,1.11,0.03,0.62,-0.06,0.03,-0.96,0.26,-120.25,30.06,20.44,0.72,0.96,0.26,0.08,0.96,0.92,-0.14,0.28,-0.8,0.51
0.69,-111.68,47.81,175.31,0.23,1.82,0.1,0.45,0.27,0.93,0.5,0.77,0.2,0.36,-98.56,45.63,162.93,0.21,2.25,0.06,0.06,0.02,0.81,0.55,0.73,0.15,0.38,-150.0,8.0,1.81,0.46,0.78,0.33,0.86,0.4,0.47,-0.06,0.03,-0.96,0.26,-119.25,32.44,22.0,0.74,1.06,0.52,0.23,0.54,0.79,-0.14,0.3,-0.79,0.52
0.7,-111.68,49.69,174.87,0.09,1.61,0.08,0.98,0.05,1.12,0.49,0.76,0.2,0.37,-98.87,48.19,162.62,0.11,2.31,0.09,0.03,0.01,0.28,0.54,0.73,0.16,0.4,-150.25,8.81,2.37,0.45,0.72,0.33,0.51,0.67,0.6,-0.07,0.04,-0.96,0.26,-118.62,33.88,22.87,0.8,1.28,0.39,0.27,0.43,0.05,-0.15,0.31,-0.78,0.53
0.71,-111.68,51.44,174.5,0.05,1.57,0.08,1.15,0.34,0.98,0.49,0.76,0.21,0.38,-99.31,50.88,162.31,0.09,2.5,0.09,0.5,0.12,0.51,0.53,0.72,0.17,0.41,-150.75,9.81,2.94,0.45,0.85,0.24,1.11,0.38,1.7,-0.08,0.05,-0.96,0.25,-118.0,36.69,25.06,0.83,1.26,0.29,0.39,0.21,0.05,-0.16,0.33,-0.76,0.54
0.72,-111.87,53.25,174.19,0.06,1.69,0.01,1.16,0.11,1.03,0.48,0.75,0.21,0.4,-99.63,53.75,161.81,0.17,2.61,0.08,1.07,0.68,0.46,0.51,0.72,0.18,0.43,-151.0,10.88,3.56,0.5,1.02,0.28,0.97,0.27,1.45,-0.08,0.05,-0.96,0.25,-117.5,38.19,26.19,0.85,1.42,0.65,0.26,0.16,0.01,-0.16,0.35,-0.75,0.54
0.73,-111.99,55.25,173.81,0.08,1.89,0.03,0.42,0.26,0.99,0.47,0.75,0.22,0.41,-99.69,55.19,161.5,0.2,2.51,0.07,1.53,0.23,0.02,0.51,0.72,0.19,0.44,-151.5,11.94,4.19,0.56,0.99,0.3,0.53,0.08,1.24,-0.09,0.06,-0.96,0.25,-116.69,40.0,27.13,0.79,1.57,0.79,0.16,0.33,0.23,-0.17,0.36,-0.74,0.55
0.74,-112.05,56.37,173.62,0.11,1.96,0.01,0.2,0.16,1.69,0.47,0.74,0.22,0.42,-99.81,57.94,160.87,0.16,2.51,0.08,1.51,0.01,0.14,0.49,0.71,0.2,0.46,-151.94,13.0,5.19,0.66,1.1,0.48,0.51,0.31,1.83,-0.1,0.07,-0.96,0.25,-115.94,41.94,28.06,0.86,1.71,0.53,0.2,0.2,0.28,-0.17,0.38,-0.72,0.55
0.75,-112.12,58.5,173.13,0.06,1.84,0.03,0.09,0.18,1.63,0.46,0.74,0.23,0.43,-100.0,60.75,160.12,0.2,2.58,0.06,1.91,0.06,0.27,0.48,0.71,0.21,0.48,-152.38,14.25,6.0,0.56,1.16,0.4,0.23,0.29,2.48,-0.11,0.08,-0.96,0.24,-115.37,43.94,29.5,0.91,1.8,0.45,0.34,0.18,1.28,-0.18,0.39,-0.71,0.56
0.76,-112.24,60.44,172.56,0.09,1.72,0.05,0.23,0.36,0.94,0.45,0.73,0.23,0.45,-100.06,63.56,159.12,0.29,2.5,0.04,2.16,0.3,0.43,0.46,0.7,0.21,0.5,-152.94,15.5,7.19,1.0,1.18,0.63,0.14,0.98,2.09,-0.12,0.09,-0.96,0.24,-114.94,46.0,31.25,1.01,2.01,0.52,0.32,0.45,2.22,-0.18,0.41,-0.69,0.57
0.77,-112.12,64.37,171.0,0.16,1.9,0.03,0.53,0.15,1.4,0.44,0.72,0.24,0.48,-99.94,66.31,157.87,0.35,2.46,0.1,2.15,0.12,0.18,0.45,0.7,0.22,0.51,-154.44,18.56,10.38,1.29,1.67,0.65,0.22,1.15,2.96,-0.14,0.12,-0.96,0.23,-114.31,48.19,33.13,1.0,2.04,0.58,0.19,0.56,2.17,-0.19,0.43,-0.67,0.57
0.78,-112.05,66.5,170.06,0.09,1.97,0.01,1.04,0.08,1.12,0.43,0.72,0.25,0.49,-99.81,69.0,156.43,0.37,2.48,0.16,2.72,0.01,0.21,0.43,0.69,0.23,0.53,-154.94,20.19,12.19,1.46,1.58,0.55,0.52,2.24,2.66,-0.15,0.14,-0.95,0.23,-113.62,50.5,35.06,1.0,2.1,0.62,0.63,0.46,1.97,-0.19,0.45,-0.65,0.58
0.79,-112.05,70.62,167.44,0.13,1.73,0.07,1.51,0.32,0.21,0.4,0.71,0.25,0.53,-99.75,71.69,154.81,0.36,2.43,0.17,3.07,0.25,0.1,0.41,0.69,0.23,0.55,-155.94,23.38,16.56,1.66,1.65,0.58,0.2,0.62,2.45,-0.17,0.18,-0.94,0.23,-112.94,52.88,37.38,1.11,2.36,0.61,0.54,0.86,1.54,-0.19,0.47,-0.63,0.59
0.8,-112.05,72.37,165.88,0.1,1.53,0.02,1.21,0.04,0.15,0.39,0.7,0.25,0.54,-99.69,74.19,152.81,0.33,2.25,0.14,3.15,0.02,0.89,0.39,0.68,0.23,0.57,-156.5,25.0,19.06,1.86,1.8,0.59,0.35,1.27,2.43,-0.18,0.2,-0.94,0.23,-111.5,58.06,37.38,1.3,2.68,0.63,0.22,1.49,1.37,-0.22,0.49,-0.6,0.59
0.81,-112.3,74.0,164.5,0.07,1.43,0.01,1.39,0.04,0.12,0.37,0.7,0.24,0.56,-99.56,76.25,150.43,0.34,1.77,0.07,2.22,0.04,0.63,0.37,0.68,0.23,0.59,-156.94,26.56,21.87,2.12,1.64,0.52,0.82,1.74,2.38,-0.18,0.23,-0.93,0.23,-110.63,60.63,41.63,1.41,2.7,0.67,0.25,0.62,1.21,-0.21,0.52,-0.56,0.61
0.82,-112.49,75.37,162.94,0.03,1.29,0.02,1.96,0.23,0.69,0.36,0.7,0.24,0.57,-99.37,78.12,147.44,0.32,1.76,0.05,2.07,0.13,0.4,0.35,0.68,0.23,0.6,-157.37,28.06,24.87,2.13,1.66,0.64,0.21,1.47,1.37,-0.19,0.25,-0.92,0.24,-109.75,63.13,46.88,1.48,2.82,0.61,0.46,0.73,0.74,-0.2,0.55,-0.52,0.62
0.83,-112.18,76.62,160.69,0.3,1.18,0.1,1.84,0.41,0.82,0.35,0.7,0.23,0.58,-99.19,79.94,143.19,0.28,1.67,0.04,1.49,0.29,0.56,0.32,0.69,0.21,0.62,-157.88,29.44,28.12,2.17,1.79,0.71,0.25,0.85,0.85,-0.2,0.28,-0.91,0.24,-108.94,65.44,53.44,1.44,3.01,0.51,0.77,0.9,0.66,-0.17,0.59,-0.47,0.63
0.84,-111.62,77.69,157.94,0.31,0.99,0.12,1.33,0.05,0.6,0.33,0.7,0.22,0.59,-98.94,81.5,143.19,0.28,1.6,0.02,1.29,0.26,0.34,0.31,0.68,0.22,0.63,-158.37,30.69,31.81,2.54,1.69,0.69,0.5,0.69,0.93,-0.2,0.31,-0.9,0.25,-108.12,67.44,61.37,1.49,3.0,0.51,0.34,0.95,0.47,-0.14,0.62,-0.41,0.65
0.85,-111.43,78.5,155.63,0.23,0.81,0.02,1.27,0.28,0.55,0.32,0.7,0.21,0.6,-98.69,82.81,135.69,0.27,1.43,0.06,0.99,0.15,0.12,0.26,0.69,0.18,0.65,-158.75,31.87,35.75,2.75,1.75,0.61,0.3,0.86,0.63,-0.2,0.34,-0.88,0.25,-107.44,68.75,70.62,1.56,2.98,0.21,0.05,1.19,0.46,-0.09,0.66,-0.35,0.66
0.86,-111.31,80.0,151.12,0.15,0.72,0.05,0.53,0.16,0.06,0.29,0.7,0.19,0.62,-98.44,83.87,135.69,0.26,1.4,0.08,1.09,0.1,0.14,0.26,0.69,0.19,0.65,-159.37,33.94,35.75,2.62,1.69,0.47,0.21,0.75,0.37,-0.22,0.34,-0.88,0.25,-106.75,69.44,80.87,1.56,3.02,0.24,0.02,1.44,0.9,-0.03,0.69,-0.28,0.67
0.87,-111.05,80.56,148.62,0.16,0.56,0.06,0.43,0.25,0.23,0.27,0.7,0.18,0.63,-97.75,85.0,135.5,0.35,1.05,0.08,0.32,0.01,0.75,0.26,0.68,0.2,0.65,-159.5,34.88,39.81,2.69,1.52,0.43,0.64,0.63,0.3,-0.22,0.37,-0.86,0.26,-104.87,69.37,80.87,1.61,3.04,0.4,0.13,0.32,0.98,-0.02,0.69,-0.27,0.67
0.88,-111.18,81.44,145.87,0.11,0.22,0.04,1.14,0.05,0.15,0.25,0.71,0.17,0.64,-97.37,85.12,135.43,0.4,0.96,0.03,0.58,0.65,0.52,0.26,0.68,0.2,0.65,-159.44,35.69,43.75,2.49,1.55,0.02,0.97,0.72,0.02,-0.22,0.4,-0.85,0.27,-104.0,68.37,80.87,1.56,2.99,0.31,0.15,0.35,1.15,-0.01,0.69,-0.27,0.67
0.89,-110.8,81.63,145.06,0.32,0.01,0.03,1.16,0.55,0.14,0.25,0.71,0.17,0.64,-97.0,84.87,135.56,0.36,0.87,0.02,0.78,0.53,0.34,0.26,0.68,0.2,0.65,-159.0,36.75,47.56,2.55,1.51,0.07,0.88,1.56,0.54,-0.21,0.43,-0.83,0.28,-102.94,66.87,89.62,1.55,2.91,0.31,0.43,0.44,1.12,0.06,0.7,-0.22,0.67
0.9,-110.43,81.56,145.06,0.18,0.26,0.02,0.7,0.44,0.13,0.25,0.71,0.17,0.64,-96.81,84.5,135.56,0.23,0.64,0.01,0.87,0.52,0.64,0.26,0.68,0.2,0.65,-158.56,37.88,51.43,2.58,1.69,0.16,1.12,1.61,1.18,-0.21,0.46,-0.81,0.3,-101.69,65.0,97.18,1.62,2.83,0.3,0.22,0.4,0.84,0.12,0.71,-0.18,0.66
0.91,-110.24,81.25,146.25,0.15,0.33,0.03,0.09,0.22,0.71,0.26,0.7,0.18,0.64,-96.75,84.37,135.56,0.18,0.49,0.04,0.38,0.53,0.38,0.27,0.68,0.2,0.65,-157.88,39.13,55.43,2.52,1.71,0.78,0.51,0.65,1.04,-0.21,0.49,-0.79,0.31,-100.44,63.06,103.75,1.49,2.66,0.49,0.07,0.47,0.02,0.18,0.72,-0.14,0.65
0.92,-109.93,81.0,147.69,0.14,0.34,0.04,0.08,0.67,0.48,0.27,0.7,0.18,0.63,-96.5,84.0,135.56,0.2,0.59,0.05,0.35,0.61,0.14,0.27,0.68,0.2,0.65,-156.69,40.69,59.43,2.6,1.66,0.78,0.03,0.68,0.8,-0.2,0.52,-0.76,0.33,-98.81,61.19,109.31,1.41,2.43,0.58,0.18,0.27,0.61,0.23,0.72,-0.11,0.64
0.93,-109.8,80.75,148.87,0.08,0.27,0.04,0.24,1.04,0.26,0.28,0.7,0.19,0.63,-96.25,83.56,135.5,0.16,0.61,0.04,0.53,0.66,0.35,0.27,0.68,0.2,0.65,-155.56,42.06,63.43,2.51,1.8,0.65,0.13,0.18,1.13,-0.19,0.54,-0.74,0.35,-97.44,59.31,114.06,1.33,2.23,0.63,0.13,0.81,0.51,0.28,0.73,-0.08,0.62
0.94,-109.49,80.25,150.69,0.16,0.16,0.01,0.22,1.08,0.32,0.29,0.7,0.2,0.62,-96.19,83.19,135.5,0.06,0.35,0.01,0.17,0.53,0.46,0.28,0.68,0.2,0.65,-154.44,43.38,67.74,2.41,1.74,0.76,0.2,0.17,1.41,-0.18,0.57,-0.71,0.37,-95.69,57.56,118.12,1.09,2.09,0.71,0.15,0.17,1.47,0.32,0.72,-0.06,0.61
0.95,-109.68,80.12,151.31,0.19,0.16,0.02,0.16,0.82,0.11,0.3,0.7,0.2,0.62,-96.12,82.94,135.5,0.06,0.29,0.01,0.4,0.79,0.56,0.28,0.68,0.2,0.65,-153.0,44.75,71.81,2.42,1.54,0.81,0.66,0.27,1.69,-0.17,0.6,-0.68,0.39,-94.0,55.81,121.68,0.85,2.0,0.85,0.36,0.67,1.57,0.36,0.72,-0.04,0.59
0.96,-109.87,79.81,152.44,0.01,0.15,0.04,0.81,0.3,0.55,0.3,0.7,0.21,0.61,-95.88,82.69,135.5,0.04,0.28,0.04,0.62,0.32,0.26,0.28,0.68,0.2,0.64,-152.0,45.5,76.25,2.32,1.71,0.33,0.69,0.85,1.35,-0.16,0.63,-0.65,0.41,-92.88,54.13,124.69,0.79,1.82,0.72,1.73,1.08,1.01,0.39,0.72,-0.02,0.58
0.97,-109.74,79.69,153.31,0.02,0.23,0.07,1.07,0.79,1.03,0.31,0.7,0.21,0.61,-95.94,82.56,135.5,0.04,0.22,0.14,1.22,0.2,0.02,0.28,0.68,0.2,0.64,-150.69,46.44,80.74,2.19,1.61,0.85,1.02,1.12,1.07,-0.14,0.65,-0.61,0.42,-91.37,52.56,126.93,0.78,1.56,0.46,1.76,0.98,1.42,0.42,0.71,-0.01,0.56
0.98,-109.49,79.37,154.38,0.57,0.38,0.13,1.16,1.41,1.05,0.32,0.69,0.22,0.61,-96.06,82.5,135.5,0.11,0.16,0.18,1.51,0.41,0.49,0.28,0.68,0.2,0.64,-149.0,47.62,84.87,2.14,1.54,1.17,1.25,0.2,0.58,-0.12,0.67,-0.58,0.44,-90.19,51.13,128.87,0.85,1.33,0.41,2.2,0.2,2.28,0.44,0.71,-0.0,0.55
0.99,-108.74,79.06,155.37,0.74,0.4,0.15,0.25,1.95,0.39,0.33,0.69,0.23,0.6,-96.06,82.62,135.5,0.27,0.02,0.25,1.3,1.27,0.58,0.28,0.68,0.2,0.64,-147.25,48.81,88.93,1.87,1.54,1.18,1.95,0.53,0.47,-0.1,0.7,-0.54,0.46,-88.12,50.0,130.94,0.8,1.11,0.68,2.21,0.02,1.61,0.47,0.7,0.01,0.54
1.0,-107.55,78.69,156.0,0.81,0.39,0.1,1.61,1.41,0.34,0.34,0.69,0.24,0.6,-96.0,82.94,135.5,0.26,0.33,0.18,0.58,1.52,0.65,0.28,0.68,0.2,0.65,-145.81,49.94,92.99,1.78,1.47,1.21,1.99,0.42,0.63,-0.08,0.71,-0.51,0.48,-85.94,49.13,133.0,0.59,0.96,0.97,2.41,0.04,1.03,0.5,0.69,0.03,0.53
1.01,-106.62,78.31,156.12,0.43,0.24,0.05,1.83,0.24,1.46,0.35,0.69,0.24,0.59,-95.62,83.37,136.56,0.37,0.37,0.1,1.77,0.85,0.2,0.28,0.68,0.21,0.64,-143.69,51.13,97.06,1.57,1.35,1.37,1.45,1.33,0.99,-0.06,0.73,-0.47,0.49,-84.94,48.69,134.0,0.38,0.83,0.97,2.47,0.25,1.54,0.51,0.69,0.04,0.52
1.02,-105.87,78.12,156.0,0.19,0.17,0.05,0.19,0.13,1.58,0.35,0.69,0.24,0.59,-95.31,83.62,136.62,0.34,0.19,0.06,1.68,0.57,0.56,0.28,0.68,0.21,0.64,-142.06,51.88,100.75,1.39,1.14,0.9,3.05,1.05,0.13,-0.04,0.75,-0.43,0.51,-83.31,47.94,135.62,0.38,0.67,0.61,2.73,0.41,2.18,0.53,0.68,0.05,0.51
1.03,-105.62,77.81,156.25,0.28,0.38,0.06,0.42,0.35,1.71,0.36,0.68,0.24,0.59,-95.0,83.69,136.69,0.16,0.04,0.05,1.19,0.43,1.51,0.29,0.68,0.22,0.64,-141.0,52.0,103.93,1.21,1.1,0.44,2.41,1.36,0.24,-0.02,0.76,-0.41,0.51,-81.81,47.31,136.81,0.43,0.63,0.53,2.6,0.4,2.06,0.55,0.67,0.06,0.5
1.04,-105.06,77.37,156.37,0.32,0.42,0.08,0.02,0.29,1.4,0.36,0.68,0.25,0.58,-95.06,83.75,136.62,0.11,0.05,0.04,0.96,0.29,1.43,0.29,0.68,0.22,0.64,-140.0,52.06,106.81,1.13,0.98,0.43,1.82,1.54,0.45,0.0,0.77,-0.38,0.51,-80.31,46.69,138.0,0.25,0.59,0.68,3.0,0.77,1.9,0.56,0.66,0.07,0.49
1.05,-104.43,76.87,156.69,0.19,0.5,0.08,0.25,0.16,1.88,0.37,0.68,0.25,0.58,-95.19,83.75,136.62,0.14,0.02,0.03,0.1,0.37,0.66,0.28,0.68,0.22,0.64,-138.81,51.75,111.06,1.18,0.77,0.52,1.92,0.63,0.32,0.03,0.78,-0.35,0.52,-79.0,46.06,139.12,0.16,0.54,0.87,2.95,1.1,1.06,0.58,0.65,0.08,0.48
1.06,-104.24,76.19,157.31,0.04,0.63,0.13,0.43,0.05,1.18,0.38,0.68,0.25,0.57,-95.62,83.69,136.94,0.02,0.12,0.14,1.05,0.62,0.39,0.28,0.68,0.21,0.64,-137.37,51.88,113.56,0.92,0.69,0.82,1.87,0.07,0.69,0.05,0.79,-0.33,0.52,-77.19,45.38,140.93,0.22,0.08,0.16,3.54,1.15,0.67,0.6,0.64,0.09,0.47
1.07,-103.62,75.5,157.25,0.16,0.54,0.27,0.1,0.44,0.8,0.38,0.68,0.25,0.57,-95.75,83.69,136.94,0.1,0.03,0.08,1.1,0.59,0.27,0.28,0.68,0.21,0.64,-135.0,52.31,118.06,0.49,0.46,0.72,2.58,2.64,0.58,0.08,0.8,-0.28,0.53,-77.87,45.31,140.62,0.34,0.04,0.07,2.83,0.15,1.14,0.59,0.65,0.09,0.47
1.08,-102.3,74.31,156.19,0.09,0.43,0.28,0.1,0.68,1.26,0.39,0.69,0.24,0.56,-95.94,83.94,136.87,0.07,0.15,0.01,0.65,0.61,0.93,0.28,0.68,0.21,0.64,-134.06,52.56,119.62,0.42,0.63,0.35,2.13,0.49,0.16,0.1,0.8,-0.27,0.53,-79.37,45.31,140.25,0.21,0.04,0.22,2.97,0.79,1.84,0.58,0.65,0.08,0.47
1.09,-101.93,73.81,156.0,0.2,0.33,0.24,0.1,0.64,0.99,0.4,0.69,0.24,0.56,-95.81,84.0,136.87,0.13,0.04,0.03,0.58,0.75,0.05,0.28,0.68,0.21,0.64,-133.63,52.44,121.12,0.47,0.64,0.29,1.95,0.27,0.38,0.11,0.8,-0.25,0.53,-79.69,45.31,140.31,0.21,0.03,0.21,2.75,1.7,0.79,0.58,0.66,0.08,0.47
1.1,-102.49,73.31,156.06,0.44,0.21,0.1,0.32,0.55,0.92,0.39,0.69,0.24,0.56,-95.94,84.06,136.94,0.07,0.03,0.07,0.71,1.18,0.24,0.28,0.68,0.21,0.65,-133.0,52.38,122.62,0.35,0.49,0.59,2.02,0.89,0.15,0.12,0.81,-0.24,0.53,-80.25,45.38,140.12,0.47,0.15,0.08,2.47,0.67,0.26,0.58,0.66,0.07,0.47
1.11,-103.06,73.19,156.44,0.47,0.07,0.09,0.14,0.31,1.33,0.39,0.69,0.23,0.56,-96.06,84.13,137.0,0.04,0.01,0.05,0.61,0.69,0.59,0.28,0.68,0.21,0.65,-132.56,52.5,123.81,0.1,0.51,0.36,1.13,1.03,0.47,0.13,0.81,-0.23,0.53,-81.63,45.56,139.62,0.61,0.18,0.05,2.21,0.01,1.25,0.57,0.67,0.07,0.48
1.12,-103.87,73.19,156.81,0.61,0.07,0.03,0.03,0.41,1.34,0.39,0.69,0.23,0.56,-96.0,84.19,137.06,0.03,0.06,0.04,0.4,0.63,0.79,0.28,0.68,0.22,0.65,-132.69,52.25,124.75,0.02,0.68,0.21,1.19,0.9,0.88,0.13,0.81,-0.22,0.52,-83.31,45.75,138.93,0.7,0.14,0.13,2.27,0.58,0.42,0.55,0.68,0.06,0.48
1.13,-104.93,73.31,157.56,0.71,0.12,0.05,0.02,0.72,1.24,0.39,0.69,0.23,0.56,-96.06,84.25,137.0,0.18,0.17,0.04,0.51,0.5,1.3,0.28,0.68,0.22,0.65,-133.5,52.0,125.49,0.15,0.51,0.27,1.44,0.46,0.01,0.13,0.81,-0.22,0.52,-84.75,46.0,138.44,0.59,0.38,0.25,1.99,0.61,0.72,0.54,0.68,0.05,0.49
1.14,-106.05,73.44,158.44,0.74,0.09,0.06,0.39,0.65,0.98,0.38,0.7,0.23,0.56,-96.25,84.37,137.0,0.31,0.25,0.03,0.62,0.18,1.16,0.28,0.68,0.21,0.65,-133.56,52.13,126.12,0.02,0.3,0.59,1.5,0.65,0.06,0.13,0.81,-0.22,0.52,-85.81,46.5,138.12,0.52,0.43,0.32,1.55,0.32,1.01,0.53,0.69,0.05,0.49
1.15,-107.31,73.44,159.44,0.82,0.03,0.02,1.0,0.39,0.67,0.38,0.7,0.23,0.56,-96.56,84.62,136.94,0.39,0.2,0.02,1.37,0.13,0.73,0.27,0.68,0.21,0.65,-133.44,52.31,126.87,0.23,0.33,0.51,0.82,0.43,0.12,0.14,0.82,-0.21,0.52,-86.44,47.0,138.12,0.5,0.45,0.53,1.51,0.1,0.44,0.53,0.69,0.05,0.49
1.16,-108.49,73.25,160.31,0.89,0.22,0.12,1.19,0.07,1.74,0.38,0.7,0.23,0.56,-97.0,84.75,136.94,0.4,0.12,0.01,1.24,0.4,0.01,0.27,0.68,0.21,0.65,-133.94,52.5,127.37,0.32,0.16,0.46,0.18,0.35,0.27,0.13,0.82,-0.21,0.52,-87.25,47.5,138.12,0.67,0.4,0.65,1.48,0.23,0.54,0.52,0.69,0.05,0.5
1.17,-109.37,72.87,160.88,0.73,0.33,0.22,0.15,0.12,0.72,0.38,0.7,0.23,0.56,-97.37,84.75,136.87,0.32,0.02,0.04,0.15,0.22,0.03,0.27,0.68,0.21,0.65,-133.81,52.81,127.68,0.28,0.13,0.44,0.01,0.36,0.44,0.13,0.82,-0.21,0.52,-88.25,48.0,138.06,0.68,0.42,0.59,0.9,0.01,0.52,0.51,0.7,0.05,0.5
1.18,-109.62,72.62,161.06,0.49,0.43,0.22,0.41,0.2,0.99,0.38,0.71,0.23,0.55,-97.69,84.69,136.87,0.4,0.06,0.02,0.44,0.87,0.51,0.27,0.68,0.21,0.65,-134.44,53.19,127.75,0.34,0.03,0.53,0.07,0.2,0.4,0.13,0.82,-0.21,0.52,-89.13,48.56,138.06,0.6,0.45,0.52,0.33,0.42,0.37,0.5,0.7,0.04,0.5
1.19,-109.99,72.06,161.31,0.49,0.41,0.2,0.01,0.12,1.25,0.38,0.71,0.23,0.55,-98.19,84.81,136.87,0.44,0.15,0.05,0.82,0.59,0.34,0.26,0.68,0.21,0.65,-134.37,53.56,128.06,0.4,0.09,0.5,0.2,0.08,0.03,0.13,0.82,-0.2,0.52,-90.19,49.13,137.81,0.73,0.51,0.44,0.35,0.33,0.3,0.49,0.71,0.04,0.51
1.2,-110.62,71.62,161.81,0.79,0.25,0.04,0.23,0.43,0.59,0.38,0.71,0.22,0.55,-98.69,85.12,136.87,0.47,0.36,0.07,0.47,0.24,0.69,0.26,0.68,0.2,0.65,-134.25,54.06,128.62,0.44,0.13,0.79,0.04,0.25,0.03,0.13,0.82,-0.2,0.53,-91.44,49.75,137.56,0.79,0.54,0.59,0.37,0.45,0.21,0.48,0.71,0.04,0.51
1.21,-111.87,71.37,163.0,0.93,0.16,0.09,0.23,0.13,0.32,0.38,0.71,0.22,0.55,-99.31,85.5,136.94,0.51,0.44,0.1,0.22,0.16,0.58,0.25,0.68,0.2,0.66,-134.81,54.25,129.06,0.49,0.25,0.57,0.34,0.01,0.33,0.13,0.82,-0.2,0.53,-92.5,50.38,137.5,0.77,0.52,0.63,0.3,0.06,0.32,0.47,0.72,0.04,0.51
1.22,-113.24,71.31,164.37,0.63,0.04,0.14,0.39,0.52,0.52,0.38,0.72,0.23,0.54,-99.94,85.94,137.06,0.58,0.47,0.12,0.77,0.24,0.55,0.25,0.68,0.2,0.66,-134.81,54.56,129.37,0.46,0.12,0.52,0.12,0.3,0.9,0.13,0.82,-0.19,0.53,-94.19,51.0,137.31,0.69,0.52,0.41,0.25,0.55,0.75,0.46,0.72,0.03,0.52
1.23,-114.37,71.25,165.5,0.31,0.17,0.12,0.35,0.89,0.27,0.38,0.72,0.23,0.54,-100.63,86.31,137.19,0.51,0.45,0.1,0.21,0.1,2.18,0.24,0.68,0.2,0.66,-135.12,54.94,129.93,0.22,0.13,0.66,0.34,0.71,0.42,0.13,0.82,-0.19,0.53,-95.12,51.63,137.12,0.65,0.51,0.47,0.38,1.27,0.57,0.45,0.73,0.03,0.52
1.24,-114.87,71.06,166.31,0.18,0.3,0.1,0.2,0.13,0.19,0.38,0.72,0.23,0.54,-101.0,86.63,137.25,0.28,0.36,0.13,0.3,0.19,1.13,0.24,0.68,0.2,0.66,-135.0,55.25,130.49,0.19,0.01,0.77,0.33,0.77,0.3,0.13,0.82,-0.18,0.53,-96.44,52.31,137.19,0.69,0.61,0.7,0.02,0.22,0.19,0.44,0.73,0.03,0.52
1.25,-115.18,70.75,167.06,0.17,0.3,0.1,0.14,0.55,0.15,0.38,0.72,0.23,0.53,-101.44,86.94,137.44,0.29,0.36,0.15,0.11,0.28,0.74,0.23,0.68,0.2,0.66,-134.69,55.69,130.93,0.26,0.02,0.5,0.03,0.78,0.62,0.13,0.82,-0.18,0.53,-96.81,52.69,137.25,0.71,0.58,0.56,0.49,0.56,0.69,0.43,0.73,0.03,0.53
1.26,-115.62,70.56,167.81,0.17,0.23,0.15,0.07,0.71,0.06,0.38,0.72,0.23,0.53,-101.87,87.12,137.56,0.25,0.33,0.11,0.29,0.06,1.32,0.23,0.68,0.2,0.66,-134.94,55.94,131.12,0.13,0.03,0.3,0.19,0.13,1.1,0.13,0.82,-0.17,0.53,-97.75,53.38,137.12,0.67,0.49,0.26,0.3,0.28,0.89,0.42,0.73,0.03,0.53
1.27,-116.05,70.37,168.62,0.31,0.15,0.19,0.09,0.44,0.01,0.38,0.72,0.23,0.53,-102.06,87.31,137.69,0.01,0.35,0.11,0.08,0.47,1.09,0.23,0.68,0.2,0.66,-134.87,56.06,131.18,0.25,0.05,0.35,0.34,0.87,0.54,0.13,0.82,-0.17,0.54,-99.44,53.94,136.68,0.72,0.46,0.23,0.22,0.66,1.14,0.41,0.74,0.02,0.53
1.28,-116.68,70.25,169.69,0.33,0.15,0.2,0.09,0.3,0.01,0.38,0.72,0.24,0.53,-102.25,87.5,137.81,0.03,0.29,0.15,0.27,0.52,0.85,0.23,0.68,0.2,0.67,-134.87,56.37,131.31,0.16,0.07,0.21,0.44,0.96,0.31,0.13,0.82,-0.17,0.54,-100.62,54.44,136.19,0.7,0.46,0.34,0.44,0.43,1.22,0.4,0.74,0.02,0.54
1.29,-117.18,70.19,170.56,0.1,0.13,0.19,0.11,0.12,0.24,0.38,0.72,0.24,0.52,-102.37,87.56,137.87,0.03,0.21,0.13,0.04,0.22,0.74,0.23,0.68,0.2,0.67,-135.19,56.44,131.49,0.24,0.07,0.26,0.22,0.16,1.33,0.13,0.82,-0.17,0.54,-101.56,55.0,135.93,0.62,0.4,0.34,0.12,0.24,0.8,0.39,0.75,0.01,0.54
1.3,-117.43,70.06,171.25,0.02,0.14,0.22,0.15,0.18,0.04,0.39,0.72,0.24,0.52,-102.37,87.62,138.0,0.03,0.19,0.09,0.05,0.19,0.95,0.23,0.68,0.2,0.67,-135.0,56.69,131.68,0.19,0.02,0.73,0.2,0.5,1.08,0.13,0.82,-0.17,0.54,-102.81,55.44,135.68,0.52,0.37,0.22,0.11,0.29,1.35,0.37,0.75,0.01,0.54
1.31,-117.68,69.94,172.06,0.03,0.17,0.23,0.18,0.12,0.24,0.39,0.72,0.25,0.52,-102.44,87.69,138.12,0.08,0.17,0.09,0.13,0.24,1.53,0.23,0.68,0.2,0.67,-134.75,57.25,132.43,0.1,0.11,0.74,0.07,0.27,0.56,0.13,0.82,-0.16,0.54,-103.62,55.88,135.43,0.48,0.35,0.4,0.05,0.6,1.55,0.37,0.75,0.0,0.55
1.32,-117.99,69.75,172.87,0.04,0.11,0.23,0.14,0.61,0.22,0.39,0.72,0.25,0.52,-102.37,87.69,138.18,0.21,0.2,0.11,0.05,0.26,0.77,0.23,0.68,0.21,0.67,-134.19,57.88,133.0,0.05,0.25,0.51,0.23,0.53,0.97,0.13,0.81,-0.15,0.54,-104.25,56.31,135.56,0.39,0.34,0.46,0.11,0.02,0.98,0.36,0.75,0.0,0.55
1.33,-118.24,69.69,173.62,0.01,0.07,0.23,0.19,0.74,0.21,0.39,0.72,0.25,0.51,-102.25,87.69,138.31,0.14,0.21,0.11,0.11,0.29,0.89,0.23,0.68,0.21,0.67,-133.63,58.31,133.49,0.12,0.02,0.5,0.2,0.2,1.19,0.14,0.81,-0.14,0.55,-104.38,56.69,135.87,0.33,0.34,0.39,0.03,0.07,1.22,0.36,0.75,0.01,0.55
1.34,-118.55,69.75,174.38,0.06,0.01,0.24,0.19,0.92,0.2,0.39,0.72,0.26,0.51,-102.19,87.69,138.43,0.13,0.19,0.11,0.08,0.34,0.99,0.23,0.68,0.21,0.66,-133.31,58.81,133.93,0.09,0.19,0.4,0.12,0.1,0.95,0.14,0.81,-0.13,0.55,-104.69,57.13,136.0,0.32,0.32,0.31,0.17,0.21,1.33,0.36,0.75,0.01,0.55
1.35,-118.99,69.69,175.19,0.13,0.03,0.23,0.26,0.83,0.15,0.4,0.72,0.26,0.51,-102.31,87.62,138.62,0.07,0.11,0.11,0.06,0.84,0.53,0.23,0.68,0.21,0.66,-133.06,59.19,134.06,0.08,0.15,0.3,0.39,0.78,0.85,0.14,0.81,-0.13,0.55,-105.25,57.5,136.06,0.38,0.36,0.32,0.36,0.21,0.98,0.35,0.76,0.01,0.55
1.36,-119.37,69.69,175.94,0.1,0.02,0.21,0.17,0.61,0.12,0.4,0.72,0.26,0.51,-102.37,87.62,138.75,0.02,0.14,0.08,0.01,0.96,0.49,0.23,0.68,0.21,0.66,-133.06,59.56,134.12,0.08,0.23,0.21,0.38,0.4,0.96,0.14,0.81,-0.13,0.55,-105.81,58.25,135.93,0.39,0.43,0.38,0.25,0.17,1.02,0.34,0.76,0.01,0.56
1.37,-119.74,69.75,176.69,0.1,0.02,0.22,0.21,0.63,0.16,0.4,0.72,0.27,0.51,-102.37,87.56,138.87,0.09,0.15,0.11,0.1,0.88,0.71,0.23,0.68,0.21,0.66,-132.94,59.75,134.18,0.09,0.17,0.09,0.35,0.24,0.88,0.14,0.81,-0.13,0.56,-106.5,59.0,135.68,0.3,0.45,0.25,0.25,0.48,1.11,0.33,0.76,0.01,0.56
1.38,-120.18,69.75,177.44,0.15,0.02,0.2,0.21,0.41,0.12,0.4,0.72,0.27,0.5,-102.63,87.5,139.0,0.12,0.07,0.1,0.5,0.06,1.3,0.23,0.68,0.21,0.66,-132.44,60.12,134.37,0.01,0.16,0.35,0.11,0.08,0.95,0.14,0.81,-0.12,0.56,-106.81,59.56,135.68,0.29,0.45,0.21,0.31,0.54,1.0,0.33,0.76,0.01,0.56
1.39,-120.81,69.75,178.31,0.24,0.01,0.16,0.05,0.1,0.23,0.4,0.72,0.27,0.5,-102.81,87.56,139.06,0.11,0.04,0.09,0.28,0.15,1.09,0.23,0.68,0.21,0.66,-132.37,60.5,134.68,0.06,0.19,0.37,0.34,0.03,0.31,0.14,0.81,-0.12,0.56,-106.87,60.12,135.93,0.27,0.49,0.39,0.37,0.33,1.11,0.33,0.76,0.02,0.57
1.4,-121.37,69.75,178.94,0.26,0.02,0.09,0.05,0.17,0.28,0.4,0.72,0.27,0.5,-103.12,87.5,139.18,0.2,0.07,0.04,0.09,0.26,0.92,0.23,0.68,0.21,0.66,-131.75,61.0,135.18,0.04,0.18,0.46,0.34,0.58,0.63,0.15,0.81,-0.11,0.56,-107.31,60.69,136.25,0.27,0.5,0.35,0.26,1.15,0.99,0.32,0.76,0.02,0.57
1.41,-121.74,69.81,179.38,0.21,0.05,0.04,0.27,0.54,0.29,0.4,0.72,0.27,0.5,-103.31,87.44,139.18,0.1,0.1,0.02,0.08,0.53,0.41,0.23,0.68,0.2,0.66,-131.37,61.5,135.49,0.06,0.23,0.35,0.16,1.0,0.85,0.15,0.8,-0.1,0.57,-107.56,61.25,136.19,0.31,0.47,0.16,0.22,0.48,0.74,0.32,0.76,0.02,0.57
1.42,-122.12,69.87,179.69,0.18,0.05,0.05,0.46,0.37,0.12,0.4,0.72,0.28,0.5,-103.63,87.25,139.31,0.09,0.1,0.05,0.08,0.42,0.55,0.23,0.68,0.2,0.66,-131.19,61.75,135.49,0.03,0.17,0.1,0.66,0.84,0.77,0.15,0.8,-0.1,0.57,-107.81,61.56,136.19,0.38,0.46,0.25,0.1,0.1,0.97,0.32,0.76,0.02,0.57
1.43,-122.43,69.94,179.87,0.16,0.04,0.06,0.36,0.27,0.01,0.39,0.72,0.28,0.5,-103.81,87.19,139.37,0.1,0.07,0.06,0.4,0.26,0.68,0.23,0.68,0.2,0.66,-131.19,61.88,135.12,0.01,0.14,0.14,0.79,0.77,0.71,0.15,0.8,-0.1,0.57,-108.37,62.06,136.19,0.32,0.42,0.12,0.16,0.37,1.2,0.31,0.76,0.02,0.57
1.44,-122.74,69.87,179.44,0.06,0.03,0.05,0.16,0.4,0.08,0.39,0.72,0.27,0.5,-104.0,87.06,139.5,0.05,0.11,0.05,0.45,0.35,0.47,0.23,0.68,0.2,0.66,-131.19,62.0,135.06,0.04,0.1,0.13,0.1,0.21,0.86,0.15,0.8,-0.1,0.57,-108.81,62.5,135.87,0.24,0.36,0.14,0.39,0.11,0.89,0.3,0.76,0.02,0.58
1.45,-122.55,69.87,179.5,0.13,0.02,0.03,0.31,0.3,0.13,0.39,0.72,0.27,0.5,-104.12,86.87,139.5,0.06,0.18,0.04,0.18,0.16,0.49,0.23,0.68,0.2,0.66,-130.87,62.38,135.12,0.03,0.18,0.23,0.27,0.02,0.54,0.15,0.8,-0.1,0.57,-110.06,63.38,134.5,0.35,0.39,0.11,0.06,0.59,0.83,0.28,0.76,0.01,0.59
1.46,-122.43,69.75,179.69,0.01,0.08,0.01,0.11,0.38,0.14,0.39,0.72,0.27,0.5,-104.12,86.63,139.43,0.04,0.21,0.03,0.02,0.18,0.58,0.23,0.68,0.2,0.66,-130.69,62.69,135.18,0.07,0.2,0.15,0.23,0.54,0.81,0.15,0.8,-0.1,0.57,-110.81,63.81,133.62,0.4,0.39,0.15,0.47,0.5,1.31,0.27,0.76,0.0,0.59
1.47,-122.24,69.69,179.87,0.09,0.07,0.04,0.07,0.52,0.55,0.4,0.72,0.28,0.5,-104.06,86.44,139.43,0.06,0.17,0.01,0.08,0.28,0.93,0.23,0.68,0.2,0.66,-130.25,63.19,135.31,0.06,0.3,0.37,0.22,0.18,0.97,0.15,0.8,-0.09,0.58,-112.25,64.44,132.62,0.41,0.21,0.2,0.7,0.94,1.47,0.25,0.76,-0.01,0.59
1.48,-121.99,69.62,179.75,0.15,0.03,0.06,0.25,0.37,0.4,0.4,0.72,0.28,0.5,-103.88,86.37,139.5,0.22,0.02,0.04,0.15,0.42,1.21,0.24,0.68,0.2,0.66,-129.69,63.69,135.62,0.03,0.32,0.47,0.39,0.24,1.16,0.15,0.8,-0.08,0.58,-112.69,64.69,132.75,0.42,0.16,0.33,0.49,1.09,2.24,0.25,0.76,-0.01,0.6
1.49,-121.81,69.62,179.56,0.19,0.02,0.05,0.08,0.37,0.01,0.4,0.72,0.27,0.5,-103.63,86.37,139.5,0.26,0.02,0.06,0.04,0.57,0.91,0.24,0.68,0.2,0.66,-129.06,64.12,136.12,0.03,0.16,0.2,0.79,1.5,2.01,0.16,0.8,-0.07,0.58,-113.12,64.81,132.62,0.17,0.07,0.29,0.5,2.39,2.87,0.25,0.76,-0.01,0.6
1.5,-121.49,69.56,179.19,0.14,0.02,0.05,0.38,0.53,0.08,0.4,0.72,0.27,0.5,-103.37,86.37,139.5,0.19,0.02,0.01,0.02,0.56,1.04,0.24,0.68,0.2,0.66,-128.81,64.31,136.12,0.04,0.08,0.04,1.19,2.45,2.24,0.16,0.79,-0.07,0.58,-113.75,64.75,131.5,0.07,0.05,0.55,1.08,1.99,2.82,0.24,0.77,-0.02,0.6
