0.02,-313.58669370655315,84.49106308934383,4.7279193002977244,-126.5703797081382,87.17815172389238,177.2330415810098,-169.14641387253096,1.512783099978199,11.109580611272726,-158.4300264484112,14.013742160444227,9.382372397933334
0.03,-313.5604704546085,84.62171587761543,4.779430154751765,-126.47300580430556,87.22902850160526,177.3353436749111,-168.96652257871588,1.4119699773346448,11.293324437042234,-158.38473083560376,13.963622383882637,9.40930777282931
0.04,-313.4901014023254,84.37385951624641,4.67862571617624,-126.507865924282,87.11831279458718,177.21662282431478,-168.90908925413902,1.5870300856729542,11.386073671472854,-158.67157762620738,13.92762738198292,9.525756022665744
0.05,-313.59285798369325,84.5633435525788,4.930644899761077,-126.4345493431552,87.04361421246506,177.2841303484316,-169.16646795027108,1.5989390315100207,11.33679561092242,-158.61740665592285,13.99248703645324,9.602823009315692
0.06,-313.7183025199108,84.55491869928719,4.878605124987001,-126.5588931923213,87.18151967541037,177.22732007055848,-168.90834978762183,1.6093200931303229,11.333521027012749,-158.48935874009496,14.139212191103155,9.612319720580974
0.07,-313.82678768411785,84.56545370753439,4.7700400802161695,-126.63920859380656,86.92864877889198,177.40627975696384,-169.1375469031243,1.6162375345100386,11.462578187801189,-158.45912462435973,14.150024601230877,9.844936703719268
0.08,-313.6489111916819,84.35873926164561,4.819002585634232,-126.50544866022774,87.01332669814886,177.1375169911924,-168.8385310228677,1.6617570846514462,11.312050469242172,-158.64700390779623,14.262650165986292,9.555672503657572
0.09,-313.9090693187739,84.51796775637575,4.789567170457215,-126.70302244992178,87.06587311628486,177.3011186984673,-169.0219913096724,1.591954059749247,11.426589913303056,-158.75720485667503,14.283449321792189,9.928043850685674
0.1,-313.95820875000976,84.69549306482328,4.895546171600226,-126.55910774417772,87.11808350386123,177.18095111393347,-169.17699789617217,1.4394891120103608,11.503612417938982,-158.89771401307553,14.185375758682216,9.754138222887583
0.11,-313.9692514895484,84.49079241385115,4.595948958833425,-126.5861732259846,87.1328327711047,177.09801452842655,-169.09832696955985,1.654189568792175,11.455068813789175,-158.7428071695829,14.251373000579155,9.66438959711336
0.12,-314.1376140513935,84.44449023952737,4.749352377383799,-126.54491898481534,87.11599402871302,177.1958596827438,-169.2447127064669,1.6661829999524778,11.58169506328936,-158.81961823504125,14.17666423277148,9.92060302561432
0.13,-314.1324061456975,84.56225424533086,4.772385265759049,-126.5745348133224,87.08628608140285,177.220288509661,-169.18146103697845,1.7061061854337474,11.525757407708769,-158.9540324280433,14.158760811028856,9.813593225014213
0.14,-314.1734130800462,84.60073887939286,4.867218060882102,-126.48693121133454,87.04002036118278,177.39782898124847,-169.3774522547405,1.743543198365621,11.656446062862942,-159.14666741735817,14.355804319110412,9.653785434531404
0.15,-314.0317237132455,84.45287164851565,4.887804091659218,-126.71965399017454,87.24014006404937,177.3626793539777,-169.28794136412054,1.8285998080242345,11.4587716695159,-159.28718344895648,14.098178407014938,9.843481619310314
0.16,-314.24393464892813,84.3694755970004,4.717921598900338,-126.76521584361254,87.22897505464927,177.30829628431067,-169.3979481544956,1.836913193581204,11.710451846830637,-159.3173648026017,14.062215131250603,9.898047831327276
0.17,-314.26072380415934,84.44872351168672,4.518864320108057,-126.81305386737418,87.01588303220032,177.2619381847308,-169.34593854953286,1.7208780392125045,11.682193277933967,-159.4931564725855,14.3487248337679,9.876873323074864
0.18,-314.30889230595704,84.40571121429366,4.64327875902054,-126.81870232902013,87.11886516980489,177.22508570304288,-169.51969260690825,1.8655846176709447,11.711602373376612,-159.46111004551244,14.143276262141583,9.677646256746192
0.19,-314.30336402820734,84.66300195347802,4.606751653811953,-126.84717453703192,87.04784526324917,177.3417833797584,-169.72763420541838,1.7686675040163693,11.690635890704188,-159.34392732066732,14.198823962237183,9.772374321956018
0.2,-314.25662233576367,84.57772208078434,4.7484442465639685,-126.99523541679106,87.02736934127991,177.27258624210987,-169.85949100895465,1.8391400007031784,11.710980010720814,-159.68256853300176,14.299562629360045,9.935559985137791
0.21,-314.45890185718474,84.33856487121608,4.704540333909828,-127.0207789912274,87.1663532214459,177.29845986627998,-169.70615378326823,1.74706882312677,11.695733396039556,-159.6985959940369,14.310260582227825,9.831140940397145
0.22,-314.45655717085475,84.45632129503963,4.645499143291136,-127.20258627119368,87.19057473799327,177.3307258375612,-170.0251994032991,1.672005932582986,11.51833643814219,-159.81811172917307,14.304134122291392,9.74848270358327
0.23,-314.3468174343774,84.39888101937642,4.718594497741059,-127.18253143570568,87.2358028122218,177.2603089889748,-170.226427364462,1.6205346284288216,11.656455365212588,-159.77241507757182,14.187054222295949,9.840597228252651
0.24,-314.3697997026203,84.42172962481746,4.945454390204903,-127.19231933471836,87.22860612401458,177.351948324533,-170.27962075442645,1.6363944838146465,11.84937106559816,-159.69499529895768,14.066902070975893,9.583873753178464
0.25,-314.3416915829526,84.32862584268068,4.624676888428298,-127.27015569957938,87.30352089249818,177.1495017401754,-170.33115076705852,1.699062124564627,11.627438849250044,-159.78270553163597,14.08745011430902,9.787871054802718
0.26,-314.50909771056496,84.34116549401233,4.657985302417137,-127.37375992638395,87.28364601228581,177.2326453012085,-170.37311586788195,1.84029159505903,11.683388579085054,-160.08090754891967,14.066492646684454,9.713183158635752
0.27,-314.3178861514702,84.45651988349985,4.719301535808999,-127.32906702942772,87.05912981021498,177.20071470627948,-170.43353177270757,1.811881102661692,11.728744353953871,-160.0423980072195,14.213324808794509,9.601909058049854
0.28,-314.4098342034261,84.56793297094723,4.611037969818295,-127.43148498485232,87.39080554643866,177.36182386776272,-170.3804386322232,1.778436175523743,11.640873450637422,-160.1322031751435,14.110756334594177,9.71252000835696
0.29,-314.52414163374675,84.51835322062422,4.644535416355349,-127.25571668202552,87.16746866520113,177.1995195958795,-170.42501980460983,1.4768392821481222,11.7880237032234,-160.17232044305004,13.921102428581491,9.670210090920188
0.3,-314.2877610741855,84.37826015917395,4.693850382764212,-127.41920995759122,87.26489572508554,177.04199603177847,-170.65314626230253,1.8624215160055029,11.723461047923182,-160.1954909377423,14.037176943804123,9.681070434168248
0.31,-314.3887270462167,84.52619286431634,4.800022020936827,-127.2359963375266,87.21055938292957,177.29965938959975,-170.57276965873533,1.6333240858589568,11.472338789279066,-160.0834584484856,14.030709638490046,9.530549052572113
0.32,-314.3425402584899,84.4091900699568,4.836422281799042,-127.3172760789447,87.0805038491075,177.14330585341682,-170.61669009237656,1.743164146162446,11.723447894689205,-160.13851128733953,14.124440939643042,9.38370732346786
0.33,-314.4280813852595,84.39158941780236,4.738130662095228,-127.22393853588405,87.15988549607268,177.46124740099376,-170.4357727905991,1.866994931710524,11.691168510675118,-160.32152047876144,14.241145881228912,9.536111141552832
0.34,-314.29729045750923,84.35997715143685,4.878137878649011,-127.30906657106873,87.2633323516224,177.1916249788845,-170.59734036264774,1.641849185645802,11.633566808652652,-160.22680264575808,13.93485395049304,9.397021471092971
0.35,-314.3782144715367,84.25987662291227,4.628998355844234,-127.41301400447198,87.26607112692015,177.1143263246509,-170.52916134884387,1.7141460586432122,11.72131241722682,-160.17951661798045,14.074749158792404,9.428622859857288
0.36,-314.3697416102275,84.41291173725567,4.663083216595155,-127.37313220143966,87.17773496736292,177.26822649476654,-170.46637827623132,1.724441019563136,11.65518871668088,-160.26918363508423,14.015592314971345,9.68035665966743
0.37,-314.1665975590012,84.42092296220486,4.655888754194052,-127.44640351904587,87.17755258276188,177.2717028664273,-170.5577786231364,1.9087165521207956,11.6004415806998,-160.20316049608692,14.225720303202806,9.78641473033116
0.38,-314.3087449310368,84.57633837137146,4.849170702469158,-127.5520168632638,87.29452343747771,177.19851413447353,-170.6302104906045,1.8269002889863928,11.681444022828472,-160.0228707930666,14.07977173437158,9.624782534584714
0.39,-314.4031656362358,84.42263615527204,4.669753714050323,-127.71593217327006,87.26132010863854,177.38673963803276,-170.55970674771552,1.7428034084775632,11.55015245716794,-160.12905403915153,14.094426629691023,9.627049170559992
0.4,-314.46442679007794,84.34302304820669,4.722251834804838,-127.61662069888952,87.22725748153286,177.1117720114906,-170.57032645033,1.6807245004971676,11.764064226330076,-160.09510965378297,14.20467428918623,9.544649545939974
0.41,-314.3201872664009,84.36034537216267,4.883142208502602,-127.65133120714049,87.09613965383961,177.30056541953047,-170.51859547957156,1.7422354828733466,11.487133760544376,-159.8284627461349,14.131754576553476,9.446987775106646
0.42,-314.50719036691333,84.221480232354,4.688910848356856,-127.40395698051864,86.93391436794911,177.3149914042554,-170.67713775056384,1.7392300764039532,11.279927719858115,-160.1070903816273,14.027242930637572,9.5110524143958
0.43,-314.39894329066453,84.52608274886873,4.933600190261,-127.4660937503083,87.06619011120861,177.39988013325598,-170.60498586038872,1.8711613634934368,11.546602938025254,-159.8595764886448,13.99635807902723,9.608572828326253
0.44,-314.5463698866158,84.3857893702292,4.644413817579752,-127.45386611055416,87.24368106180947,177.22437146545724,-170.42349037481654,1.731133165508666,11.594819585757548,-159.70224439722435,14.180203863449364,9.57435893210104
0.45,-314.33097548145514,84.31358113577903,4.552201816785743,-127.4149004941259,87.0266706255695,177.30093239620146,-170.36558431980706,1.7782859002919404,11.659477992832914,-159.7160543159615,14.304687646597731,9.490169233708988
0.46,-314.5028637786398,84.51639435878424,4.876461855946117,-127.5932643461845,86.85495455279015,177.1516151342824,-170.34645614780345,1.8457199632448675,11.61171827457986,-159.52163711703534,14.338613146002055,9.4101371522865
0.47,-314.38508068290537,84.4720408918834,4.835358346487293,-127.39500018270672,86.86254801134686,177.1123970204088,-170.41054503864316,1.7543851002316444,11.433372366814096,-159.46447837411148,14.17730875456635,9.654989198723674
0.48,-314.2137559832635,84.47478411716331,4.85997213028814,-127.43699661053252,86.90006083538897,177.25165841425203,-170.1875320118188,1.833379494750708,11.43942634792846,-159.15117586791715,14.373992618210814,9.344415388128793
0.49,-314.3604779719073,84.33035222459755,4.522854270934384,-127.5486450570715,86.7814955449965,177.3341708034925,-170.18500554496757,1.8676005070416732,11.45953602521322,-159.08813147495871,14.305620707016946,9.520172648455471
0.5,-314.4299421360045,84.49170514821041,4.818086217044334,-127.47524605419336,86.74212915672058,177.17960592110106,-170.07829210797243,1.8178996493161623,11.57203192506433,-159.0030297993841,14.24867313766924,9.064075540532595
0.51,-314.40844149752087,84.4190954558525,5.013022355368434,-127.54578177062156,86.5928517867047,177.20912440481305,-170.07891018801695,1.83858800297507,11.499956767804225,-158.86997560864666,14.2951484805361,8.847437094010951
0.52,-314.4701675512632,84.17322053062354,4.6833377874316,-127.8386933334801,86.47047369063374,177.4791818921353,-169.83001493078874,1.7778616540293668,11.358899603941389,-158.6782364351423,14.12152714386459,8.952499401866369
0.53,-314.35769123873075,84.54833761300202,4.682952188267852,-127.75168998463096,86.43159752671549,177.0516570428141,-169.6340846741501,1.6840429519389706,11.43018422727049,-158.3452682021796,14.2441777413238,8.763276381467252
0.54,-314.22509893820177,84.5308142201591,4.732361919612685,-127.72753746153982,86.09603906906163,177.2375985730885,-169.37841603790963,1.8088517822492531,11.183446047971175,-158.39675650976378,14.311831216420751,8.688019878446632
0.55,-314.18604989879225,84.42535080840935,4.623622349894478,-127.6515974745832,85.88592622988392,177.04111496894205,-169.17471340865131,1.825978559527632,11.104970721733602,-158.35540982626975,14.363368113485942,8.854553550357785
0.56,-314.3004777954048,84.51956787881188,4.638263315479525,-127.7930213191736,86.02277467154546,176.95718965616206,-168.91820638490694,2.169290379914988,11.00046409497536,-158.29046244573317,14.477324381259308,8.798558287841907
0.57,-314.08813675298387,84.55186359608857,4.759636095336241,-127.74192365749532,85.80660210880217,177.2441732059325,-168.99026240077947,2.106668733899124,11.06434281226474,-158.21533785071293,14.348934653438343,8.781997263387813
0.58,-314.21956939048937,84.57308253127265,4.674938961026958,-127.87535459382116,85.61228339371162,177.0754459190356,-168.74321471951674,2.232861551107902,10.875982431586111,-157.91650540173598,14.41879687580206,8.694025106397595
0.59,-314.05000901179915,84.5282595495983,4.622185563107394,-127.93602922787954,85.24629677175643,176.99677824801336,-168.60796921270085,2.434398497533288,10.93053114479033,-157.52552225418324,14.4620254844878,8.881571204664677
0.6,-314.12650849862393,84.55315071977374,4.547920277206073,-127.98968706944844,85.0354093001825,177.09155783961947,-168.70599573364726,2.33278539023128,10.806300059147391,-157.18001181515567,14.716742425077626,8.77829841348702
0.61,-313.79517564320105,84.80129350971552,4.644346220265551,-127.92437555132206,84.81574606229734,177.03180425661714,-168.2871898928255,2.469576271493526,10.756396851384832,-156.917643791114,14.714646286279136,8.68449003805245
0.62,-313.5639284688279,84.86991907197952,4.617853598327694,-127.87107735352784,84.628963197237,176.9028202033467,-168.13599658550592,2.7279061708398387,10.56237022155486,-156.6540910918793,14.779604146668856,8.742453313698444
0.63,-313.4474931672731,84.92867127574654,4.556149698736827,-128.06946733408842,83.93395938185022,176.9402085811459,-167.88222228833322,2.713861004995953,10.508130152365586,-156.24339961062844,14.863114853258496,8.901973181606575
0.64,-313.1267033044185,85.10764077483181,4.638057523440588,-128.10277997113263,83.90371811004755,176.84920942957137,-167.79349967793434,2.5750096874780937,10.48695409986075,-156.27955751368296,14.977489596534422,8.926405617986331
0.65,-313.106211706917,85.32251612130986,4.653495910281006,-128.1369749982715,83.21079414918918,176.89742587896956,-167.33787624464443,2.726340308367364,10.323684049158183,-155.91347218816236,15.049121035681049,8.953737809500476
0.66,-312.9272899790147,85.38147070059594,4.613839851088515,-128.19139977647953,82.5326738234467,176.84626748587525,-167.06457489128564,2.879306699185361,10.208958714813528,-155.93317650910328,14.92428120702144,8.884594843818979
0.67,-312.8785856509227,84.96569633586797,4.767656532663515,-128.32740893180244,81.96320282342617,179.01455344778074,-166.75523422865385,2.6869523786388023,10.019018209065608,-155.46833457875007,14.95851125548418,8.832122482760107
0.68,-312.88099166426724,84.89921174928749,4.8161053471795086,-128.44334319127427,81.10286524346645,181.3475475750576,-166.79574387329643,2.985237990208869,10.017569614891205,-155.45216164732645,14.821138255739871,8.867471640241773
0.69,-312.76227567946694,84.38705950494416,4.354349243594509,-128.09258400066244,80.32311772122954,183.3884844974691,-166.5938397031325,2.964657317432432,9.846773647295796,-154.97669949809932,14.705007133878484,8.633400538815284
0.7,-313.0861931904197,84.1688422692453,4.370336389276616,-128.23100624880576,79.77197926604777,184.44277392944923,-166.5607409250427,2.8774609597949508,9.481320055866767,-154.97391737068833,14.779036833442078,8.779161839647184
0.71,-313.026208777297,83.90580105295076,4.346259195087336,-128.041779679365,79.1518327746482,185.2269375932564,-166.36175263506868,2.84439501067431,9.475343372467483,-154.6612203705213,14.945291802111702,8.718095811406629
0.72,-313.31932483574826,83.46279497356436,4.163786643922939,-128.00815331378968,78.14926476183477,187.3491974241206,-166.02259603246156,3.022685331131445,9.223349428914368,-154.789880331557,14.739652524120109,8.761676733167093
0.73,-313.4067809195022,82.53459491851493,4.356026027201317,-127.80729035519704,77.14867629823127,188.87075190479013,-165.48902173541077,2.5756847110141927,8.705735728782058,-154.5453428580305,14.731627985801914,8.746797224229285
0.74,-313.72448084077314,81.79712372963338,4.342492465256995,-127.45302946592192,75.95689501802597,190.11572325707556,-165.39579842357898,2.632856661270518,8.413073225783911,-154.3828248157528,14.57529464859288,8.838906495508128
0.75,-314.14614551819,80.54724737967028,8.453783405549423,-127.2639335524938,74.69393718257815,191.61222413030217,-165.13996301133173,2.4509281446814337,8.098537277793135,-154.26085425715544,14.472037382338712,8.918689237678006
0.76,-314.80711885394766,79.12529142595477,12.132697785441607,-127.242748700651,73.53320036161526,192.8202202496547,-164.7681814275042,2.509691191392375,7.935417366436861,-153.79905372246066,14.30362073338444,8.73978695842387
0.77,-315.3606918048151,78.32521376703231,14.648410521047673,-126.85131896967366,72.14440256269305,194.12659525219016,-164.6731431953667,2.091505650249198,7.276530014174781,-153.6257969129917,14.25209200247005,8.503992033444085
0.78,-316.05099121340754,77.42485404555728,16.483852037923874,-126.79910825861955,70.71555608654768,195.1375047711188,-164.36596549770505,2.199710717771836,7.058851181657448,-153.2576175237347,14.230823140128615,8.732238965830815
0.79,-316.4337542490742,76.23389109927933,17.932243483549378,-126.75955121390194,69.38766487569904,195.7235898925892,-164.45467596726982,2.3787173529753374,6.8050846530787865,-153.16331750505526,13.867012971869158,8.642149490129805
0.8,-317.2481213550901,75.65117706325137,19.08686466971755,-126.82647764779784,68.0033001711205,196.20643039273563,-164.068001138612,2.097966340310822,6.502547540002078,-152.97694263150825,13.83350306960247,8.83337783991038
0.81,-317.79812352480513,74.49223590459984,20.221937509546823,-126.8950145144192,66.70245758930561,196.73701400784716,-163.97506180176464,2.025530734412035,6.0630244024814175,-152.79318450276895,14.079116570844583,8.599925520253548
0.82,-318.55009077347086,73.19012390857931,21.40015321432597,-126.97994210029913,65.10727551735465,197.14035875034645,-163.8974165130706,1.7256832945774008,5.85743245964031,-152.5924504914546,14.08304209630982,8.664715049343428
0.83,-319.37588912871644,72.45598826457727,21.849572069099825,-126.9058269690128,63.729374185197145,197.44204181651287,-163.47462076821765,1.505547053643687,5.520198556811124,-152.47441208294566,13.81382798582968,8.544135072176042
0.84,-319.62302973109104,72.06558959982121,21.97405758615944,-127.162827247529,63.37472901200597,197.70721201430996,-163.33149300410287,1.6033682183297748,5.383160037690288,-152.4110992687141,14.062658205340163,8.539412358552507
0.85,-319.77937142973514,71.62875350577661,21.78738467695601,-127.3085797381396,62.49401435994214,197.65980014646013,-163.11635437687033,1.5702935730810847,5.20351510685752,-152.41230133281823,13.828235630972094,8.55224584835881
0.86,-320.20632979843384,70.96037136307268,22.205466445264506,-127.7942240503146,61.614436039982,197.6740454355736,-162.76915489281487,1.6028888786330533,4.964153268532258,-152.5854871443902,13.965937184618928,8.453664303481775
0.87,-320.3568618598112,70.35771288887311,22.607506316202706,-128.64142140799933,60.32706880994982,197.70683281731127,-162.41108575316707,1.5757125858830587,4.913511118953222,-153.08213882446893,13.581252563907944,8.612234915648761
0.88,-320.69572216265334,69.4184583479255,23.44740577257144,-129.03571722948868,59.0811050241888,197.66695448243715,-162.54470245257878,1.4892269477400906,5.099471531091273,-152.95515194131525,13.53261284155008,8.559452733591428
0.89,-320.8913320469273,68.33139446437518,24.30599711691801,-129.92950291101312,58.02954291225979,197.25976568746933,-162.40120638221558,1.2404811077585334,4.868823174164818,-153.22486937632505,13.122037457523362,8.918521670736991
0.9,-320.9884690365234,67.33629777729854,25.27635064032934,-130.59558026321866,56.70342643201474,196.9931170490656,-162.23739471724124,1.359702624005697,5.122819314477266,-153.1043752303717,13.010622631213256,9.071458550180925
0.91,-320.9147230204172,66.5700753659599,26.21764307495554,-131.44760556308566,55.50561152545061,196.7223833586996,-162.6769108004615,1.036856244234435,5.064688902285515,-152.87927188348328,12.960670960379309,9.341580794488888
0.92,-320.50334240791926,65.6508134751002,27.232753579660905,-131.85823138688093,54.49126851752317,196.56735184893589,-163.03800825680304,0.9853659097506692,5.048854415478876,-152.91525722095088,12.983744080483312,9.436326214310167
0.93,-320.26446962099044,64.56766730997997,27.98021310775087,-132.31400093302847,53.49690274096788,196.62827291232128,-162.79754591826347,0.5301957774922409,4.953907489732177,-152.71986033577687,12.79359667173429,9.712240859372688
0.94,-320.8673484002898,63.400556517617495,28.80940062284285,-133.09645952086177,52.14818593560913,196.62284105195948,-162.52961474158894,0.5660964978375556,5.328630173064377,-152.7732418305798,12.455092909727025,9.746788251046633
0.95,-320.9102828135269,62.228603476065125,29.17239437362892,-133.77694674879427,50.975681414181786,196.6694304395321,-162.24464485784077,0.4988782982728337,5.270458099409293,-152.75721701059376,12.372065843023428,10.173068361854192
0.96,-321.4770448019646,61.24655967493055,29.33320342479241,-133.9467556884999,49.63785411722328,196.48108208885716,-161.80342704524085,-0.0584685763189392,5.109365262166236,-152.872470965745,12.097402096736204,10.395638660998376
0.97,-321.8911346962135,60.354349058230014,29.38835673733933,-134.237779923372,48.44839980352023,196.6981174685689,-161.3345595572925,-0.0525278638851865,4.990884892675396,-152.9509286476513,11.75808955455682,10.567957288605326
0.98,-322.03091723365463,59.9112307879038,29.78289720517569,-134.2092580819848,48.20925223516804,196.81395234106668,-161.0788818846539,0.0868151725463209,5.10598437933954,-152.8044608625327,11.516756209376446,10.74782831054164
0.99,-321.96879840738967,59.67974173046783,29.68037495212496,-134.04039884304274,47.3396893887908,196.8338464962373,-161.02572991952007,0.4183843265942749,4.875385782325466,-152.97229117811048,11.537690319664582,10.773685966615483
1.0,-322.1992032236037,59.02303683404968,29.99064650526814,-134.22329079202564,46.34075948233854,196.95734022983373,-160.9635784349558,0.6391899018841952,4.9289697604874965,-153.0215433395684,11.226867276020885,11.168345276554724
1.01,-322.598176449372,58.29513045213421,30.24396444015489,-134.27650611146146,45.29732790414018,197.1724054110585,-161.20623893986854,0.9423015434820314,5.189870209022256,-153.23854115824534,10.995317371457649,11.100842978020829
1.02,-322.79526334163154,57.744704364623686,30.527257769295787,-134.24265813532637,44.13373174832402,197.36520475621947,-161.15360966884847,1.0976129866364344,5.24234752857725,-153.18449219360014,10.995107856862123,11.5060505257242
1.03,-323.02001747284265,57.42674561270246,30.418907254173376,-133.99256744693713,43.18087826789951,197.43969729736597,-161.05417355636484,1.431424899145845,5.426821716623926,-153.39278032611352,10.639211087553583,11.628454568380883
1.04,-323.43332081973386,56.73703099939861,30.43429431524079,-133.8408432242347,42.4514054041869,197.6597036129413,-160.39501954403158,1.782254306929527,5.460719114976815,-153.29271623197693,10.432009700746272,11.76794275745707
1.05,-323.74931981802155,56.02605377033498,30.11177476826638,-133.92664601385334,41.85558835009752,197.70162176856152,-159.87381380474756,2.15684624013537,5.912981754686437,-153.5205708254127,10.314500784335792,11.900592772989654
1.06,-323.6887294813707,55.59325537332781,30.64574758540712,-133.90782998427605,40.995032494656826,197.79173482008625,-159.6683622367105,2.429249440215955,6.348211390521895,-153.22353141415886,10.315947924367386,12.153185758863303
1.07,-323.5740079888055,55.492142734022,30.880357215948617,-133.86015361998858,40.04988872305356,198.00675695552536,-159.63018359188348,2.437017442730781,6.339343359245155,-152.92712407605515,10.13103393998926,12.48748439334994
1.08,-323.0952409418274,55.30206667447651,31.07586937709765,-133.74658252046737,39.14274318127857,198.01156642669952,-159.31480201744233,2.987174066029197,6.682972972273483,-152.55152015857104,10.022449657464447,12.788571993505988
1.09,-322.5104940646149,55.209946927449806,31.55763145231548,-133.67702914083154,38.29476683773485,198.3934316170504,-159.14473434975807,2.983330702797073,6.734757664366271,-152.46242042380493,9.900550565716236,13.016856057286438
1.1,-321.72243099909207,55.29090544446852,32.03562930125061,-133.80211467840454,37.5120148292123,198.51982148843,-158.907984598847,3.2416574603918566,7.017916507172996,-152.02567062857744,9.991647365135895,13.169624311311756
1.11,-321.3525506438738,55.17044394285867,32.00170580679423,-133.58483635297335,37.07534502146365,198.37167495271012,-158.56963395343,3.3182681728952423,6.968659937814261,-151.9308856939145,9.61621401558559,13.508110179008684
1.12,-321.4784829146011,55.04468110322492,31.89831123917686,-133.41695535367614,36.76374303189435,198.46413207198583,-158.52696305651008,3.379918521022677,6.94476953678505,-151.5301422296652,9.878806771121234,13.66263989913876
1.13,-321.4517712392012,55.00562682131192,31.935125909331376,-133.34362604589475,36.5426557260566,198.5008506988972,-158.4584378728112,3.390999042020124,6.925232030216525,-151.39149299686835,9.785102096723518,13.684893003687964
1.14,-321.297036563467,54.83441401883479,32.127672566976734,-133.16392532984935,35.83233554632241,198.40704603304656,-158.31140351742923,3.504813292331729,6.970127607369973,-150.87993030446253,9.545466168018866,14.13135153118359
1.15,-320.28529159291514,55.02336486325791,32.31001729931749,-133.2223019773234,35.59124496120695,198.42285980613107,-158.46876707937176,3.5810447603497204,6.941260957509711,-150.46040762934007,9.591365040989624,14.178605405640043
1.16,-319.79573551252315,54.88787582339967,33.088511469608825,-133.10167240833076,35.091644675848684,198.60570138940096,-158.45440346019546,3.7105757873762295,6.689635279099532,-150.15170271849954,9.660633037543036,14.54756728638162
1.17,-319.6925022091423,54.71399941338316,33.12793233022357,-132.66075367263062,34.49408955623876,198.81121486238655,-158.34863686941648,3.526674148870872,6.531920572511296,-149.7528724597394,9.571283870353604,14.58135155737991
1.18,-319.691835208655,54.902991244976086,33.01539794281794,-132.5148288146861,33.778897324157505,199.0857107115021,-158.29683137541042,3.597845988655298,6.661684343948929,-149.22216144847692,9.559564877996252,14.716060841007511
1.19,-319.49107157643607,54.82171546303896,33.00413424909414,-132.23342617744296,33.16156547637669,199.34722642039964,-157.76449536413645,3.778319286058992,6.212049423458589,-148.96015430469896,9.357054837524002,14.663371248549478
1.2,-318.957700457015,54.511372119007056,33.21542030433828,-132.16045965313407,33.223531132837174,199.18330670666109,-157.53512082880926,3.7016954408303455,6.252938980580514,-148.88697177080763,9.164264384913489,14.670086878068792
1.21,-319.01677512288654,54.53349711395503,33.51672501853346,-132.0073648195996,32.79101550331518,199.38579946424773,-157.7650032849162,3.804134437272443,5.994765601378391,-148.87558906493558,9.030877118743003,14.350086682844411
1.22,-318.6473387964146,54.41493449234114,33.67691630275429,-131.8758361673297,32.514096566599065,199.47612729136932,-157.53764351723987,4.124401029529604,5.8064465460577726,-148.78954423900447,8.63590922018765,14.298109523468524
1.23,-318.2073330057665,54.40127199027384,33.72249648904035,-131.6350613484788,31.99323249296671,199.4380560434953,-157.82390323778907,4.237128451625052,6.080886036240987,-148.2576387379096,8.845324896527714,13.987505976907087
1.24,-317.91836244665274,54.20250975126932,34.05418880012889,-131.53158663366008,31.867432316663617,199.6781834478847,-157.7610612250934,4.579595059914205,6.070444800388083,-147.93765886453014,8.442547010901615,13.563560758568803
1.25,-317.7902042628813,54.003102648242006,34.17462704152198,-131.37172210291715,31.599292734047182,199.65672474732148,-157.65683567248186,4.465834162318686,6.306503770420758,-147.7496712464315,8.239211402901526,13.441900206462496
1.26,-317.92629764896105,53.76406323709892,34.15722710407307,-131.2521527818668,31.38692674637258,199.46837992073296,-157.59365461192996,4.536445886598377,6.368639523885228,-147.49804546163782,7.979381057034801,13.135269353250584
1.27,-318.14397528383404,53.54368134459295,34.238775290363016,-131.3190519277943,31.46211584905124,199.53766444960837,-157.3442061426762,4.580996252132727,6.600583809333839,-147.25128068461422,7.827063863625873,13.03671752404852
1.28,-318.2279522459987,53.574573790882994,34.32291749103445,-131.45451070633746,31.030810893738867,199.6161686956003,-157.18913313581888,4.859249180473143,6.619973281792657,-146.31458718626052,7.643318935800262,13.046635647329484
1.29,-318.2895694901597,53.66595612439965,34.312831049207595,-131.0449810880151,30.811893110953108,199.62089062732247,-156.85284310430666,5.152428106174803,6.6110342666619255,-145.48654631365494,7.631054945411829,12.946147121622545
1.3,-318.40894779838084,53.27111676365977,34.20950040086971,-131.22572533071403,30.75795383868701,199.6368656798737,-156.3940066120277,5.187690036544974,7.0485971838706805,-145.42358855120818,7.0918931233238665,13.0028078969054
1.31,-319.06713281293315,52.91961489747652,34.24734897438282,-131.17033242393353,30.387010851804696,199.80414280428363,-156.34005499013077,5.640580059993301,7.325019370934187,-147.1690404701857,6.647246525353563,13.026848648217342
1.32,-319.21950305986377,52.634909681589775,33.87501329219519,-131.00386045980085,29.956560635762543,200.1135036140596,-155.5436963389131,5.728780968789433,7.69262694554082,-148.86171646515064,6.457286778835459,13.091928617535686
1.33,-319.4247112588267,52.72195347129214,33.634218096698355,-130.8239417863409,29.85440120076108,200.25344518723384,-154.5744992210616,6.307121671868789,7.8935549891137455,-149.4565686339106,6.341136501589653,13.79066182454962
1.34,-319.7906774252813,52.57344662114758,33.51836663140816,-130.86017642395336,29.709327147189047,200.3634984570502,-154.2179847045882,6.21364474680671,8.216995174713762,-150.10486752269858,6.32959676820191,14.403471549480312
1.35,-320.07563465459435,52.73001111676009,33.55677827728029,-130.84314605847464,29.361041040651678,200.36115611155896,-154.14784814096237,6.562646085865612,8.893046359857776,-150.11202684165235,6.285140209802805,14.784646068791762
1.36,-320.30140053568806,52.60380572384263,33.37133418624222,-131.02656963606094,29.37477679087594,200.1255708048037,-155.01312301011112,6.575913732690188,9.14370176281536,-150.29903777313186,6.5042726222207055,15.893713950193698
1.37,-320.488776093898,52.85863028173444,33.02552281880752,-131.09051263763718,29.033391091685203,200.3930040159357,-156.7474663764294,6.565850011215837,8.919548540481467,-150.20586950457138,6.574519257516227,16.629274607958592
1.38,-320.84746404443035,53.06250795510044,33.05398488577232,-131.06323661273677,28.92022146334198,200.33751366300143,-157.48308374341255,6.639482047251779,8.745355351569614,-150.12013686644258,6.801421606019595,17.913787898187284
1.39,-320.9684460237964,53.37389921215439,32.726216998452735,-131.07842545683272,28.92332563433653,200.2745962367812,-157.65322054734568,6.244754545479242,8.067571792112918,-149.88621918747512,7.5219205739405295,18.792404292549985
1.4,-321.1367503851115,53.690609665738585,32.52069745725838,-131.25653553762658,29.13972364342875,200.2886409645389,-157.51140655684728,6.134695521088271,7.510415589210676,-149.6294967158475,7.457300205378617,19.524321678762565
1.41,-320.82775285933536,53.74943540011023,32.56316376038473,-131.2202743375337,28.94639872435157,200.17525185370576,-157.17591208064746,6.042472398755326,7.29205895321195,-149.49890023213908,7.604699650262867,20.00658798634647
1.42,-321.27390070555833,54.32800930892896,32.14579668094493,-131.22201135063244,29.09361443949481,200.2525128634973,-156.71487397963836,5.817956489754621,6.58834223700324,-149.51102939613742,7.971286383766016,21.164406988706016
1.43,-321.33230467490864,55.13035039628139,31.997153255792988,-131.51042041632203,29.331713543344197,200.13070429041755,-156.5915947634467,5.476172530836803,5.628618218802075,-149.07634918041907,8.505206913733756,22.367388629024315
1.44,-321.1948990666625,55.38192662094995,31.912661987690267,-131.68738155903966,29.724343431033155,200.1134353737336,-156.46684998472003,5.2377001527838,4.946341526289049,-148.67449263187373,9.001052694015929,23.64883861390194
1.45,-321.42058220530816,56.53224933656132,31.346415401401448,-131.7383882412822,29.818362136803184,200.10781040046652,-156.81953761475262,4.704454175114032,4.0007068291314845,-148.49830049637993,9.516007276429272,24.7867544576515
1.46,-321.3175032247287,57.44061151458835,30.835168102137445,-132.12932978993865,30.03802209702599,199.97625940368007,-156.86620706792633,4.6675779059769,3.374985483994252,-148.21549975018104,10.111271708649072,26.257918275301822
1.47,-321.298558238822,58.70628716716262,30.45763056009541,-132.25657343273664,30.530023981685872,199.80648909773464,-157.0519359704029,4.332238277789952,2.6983343565487066,-147.61303966414695,10.899403691497724,27.625632150014265
1.48,-320.87383496464463,59.923779146739214,30.040945583632368,-132.49658359806068,31.153533583617577,199.92936630876008,-157.24889095682573,4.236954540054612,1.9376692376897855,-147.0848947735876,11.741942428849908,29.24202687293065
1.49,-320.6648423986608,61.38203584001731,29.35159506929279,-132.91887783090445,31.374264932871117,199.42661068981988,-157.47180864961197,4.10019747525082,1.1595460102450004,-145.90802316811752,12.613570549556586,30.574735954107545
1.5,-320.7356250395604,62.42845799134967,28.90240789607939,-132.787075985451,32.30184179647462,199.4518183712066,-157.67418141728814,3.7286837031730578,0.3215369279932132,-144.99837697644838,13.51956829441633,32.133511246276115
1.51,-320.53975066271005,64.1947669758285,28.13419327204094,-133.40541919891464,32.916526026433736,199.12399326102704,-158.01099761878802,3.179711317515814,0.425755237649378,-143.88278654781263,14.45762239498605,33.76985450138669
1.52,-320.1810516477395,65.50081314432364,27.4198933066048,-133.4400673103097,33.81857715377451,199.2044493746522,-158.1760924862013,2.5690300553747005,0.9935314918618742,-142.9447034569519,15.252478440152622,35.43440929782972
1.53,-320.0184120320308,66.83640313366271,26.817070238791786,-133.810199236256,34.68179940490407,198.94991906858957,-158.77320964990218,1.8235528768649043,2.16715513971578,-141.85928757921445,15.995026377565765,37.09017224584798
1.54,-319.98571340157406,67.38460585604996,26.368742669200017,-133.77992036863975,35.58940479015656,198.79356787765045,-159.005010043219,1.2037493002634716,2.377798534157695,-141.25947870579816,16.81210136298174,37.628774958395056
1.55,-319.8795157458653,68.24767610980837,26.2058276581398,-134.02484273731943,35.98810123409016,198.57382758027236,-159.01386893248707,0.7065817227237785,2.89452138017592,-140.46333629292818,17.20318711529238,38.48734426290795
1.56,-319.8410949204786,69.38103757598847,25.46937247916585,-134.38612120669538,37.3657699231709,198.48174544489197,-159.5046894615935,0.8256425591370371,3.698198931800889,-139.4553296249088,18.335217407057662,40.28201415981047
1.57,-319.8383239248212,70.80314197307152,24.428885095025816,-134.27925972606533,38.82252794365707,198.5157007635893,-159.69362640868667,0.8226870681092344,4.481312781015162,-138.1805329917812,19.664416156226626,42.12651531732456
1.58,-319.81077151872364,72.2614221507644,23.22276989542835,-134.60555197570807,40.52382008854539,198.3589128202438,-160.0985932803834,1.5032688414292557,4.897153198698706,-136.94288925310144,20.762002656730445,43.91057082247167
1.59,-319.7003140103864,73.64441042619039,21.923390784245186,-134.7911692656472,41.96650344515342,198.2332002942996,-160.23521318315818,2.466803626972636,5.589775149810193,-135.74996179825007,22.19410547930558,45.82386663433378
1.6,-319.4034726176381,75.21321254204304,20.405608502657028,-134.83122401613485,43.980602763311175,198.13867809547008,-160.71386609450414,3.6589094653157934,6.353934496560897,-134.3028919036968,23.86674854542446,47.93742461042259
1.61,-319.3344794398908,76.91775588435506,18.456014259950848,-134.9660432231975,45.93107590184351,198.12884669947445,-160.87482031627732,5.046471777369899,6.913388842185683,-133.29173436188344,25.371589438345648,50.24861855023845
1.62,-319.30310382218977,78.52070775584038,16.26226790736561,-134.36865079409438,47.87367028503319,198.1456825483438,-161.0061636412264,6.326434804215695,7.369519492651015,-133.12959962172127,26.878363844242752,52.76943399588256
1.63,-319.1803617595924,79.80935740215698,13.155602359831065,-133.81495520727609,50.03562244801152,198.1903173859686,-161.45664608247432,7.402906367055295,7.852997443655436,-133.41376604096772,27.74029375127024,52.67036626728815
1.64,-319.3389037782666,80.82116557340204,9.101338612725629,-133.26986821519176,52.39042969512781,198.18749529686573,-161.8722341255214,9.066124588882367,8.074557047666424,-133.6943070856581,28.848937969117262,52.83050878772418
1.65,-319.53035094159713,82.2674538714522,9.177669068531133,-133.12212660610473,54.833106890220165,198.055315431569,-162.75988537670352,10.690786923532444,7.801464443825848,-133.9190880157359,30.18918728189433,56.14407012825183
1.66,-319.3902476601619,83.026032994822,2.681743772159822,-133.4037098582017,57.47285915025662,197.62917677457597,-163.45014563156462,11.949796028014656,7.53395107015749,-134.2583407128208,30.75312746129749,59.42418891437218
1.67,-319.4422999509253,83.58127878207092,2.5980291114010714,-133.49861663699963,60.13813630177967,197.1147001825701,-164.7086624947187,13.481476203239366,6.573385882745706,-134.5682446735456,31.562829723546056,63.23242903733957
1.68,-319.33167851556806,84.06681164446111,2.5558862591333966,-133.69842662585629,61.18016050221378,196.8156312684799,-165.81283779138917,14.164006096727055,5.819010473153735,-134.35944862731697,31.950301686076312,64.89254883020831
1.69,-319.1634123945193,84.17411580638583,2.864368723768504,-133.76981518783236,62.38657555634397,196.53620459215125,-166.68768892751453,15.198838875870225,5.326966137504256,-134.37049877961792,32.09878298261634,66.99674448049389
1.7,-319.0412228503317,84.92128303126331,2.700413496784148,-134.05375836558218,63.6976215667469,196.46443953969904,-168.54038177765383,16.97774082359661,3.964553813152976,-134.75581866420288,33.24677169166382,70.81001777505341
1.71,-318.6522427387301,84.93828863045275,2.6768199379828643,-133.75857374380527,65.95465687300391,195.91637962077303,-170.11352831090602,18.396291871766696,2.8298601835187696,-134.18963306864748,33.66970004455486,74.91222780261911
1.72,-318.31775803017064,85.34923881326394,3.010581851135861,-133.83894973721846,68.12469371161782,195.3165814171052,-171.59259323460864,19.74158841335101,1.4256218921087216,-133.79775800566046,34.42819195380792,79.04332365412
1.73,-318.289077202299,85.36579666717742,3.0041859502181003,-133.99472749044102,70.39638819909426,194.74341308541872,-173.04316244441796,21.491055279215992,-0.1369094825190716,-132.83028715009115,35.28466632683061,82.91853972187845
1.74,-317.95643756779714,85.48088953092679,2.8235976616579275,-134.55708280512556,72.6398285186038,193.8146145448609,-174.74548603377826,22.97573962107024,1.994327191226153,-131.9335655759974,36.0071380050567,86.97823446882579
1.75,-317.84170404186074,85.30142988578588,3.089305942153207,-134.20749550561652,74.6284048728899,193.09279297676733,-176.34826313549996,24.257600446269432,4.25768886201756,-131.58607576499753,36.62814485190029,90.93743738749718
1.76,-317.6499193714899,85.25726323079,2.810156785569002,-134.23377168683842,76.58947293717014,192.0655017653228,-177.97973253946685,25.655556215759805,6.350890020668947,-131.17292838896088,36.81638405721922,92.95601465317596
1.77,-316.9170865511268,85.28524333483178,2.8948542318064447,-133.9029369932045,78.43773826507167,190.4470425463176,-179.9830389451764,26.37585917316037,6.408500094477365,-130.65643772087634,36.99793769421239,97.0555727400281
1.78,-316.76866497139935,85.22096009808335,2.699893087949027,-134.17274550523945,80.17877491848208,188.83852426470372,-181.75968012829887,27.535041158615982,6.3150337958228855,-130.89917911409574,36.641801428196096,100.95915494319196
1.79,-316.5044259510384,85.28574879775694,2.610136941031524,-134.01463972724693,81.39387868589141,186.9112063833851,-183.42483414922373,28.198086737665367,9.141673254458825,-130.0877184442818,36.26723769232492,105.09802798651071
1.8,-316.1945752681605,85.46164350891495,2.5163809536065664,-133.727065185912,82.90924658056699,186.8135950230873,-184.9450374193532,28.77875124914485,12.09904761209508,-129.4111257879358,36.10534597909645,109.30354068346718
1.81,-315.73369488355,85.39842035836348,2.3906019627216364,-133.503323340592,84.01959022029189,186.73417860525456,-186.567018541774,29.11555704050415,14.974305499631946,-127.55795855232898,36.17473269575394,113.10612258560865
1.82,-315.78046812758885,85.40330952968537,2.491319109223854,-133.5189848425752,84.51255107293053,186.74731707100432,-187.00027751267703,29.408100279594024,16.565241942756426,-126.87247962534327,36.2689240207304,115.2969386622452
1.83,-315.8211447400953,85.43149691441688,2.456769006476784,-133.49873697725494,84.97286889481778,186.70780575146156,-187.8320177027294,29.2337277973518,18.075759961801392,-125.851695315325,36.22913759464593,117.22704375927869
1.84,-315.6484950586814,85.48002524267518,2.4224874946140558,-133.22499299444652,85.67569379579597,186.84421784528573,-189.34285072514064,29.254567757710586,21.28777331728124,-124.41846503361474,35.89901511104237,120.71827287726614
1.85,-315.31128875204234,85.45901927378502,2.442857230595948,-133.09197735151693,86.67642355340784,186.8731625969008,-190.9798791974632,29.13399561020787,24.686613191368828,-122.73253481178448,35.54264979822502,124.35967514187531
1.86,-315.33159743927854,85.42601464718666,2.45375699821411,-133.06487959530023,87.3206348851675,186.67808999307712,-192.382167238885,28.933530631409628,28.036817861632635,-121.56645589223204,35.138335003078126,127.60711533653117
1.87,-315.1445640101249,85.48409949774214,2.525846091844079,-132.7780459266026,87.44452385980372,186.67254615405835,-193.5936617177809,28.6245843971344,31.400151966790208,-119.54812589963292,34.50187340473414,130.420779833213
1.88,-315.0984305688248,85.50297410549541,2.428619683450977,-132.2756974379462,87.4013259856565,186.6145990205923,-194.3481440664519,28.349022701391043,34.139082482837004,-117.637329328865,34.102231683331055,133.22215449991614
1.89,-314.7363607263345,85.79829571022196,2.398875896100352,-132.0231603142126,87.75871588624885,186.43671518998215,-194.8177985848522,28.117192105830306,36.981478295570334,-115.78972116058306,33.75038699501644,136.07465329386756
1.9,-314.59307982649165,85.73287866542793,2.373384266516997,-132.295419648256,87.32903975866071,186.64372371432367,-195.00451823000492,28.169404217681517,39.66145864146624,-112.50645673820038,33.70960285057105,138.68972586275854
1.91,-314.28102846226324,85.93454166762952,2.3418936853521104,-131.9216458923063,87.05952465088032,186.7274846719125,-195.08992886518573,27.93044285730144,42.21146701625707,-110.0380568087411,33.68429388324339,141.0589288832886
1.92,-313.8814813343019,85.69067824962329,2.1868283120165577,-131.5952048448152,86.63857963466833,186.72543224406635,-195.39436909067285,27.854189024926875,44.75277202693516,-109.71942934787393,33.66724995061893,143.516748013472
1.93,-313.6913128893124,85.83870227516935,2.28280641803831,-131.56039031280093,86.38881316608088,186.778197748783,-195.3555930672779,28.05538342566592,47.56176274312855,-109.70334563821048,33.7178940217289,145.71423373603028
1.94,-313.6219427270914,85.95929781821162,2.2359400715272257,-131.40972729323926,86.3855500654885,186.8029474434234,-195.30631431983247,27.95454413067152,50.16775355617129,-109.31325522620828,34.071968516517146,147.50939440490822
1.95,-313.557857233732,86.01705532851335,2.083566520423869,-131.228759155949,86.15317217232322,186.77523844866505,-194.91533339471889,28.179552279745263,52.66353087418676,-109.18386133011734,33.89859608037288,149.60840798415933
1.96,-313.45702840711544,85.80765231552704,2.194659620233625,-131.3551319770532,86.15935051206867,186.8468835006989,-194.6072833523578,28.3611769056096,53.76709539314687,-109.1855572461504,34.242813627960324,150.5265512161106
1.97,-313.4833048638917,86.09734652913384,2.1067097779083164,-130.89922107845058,86.07255298084483,186.93568282169036,-194.389944359504,28.561679895017665,54.936609812714245,-108.9801858255391,34.504892638332315,151.21788300311587
1.98,-313.36096049618624,86.12902946235508,1.9129930022553117,-130.76567313580634,85.7676317137074,186.7738443092484,-193.55307347247197,29.047891640135752,57.00572760415164,-109.70507212283844,34.99588084107678,153.24723067227393
1.99,-313.26552654393424,86.18799926089497,2.090435608578307,-130.65450601171705,85.46004582373678,186.83031882758303,-192.64504936416472,29.73381913740468,59.792731117580495,-110.4954108556662,35.47948229159111,155.09791917382145
2.0,-313.0462916324885,86.0216484261036,1.94968823981478,-130.46523107061165,85.66424538130201,186.7157607600045,-191.7224852182882,30.618214392869792,62.25942880347822,-110.67302019849976,35.868053389959485,156.1238534220016
2.01,-313.13486505876347,86.0156334548827,1.810569231236252,-130.1013209502682,85.40915590138334,186.99333994733124,-191.21758544866955,31.04682389930808,65.09911720342271,-111.1282177685143,36.01424971373414,157.46251281500744
2.02,-312.85026051448216,86.15533625298377,2.041399374627028,-129.74685200955665,85.49032250266255,186.63826208698384,-190.76073298534533,31.363264193004348,68.15620912463322,-111.25787499107398,36.27380229066724,158.80216484812863
2.03,-312.8871533011683,86.17798026908444,2.055399565613062,-129.47548125954964,85.59060496701507,186.76372711973067,-190.4118884399616,31.769697936330427,70.9094766853988,-111.66710875859168,36.392188394710985,159.83123330884226
2.04,-312.8726043858045,86.44274518687612,1.7438514423459424,-129.32518361949326,85.56929712550364,186.7970563035948,-189.97679090971155,32.09275921324398,73.8382237165528,-111.7218634670257,36.579636202808906,160.90185376854035
2.05,-312.66906370249603,86.44660355622058,1.7089210850621637,-129.06011958887612,85.76186429936726,186.71719412969347,-188.5709958473541,33.20582546885256,76.17926365672945,-112.43273402164954,36.53141534821649,161.45665112445604
2.06,-312.652780072244,86.28682513906956,1.9733506095710132,-129.01022190908415,85.45135823984776,186.7264497184375,-187.4780338608402,34.271259144332134,78.54553205638005,-112.49924432691869,35.939185051256096,162.05457346829283
2.07,-312.52834670007326,86.49685435181068,1.7932513961808307,-128.708918894461,85.80623752128668,186.801169600524,-185.92806808310863,35.06775996415242,80.826572820576,-112.94107374001048,35.437380555149424,163.22939996002523
2.08,-312.42332015094644,86.5409951685598,1.8397294185606707,-128.4021489073969,85.36413420989487,186.74787986941868,-184.7332248498805,35.60742073065816,82.94717001818613,-113.99364867088354,34.626110428932165,164.05136640329357
2.09,-312.1881030697941,86.57356073646721,1.5933256967599982,-128.512937814961,85.64783017545162,186.65739848049927,-183.88371615229792,36.004885286426884,84.85385976360428,-113.80381031282514,34.143070701880255,164.85812017016318
2.1,-312.12449899805245,86.63163073788634,1.706093823737118,-128.35659410146235,85.39504852489621,186.78896049563053,-183.75923475698917,36.095380106384646,86.0781879611657,-113.9656204704975,33.5539884478675,165.23436334153274
2.11,-312.37679180257345,86.80772351157779,1.445841198560197,-128.62975232733422,85.48307005336187,186.8061991035761,-183.4075281139426,36.13497820892799,87.2579783595815,-114.34970132575526,33.30082230248147,165.70510834087943
2.12,-312.1785843648733,86.76198106433907,1.6081393421225716,-128.43726362525553,85.49754539661559,186.7175011140851,-182.6534128459863,35.52508034252556,89.30683171171091,-114.45199583005596,32.230809970437576,166.38626590865775
2.13,-311.77732979872303,86.81675101163945,1.4646046208437995,-128.2710804854332,85.46924728145972,186.81210538989723,-182.0688180150929,35.1419427141382,91.56206166609704,-115.0790984223405,31.033460067889365,167.2069301234498
2.14,-312.0248800460401,86.82375645889145,1.5186401202027184,-128.16394717435256,85.32975193796871,186.8730630849172,-180.71073128340848,35.30426363862937,93.71732315773964,-116.08031871058476,30.20435819081426,167.7400410153288
2.15,-311.71086145581404,86.83567216089173,1.6500019344656465,-127.87383569422325,85.52841385380331,186.6437566651514,-179.0619558083756,35.52318209178419,95.4675519013534,-115.5040388809408,28.8723476176872,167.76531518772296
2.16,-311.6278354066528,86.85833794245848,1.7027886115687871,-127.83863980472856,85.33859623438242,186.71296907965444,-178.09297399476904,35.50262429187448,97.27806265973064,-115.81485711899175,27.777073610574785,167.58605178874913
2.17,-311.7339165897377,86.82446750435874,1.4452558697548588,-127.67207765696912,85.33161647328245,186.8667085510636,-177.1520256602391,34.694157801166334,99.07045327880628,-115.85403004224268,26.88158504940416,167.6984827361347
2.18,-311.90240469342024,86.69757376218782,1.5998323955499183,-127.48654638053743,85.1401939324747,186.60335277824103,-176.65141282413168,34.51178671469071,100.97825525492802,-116.04824128744885,26.07740490238917,167.7509604079746
2.19,-311.80270509552804,86.84436098921056,1.3230668995691004,-127.3713759211372,85.41972767847032,186.75659444616005,-175.636412758244,33.98275031127053,102.90502204408726,-117.5592849589299,25.57081314204922,167.69731019394243
2.2,-311.8099573114857,86.74703220644487,1.5200865335918037,-127.22435053179632,85.49039594437603,186.7088315137027,-175.56903527972185,34.07734799864608,103.60756054009498,-118.13238772710127,25.492577716102527,167.7421061341367
2.21,-311.7191755465544,86.78064060677778,1.608590427438663,-126.93628670927536,85.58145040853391,186.65938714509048,-174.44725818032651,33.947166139017014,105.48162401471296,-118.5158078694682,24.64629078700649,167.46652081442937
2.22,-311.84480304037805,86.56280496666128,1.599707332821561,-127.06535180222896,85.74585077957687,186.63008092395967,-172.77918927374722,34.00098577789043,107.26779239176942,-118.28782339763836,24.55258143318152,167.31322532121098
2.23,-311.8698592351336,86.52434477149065,1.518712683253436,-126.69382449060996,85.97400357428297,186.5085931840055,-171.74075709066773,34.36690380692625,108.76008778309408,-118.50999749894196,24.150787543829537,167.4348307145852
2.24,-311.8840731437413,86.55018768942412,1.3008137155460773,-126.93163734344375,86.29257704489004,186.4765303267214,-170.64218472946635,34.75189754552742,109.78233585880253,-118.93386322295302,23.911324805282536,167.23648428759813
2.25,-311.9655637391607,86.70524239881726,1.3324668485811677,-126.70907946477676,86.33443851574052,186.4344936173208,-169.6629988494728,35.13023627012436,110.67958456636504,-119.73974756531486,23.70158489320405,167.23218817603072
2.26,-311.88127316810164,86.71299773391193,1.3141449738517703,-126.73533404694705,86.48191088652487,186.32310863171887,-168.12666885290304,35.4277803492967,112.36529006107972,-119.92904995402324,23.338590457503773,166.9741333392111
2.27,-311.95985167688855,86.4359861270294,1.54116708776621,-126.75711525592716,86.74884200434605,186.32684515563696,-166.4725575859046,35.80065210542384,113.93462002715592,-121.05010193301152,23.27380984490893,167.34146197718175
2.28,-312.0295052853753,86.49965031840343,1.4292068661499655,-126.63504156421344,86.92922641062641,186.20593565885088,-165.2733514147386,36.08514998730665,115.35745235524038,-121.7178130980812,22.816466919150503,167.37941992860885
2.29,-311.6590090334028,86.64096094314758,1.3861130259497163,-126.63248772124562,87.32872810073242,186.03489858740363,-164.32084499686945,36.03659183546544,116.84446287500543,-122.61203880489737,23.10279136243541,167.11398169605818
2.3,-311.82286466593547,86.43593406143187,1.4748839976193284,-126.60399630853132,87.4857787348846,185.9368037372862,-162.74873866046934,36.30136743314067,117.95274015159237,-122.73673979994716,23.04780486441688,167.38772019755913
2.31,-311.96293806728283,86.40101637384349,1.6491629429637142,-126.59870539052837,87.86145609101943,185.6677381100868,-161.52790590812927,36.837517435924646,119.20613632221732,-123.22280485668,23.851984845043788,167.24573159470836
2.32,-311.6794249719392,86.44302932522777,1.5104449546655103,-126.48509347932756,88.20592247137937,185.75844511227356,-160.10770022900576,37.04988279797016,120.17778641851626,-124.24198327945729,24.19542708878809,166.89784122448464
2.33,-311.68626501202215,86.18053048215945,1.7538523619812176,-126.41034624429044,88.38471065497501,185.68001377659465,-158.65759173693434,37.53870362524852,121.37456543165912,-124.76485388848693,24.42988458160051,166.4354214170218
2.34,-311.68789839502506,86.28675544978154,1.6508315762388903,-126.29766090908436,88.79577298873562,185.4271342016157,-157.37333046913673,37.88036764029157,122.47718269309544,-125.16185603980765,24.65804306017534,165.6107593325288
2.35,-311.66585381052204,86.15469845546103,1.7207649473878317,-126.05055463429294,88.94148234175742,185.4094503843181,-155.3903260692048,38.77204516667113,123.64725652519198,-126.66966457306852,25.062642697044208,164.7787455644478
2.36,-311.6270171141125,86.24351923385376,1.6758357311862973,-126.2439982032424,88.81172434112791,185.4230368835838,-153.59917361572943,39.50627772742443,124.73840286782992,-128.11506661857914,25.547502783809435,164.2001183138621
2.37,-311.8478480799838,86.34444499374176,1.535185045467517,-126.32611227584384,88.67341260802992,185.62737388562104,-151.98689150980434,40.13016489340817,125.35694289698122,-129.9390354485577,26.42656413672699,163.50782394337287
2.38,-311.8134671583983,86.00784059785315,1.781326111769354,-126.29780834892074,88.6124364832369,185.50753695871015,-151.26272031690866,40.38656076181031,126.01949219737526,-130.6530589740594,26.751823678559838,163.05669596736726
2.39,-311.907946778842,86.11230034736391,1.70261899056023,-126.2209551597658,88.41723809920202,185.72370633553692,-150.16518812367005,40.91642224646224,126.45863596320255,-131.50890196951562,27.21944904992627,162.48143144240393
2.4,-312.0637049173207,86.04792979578349,1.6725371432925418,-126.1754120927074,88.15321316243138,185.65270257543423,-148.76307524028684,41.21660051714591,127.44907018088612,-131.74129597173004,27.991416096131285,161.1086801165299
2.41,-312.3469098563022,85.91770234002824,1.569218097047533,-126.10527285784808,87.71441561705059,185.96198253877336,-147.28883417358205,41.61392484754534,128.30484701763675,-132.62381395338136,28.3119953187402,159.66688515540395
2.42,-312.48086023878807,85.94403288097408,1.6700784231547663,-126.19255493325886,87.42119151618755,186.08271813811967,-145.4314109258371,42.637327304144826,129.1215319959407,-133.09381271414796,28.449061447176472,158.67871106218163
2.43,-312.43224502352155,85.64731837761882,1.6624311381446135,-125.97185406001292,87.15742283598995,186.17055297267456,-143.24553339417807,43.58825796107287,130.20192673409957,-133.6262928507583,28.73706663995709,157.4550389232343
2.44,-312.71089992134733,85.6130453600859,1.6200150573948122,-126.31244717713255,86.65098545893571,186.2633083126124,-141.21148914788864,44.43714905911079,131.0719240342562,-134.526982153929,29.32029622564157,156.35203734444548
2.45,-312.90606384352185,85.3730135820813,1.7710362927399816,-126.76009775339148,86.22674294193902,186.25100321571827,-139.63527632524605,45.215657393629286,131.75667276299333,-134.960433561044,29.84613569635324,155.0770504990927
2.46,-312.7872238995122,85.39295270964926,1.7241043698014984,-126.83807460695203,86.04743795733408,186.20365981174768,-138.42521219832983,45.782598369728966,131.9403231036543,-134.8373254844403,30.167113348800022,154.44018507270098
2.47,-312.2989541997276,85.52319451933606,1.9131783246377096,-126.6484294128816,85.2305819175411,186.09444982619007,-137.92248369767776,45.47405115071774,131.9612821428746,-134.95938579999586,30.04102886646165,153.63961747109846
2.48,-312.3057581324072,85.30136087927583,1.7709074298249154,-127.0780385813346,84.63104387053426,186.45008137273092,-137.5596413126137,45.62971619790938,132.2223282456871,-134.61095782319018,30.222784379225374,152.2157273944857
2.49,-312.404197887395,85.25971091423413,2.182238588996427,-127.05145333187924,84.23910943121815,186.7292112131485,-135.9980898420726,46.478458430854175,132.77397486344404,-133.91988661703584,30.08056322810029,150.8606161473152
2.5,-312.14754902751235,85.28498558100878,1.8505345498669643,-126.93836416445282,84.01227184613997,186.52304008692948,-133.9532258420203,47.5889999223436,133.48934350003776,-133.5914698071761,30.52954088496125,149.76683736245317
2.51,-312.0993522461326,85.17871577105954,1.9987664171531871,-127.23403768452144,83.62079448476872,186.48515612094727,-132.83770570641954,48.29470275598259,133.81522630087085,-133.59299829165442,30.709290888587912,149.46429988916424
2.52,-312.0470805145894,85.25554820314882,1.989529005824784,-127.17885403813236,83.32037608296599,186.44101270080017,-132.60812389062602,48.37694300239079,133.8044711623097,-133.46349227499604,30.69191119843604,148.9891302582556
2.53,-312.01489376325947,85.1861692473991,2.1049315373738806,-127.27960990224383,83.40671046572665,186.51593963185223,-132.31352660571605,48.53400339374725,133.83257387528326,-133.36698187280928,30.3484139246689,148.65080363398008
2.54,-311.8647957746252,85.29172978120612,2.143992355733276,-127.23103539763946,82.82179344206975,185.39302472180407,-132.36522520192065,48.79432452876674,133.81948125626306,-132.88842808221676,30.007443305189923,147.52671215532365
2.55,-311.7450315585688,85.37785427489591,2.054745587359126,-127.39680042931072,82.25090394756769,185.0033233339255,-132.05343427315273,48.97434520413523,133.4505304626391,-132.29629520771087,29.692972124423022,146.80320173343915
2.56,-311.74470102151605,85.36430503084664,2.205954524590984,-127.25860117668957,81.82624606116602,185.2193469266025,-130.95946934786386,49.29076346820297,133.3640723657821,-132.0559701502053,29.462336388641116,145.82224620083267
2.57,-311.60235194335246,85.5594102679473,2.18058882214333,-127.3051718711321,81.5829143913806,184.9424384129288,-130.14704889757206,49.69122834644814,133.57241128607643,-131.96185629065116,29.239496809834467,145.20082736431104
2.58,-311.55651122097925,85.78339523589463,2.125288301275643,-127.03942276438616,81.11278012581518,184.96373786648863,-130.16489015223814,49.36707506927586,133.51778028554372,-131.81159086161531,28.936187006036167,144.75458823149623
2.59,-311.3522649933273,85.52993342912458,2.1277855387947278,-127.08619552959524,80.39148629689625,184.61009358351845,-130.02198730864978,49.41292013503182,133.19384710179165,-131.84349274122724,29.19120086709048,144.174403418536
2.6,-311.09649525956047,85.49911554575142,2.141521622800774,-126.736523943183,80.34117174672116,185.27686127869464,-130.1384088924478,48.7130467117021,133.09070151878277,-132.02138207746358,29.106888219603675,144.24508779546417
2.61,-311.0543042568767,85.64058502262758,1.9567722131524812,-126.89564285016326,79.85013003500273,185.33596749882625,-129.89219939904254,48.64299590797003,132.85610045617457,-132.21397743040183,29.378257209730396,144.21077663127892
2.62,-311.0219224452603,85.37199881911093,2.110434948777157,-126.80697661221356,79.4100096045051,185.5016446197996,-129.70461867559976,48.81819499307787,132.80112859093504,-132.46563645399857,29.16136700634503,143.73255881241658
2.63,-310.9649550375635,85.4424340816691,2.1909724867819165,-126.50641566853186,78.92325371279459,185.1530792809047,-129.19032203390063,49.13223055971105,132.77809722241383,-132.66478196908488,29.12502288312881,143.49578157822714
2.64,-311.0256074803535,85.58162774461915,2.1627624687559046,-126.32309994908732,78.79644831191085,185.20336540540305,-129.02067301690494,49.13148100979585,132.94582807645074,-132.4161683573745,29.24001904606316,143.06686827170412
2.65,-311.4352118004212,85.61273785964138,2.016588628673341,-126.43821758158003,78.53294874791047,185.28786140824224,-128.76525140079426,49.42608671941064,132.60157515269324,-132.75300076286968,29.175568064153275,142.8377687310649
2.66,-311.28909951310203,85.80485180239288,2.259021674064261,-126.04249855384631,78.54634946687418,185.49638229482463,-128.84669450624702,49.109828754960446,132.70319236190713,-132.73565630396988,29.21602392117698,142.5724656224826
2.67,-311.4668080547351,85.60539938979295,1.9946773682213863,-126.043410341513,78.40968306855845,185.50327624550923,-128.6831002655113,49.1366717632068,132.5978159461688,-132.87684265261544,29.052486683006435,142.36791577714467
2.68,-311.700550601654,85.58941313888486,1.8141943989020293,-126.04339596220026,77.94831946765888,185.52354140185076,-128.32923260512004,49.21837134952919,132.41403365779703,-132.66983821646005,28.85661147978337,141.9161774000035
2.69,-311.736507595416,85.52202719798328,2.065364595900581,-126.1241689130314,78.00115036172552,185.50395799211336,-127.89493985294328,49.22767371727232,132.24750118976726,-132.55370281102117,28.5197042270524,141.04504101518384
2.7,-312.05531462260024,85.42335987745858,1.8138895812138385,-126.00830696986274,77.69588200952356,185.8458100511241,-127.5370892667678,49.52829003114074,132.204135665407,-132.42539351515987,28.52353469564048,140.34533510407633
2.71,-312.1374893383763,85.28221751853863,1.8407379529259809,-126.03340091995688,77.5282463081121,185.7864773647595,-126.79657172386216,49.79706549320184,132.2871825894934,-132.47051709852715,28.6420014970002,140.01620590322182
2.72,-312.705581534275,85.53773586364707,1.8129788385157852,-126.12800483480488,77.12967991186441,186.00085911789492,-126.15022073751231,49.86041053181776,132.36860936624956,-132.95093209260415,29.263788755927877,139.91721039403032
2.73,-312.7313542890094,85.23159015649854,1.855977495744104,-126.3795039196633,77.09556827787415,186.49783936950476,-126.09865346407436,49.80475526782385,132.23489905486008,-133.60994563766516,29.866765334301963,140.03705952706295
2.74,-313.21605956748806,85.47519869201186,1.9439590877186732,-126.29076222986784,77.0095014540576,186.2933807043952,-126.23896576663496,49.57754801225311,131.8228135590207,-134.04121691337005,30.22265488408943,140.06581851271358
2.75,-313.2548771339245,85.39340889660104,1.758957090302653,-126.57665398697716,76.80409985778721,185.8699733749763,-126.42881698615274,49.702125576025615,131.94034191538552,-134.95779751020592,30.795105366143947,140.0075333304676
2.76,-313.27594703375314,85.4919069853103,1.7717423431756896,-126.62425685384278,76.47444485028682,185.9822206328392,-125.82089703015994,50.1773214905336,132.03443112885034,-135.49250105076953,31.46570938056428,140.2580715420951
2.77,-313.3873191137304,85.36095858343703,1.83443412104966,-126.92427327896732,76.38478005869123,185.6273653090434,-125.13905492888642,50.46757465736618,132.06534753166156,-135.58922650844497,32.08970435121602,140.00315319628405
2.78,-313.6949902383297,85.18253903635302,1.5463303551272354,-126.75117606777522,76.36251833261049,185.5137721782797,-124.86507858923844,50.81976114396006,132.51058511293627,-134.76774888090594,32.91823694307017,140.11969200866235
2.79,-313.464087959888,85.30844509045691,1.5434046135618198,-127.23574546608538,76.11361076338893,185.0191117334715,-124.2749841780368,51.213992507335554,132.4590088442684,-134.16473224313694,33.83545270221938,139.79517234146547
2.8,-313.6794940018865,85.29994663009867,1.5398084398759144,-127.1370462977075,76.43687793347176,184.86990964709548,-124.15367096260958,51.25966256260112,132.56343062719316,-133.93245368287214,33.83363398559062,139.82402169762676
2.81,-313.73145469944814,85.3959262561765,1.64626314453298,-127.2935056979504,76.36000385721621,184.8822058031511,-123.92763086691448,51.48088485864866,132.2175348672523,-134.00682959309913,33.96801964707309,139.81801985840102
2.82,-313.651825580563,85.26428284522672,1.3815073749161124,-127.30146787590508,76.35356347690758,184.26134654198475,-123.521618124128,51.9596839912492,132.39097702825396,-133.5954948877715,34.489637231842714,139.3983282724951
2.83,-313.8382729284091,85.30076688748004,1.5855801965149745,-127.71823526643708,76.41192305524622,183.98063211457023,-122.70129223847304,52.64181538672169,132.1099805136956,-134.11856374539178,34.5662161741736,138.65236747255304
2.84,-313.8162291915109,85.09975802591634,1.457277630291592,-128.05596444331368,76.26769902736164,183.92914845929664,-122.15913893008164,53.21044376485203,131.97510539846107,-134.194662955221,34.54871486680503,138.26993909028857
2.85,-313.95315106209705,85.26204227979841,1.3763998472226646,-128.09083239291965,76.54860570415363,183.41695010966197,-122.14772194159347,53.59692013111744,131.470013295595,-134.05114183971358,35.059835077965296,137.91908153262057
2.86,-314.0511117522891,84.93135967520541,1.384188364862935,-128.2484043299256,76.62278393035962,183.08987763428712,-122.10618190274852,53.40042175791802,131.03436979200023,-134.03781719815166,35.198924613766415,137.79593819172285
2.87,-314.0533185207533,85.04547395853187,1.4644956295122662,-128.33573006881423,76.7585747985822,182.93362653714257,-122.58111744057774,53.56156673903367,130.01566203861788,-133.61262631360626,35.50010563302845,137.9180471660031
2.88,-314.2079653138041,84.83892612460433,1.2961406661507588,-128.4965523959246,76.54226385311458,182.5873633969384,-123.01436203771584,53.35409932711121,129.36813606641772,-133.37317952111405,35.71293808204123,137.62128318205578
2.89,-314.3116196525438,84.97169788773586,1.4298311855295247,-128.71641538338773,76.71088138404988,182.39581991834828,-123.27393683609137,53.481239028671695,128.662973372837,-133.05736638535876,36.18485025538829,137.4120412433678
2.9,-314.4000868408371,84.64126679632551,1.3630665642001338,-128.74875758855586,76.82074173684987,182.06958306464787,-123.22307670604717,53.65061182529786,128.25810248436858,-132.6506675932273,36.81675779372374,137.27384601893996
2.91,-314.64504004438453,84.71935639447574,1.4233049281649643,-128.84480662275135,76.96181381723405,181.66731265872343,-123.62251719325354,54.06976349265568,127.81240957711375,-132.0808676120285,37.11312450731238,137.09896693518817
2.92,-314.73308404462495,84.67883217013778,1.2159400126761342,-128.88306845440317,77.05796179171993,181.25725076047505,-123.73768850383296,54.22002391426847,127.26898931004136,-131.77684790555332,37.58460191144072,136.84613053356637
2.93,-314.7157536443437,84.63639576340366,1.3161683128612789,-129.26923062234854,77.48620745543089,181.115577826694,-124.09426880696256,54.444738446805744,126.89629831164676,-131.57809055537572,38.22041534484931,136.7543823249269
2.94,-314.80733666091174,84.55248818518525,1.2332726684014368,-129.0298198428245,77.30238848836373,180.83241083635264,-124.05966962393404,54.24080325014925,126.55095802166784,-131.11438117637016,38.83834259094844,136.6488080505956
2.95,-314.455588235056,84.57416208581178,1.1793677799892706,-129.2028438128008,77.50909221695808,180.58826376950176,-124.01906662982418,54.32977764745748,126.3580989877916,-130.89786927033842,39.0944001687352,136.73188660763876
2.96,-314.6549868090181,84.52533983116406,1.277190974454338,-129.13599439097348,77.92681738861354,180.2841848848347,-124.60702654803248,54.46307098998877,125.42774983152762,-130.11907980383887,39.87981031191104,136.5845481963071
2.97,-314.76613760990585,84.60673598828201,1.3121698158664885,-129.28574559652924,77.95945533507476,180.09795127994497,-124.75336436137025,54.557307705621845,124.5845744314638,-129.4172715047297,40.536183132926666,136.5796014914177
2.98,-314.83656820702964,84.47000999725135,1.3790966119103736,-129.22352904077053,78.38607109718787,179.64464072971393,-124.40927078106635,54.83346924405879,124.36667513562244,-128.45555679509124,41.10191425736091,136.7474411590895
2.99,-314.5789048131425,84.5755890700872,1.16648612427432,-129.14490799372413,78.47030577986237,179.02708804527268,-124.13330396511869,55.05845070309744,123.69289134761917,-128.02807449850204,41.51769052646346,137.27573831680547
3.0,-314.7176134711535,84.21927550663929,1.4939720581691405,-129.18306368991892,78.62796917114464,178.87870029814633,-124.04038667850467,55.50743437737286,123.40256863248766,-126.28005303453246,42.33386522945072,138.71621167823358
3.01,-314.5098931528613,84.35440972811429,1.314421307436743,-129.40873724407314,78.66889937621052,178.86608290106406,-124.0155816210967,55.77804079064096,123.29923579961924,-124.92252515138618,43.25196440155784,139.75198474783625
3.02,-314.5549873259357,84.36191132829168,1.2002069090759913,-129.18734271733825,78.96603028366115,179.09012305895723,-123.53083020931058,56.05188822315983,122.5974536198469,-124.06999397480207,43.44460031278252,140.35970898869576
3.03,-314.3786123546764,84.44427392842135,1.2294061337202726,-128.86142071612142,78.9089887155092,178.80368342694072,-123.55299142684312,56.04794340837624,122.64265410786992,-123.31925815138328,43.83609620940312,140.91208331972587
3.04,-314.39440478465787,84.26618904657663,1.3422014959949422,-128.93664451659424,78.84961016596804,178.76044758755324,-123.52449285118318,56.12327298720802,122.49909835497752,-123.2922105527708,44.006230502592345,141.02194144055667
3.05,-314.1592777546334,84.24426067464893,1.262618994039672,-128.6777392015348,78.76384442866998,178.9709117131647,-123.33377487725096,56.23214271923303,122.57087991779122,-122.96336157008064,44.121208761752335,141.32998568501745
3.06,-314.29467423467383,84.27845481174472,1.3078143879100452,-128.68060621938906,78.66252636380612,179.0856569039637,-123.26491518052693,56.32743109954063,122.80310490142767,-122.57315596174205,44.74676194658184,141.74073209363127
3.07,-314.4285841884234,84.18648078292652,1.1239446282667611,-128.27221342262033,78.69274406979355,178.745305465782,-122.44747328699135,56.90723659114881,123.05893568563582,-122.36557151298702,45.14437711651381,142.1808849200376
3.08,-314.64724097388387,84.15703802998586,1.0966174295361637,-128.4770359251077,78.76157664666997,178.87165308295175,-122.1999898641132,57.19655438500955,123.20483373619273,-121.6407855068728,45.341880499900526,142.60597641084684
3.09,-314.5424460201066,84.08938848563487,1.2428406291295575,-128.1263530528984,79.03851386556757,178.62706548819463,-121.6261429026767,57.55141870057631,123.31642070757788,-121.62851329325424,45.44740663831092,142.9609539354421
3.1,-314.871658190497,84.13227302749318,1.0104634836339417,-128.32045533074347,79.52106490880814,178.17923337701254,-120.27915328858404,58.52836884722208,123.93734122571948,-121.25430547844891,45.79498982637368,143.2049874942661
3.11,-314.79794035620984,84.1623850457722,1.0428335900202046,-128.04116800417395,79.24436963594923,178.2917107126822,-119.46531737860236,59.341566875781126,124.47787939276044,-121.34428044263812,45.83947563813346,143.15008866616543
3.12,-315.12626361645056,84.05803310004215,0.9504657834571134,-127.7946225343188,79.16300131250215,178.00141796236636,-119.31110782562658,59.786641263163325,124.37727525497051,-121.54750548878734,45.58177630280214,143.08354785243608
3.13,-315.2288092708758,84.03663956207637,0.8189254040890332,-127.82861416809278,79.15590478792906,177.71452021507054,-119.1160375584148,59.730506744047794,124.28039689938582,-121.92816924468886,45.79451369872848,143.33671189056815
3.14,-315.536648491384,84.17977749658236,0.8580659868991506,-127.80664360521912,79.2546051083358,177.4395769456961,-118.8670246144591,59.80125385180687,124.25211703721136,-122.20715444457868,45.6573223296646,143.24707878087807
3.15,-315.6351628180875,83.9739015100291,0.7587640338320534,-127.93645203055604,79.2311483666819,177.76144143212244,-118.2510461206948,60.09524336892183,124.2603445710586,-122.21405611377664,45.77846810897141,143.18751658122034
3.16,-315.7379588818517,84.0048126866535,0.8083971221132991,-128.13343495746562,78.88958573387883,177.56298347051944,-117.62898155576728,60.68791801771197,124.63276194885238,-122.6651710858405,45.61975159603861,142.97228008277915
3.17,-315.78680850932074,84.01978370167451,0.7887961983065076,-128.11541127721404,79.05736809317848,177.6589105612959,-117.11380756989678,61.38623431106696,124.85906336653076,-123.31191498663324,45.59087663935075,142.7374087495191
3.18,-316.1783276686595,83.92644854940451,0.5120961926455819,-128.27253086476424,79.11158630747512,177.62771875653914,-116.60865272135264,61.67674444688315,124.95942398157206,-123.5486549334318,45.31905947967572,142.4852181411615
3.19,-316.57995006445816,83.8009424713331,0.5658019363356341,-128.4796532974879,78.82319771796885,177.52504284708084,-116.23056485753072,61.891842691730446,125.06290309907318,-123.60924855502718,45.33886126232229,142.19251070775866
3.2,-316.7921299907697,83.77966634796694,0.6015261849208084,-128.78057701718916,78.9528372695379,177.1667350510017,-116.21644615803504,62.09971645934715,124.93036919407196,-124.03538199022503,45.20343028190364,142.09889554872163
3.21,-316.942823617668,83.75456990503791,0.4199226789804646,-128.87586641579782,78.97458285505401,176.6943192414319,-115.99254484481452,62.62049715656203,124.66787173217593,-124.12495343946402,45.22924437920242,141.90956197872012
3.22,-317.1004009610916,83.8615669545908,0.5868726776557947,-128.90472484847012,78.972812383925,176.74263800008856,-115.97707284957968,62.50238693766197,124.32498071053456,-124.0471856782208,45.0439153482225,142.23024372600028
3.23,-317.27603465241225,83.83839641287159,0.4705420099985324,-128.90819793265317,78.94261279905534,176.31119505951472,-116.2043472655037,62.5266676963255,124.22264403332646,-124.29468419677322,45.098502562811646,142.14713554702735
3.24,-317.5319640757162,83.54784275456907,0.325952823077875,-129.2407351097307,78.99441824434128,175.94180989316772,-115.97267013444956,62.95159905910936,123.9183672647462,-124.6097268271064,44.81077760815159,142.12722802176071
3.25,-317.8078912829476,83.61029374317827,0.1840604644591164,-129.41114792152462,78.88140863451528,175.8627133438062,-116.11043483344804,63.17249475381565,123.7075135149499,-125.0539465770839,44.51794125244154,141.74180706765318
