0.01,-117.99398253511264,40.63460806806087,179.43635523902162,0.1890698653504328,0.6706547972784269,0.03858604036017482,0.5734186349959844,0.1160797927345409,0.7540592492373948,0.6313071912031185,-0.34121786898350404,0.3363314910254907,0.597974538299065,0.020063415975104505,-105.39454322153388,50.893031674210135,36.0423650314972,0.1009907376023836,0.8876955257715581,0.07407214528694683,0.40798121147036953,0.208753516265375,0.42003829947261884,-0.40874247561348515,0.7691228110923194,-0.43169492955365696,-0.28825790545708985,-0.003670145768526036,-166.4942816679305,6.710354450764276,10.246695284197653,0.1801297460930055,0.029282296429158777,0.17227429635464275,-0.001548223603035092,1.0926848377866079,1.2548051742770452,-0.3740047406721863,-0.6012562932100395,-0.5927384227241645,-0.38386974677021846,-0.00518580698412908,-15.757949281702308,13.379233275794817,20.385954320776637,-0.0160764198996661,0.005489654112346112,0.01819033237837536,0.07483887691580117,0.13121789518179075,0.017327672181660467,0.5180224259572289,0.4999814632900467,0.5058517402517685,0.4910100148028545
0.02,-117.87355942795165,39.934669983570274,179.6359388231349,0.21646259574709148,0.5610979921259247,0.023016923951990245,0.4902192895641315,0.09289506382764502,0.49495564229467226,0.6237035858458909,-0.35847702693372774,0.34752885670021777,0.6222680122068461,-0.01492407826856237,-105.2707164868627,49.869163108107884,36.19776386650235,0.04530966440503111,0.8020233323787398,0.06214854292724953,0.7788045633441766,0.35050024314401246,0.052320124186652585,-0.3913529847451568,0.7775639308169866,-0.4110778014071251,-0.2673945889048356,-0.007100886047325689,-165.93534845049544,6.615395513094955,10.432010198674718,0.15232787185693744,0.010132827516592629,0.2767105170362514,0.039020625390627575,0.17049222194972236,1.0491717423584928,-0.38204234949005894,-0.5926939398944674,-0.5961567688610703,-0.4003882235235619,0.01409374242461014,-15.738116952870865,13.368891240383494,20.44945426785294,0.012632358508837182,-0.015029194810492868,0.023323064348733547,0.07164165853855767,0.10461240862825331,0.12927626583634566,0.5127561157088437,0.4998550491313093,0.5129417510687374,0.5069555736015479
0.03,-117.82205406285618,39.38076182518149,179.9394675981321,0.24545810858020226,0.4669515830562769,0.017733608633757895,0.7374822459404689,0.16421750406452076,0.5659456388439071,0.6224033825185565,-0.3576481925015677,0.3113459952300598,0.6092250354007129,0.032988895056689366,-105.20528838927132,49.11783382420471,36.31842350200237,0.026409476964205852,0.6052660531942878,0.0431794312141851,0.8899359763886577,0.3119656033352052,0.21106014415484772,-0.39912970954849053,0.7733780172127699,-0.4096912767363595,-0.23553622553472614,0.028644231374858456,-165.82070233054708,6.613887475760109,10.555424279811364,0.16853942919646941,0.011852382364576574,0.2912838970311298,0.3139861122788868,0.2584201249057081,1.2721332823125788,-0.37200192293394546,-0.581830444308504,-0.6085963945711328,-0.3843219369064216,0.03977298890282184,-15.743808981484467,13.374053663708635,20.445699873867994,0.027465411295091308,0.005257739273888873,0.006511810289727874,0.05513186651342633,0.08084873778144139,0.06883982943606343,0.49744379459536153,0.49377815607241526,0.4945289965163213,0.5066229014158253
0.04,-117.74868838527624,38.81294180301602,179.6918095688652,0.30256395254158647,0.415451223840387,-0.007125731295893527,1.223821911252323,0.11708209692995156,0.37965555663049777,0.6291801051124832,-0.34182596328840026,0.31333522463176006,0.6223568817031935,0.055242855429804644,-104.98576251086763,48.56534005497191,36.441836722353806,0.13071201554984596,0.4751658720084055,0.12388207867036875,0.47854516457847607,0.2236719263026305,0.04054170751852448,-0.37954683257010685,0.7836761430806102,-0.42692032450640727,-0.25683042263996697,0.03705662176624151,-165.49288373170185,6.496061684849397,10.755795062712831,0.11487268425671311,0.04340466066006745,0.3068754902499487,0.1052227073520536,0.7327199663925154,0.9788126073089818,-0.36635789463738355,-0.5879132186652882,-0.5956085234206399,-0.3800494185672531,0.03956968585048961,-15.7551181707095,13.391971650810063,20.447172072894062,0.0013630591601709802,-0.01305759723199365,0.004481993975154772,0.08482771367325444,0.10955250118136946,0.03383570465923229,0.49754435836025007,0.49227371535912384,0.5019533085336708,0.49731504791069925
0.05,-117.61666204967382,38.75409020988097,179.37793055038424,0.2745264983699181,0.3055812167631255,0.03019131910188445,1.4400396396551334,0.07565421949206136,0.19927966350898185,0.6278966759414216,-0.3551844761500572,0.3369264411983519,0.6298067524901518,0.051267655398109804,-104.72929833903655,48.01440769160958,36.48559523687163,0.14313524080661222,0.5683437764881697,0.1703103811074338,0.3241061478154098,0.028764577889885738,0.21061386387293685,-0.3684188957090867,0.7655727587260738,-0.4291246947230459,-0.25091030505325046,0.04322769205508566,-165.01552598002186,6.429490139268687,10.888619135277214,0.08568565282833279,0.05322381314062195,0.2030749533612718,0.20358690902259122,0.7863334883966706,0.7290686299974223,-0.3707462071175268,-0.6144339534722479,-0.5895834474366876,-0.39471814841948444,0.04449111835525678,-15.783637760246762,13.37618960508092,20.4269368371353,0.009788115083174356,0.0005360513275754156,0.007136936064954344,0.05508801072054,0.15828293063993717,0.08536264152416692,0.4874674911336199,0.4886212113538318,0.5154106281078484,0.4799868943563258
0.06,-117.5579305136219,40.61918326315953,178.7001292670159,0.49717185229201827,1.8628556697575702,0.11926285110032502,0.8807760035670069,0.1596571553803771,0.6035198933098215,0.6049703935768802,-0.3631786419652385,0.34177937307115214,0.6115784771901975,0.0568401026435506,-104.63996557313551,47.24745939001842,36.69738419360992,0.014947212721044451,0.6939514458448772,0.13555926600453178,0.7842204298333239,0.2067153361967595,0.016687552278289747,-0.3724513928727721,0.80784737654878,-0.4138212159892583,-0.245469543619008,0.042139733659616714,-164.87379963870654,6.301282034661513,10.93526684910607,0.054766694245161146,0.09130299915291157,0.07368172109305779,0.28882310617007,0.842739897378962,0.8380229144350199,-0.35555128435932243,-0.6113575325567367,-0.6004916466585135,-0.3901895923605045,0.07076359516362861,-15.765126860563575,13.369225458433062,20.428932066985016,-0.0036991406685880726,-0.008881791829118942,-0.008858325634000687,0.07285613042907214,0.1446060009484546,0.09097930643545694,0.5172204536103486,0.5001235913401564,0.493602081933462,0.5013750942688562
0.07,-117.56735763464592,42.45645007118187,178.12141463111553,0.41318694098641257,1.6889603737273,0.11407217715149995,0.7598470481187624,0.3172237618439255,0.22082195669613092,0.6140970729089,-0.37218821762332177,0.3412146495860298,0.6061600613288459,0.06636456671715027,-104.75030899306698,46.632594624680486,36.81387235159025,0.031004618407524377,0.49534846609769917,0.08523296787901638,0.7763462331617227,0.14462503708673125,0.15744001237027558,-0.3755529421537885,0.8036468311933009,-0.4193330299419185,-0.25189698801109744,0.06261188217550241,-164.726590813335,6.175773444270273,11.007887208538756,0.030557957835243222,0.1190113418805642,-0.004566197026560141,0.3363081174320494,0.8798326540233565,0.9283021820856644,-0.38087366298307057,-0.5948786408927591,-0.6128628803065471,-0.38452600432096756,0.051504592190663404,-15.75111873989111,13.376769662008616,20.451802392385034,0.02078367722121808,0.014083042404844363,0.018686885196736093,0.049391903483159236,0.08842409525885399,0.10003884746665481,0.4954163758829666,0.5030820433453257,0.5005951733591624,0.49070510357752306
0.08,-117.50924739069491,44.18757330904254,177.49337696484017,0.4323834619851153,1.5216728320850557,0.09999606016008905,0.360479989209537,0.08785718863483902,0.05376643976947226,0.5685430207938783,-0.3605492054422481,0.3613510766994197,0.5990517883411279,0.07803213453477689,-104.54921852707253,46.31110386771598,36.88974685561034,0.11527467342601053,0.25562789750249054,0.10622713268476752,0.6367325103684232,0.1116158357703309,0.01771160308246979,-0.3717845327103222,0.781663107489604,-0.4165306060880923,-0.23260171041164387,0.09319806134992602,-164.79929432555846,6.050076430787171,10.88254047252028,0.03867677886319529,0.13892077379451626,0.12142858657759696,0.34190528384389585,0.35700206723694405,0.8123702685754388,-0.37552764322931664,-0.5789711750694829,-0.6013549996232119,-0.38064206360847214,0.07892463261001666,-15.738119673516834,13.379889103803709,20.41576223413236,-0.003961845737150135,-0.011504390164095496,0.04170825305185107,0.05790516145886353,0.060554270611014024,0.10839024394198772,0.5008726070687036,0.4957432950066413,0.49378227065420655,0.5054168224890261
0.09,-117.48943765783002,45.90285188406606,176.80741151160302,0.5263682477176868,1.8239271095960325,0.1874426139108039,1.0809328935077638,0.15995385559141462,0.07933332570225106,0.5887475417150202,-0.39065523440417865,0.35541168267545714,0.6015052879705582,0.08401685695715498,-104.42154669257486,46.08126663108836,36.92718672895626,0.1066539266989576,0.26385888554169895,0.13280832009029336,0.5778815342014902,0.22964302988617138,0.29895780389998383,-0.35731322145865824,0.7999273869668155,-0.43544220759746155,-0.24821727896655937,0.08745150016437479,-164.9459526414073,5.965738100264938,10.899643312526708,0.0413719566698473,0.10859756693460376,0.07407247599966861,0.19324818763805715,0.5223306625869223,0.7068481710160631,-0.36320339042243394,-0.5729369285831957,-0.5939009151249955,-0.38476633433618485,0.08899898860132126,-15.757992041228222,13.307025050923427,20.41793761859687,-0.003973877714354002,-0.005227823938177514,0.02397802648230554,0.08799918129848784,0.05640758007343639,0.031702253098473764,0.5082726212170587,0.4910659349880349,0.48322152724040623,0.5140657319850477
0.1,-116.26393939177471,47.901555057352724,175.85896393215455,0.4806133714576056,1.7483312461704956,0.2377107973386282,1.0305633988424592,0.3212728464664633,0.3429003514195375,0.5942291399356401,-0.4065742117044325,0.3562094374646711,0.5936064197371727,0.11246732451847201,-104.44405981414928,45.65867936109512,37.11522818608308,0.014830283510357452,0.42324157883788266,0.1261210000992247,0.6754788241126558,0.07345532795135488,0.15994855246779505,-0.37362085400188794,0.7949745504558173,-0.41656505171866004,-0.25011069978289413,0.100368559641586,-165.11166346737198,5.869383148449256,10.959189787512457,0.03791888405467589,0.0931545668679367,0.036600390835058276,0.03053820098256423,0.63931428645522,0.5701677436022954,-0.3656942650311166,-0.6019644895054017,-0.6106007256872698,-0.3936519922635118,0.10794419600601009,-15.748194262366326,13.307589738003387,20.454346489822917,0.014732219121302827,0.001951957296645046,0.022822363880607443,0.1028024789253419,0.1750339988591081,0.0703781927436991,0.4974077712414949,0.4863249563913627,0.5043825216230313,0.49211426092201715
0.11,-115.25989580733076,49.753913646835095,174.93604380407842,0.3203823279675882,1.759471141240044,0.15065845566349487,0.6902115087146657,0.3632566351754964,0.23195163945544922,0.5734621839046201,-0.4170267026384389,0.3898004320125413,0.6014741494709558,0.12144103668236696,-104.68577538223296,45.17360016007687,37.334788242903855,0.09083565872057425,0.3844464187295133,0.1105214988569386,0.7726341354145347,0.07671572873179551,0.24221073105658253,-0.372335898906998,0.7942225507856387,-0.4158290355635885,-0.23631204947347834,0.12140989565493499,-165.04947311835346,5.774754482476085,10.934929560479382,0.01740710309699886,0.09055593893421034,0.17488425271518626,0.11486718833654634,0.3248771619506799,0.781184197954608,-0.3595366649634623,-0.5850920003441334,-0.5877442138099942,-0.3944157137668987,0.10417878567682445,-15.754101766439568,13.290078119253455,20.364322773397483,0.0163635231312967,0.03206420779967873,0.019271808055731175,0.08047917360036802,0.16383444657133833,0.11266770478375676,0.5051622127188249,0.4852806769174336,0.5014372421046053,0.4959178125163163
0.12,-114.92715229993964,51.687823944683956,174.32119959492996,0.12395510485181975,1.7143994782836347,0.07046781992508384,0.09266683414942406,0.08674479393445522,0.5337908706224072,0.563023596099085,-0.41538962358161197,0.3911060827906227,0.5841962258458703,0.129261438644636,-105.0644977590146,44.94611766714627,37.634907861897915,0.08817394470508713,0.19496172235334638,0.12139807489186971,0.8101473020829775,0.12563071596971348,0.45464410468804506,-0.3645791549449937,0.7922392572708824,-0.42312046486006966,-0.23921222429727848,0.13583623374321988,-164.88123028210003,5.6210192993890296,11.01766488702664,0.005890292239158127,0.07132823496296085,0.2984333291172489,0.05273749470328323,0.1610696228765828,0.5661505520585748,-0.3601520793007892,-0.5920543002147939,-0.6111234567938386,-0.404963214825781,0.11547477379999803,-15.748176486715266,13.327766476661001,20.372352472213695,0.030825684760708426,0.019372898208827333,0.012961473395776557,0.04087248752892568,0.10302111580320263,0.05078736317879815,0.5212329447430327,0.5116657625903113,0.4940245465997724,0.4932308773244901
0.13,-115.07560143734928,53.43893814944814,173.97089593364845,0.0896698900455811,1.4413487514375294,0.05916892452250136,0.27991171326733677,0.26173508017058517,0.4859365192012125,0.5623984003683412,-0.4370945436856267,0.39840312584356785,0.5962212079064539,0.12342235032481368,-105.05897862743659,44.74966513926909,37.93749675186119,0.1892623712964886,0.13112742296283728,0.11596289072058068,0.733694033049025,0.05163547381621282,0.4672978303319945,-0.3523579239426816,0.7856004778454542,-0.4256866602639745,-0.2442642702462625,0.13687726840690562,-164.57583019333921,5.514176665773709,11.07514793651825,0.08881505659096608,0.07661200411586765,0.18674300551609496,0.2356855179043886,0.05897441491295828,0.5722985563147704,-0.3624106519649194,-0.5896678087959866,-0.616886334903176,-0.37681171304996497,0.13570450819434848,-15.770236799733688,13.31122773577892,20.371948250377287,0.00997094836295644,0.008545414519293608,0.010541151216937744,0.06856336371374556,0.042544191025849276,0.01862892349361759,0.5005045733882454,0.48228066261088154,0.5065113057774099,0.48619825684043094
0.14,-115.19950802534466,55.194601819157626,173.62148562835029,0.07474962716565182,1.1252001268027008,0.012120579352796895,0.4874192816372452,0.4146983070496849,0.4649950045637848,0.5544364635986972,-0.42042207542434373,0.42694903586996574,0.6076088652568108,0.13193741650329957,-105.04397277368628,44.634349233690024,38.12244063405036,0.12322953943033801,0.1718133438538651,0.10830355085087905,0.726087770010912,0.14790588093954532,0.2733097712964908,-0.36139102486223196,0.8140826920815335,-0.4246200574220336,-0.24372194481494308,0.14343034394934212,-164.4318152546127,5.380912982126401,11.124428353168028,0.06191272643491654,0.04452232512414133,0.14592164270194166,0.18708732182459886,0.6066586945508137,0.8295199201246752,-0.3648072012014363,-0.6006803523580506,-0.6004552056703286,-0.39632369182529187,0.13019556628858475,-15.759427466268098,13.300920388659433,20.312629461018012,0.005474059103878439,-0.0015751139260074681,0.01722089543761191,0.11076734747625216,0.0046736851700990715,0.015689475474353884,0.48701764093927613,0.5029686501114508,0.5206999290580689,0.4921029936584862
0.15,-115.56417144098677,56.3786210425903,173.49938053368493,0.07642986389939445,1.0903149982846387,-0.014774919435975717,0.4855357858401177,0.117186217072188,0.3037703747678599,0.5524716835977521,-0.4306346628979513,0.4227279677817009,0.5752868348312881,0.14087375941657407,-104.990691771039,44.4965086222512,38.31865198228482,0.05128328345500429,0.21902176694377296,0.10255761083709462,0.7240965310822627,0.22444251526906087,0.07877189849058361,-0.3601832205704863,0.7893995878395365,-0.4051099153771501,-0.23729576290700544,0.13101425524704555,-164.11616834046046,5.386237579363058,11.113770316850053,0.05751206710328801,0.007157414301255377,0.09407438904693337,0.0470836754655628,0.38897532385978195,0.5860184610160164,-0.36834746658246353,-0.5783964690307698,-0.6133053658836943,-0.383829943027722,0.15486047868717534,-15.748193881220056,13.310431606621366,20.32204537119885,0.016226681500019,0.030033894551071985,0.019300355049741206,0.11480388975253923,0.06189153384838968,0.10556280038773744,0.5027770932589388,0.4958923684762993,0.5032624017480337,0.49088082829887814
0.16,-115.73915827246525,57.558078310586424,173.28853889071766,0.040469851703602455,1.1067191753024703,0.03770040488461678,0.18551098663868879,0.042727394814119864,0.12544750480832148,0.5360352270335818,-0.4385231507823049,0.4329581736426503,0.5674077383052899,0.16652127562471625,-104.9528001264916,44.263583208249585,38.39289323579517,0.042477770111975365,0.18923955065430595,0.0735891094961072,0.6525714242184216,0.03777808653882348,0.2075484622440916,-0.3577056461997553,0.8027785821789608,-0.4109479237552844,-0.2375190533055978,0.15874498578069512,-163.93579332139484,5.366448007617853,10.922226477000773,0.22672156109815345,-0.007248116931342431,0.1891766993328451,0.07700726499675109,1.088473791386205,1.1484475490077086,-0.3584561375551209,-0.588764083955655,-0.6022184972958378,-0.38588346499810705,0.1706853096829716,-15.748020185392628,13.301488706327843,20.25745830487548,0.011197675674010445,0.03224930106694718,0.004809325884519065,0.07842053469561334,0.13316414791026715,0.12407865594280378,0.5071849666703317,0.4948006752133576,0.5057988471469945,0.4878370656866264
0.17,-116.0076797977922,58.869105246845386,173.05481432718423,0.02952721619929914,1.2314704314497307,0.013120954115894272,0.3103197745340195,0.08578228117361283,0.02164081212289478,0.5311942092920169,-0.4469932903713901,0.4540518064831331,0.5830108985819424,0.17051984826211844,-104.83254014164683,44.068424975359484,38.517854976776086,0.08713295056001424,0.2414302452449477,0.07143703895022968,0.8468300852895624,0.2420096491818303,0.07739370201396312,-0.36228892348374186,0.791286933122731,-0.4077158413170819,-0.23551561995846532,0.15926814549031082,-163.75939880843822,5.304286120060344,10.75211964847097,0.21300267049666263,0.03719396274805161,0.13468337888819734,0.11111426211157877,0.5706911523180289,1.6790540209998055,-0.3612145168074114,-0.6035059448366139,-0.6116290471211383,-0.3896658292624679,0.151420204636192,-15.75847028886368,13.316250733120572,20.254301182877814,0.012444097185287967,0.0028785463543958157,-0.0034543710580137612,0.089590094423687,0.06520056779380343,0.11056611569203381,0.5125319130298496,0.49917731548277233,0.49738332876280544,0.5079443267568361
0.18,-116.07653541546719,59.528886268830334,172.9139417415849,0.019765445874536273,1.177760269934188,0.01742683541946282,0.7334994614893656,0.06633820637838017,0.06075661182850972,0.5368751462992468,-0.42169972783658677,0.4491111281595578,0.5700840388133668,0.16770716436001823,-104.82985958049134,43.935819700940975,38.57943327260241,0.13611787634700415,0.21865948479822186,0.04936873036598517,0.9488185341183315,0.18773585213080374,0.49718505085924514,-0.3545823103721444,0.7933599305273803,-0.4057582656439611,-0.2268300956323315,0.16220748858883294,-163.72751731083306,5.2544753492096605,10.649174455144555,0.17084841385680605,0.13724080341756403,0.21053175908154112,0.2890079390465555,1.025460007939852,2.076975612997801,-0.3819391054013375,-0.597539310520573,-0.6069962450813059,-0.3845521316238356,0.1735025788279626,-15.75022067385659,13.285766370539173,20.25954020120015,0.01576653725234604,0.0006503069474582193,0.013725327779257123,0.11002668004029796,0.04662340582389083,0.11094530548146429,0.5013579068925154,0.4941224829699747,0.5040993355257735,0.49643526341538535
0.19,-116.14271173404009,60.19288088835852,172.74953187939607,5.302676082336182e-05,1.1268146979083713,0.03836299097425027,1.136049323127777,0.08199759121087145,0.1046743998044593,0.5358207703224872,-0.4557364445355294,0.4475011105664132,0.5675714274728548,0.17718406974342155,-104.82552641866184,43.80570666818445,38.69542767700542,0.16630681161679203,0.22225959251701574,0.04061147511220873,1.0543536993220073,0.11618270450005092,0.9447153259520066,-0.3846673987731434,0.8241619056451923,-0.4066429271363519,-0.2325121341376748,0.1859266278478556,-163.6943098379517,5.193541681645166,10.57299989200696,0.08478304208881353,0.2514246988388596,0.2564770838904967,0.4195488093042266,1.4793833486286394,2.4840199642078056,-0.35457767567206455,-0.5934058979274648,-0.6033485914988787,-0.38083889606188065,0.18039829222353576,-15.748571677513164,13.236037054445996,20.26122790197407,0.0011717255399343318,0.007634988155271279,0.008071999818414584,0.11111313304368432,0.03697611198868596,0.0876641484714915,0.5085687650239182,0.4899475235545716,0.48949402057285446,0.5099525847344993
0.2,-116.25145120944012,61.30894733206813,172.43836343513044,0.04798927994583623,0.9863102959040803,0.050551337138410105,1.2165571420140084,0.3350059072966458,0.1324002962724346,0.5275840286046897,-0.4399759433711332,0.46424945096698744,0.561065997079061,0.18717247093257233,-104.93709216600394,43.73883627212944,38.92345116225228,0.23302020253678363,0.005132991599353227,0.02214325530819558,1.380535018818526,0.4034246687593145,1.551949580650573,-0.3557475240783851,0.7996002843377064,-0.3998361944103117,-0.23492529139025545,0.18504308051737628,-164.05670013981918,4.938192220608567,10.382372197014138,0.19071363235878722,0.27931423631043445,0.3390434110621819,0.35754881825870666,1.9149837382430632,3.1432580094381417,-0.36923652898400067,-0.5855798642785582,-0.6009911152827707,-0.40911649441664866,0.18506505681771923,-15.737543057492845,13.23710634400582,20.250972860568247,0.008178141026611498,0.002993120655787456,0.0013430523117269368,0.1029547167830326,0.02672652917121271,0.09821548313440917,0.48372451112682446,0.49081872181801073,0.4879966904973428,0.4996353982420953
0.21,-116.3662643185517,62.25305190800007,172.1372021259713,0.029530026696455127,0.7172693391962182,0.06933929872492268,1.4249266616437533,0.5793973056283793,0.05429861772016416,0.5171559510142376,-0.44108009974669143,0.46014620487668123,0.5697089670349471,0.215591999742712,-105.1235278811564,43.86620438773014,39.183679458519116,0.19023003597772128,0.10904827853204306,0.02511415916542857,1.9167049845453414,0.623058177004902,2.2626124103759526,-0.3581657526673718,0.8011194921569473,-0.397446841587045,-0.2409758550804698,0.19842657777142192,-164.45365539785183,4.690130231835908,9.95217128183892,0.4317561191201702,0.28622788729666676,0.2809874833762742,0.4261262751183231,0.9261139283286488,3.1010469472432085,-0.3478657509558745,-0.6040821282822673,-0.6129283245036741,-0.40155933667776106,0.19090288285834756,-15.748548523275124,13.247781595502039,20.189979505411262,0.019221338797347404,0.00047381802440516364,-0.004863219904398362,0.1195742944539287,0.05423940586724843,0.028537980894107404,0.5026914010653218,0.4957141686287112,0.5061730455934552,0.4850177652223629
0.22,-116.6189160325632,62.94300834204965,171.9858589881369,0.09930886434062733,0.6609211487132632,0.010928353723145186,1.7617657786275056,0.3842242338348825,0.5061149733721247,0.5091270025974004,-0.4749304125211901,0.47007924990590466,0.5829998490124499,0.20239521373956412,-105.20986803131346,43.863822869984254,39.263479709186704,0.023532890796959853,0.06271617333542537,0.04207557060070029,2.1863397487499894,0.5244560649331375,1.949513214072963,-0.35552177207037977,0.7970015991164143,-0.41871942974151466,-0.23554681939570804,0.21741622254592985,-164.72868535828937,4.3119421475837525,9.412932169980953,0.41618477797300957,0.33767605595317624,0.25745574505940544,0.5425939990527665,1.3665083509142493,2.308620538059591,-0.33862553339706125,-0.585169368369477,-0.6129921899396852,-0.39083690711766367,0.20177318810143618,-15.763325975722045,13.24170504431154,20.195882772806247,0.021249995855661535,0.0006399378002350389,-0.022365060513736892,0.10657921914749924,0.06355452335946342,0.05072047092546562,0.48841934521266267,0.5143511608606625,0.5105950872610572,0.5004821466992667
0.23,-116.81901116160775,63.52998125863515,171.9343108056038,0.05010247908629395,0.5296587715625518,0.05492087020667447,2.1931696337844335,0.05798821182983925,0.48432974968079173,0.5135904456369447,-0.4391378968921642,0.46241029925674626,0.5647107090321378,0.2267932829482504,-105.2486370557298,43.74191923545772,39.19572858156238,0.048302449963726575,0.12147936689446097,0.07094944724744062,1.9442163790779705,0.17364230725391247,1.9016840316580728,-0.35080978932750834,0.793642662173601,-0.40856579892172973,-0.24877795588489712,0.23079044593473944,-165.0071949463799,3.947058964236123,8.881713695946102,0.38917394620303636,0.38355132807367115,0.22618344567597806,0.6643572305153054,1.7625936919816159,1.5352453215812356,-0.3517320635427217,-0.6091246713827405,-0.5820768067017502,-0.40454551846728815,0.2395161672029793,-15.737126303123636,13.24358014899152,20.184833734657754,0.0012889800987321773,0.012463195696980591,0.0016720157208532302,0.08039281883914097,0.08399209518849589,0.13677093132827595,0.4823705279864714,0.505799528039631,0.4850435957376203,0.4961617847897818
0.24,-116.97482680195246,63.836603411138164,171.88045545220746,0.08572545706610472,0.3574787079640523,0.017706922406347685,1.8879711817639784,0.13879879042889315,0.6706722870976224,0.5241056966751789,-0.4398010713215725,0.47902262414452584,0.5448416898875873,0.2338198047165888,-105.38095487177017,43.72824548213067,39.05412996365524,0.014375882858041077,0.09513611961292855,0.1005286402706466,1.6720477538019838,0.40747718101430447,2.034226902615213,-0.38221399519430055,0.8240536562356653,-0.4107785494567592,-0.23952472443628162,0.2101072529080949,-165.11518914390325,3.6073672469044253,8.549174497122744,0.2040135120755476,0.2717292168131513,-0.009041335176562703,1.5376957317075493,2.579799740184705,0.9707234365544855,-0.34899738624427323,-0.5855413599357683,-0.5919359351770637,-0.4014559573991695,0.21948478611534555,-15.746125362307206,13.250918217313473,20.193866977162283,0.021856850072861148,0.00654718594409294,0.005965387790057146,0.0922794169340939,0.006850832921789408,0.10528382528313233,0.48168566984753014,0.48994606736003754,0.497521750234961,0.4935004161001866
0.25,-117.11723020206817,64.13254258397554,171.87340234263476,0.10707072629663546,0.16476012934841872,0.04051963824912929,1.586485840588271,0.1728245264317353,0.8137668562736692,0.5032938125041487,-0.462330758629525,0.4715940787324986,0.579727400777836,0.24256004421460478,-105.43659309154872,43.85894032672977,39.06754202921777,0.003075893443710776,0.03372587632129114,0.04961240021077319,1.5323599527808178,0.48894169279008487,1.3879084241292325,-0.37194702195517376,0.8167756132029501,-0.4082596413952807,-0.23086877914251666,0.24899538550820927,-164.96984732930977,3.496543074400679,8.43753317265564,0.08749800423397125,0.020596975619551337,0.12771555235308316,1.3472119954287238,1.772561980985578,1.6102219475534563,-0.3459425261892617,-0.5967673355770688,-0.618733375732313,-0.39754964820823924,0.23842902650467432,-15.732484107599234,13.254251265732925,20.188088170366736,0.01223487110847087,-0.006557589388255602,0.004674009444748115,0.08293702231488903,0.015073315899227776,0.08667084409341935,0.49420016305280595,0.5156804723464635,0.5018217270818042,0.5038170730708114
0.26,-117.3273170181787,64.17813996190154,171.9553969725902,0.08941500056351047,0.012911448432151213,0.013218900710819593,1.3385680608581205,0.3508397365705478,0.9396667475478656,0.5170985360720601,-0.4502952955200604,0.4933831682162621,0.5501095008442856,0.25629697422724723,-105.50627349542472,43.95488598008609,39.070134014170364,0.006290970972442964,0.001946741484095695,0.05539364094333131,1.4061531105236194,0.5922093055671094,0.7228232183038193,-0.3386181309781441,0.7861123331527199,-0.40778753384329447,-0.2436249075071179,0.24261016420365944,-164.8947536046088,3.6385248076442207,8.241465262461917,0.18923690801371715,0.07446924813423891,0.08061119788939577,0.2117855160196766,1.900556239691189,2.0620166523015437,-0.3593977449223815,-0.6181268396044409,-0.5833796511382628,-0.42551332591536634,0.25345400573191323,-15.763683778957963,13.247504226067026,20.20559181341488,0.018345666460741115,0.0014605792828362128,0.014157468707473263,0.07629055236523935,0.058680401763552964,0.061707091066373634,0.5143376376643117,0.5145472307233466,0.48969650201858234,0.5004694452663508
0.27,-117.4382222560853,63.94792302713775,172.20138002471347,0.0907263786545563,0.3035105792853647,0.03488016769456049,0.9510986168714439,0.45899221370084947,0.6697049600577137,0.503127827097046,-0.4484353496543553,0.49153314840182644,0.5590122122209611,0.2515564772999159,-105.51137280611536,43.92244867968733,38.86098358596187,0.1313975416100918,0.020875254430529972,0.04652363461188013,1.5511377434520304,0.4673999497334451,0.5101534864537071,-0.35016083798432746,0.8055800482457498,-0.4109427985092785,-0.2287256196148711,0.25133602860851517,-165.01717127239172,3.7366953861929084,7.966768739799649,0.33337404384219504,0.1507248937940217,0.16256899903026603,0.09652415031431516,1.9367509116734412,1.9342424518459695,-0.3494205020290034,-0.6035443771892718,-0.5795645334473629,-0.40949939063485546,0.26410789747549024,-15.765168356905027,13.252881271499616,20.1785108510368,-0.007400349571799266,0.008430067889719041,-0.012995368637188871,0.05882006194112634,0.0784377467810119,0.055098940339682836,0.504855344272475,0.4924389496145428,0.5045985707798555,0.5116298064834122
0.28,-117.57685070809133,63.3804088199573,172.48389492681147,0.06779472911916781,0.5623138301420184,0.06478874871745108,1.1353736118903117,0.2838207337686208,0.4725434374485857,0.49242853434764544,-0.45986453477451383,0.47290570048228786,0.5659691469472087,0.2721691291807004,-105.48791984383197,44.06397611903684,38.68076456709813,0.12590993040487358,0.1967344892296001,0.08178129474260114,1.4470267281794738,0.06863021538418684,0.6159537911096045,-0.3530107771649689,0.7915105174343438,-0.41633582408074593,-0.23530440530810834,0.27304003947161526,-165.31596226013357,3.9532265551386176,7.429286927616368,0.438938870638888,0.0594260459994162,0.3099868689268628,0.03008041666563927,1.7819429388381145,2.0414817450725122,-0.34722127789438223,-0.6044207747880906,-0.576664883405228,-0.3962619777615841,0.2848003092901766,-15.743446509414474,13.25149568337943,20.19706172171409,0.013930573751606837,-0.005343034850134681,0.015176235895848014,0.0639701729446948,0.09102228998689038,0.08321793075571216,0.48578612416988154,0.5067730105729696,0.49269688842133036,0.5066640051035338
0.29,-117.71334643163449,62.50218183415122,172.9990873164749,0.07980230916998485,0.8941142701444751,0.07377772120156129,1.4436749868973913,0.08482123347341652,0.13856894312068307,0.5197940821037889,-0.44414225286770387,0.47418931846089685,0.559767767498168,0.2759702518055172,-105.56467174772092,44.39365423346733,38.50095702558415,0.060755526961676784,0.26098484734081984,0.10675428396845554,1.155486353228269,0.15055452579302078,1.079275631194075,-0.3631174705039031,0.8145432287088196,-0.41602147618574553,-0.24731342215047536,0.27729557251250037,-165.69233008407423,3.951919010905864,6.809337140246842,0.5739781043619528,0.06690591270815979,0.36703069492981183,0.36487917062166125,2.240682076396364,2.0130455978629977,-0.35009174045912794,-0.6004724658057201,-0.5896442943449953,-0.43617613406093336,0.2715321885381619,-15.737516254913778,13.265580956845856,20.19732251104009,-0.0030027032480530475,0.0008285606220229406,0.031282292918069284,0.09350139469457491,0.00231966945051115,0.05201682093797076,0.5068604748145775,0.4795742090413849,0.4949724079126003,0.4975865175586377
0.3,-117.87837380184116,61.44192024528092,173.5351069810108,0.08926684539045082,1.0656695132416207,0.1264287523923121,1.480533484063471,-0.021231694455895532,0.13232350272829288,0.5445639131870295,-0.4323496611751387,0.46135191535226744,0.5798270678777683,0.2883520949882887,-105.75643549005022,44.62304493272863,38.29854445354786,0.03761545779651321,0.23440302224313952,0.146413839059037,1.0485927501519452,0.05856946456038731,1.1109062690831562,-0.36247398709778755,0.8051092992984882,-0.4321881772086139,-0.25832624201084603,0.2840532935179393,-165.9918816282441,3.804090835187561,6.0657500484385904,0.6859922845183523,0.15545638243406062,0.2667029449522168,0.4110424309668626,1.4525984501683769,1.521791472378275,-0.3288841777296929,-0.5941018480041418,-0.5903605525273766,-0.4025330288732752,0.28318593609887227,-15.768090704862557,13.23996445707471,20.173868038862857,0.020235033598986613,0.012654038015271037,0.004769548153259728,0.08008670340200313,0.05151785163720694,0.07951638600162675,0.5063313500968113,0.5027202846021525,0.5006704001294182,0.5135809058448414
0.31,-118.07476819023874,59.99405710319986,174.17502728617703,0.099456643801104,1.3502015451767695,0.15161804327547196,1.186752443744848,0.004633310469686204,0.035460320553407886,0.5301400503625233,-0.43145277946379823,0.464065195855263,0.5673186276175276,0.30911487703133195,-105.94825580695733,44.879753076428656,38.19697297594906,0.004296379981382878,0.2577854523671725,0.15109598678470657,1.0036003746160935,0.04413333221709166,0.7100863644232964,-0.37608016174072834,0.7923997299914318,-0.44014892575680487,-0.2657683584573518,0.29186178064036045,-166.17217935457114,3.623071898578573,5.326148520565825,0.6416064390092124,0.1985599189416223,0.14352799920094012,0.038936685271680115,0.46431665106840275,2.2171747549530068,-0.36838812492684475,-0.6167761986029741,-0.5814870612805134,-0.4258762803261565,0.2911405856500356,-15.740627478609998,13.271287986755073,20.18137084187699,0.005868696697471821,-0.013406033413364016,0.024395044324224326,0.050389521593671736,0.13867106281463643,0.08174574608714406,0.4943031937199886,0.49252841165572947,0.5047235038585406,0.49853736783016206
0.32,-118.13082208991086,59.19005295863371,174.49953657997494,0.08512101698139057,1.6266955719514902,0.19252958951278779,0.9058938817498038,0.06720808448949628,0.1662654043915069,0.5276970463858107,-0.44310204716399443,0.43971804001615944,0.5661286554769881,0.31471386799411577,-105.92922834014959,45.11851697135241,37.92826478149439,0.01779075657244726,0.27711716686637183,0.14507080138093462,1.0513972145212247,0.11339264585499981,0.33317493124626774,-0.35664929007437385,0.7945437286988449,-0.4049984039464896,-0.24767355372267727,0.28772736994796627,-166.1887656888203,3.4245128078748652,4.570797750251066,0.643353137422058,0.20324642177333269,0.07428291496003422,0.2362217077150432,0.3552401350297323,2.129228688522237,-0.3328684153698673,-0.6084325788777742,-0.5719795502965159,-0.4172103386513516,0.3070162236667864,-15.739426314922788,13.254641742936627,20.22371483520304,0.004258087165486035,0.008380553099462772,0.006790568231113254,0.06319224977991057,0.177411867677126,0.047886658291366034,0.5024723077842866,0.5023768928496607,0.4961249639936619,0.49353452015296223
0.33,-118.30604943331602,57.38781007711476,175.18281046128615,0.0746588841425272,1.7564602873469826,0.20736244928096603,0.9152640753244071,0.027100403240449048,0.06953352105271104,0.5369935685687515,-0.414956440325161,0.43152163831383,0.5911726300263919,0.32089599073019914,-105.7075952955187,45.570484681473495,37.70620267728245,0.04694424502259431,0.40608255426686324,0.1348109583281001,1.1317764675610693,0.1398068642620267,0.43697993653948375,-0.3611345047969243,0.795070864650451,-0.4186329804533293,-0.2579629813072383,0.313837202319876,-166.19271808510686,3.1871971571647455,3.8141223212225306,0.6469924121302512,0.21687648192668954,0.028776934054290434,0.4398508699281032,0.24516849907898194,1.9981302296043995,-0.33054886645111603,-0.6173607851551911,-0.5793324738347785,-0.4380129259147839,0.3295024811906573,-15.757653506505385,13.23361752778338,20.251875242369593,0.013447993933283886,0.0010638340729016817,0.006161043399548664,0.04841529062449595,0.12779490159327,0.0918724217986809,0.4987061802974188,0.5050418723113443,0.5117962365607384,0.5024773909104742
0.34,-118.57036123847223,55.62124215886666,175.8235322203536,0.09963091392565593,1.5777047347990467,0.21796990131355173,0.8944891902741303,0.0038080310264401035,0.04060802408618447,0.56979832251137,-0.4223267448355936,0.4370518740129211,0.583909604797086,0.3195991902408458,-105.49120906623006,45.984747207377396,37.48595653361402,0.0448026537613367,0.5378027749846557,0.10203212623927449,1.164623092269479,0.1282239321205997,0.5111180964018183,-0.3828795475008374,0.7865515811102126,-0.42855052693961515,-0.24167965524097013,0.3269236308455882,-166.1115347193878,3.054262552520695,3.447070526605633,0.7250340188474484,0.29541515287423004,0.11196068499760908,0.4648837301635096,0.06409303714534957,1.8258651308947902,-0.33627856779616777,-0.6120951153306292,-0.569232008061968,-0.4324164507710313,0.33299927785367084,-15.749814792361812,13.254812521660895,20.238511294344733,0.031125885401144224,-0.010789610581616935,0.02008269243535963,0.0654333238238713,0.11084417381902754,0.06412152832375848,0.4904347277675199,0.4852668680690035,0.507016308640398,0.5030575500486016
0.35,-118.82360497003506,53.87091981827411,176.4410466496991,0.10645124749940645,1.3814987267129946,0.22819221830066666,0.9024001083820314,0.01959660127901714,0.015900590592559313,0.5695433936158114,-0.4156722525132111,0.4021152561155235,0.5886410153831939,0.34153571355883217,-105.30844192375191,46.65156270807707,37.31721587332663,0.05482740519310793,0.5969432852443908,0.09975592693193606,0.7378314424165431,0.05232626193302019,0.34073494565828794,-0.3680707560577626,0.7751257472789533,-0.43939574081923316,-0.25368327148683767,0.31716221289728663,-165.92745973142698,2.6808679451399446,2.6218435677940155,0.7837223314027112,0.3315304556005079,0.2299857590209475,0.15458076912521415,0.009271666320278572,0.995889648545898,-0.31672148815065093,-0.6206534374077395,-0.5803439255521504,-0.43807019500721545,0.3375124384110965,-15.7514559476213,13.236214165405576,20.25662274552422,-0.03033003593613845,0.01144139533878074,0.0021645009557777987,0.05158203035141004,0.10605222989269232,0.08703078654850935,0.49344256738152276,0.48681487773186644,0.5047675204463925,0.5089760447180935
0.36,-118.99794636683829,53.082234950459736,176.70690514635572,0.11160980821159772,1.4047465331237645,0.2024506418704938,0.8750164325290412,0.025787175082321735,0.1192454050430455,0.5626080429327728,-0.40625829198192676,0.4161138608009464,0.566787162499326,0.35180169712984766,-105.31359719149225,46.957114180802655,37.22407967332806,0.040380615267183256,0.6065932395203434,0.10626578998341135,0.7733804348072274,0.09871981910539863,0.456590198826021,-0.38253167543698463,0.7842427378950723,-0.4245985737411262,-0.2538253542937123,0.36680314682286264,-165.77338405875724,2.488184289346675,2.231053444484943,0.7220574085260961,0.34399698631606285,0.20498840316666575,0.20360346839488344,0.1364288202887093,1.0679354964852712,-0.33295804256765765,-0.6216741343004982,-0.5507378979948623,-0.4219052704726301,0.3365274823125869,-15.739548245485027,13.258968572362534,20.245476374498377,0.008172926789594822,0.009969153987810175,0.015634507441950857,0.06179034279568272,0.1333666172215442,0.10397365984918956,0.49314895475913306,0.487839798733172,0.498849722837957,0.5018808801577542
0.37,-119.20328938866066,52.30029714219146,177.0060375109518,0.09120178619085825,1.432701127749212,0.23347561950115267,0.8462864376881355,0.0691981914736759,0.22033900273890783,0.5740447701995461,-0.4149981913502055,0.42970165152693224,0.5623275431486016,0.34444521272716994,-105.31262453665724,47.30199894978246,37.12401311357374,0.036811797081263434,0.6110533642190376,0.1166603440437832,0.7679661249381602,0.16906187596152225,0.5671853944463827,-0.373528903485404,0.7771870708367327,-0.424753839320515,-0.24879240262245586,0.32806776343740174,-165.62768168789435,2.31122324189633,1.8157902569157736,0.6963944389640551,0.35278002981041817,0.21548673008942096,0.22027634785025935,0.29204629239712576,1.1670737394228017,-0.3071781883106531,-0.6297364891155098,-0.5570269322896123,-0.44566346548436864,0.3440488141451985,-15.754789574451657,13.256602233484154,20.25522423557178,0.014421456159729534,-0.0002211624389032906,0.0021394625077713635,0.035971550683687806,0.12861095895684993,0.07971620346952635,0.5101723170859825,0.5049658286766263,0.5057370405595487,0.4850458814186271
0.38,-119.57409141900803,50.134781570716676,177.57191800303727,0.054115337163094884,1.2332036023903696,0.16630717050746185,0.9219292503479831,0.039002490076710035,0.29902527326477246,0.5820280541422016,-0.4055544378730828,0.4071074821109741,0.5869383158803255,0.3373509136300891,-105.25277832088165,48.05811528298017,36.93613185758646,0.05031872057154201,0.6747487575156288,0.061941484265610816,0.6950344529742642,0.1506357397507318,0.17916645218709498,-0.39869973226750516,0.7876264664379669,-0.435736108947245,-0.25279957506251616,0.36330487951356427,-165.44319658675656,1.8620659930071033,1.0680213722404068,0.631766983521255,0.3989531481364781,0.12550935209787023,0.027394001381136658,0.2238575141558559,1.079091408378111,-0.3132333576305669,-0.6408239566140846,-0.5683235067898287,-0.45177680167653816,0.34906126498210494,-15.751142217730731,13.253602544136852,20.259955505695796,-0.006170205514907358,0.0031192264338147924,0.015883294310941938,0.044254886170767754,0.1584366693864035,0.0947027776581894,0.5004249687180284,0.501799953811479,0.5011625714930305,0.5034199366755312
0.39,-119.93510857418373,47.99760556308705,178.11609247113225,0.06478520813037533,1.0532302067801569,0.1164709979411254,0.9991346064892499,0.04897886180025673,0.38680019009688404,0.6122825560090824,-0.3617698956753583,0.39132834570770797,0.6047015644761676,0.35194188670507304,-105.05471414784581,48.80522264534052,36.74980459050248,0.07293255636384102,0.7527442939760176,0.04507323711081248,0.7183351654024605,0.02941843741953939,-0.005085611036223354,-0.3934577185297175,0.7819018511731104,-0.418485845422638,-0.2718451961322571,0.35469002156227625,-165.29200382345522,1.4181525317349422,0.37567148719541593,0.569284455862358,0.401576835747679,0.051704271545913456,0.12307068660627042,0.1440535004774203,0.9258200383722425,-0.31631471535177247,-0.6193632681374175,-0.5629682732211386,-0.4457448016938127,0.37406876122442456,-15.752913194859829,13.256025406149366,20.236129369080164,0.005763534987344414,0.008570380142019612,0.018809223622445026,0.07182463974500428,0.12199772797159669,0.06355968031251788,0.5079230531197276,0.5117149041564568,0.49466856200786957,0.5021168140509453
0.4,-120.05854427627466,47.60773984357057,178.18391110054623,0.0891792359468234,0.8018348636236377,0.10408157237249743,0.3263684003811399,0.09202598837349647,0.04979680345236915,0.59570362428863,-0.39431806100218886,0.3877560722559141,0.5830049428821044,0.3890884307989578,-105.00900219496235,49.74450018730167,36.5040859023677,0.043158801595648395,0.850985062845823,0.060241458315216434,0.7327576251278445,0.031126484392645315,0.13464750065127676,-0.39056055102542114,0.7812796580373466,-0.4194461233275968,-0.2642294063235054,0.37862833779803906,-165.36235009399653,1.0009897846851987,0.13958566766273367,0.4368134932422968,0.4422214505292285,0.08655684530958764,0.2765905846681736,0.03723126321740107,0.842003360634655,-0.3126244217375358,-0.6335892052957008,-0.5604496231345505,-0.45224126955008886,0.3837143354181071,-15.744449037579104,13.25804083262679,20.23453827733557,0.014495369103781238,0.0008297085557286213,0.015225299599062013,0.0952606069205785,0.07567073269104087,0.0636635365375439,0.504161368026734,0.5002720764599224,0.49865157211006716,0.5207239702399564
0.41,-120.3093757598657,46.453995620980166,178.49288830423822,0.1025453563692599,0.7708146291968453,0.1447978565283186,1.3053230677256913,0.23139198700471006,1.603429988701522,0.6067663738205413,-0.38598095649752356,0.37860902764417315,0.6053014741617772,0.40044437818115414,-104.99646348223732,50.68905568518471,36.30981878155165,0.003732261430129292,0.8770047127107823,0.09017490736347944,0.45396551521892026,0.17258926307542768,0.43677582133671977,-0.4131553286441243,0.7639995238614062,-0.42412252136527817,-0.27308729246835073,0.3935460164758226,-165.48964510960965,0.43126537485256516,0.5580881281545744,0.40991460281744224,0.440043187613643,0.06872506446701929,0.319350394685214,0.5322793982930836,0.5073749635961862,-0.30919300419865275,-0.6179990546960594,-0.558952883334806,-0.4463791920122602,0.39329597570330926,-15.749617930965757,13.236375504554813,20.240228936778863,0.0145427686510885,0.008340383932984563,0.0205065479780821,0.0700853503791379,0.11036434779409983,0.04912433858256927,0.5059417614269208,0.5021825155309132,0.49424720793136934,0.5049693212024149
0.42,-120.6857417579799,46.26098890255687,178.73107869312045,0.09522906082643125,0.42236055271690287,0.12169629625515539,0.7480041104071918,0.2682019209866412,0.30857216202595894,0.5881579570356992,-0.38489815721997656,0.3956662296255324,0.5800237286867164,0.4000826002486014,-104.95432940151326,51.69697057893068,36.072961308444235,0.07097305259329646,0.9161862381188604,0.05292681028764927,0.4238068986777792,0.16194692062766478,0.07142721872728847,-0.40391827215482634,0.7652081812970845,-0.4224058612986594,-0.25904964323586016,0.40254865609904794,-165.8148403589457,0.4351241766480014,0.9987113199379508,0.38007611851419126,0.44066882904820187,0.08003917546533619,0.03362552204541637,0.0013572367950812902,0.38606741043269155,-0.30837117945360926,-0.6234214247853318,-0.5664615721691363,-0.45476779407721346,0.40044786110981534,-1.778468879505747,13.950428442453358,20.261511064653384,0.6511865997587499,0.31312965643446156,0.1622217566923061,0.5022114575084935,0.40753351925397635,0.6388567982934511,0.4473854718804772,0.5180667624683525,0.5707354385140667,0.4280369128022169
0.43,-121.1249423387757,46.898733159230304,178.97888510909254,0.0471735237785043,0.6764422782685252,0.14402175111044938,0.8309054108225713,0.1422708967007877,0.37352146123588986,0.6110798960455169,-0.37561475809078654,0.3987156127773059,0.6171816382495185,0.41270165323886193,-104.93998977760972,52.68454387797745,35.79860771473468,0.0453163021905918,0.9414989904486031,0.05210963866633138,0.2705006074540548,0.24678214515722094,0.11703551868313357,-0.417101691452157,0.7724951326555712,-0.42308550660946304,-0.2605561667387191,0.40728466344109643,-165.9307104963239,0.4354044969445723,1.439563000260663,0.33858163885821185,0.44448122912992555,0.08928684049614405,0.4809885707682684,0.3006622739256656,0.14265698382084196,-0.32336405769231624,-0.6211362965193663,-0.5568745060246707,-0.45887669044606644,0.4092121930839419,12.195585902676953,14.636355780142123,20.23184846350489,1.268384312744525,0.5765940676024548,0.293572068006956,0.9007864426697887,0.7021662368282612,1.2230206762461344,0.3764055475492712,0.5224156820551815,0.6671121794943963,0.3741657106134221
0.44,-121.37845857146698,47.61618669447167,179.18395285665096,0.0283263402925248,0.7334427216647312,0.10862425487029814,0.8250636765828099,0.1458285591979309,0.47615508336733814,0.5953687563920972,-0.36838764468426455,0.3949440347478553,0.5914622600223409,0.44644626271583054,-104.94152601855083,53.23349297691344,35.75384019652471,0.036788927304340045,0.9614580152125194,0.0554602957905964,0.2885884664223574,0.26442233396415965,0.0037551977601660057,-0.4302637446697615,0.7654947748493672,-0.41889570257440367,-0.2784338358703797,0.419527899472971,-166.05350828989074,0.9376848670372863,1.7386540918371556,0.2826085998313776,0.4442146286766717,0.20913153321854544,0.7103445073704391,0.33149157301496135,0.09220759281107556,-0.30265333492382085,-0.6230467911228008,-0.5457407585800079,-0.4369112059115057,0.4261126940801504,12.497097479001686,15.512005516951511,21.76282724612062,1.3293253195187125,0.8035594904069686,0.3243670869669823,1.0775071983868614,0.6667007597203536,1.3934887613948888,0.3575391715768055,0.5157575466387849,0.665516977799222,0.3782825453112266
0.45,-121.56132194619036,48.509660700418,179.38073636961863,0.027953750779955648,0.7968552888275824,0.13590551332009837,0.49835570169623644,0.29917636032135786,0.5328698189617377,0.5973810828673018,-0.37761851241572963,0.40436818580507916,0.5952550959596379,0.4167506330195615,-104.93033007568368,54.32566106627447,35.50139593333093,0.09455628104874665,0.9797068158476832,0.03452278239965506,-0.004778136067513977,0.2603667476330335,0.23136728052916888,-0.408261133245912,0.7467371280042469,-0.42624410458499995,-0.2951522582777789,0.4414026153594952,-166.4352257134324,1.4545276080109597,1.9920432863922675,0.23300288326598176,0.4793690743259336,0.3772576986907315,0.1430518414891268,0.4999463055686658,0.0045910432508071,-0.3151683488110726,-0.6097280699760675,-0.5587818960140987,-0.453040854051811,0.4238532462492007,12.613608222140096,16.499564421467255,23.43543928702856,1.400810807167189,1.028268112042537,0.25638409474618507,0.5412454393895629,0.45186023401273334,0.8083183500257728,0.3881778296713523,0.5498914111932152,0.6804521606398033,0.35811196702465564
0.46,-121.70913034242068,49.4301196952361,179.48674827131165,0.038921402489236756,0.8558226498473166,0.11656121628763759,0.18456954748831314,0.3839210643582955,0.5576332725423374,0.6044281712369808,-0.37304004243286293,0.39494310617709366,0.5954006477051093,0.4322311837342987,-104.81458463754737,55.39355513549382,35.19065472850146,0.15434087617123515,0.9640724271799824,0.008951386394330999,0.20414201907627644,0.21904659205254734,0.7306019101059632,-0.43242841414055594,0.7548191240731237,-0.426361429363854,-0.29536152112541364,0.4336908455067672,-167.16410171444625,2.0998225173932283,2.1345999149573993,0.17387384091608546,0.525015683976861,0.5715378054941943,0.3825999641388134,0.3094255085142495,0.26305611562868053,-0.32025768270362714,-0.6326888866655073,-0.5489107014841657,-0.4373786801500277,0.42863824800210854,12.632542739948438,17.442409532881925,25.29810100710786,1.5471034710044438,1.0017323524371458,0.09088308892457463,0.13771775610620177,0.5680167541894484,0.014705086139988574,0.40644180589178586,0.5127636486804333,0.6972738488795365,0.3526829165394757
0.47,-121.6842427314143,50.38150923438164,179.54687279093196,0.07021169119745772,0.8757258011636688,0.1374422269193966,0.20371177639479107,0.30415218997876825,0.7335532299604893,0.5918242581881608,-0.3983123698684261,0.4061974985303519,0.5745777132030625,0.4545588416133061,-104.64003170669106,56.44541421614863,34.81218062636237,0.12349583184919133,1.060507765365888,0.005376181269373839,0.3137607381410348,0.19506049488920388,0.41434602775722107,-0.4456278672613781,0.7290511393150733,-0.4322482288530015,-0.29736464674360746,0.4442322540233796,-167.8609207790689,2.752422480914983,2.328312554418028,0.09134191338345526,0.5929168103963025,0.7445994241645255,0.6511842491658199,0.1678083989689211,0.5227370492701022,-0.33759983602702226,-0.6180194581237717,-0.5538496606844542,-0.45258029551668577,0.4434293351192823,12.670793201497606,18.306555956796483,27.377175312396588,1.692033141234542,0.9440606788283925,0.10689375320404522,0.35327623778903944,1.0087943203740115,0.4053881899167314,0.4051774306950079,0.5002887435069274,0.6847263426296806,0.32737041700795166
0.48,-121.6625552915516,51.39986182565941,179.65684454401182,0.06224176559400245,0.9381680329646856,0.13826885644192133,0.10289162375933321,0.29833084236512186,0.7634420537855899,0.5819938053878541,-0.39122985866830107,0.40690171176461565,0.5719350296947653,0.4630541244471968,-104.51061556644976,57.682871618976655,34.50880412786054,0.09712205610364802,1.120373566018396,0.014575715673485631,0.09641360550291572,0.1596294334739138,0.7277641304620347,-0.4515949664333218,0.7464736118697134,-0.424557745934574,-0.29898464192471325,0.4623632645683288,-168.69090677268505,3.4875032525082927,2.3522057132948726,0.11689813923937852,0.6533519081653812,0.7615041389574255,0.6690089359426662,0.07400161029278791,0.6049860210180736,-0.35276972037914045,-0.614247393729482,-0.5659881187483954,-0.473784164721709,0.4605771887921633,12.881803838733461,19.369338131812352,29.46027395854479,1.6774255773880347,1.161263592095698,0.373190976590743,0.5699785344575915,0.4254531909554258,1.1806686012888628,0.3984931952811544,0.5007940232334521,0.7006660057606421,0.3160054258953279
0.49,-121.63073194488668,52.43450884503468,179.75193422684913,0.09954373249495063,1.0111253587635294,0.1171319831071142,0.027069696096951826,0.2679481475478671,0.8012712646746571,0.5639759103082655,-0.41741977162028465,0.4207023722470436,0.5764101444419374,0.48005808824400087,-104.56416284429594,58.94207885166409,34.195689452387434,0.04027810571499121,1.1228710021520598,0.04810202083632716,0.22112697011844512,0.4683584327530525,0.2265246984893363,-0.4711370124928293,0.7293910562500521,-0.42239102866365275,-0.29607503289792947,0.4499004503211371,-169.621694940245,4.315150502611779,2.373956641531273,0.0618701705653847,0.7025200189926817,0.8923344268393796,0.5103917910578233,0.028005006666730257,0.5902573898072141,-0.362051172557257,-0.6220085486705728,-0.5425708564122353,-0.46336345969150516,0.477709150758683,13.057640751628213,20.688035064065648,31.628496917309278,1.7006079550469426,1.3980597147949474,0.3592475778350542,0.29778346886542423,0.629608731914069,1.0643435822157519,0.4060816260197618,0.5016391846837029,0.7188205677329422,0.3009698812462436
0.5,-121.56791475840029,53.56575057998683,179.8189878548981,0.08677669397934762,1.0032005025033037,0.13398030482630632,0.004722165071699156,0.13997105899922363,0.6764544741064064,0.5681427954740287,-0.3992960120056065,0.41628999156526714,0.5785956318182074,0.4798030603878437,-104.5085787552435,60.17489696428264,33.829964749625574,0.14851662436293034,1.2680817731638985,0.02041751623220144,0.5168171262695661,0.17773634636893332,0.5196081633674661,-0.4506713121623685,0.72416354105578,-0.41588023882753894,-0.28498373725521453,0.4839401907184635,-170.82025739029228,5.195941938368649,2.3025322062952456,0.02666611659383309,0.7551423185833122,0.9989724440581362,0.18365598936168984,1.4520664905398317,0.6426790783967834,-0.3605369884169864,-0.6176570296901895,-0.5134078133232146,-0.4453418820286578,0.468519865813598,13.206944084049823,22.063940336608393,33.999481920739484,1.8154506924413982,1.5206845006743854,0.38721798544095304,0.1492094674927635,0.7561163581424842,0.21664181748780784,0.43206810574347887,0.4671719590830235,0.7102694351015743,0.2862542510825315
0.51,-121.48878838811531,54.67157036629116,179.87874805116664,0.06744523759540012,0.9701593662320529,0.07043967577734296,0.1670370806605267,0.019429818723629387,0.5761696830206371,0.5691408168399744,-0.4157058178486013,0.44728603426173535,0.5758351535173892,0.483432762608736,-104.44466642950825,61.559710922206584,33.384626525047025,0.12963766894607748,1.232383569661115,0.013785029132998894,0.8507059680093966,0.00988702248601593,0.653669399544504,-0.46097881456809303,0.6971350298952689,-0.41962644017823575,-0.32918898026000654,0.4858682325207866,-171.86054198035362,6.126276837668688,2.1107343490902313,0.13997933592028095,0.7577761601824351,0.8880068011849013,0.32435695090819067,0.5340147436426492,0.5251536061663776,-0.3622514121093468,-0.6171639303392432,-0.53066310567782,-0.45751638090073826,0.49296171493155017,13.506308556896263,23.506377078087684,36.50807221931284,1.9254029069136263,1.4869773146573253,0.5397668685263218,0.8635394213212019,0.35783315047134917,0.6669529426988725,0.43111855360524487,0.46873708589065344,0.7218389261150805,0.24744191250488098
0.52,-121.43170164636658,55.75067501771793,179.86989414700173,0.06432427050105659,0.9985323951392318,0.06284756438372376,0.38874740915675976,-0.0016934198480416946,0.5365295737006982,0.564196719606639,-0.4326109077518659,0.43187360139219094,0.5722153196910363,0.49422666782496794,-104.38333828357631,62.89289955210663,32.92239445850555,0.12508443030212374,1.1989095986457838,0.03364861097612162,0.7418486885941287,0.17594265105425166,0.7193679158118574,-0.48878759315301595,0.6924322192520402,-0.42436461995721214,-0.3306366795785987,0.5005942898191319,-173.06618787291168,7.003910850785287,1.8588219266884913,0.12647795425986427,0.804729390745049,0.8394621713092797,0.45532128082261264,0.460096314228374,0.7789212452786339,-0.36873234238082797,-0.6134062618574125,-0.5175459277690508,-0.44183254253637766,0.4968225190755098,13.814013168341313,24.88035633414612,39.068044933224364,1.8961021145620125,1.4170960074770749,0.4851196704469158,0.5290910415329958,0.6358785952475144,0.39296289349991936,0.4412563217552169,0.458175743745763,0.72845133732203,0.23639656034829148
0.53,-121.44102854394296,56.882850653774454,179.93476654154446,0.0305989229370899,1.017874111193323,0.02592526807634798,0.7223187716468681,0.07703968240598544,0.430159934068042,0.566369855224444,-0.43474408322755953,0.4206681762371088,0.5515866095008962,0.494878641834114,-104.32986403174014,64.19278614377589,32.44497673423212,0.09694590453664911,1.1798071921246247,0.02338876583546387,0.6182766162611062,0.33992279681191034,0.7717732936744839,-0.48515457351084457,0.706182514871553,-0.4314230885793047,-0.3161921534630938,0.526931566004466,-173.94839422872337,7.929757561348859,1.630956064770112,0.13074012147128003,0.8660545254976972,0.8357887134933427,0.3743911727852524,0.5326938334302862,0.8797228973933177,-0.3923279555180719,-0.6110403611297541,-0.5094712333472262,-0.433569913827154,0.4973874617757158,14.306301673922606,26.373636037072206,41.61165933184948,1.8808875705925039,1.4981919166703506,0.66403267933175,0.01721953293264143,0.5327643841933685,0.41647120352906725,0.4492010077524243,0.424984509310273,0.746918168067238,0.22762096531701126
0.54,-121.4697894699152,57.44192765950019,179.93627883295886,0.017249170711615778,0.9502180513770662,0.05219503082093911,0.6409361100446187,0.06921249664030468,0.5506097775344315,0.5532227514705562,-0.4303677188838345,0.440598460589611,0.5613868760974112,0.5067882553543855,-104.37979915480955,64.83445188829225,32.28843608204494,0.07224214731264542,1.221498435238956,0.03728727971321474,0.6894960730460923,0.20353176505918227,0.584423895653561,-0.47065466672075257,0.7009940041829703,-0.4232383659307768,-0.3381550096909189,0.5177864693177905,-174.39149610482318,8.492639600287701,1.3805514030420134,0.19513426039156717,0.8901503062776414,0.8395984026178255,0.37081713103954583,0.7278790318198207,0.7980106254131537,-0.40676643381898764,-0.6302426878418544,-0.49227475955823563,-0.4609801355149728,0.5256734489690232,14.643315558692043,27.20014760744268,42.92465713367545,1.8546952795581546,1.5321177792225125,0.7842813768690888,0.044383432411552445,0.5741709865316984,0.2992312545978134,0.4448816840701204,0.4275133704674824,0.7526086852566449,0.20303617469063426
0.55,-121.49791696714546,57.982929724613626,179.92550858400764,0.013660786030398024,0.8901330659585319,0.047660075080842745,0.5316400673122346,0.01875882631133533,0.6103881750622064,0.5564803879427366,-0.4266903863183367,0.44490361791286837,0.5539144002374797,0.5195616036692562,-104.46297788139462,65.49678252838318,32.14486711521848,0.029211993598781703,1.2473227454724591,0.012800314162670693,0.7839132340786114,0.019009382212747457,0.37842257481342784,-0.5020849270343827,0.6669499805310172,-0.41568979706322884,-0.33723824311138306,0.5365445487998304,-174.87373488981962,9.041249538992574,1.1464250092733552,0.27890510402881746,0.951886750602272,0.8102540778298493,0.35888990868006065,0.9088847883675598,0.7171853111240961,-0.3858499105854457,-0.6019985285802076,-0.5064814901656113,-0.448077228106942,0.5106922610292571,14.94207297538344,28.00462764628338,44.25847641784523,1.8552456546838751,1.549267698439608,0.9129913558616987,0.08986840494222463,0.6333091879538209,0.18435580444945787,0.46438360723974775,0.43200933786958917,0.7499989534301571,0.21703694080299213
0.56,-121.50464208224602,58.96544352356269,179.86410550182262,0.003871558008114149,0.8303311268034419,0.038786038117443064,0.8856704676909262,0.11218592416569617,0.3424357409562502,0.5679370487130703,-0.43120224796609685,0.4424676905199154,0.5568190489224079,0.5286527938381361,-104.61411490917207,66.81693794297817,31.648564370062893,0.024976460278847843,1.1792882082044485,0.030961918339281046,1.012725510279027,0.14764269747533199,0.3545768357599251,-0.49973166929629065,0.6836524765005,-0.42619244512343396,-0.33664584056813496,0.5219303942966159,-175.76598348709052,10.129514785402414,0.6970104954503583,0.41194692565740254,1.0343839961862933,0.7985408031412912,0.3271490730567388,1.2680414917780791,0.545252296539188,-0.4088353018909087,-0.6388131542276301,-0.4826356584994877,-0.4422263910416189,0.5426457565966087,15.750717818827063,29.688364325268868,46.92694310670672,1.9322962038066236,1.5565044625763893,0.9109872769118991,0.9828993417249725,0.5195573006535804,0.7694240521204735,0.4687711809455473,0.4256132750853267,0.7662995649059701,0.16535945351051243
0.57,-121.51912896417376,59.78761606580068,179.8301101978377,0.037015621601154694,0.8132439681654279,0.023047727341639783,0.9213310504972725,0.04400538605290795,0.30679153861703895,0.549367747545822,-0.4329623468642925,0.4428412199536141,0.5421383223354449,0.5495671918720815,-104.8173158653077,68.13150990621975,31.17732171043827,0.021093399087954108,1.1226912765796064,0.016134649575669482,1.2407446838252147,0.28093338563428194,0.3078059418974669,-0.510007206425889,0.6803404409709728,-0.41832526167834416,-0.3526775602659305,0.5299059424803926,-176.5776836846877,11.303671805676977,1.224088025149932,0.548664704083642,1.0396666585446726,0.6829490632172458,0.134139702146634,1.445853804896244,0.9219945618631052,-0.40751826917019457,-0.6317709266182571,-0.4896780126870486,-0.44107439453648756,0.5515443867374532,16.802419735487362,31.370989678777487,49.74763902914199,2.0363320670479683,1.4013988660746834,1.0199681979539497,0.5755125476399467,0.6142879587076813,0.6271373829861383,0.4629322661941389,0.42905518168104706,0.8054959578813254,0.1364982838492855
0.58,-121.56576586857695,60.624350467768934,179.80412308783772,0.05103887924373132,0.7652209866287061,0.004640717416199651,0.9602537685447383,0.01078645640485736,0.2791166097944358,0.5423482401793436,-0.452278694813788,0.4593212097376909,0.5302322491721446,0.5484376771320056,-104.82293214576359,69.31215388034447,30.548684667930804,0.021705014291681615,1.0676376357704933,0.01596961925636573,1.1559472805624493,0.4246155517956684,0.29973131467466824,-0.5077056703082335,0.6656896726187567,-0.42663841119454843,-0.33024773222135717,0.5564847056200478,-177.1492982801307,12.434312791044817,1.4998795621095435,0.6736692426501069,1.1280212564478371,0.6706029591904826,0.2458040385719313,1.1456282295086857,0.9466079937168204,-0.4062940589577554,-0.6387005539733536,-0.48794411889305783,-0.45392870244329886,0.5511163959002047,17.550758946064043,32.7291153081892,52.68820592233884,1.9670460829339997,1.4653454738894893,0.7822804915762525,0.4108744864486299,0.6901126797447242,0.5767047401365624,0.458512335062248,0.4046189457870099,0.7814743291174454,0.111006954517748
0.59,-121.68384176703786,61.45777819072866,179.76551004138202,0.06571249425619495,0.7665880488867207,0.02838461789516911,0.9148267742190885,0.004639107752369063,0.28036647979229984,0.5448263577223001,-0.4337772492375138,0.4550954036688474,0.5452318350941058,0.5540092950041181,-104.87166086260791,70.44801363501945,29.943202368067922,-0.004652175526990191,1.071492247977527,0.0046874033342447375,0.912132068608389,0.25807845469040935,0.15406885512359486,-0.5160940056614661,0.6580391924258217,-0.42127954460047695,-0.3655371010320123,0.5790034187121542,-177.75973561325725,13.57008640159798,1.736102024563955,0.8163258558596784,1.2144076180006447,0.7258436770883553,0.3469556356551758,0.8080303345203284,0.9510566122148966,-0.4316122385963583,-0.6311026271362814,-0.4722809716137768,-0.44291853185762,0.5607593284403518,18.455747510810642,34.17320206430569,55.60867568785896,1.912720343855001,1.428313796938429,0.864433175876934,0.44731400061633225,0.24408904364455175,0.014267332134605272,0.473834253761524,0.3653945292551451,0.7997311981393725,0.10033214855485474
0.6,-121.87674148392549,62.235726343997236,179.63021288235166,0.06754785791319648,0.7304933430309298,-0.01579671394309866,0.7600077816759249,0.24713926636275943,0.017511313521966047,0.5297332651513245,-0.444247002752381,0.4678942755059097,0.5377285808953156,0.5742358908281776,-105.04335249100988,71.61492545073357,29.25510248237157,0.020158661175065352,1.0883191820730254,-0.003210562326364899,0.9064400329812486,0.1341900126047095,0.11049582784843297,-0.5227992246932436,0.6303422124102541,-0.4184460259135321,-0.36980828317575754,0.5719239124249275,-178.51538222798897,14.942147043808502,2.9347806303653745,0.8999943745094564,1.2606449831587143,0.7467655713871147,0.33899041237490596,0.7437331940118619,0.5224316996337883,-0.4518444116470791,-0.6389691287613483,-0.4600996530831628,-0.4202825957339908,0.5690529232065136,19.447799135705164,35.48459216582386,58.619953924081564,1.945901536619904,1.3344513511203457,0.9062527361978856,0.36367326925130805,0.03083218079672049,0.14782117029822714,0.46648823331273326,0.36391375138804183,0.8182398471165937,0.059437574288682564
0.61,-122.02690466449263,63.04941844614216,179.5485219182075,0.0957263293814071,0.7502401079367672,0.0168567354625051,0.7062101668880151,0.3299476216950415,0.014572686814350186,0.5370143953200707,-0.45489562518756815,0.47457316446531883,0.5421191839339031,0.5776585165718178,-105.17341652511944,72.81141188659863,28.501153097278483,-0.002091962301982564,1.0519248186921193,-0.002432328286880447,0.9793195146706305,0.24401885742454665,0.07479840890141978,-0.5208968855873656,0.6432665109117168,-0.43743622239747754,-0.3616165383957529,0.5694896406826664,-179.1419789294464,16.30613055881625,4.299709366503998,1.0376719226291258,1.2862334716421897,0.6127441579253975,0.5684214244351842,0.9142999924057326,0.4637565352469133,-0.4494819052952435,-0.6305451601805994,-0.47248454025200354,-0.41087007428725897,0.5781530675490627,20.76030598419428,36.990366463785605,61.73267055616234,1.9825501747981564,1.3653255992771127,1.0886152311668273,0.6130543023681095,0.06217870351519939,0.10364686285638895,0.4507543356553903,0.3191973888455081,0.8354396310998916,0.035796941006183455
0.62,-122.13331364628164,63.87750064661849,179.45125808164988,0.09184677680292419,0.720703353744201,5.1408494336832936e-05,0.803475913044659,0.132548400000165,0.2220793224328922,0.5210641028007816,-0.44573403228886077,0.46762192771052363,0.5268755316037104,0.5768280777931732,-105.24500895816672,73.86422031307087,27.622309492775667,0.008352796702266366,0.9788522295689422,0.020225594892391636,0.8798657501229702,0.1640219605413566,0.08650778103782913,-0.5315064895986987,0.6294242369352436,-0.4164772607845326,-0.3777194267989731,0.5915408582821724,-179.67364103064222,17.687317263952334,5.696564690411109,1.1517840605975431,1.2594638782021288,0.6401862978501426,0.2097581017703293,0.5761002278655906,0.18323821418948572,-0.48037788535366016,-0.6253086226438652,-0.46914499632347473,-0.4053614109515171,0.598383338871106,22.181009537685302,38.56300723872567,64.81593398737108,1.870224768358622,1.3292555555860783,1.2727342962497605,0.07958992426318556,0.4238631046624319,0.4086556150620146,0.43548282130927196,0.3085098591948282,0.8498047170088833,0.006158051126625874
0.63,-122.30731589910636,64.67762881905892,179.26620127295232,0.08865560832352101,0.7395246041169543,0.01691757060542783,0.5817377298256882,0.06399034704776951,0.24035811081017613,0.5233032764259307,-0.45343690073553766,0.4948767808081074,0.5387187698601672,0.6021376287396284,-105.2420442536689,74.8643072357354,26.62993420311085,0.019098505150193786,0.9391257256517573,0.04482623135649239,0.31678690387535297,0.1513296121267871,0.19945003741865605,-0.5279024963403112,0.6140408005812923,-0.42350940987856844,-0.3901747405102714,0.603445964611788,-180.30767718238545,19.00023102299083,7.334528916329744,1.1665237073342944,1.2790849373819688,0.7240397484980683,0.1295071580419472,0.3212180515006042,0.4004128937905709,-0.49310319386982515,-0.6372081242644405,-0.4588619144131519,-0.38828150158908786,0.6098574718069859,23.006063426645145,39.37513463141975,66.30296923171252,1.7426578284838752,1.3397957500665831,1.2200192099409786,0.8660480004631955,1.2676740192430958,0.17784299524633998,0.4240288875557563,0.30073446650504826,0.8528742984252558,-0.013006027361948266
0.64,-122.4362207144947,65.43053948383469,179.09904436884318,0.06962824552084297,0.7241803500878323,0.01825040011965725,0.744239019148409,0.05774634786829429,0.028661874008659383,0.5207311994699223,-0.47407217578861105,0.48151254690704415,0.5341801211812106,0.6248511831383009,-105.22212278349942,75.82746328555788,25.16399512015318,0.012879305488339864,0.9314493147126599,0.06732084424950324,0.21916070193963338,0.10000709009065908,0.15885870247282838,-0.5235948607826468,0.6257945688781325,-0.4397889153442387,-0.41765165243726304,0.624789299422681,-180.87470795487138,20.33268066920504,8.996391874539977,1.2777304533740448,1.291055829383168,0.6523235300325664,0.03407417469640625,0.32550576883962706,0.12760366746999174,-0.48859560490256115,-0.6265446198634725,-0.47312652494596674,-0.3484786784485362,0.6212071492733088,24.51414647397806,40.86406783038829,69.43353185855088,1.7484553077805187,1.2361298734093638,1.0806959400808946,1.2426459869413922,0.8394078956127922,0.4623129248287195,0.42872990547477935,0.2710388960791093,0.8545493201144712,-0.047656218965387825
0.65,-122.57857831710815,66.19533457772158,179.0021250905669,0.055533469711842816,0.6953573328529143,0.008599538914969042,0.21985966743032143,0.09552956955630691,0.23110914789397294,0.5203074937119081,-0.4672725805233269,0.4940507546102966,0.5339586121899141,0.6269512182267131,-105.1749054011481,76.80531015225155,23.68195825874273,0.03094602278725725,0.9479718207751497,0.09214360577428805,0.12988107626751763,0.07887301125980567,0.17971257216031172,-0.5162208242611278,0.5848069760810646,-0.4285863691997294,-0.38610975163500333,0.6042190536002514,-181.44954683396634,21.616379742551228,10.816588795507965,1.3074574643491963,1.2704163082419093,0.6524131306688693,0.7405210658072965,0.3396897792679795,0.13409095840768515,-0.5153716179619361,-0.6283385106930041,-0.47584470690954145,-0.3592999264941581,0.6100560546059817,26.01356355209409,42.067084119205795,72.52045983237453,1.735341208270883,1.1866749355847286,1.0607271549971409,1.0023920711919607,0.30407386555182886,0.9400338096253935,0.4101526313022093,0.2611958118030787,0.8781476784958926,-0.0672761219239413
0.66,-122.67223627866574,66.8546626379141,178.86785667487544,0.054753792356701886,0.6054610391487188,0.009380879047976352,0.28244521308449994,0.04956835234716708,0.15554468605371877,0.49870175816109874,-0.4547978872793085,0.5112704519933341,0.5464608834822434,0.6411169598707824,-105.13965838622853,77.75021675092762,21.89740290404814,0.09428426021055283,0.8710332654103805,0.06489941920538095,0.15757923856120504,0.4229972797403788,0.10168148009200684,-0.5086273672385516,0.5760298664959715,-0.4569340833756994,-0.41230996253466806,0.6448638166824318,-182.0041878785335,22.82100514594296,12.706959567413735,1.3331183274078064,1.2489234923057897,0.6333605042027374,0.4508766623292677,0.22258949386962207,0.15866185162857324,-0.5156175689551364,-0.6137541252299241,-0.4871691834594062,-0.36481407414421946,0.6307877878049004,27.688678182655924,43.30952630737133,75.62320120266367,1.7729273846725233,1.0769134676270737,1.140357886135379,0.2583145907710138,0.31638385962838433,1.2179960342723055,0.39448514014771907,0.21146308730111824,0.8859897151983543,-0.09389739272927064
0.67,-122.74488390677655,67.49319315239877,178.80452553878408,0.07077152455762367,0.5113478351068352,0.028017557660598054,0.33296468472007223,0.25171831183469184,0.18112452519889916,0.5095833749660499,-0.45586974821167364,0.5049520533456696,0.518028522311577,0.6437138005389167,-105.00472931090816,78.59233892200024,19.820562136988322,0.07425967099985194,0.8488996140343741,0.05901146397258829,0.15082506230045004,0.4327552405266894,0.13543819636261653,-0.5217969327471749,0.5689699461858728,-0.4407688222891348,-0.41561624624192495,0.6432255608296386,-182.5515188748467,23.991673512949045,14.635543647334204,1.390795775861978,1.1922958572210245,0.6205355132344099,0.1644612682850315,0.15907745005453783,0.1493725056941336,-0.5293394524271539,-0.6146034765395421,-0.4809492887729244,-0.3343978434249796,0.627987964460402,29.51544574313919,44.491171394508115,78.87526735652716,1.6564873741264927,1.1031828234355163,1.1086165646339576,-0.0054328211417032715,0.2696556015050907,0.8544211790613838,0.3894015881598254,0.19614028319830845,0.8970488949539113,-0.10877228516176889
0.68,-122.81793589824876,68.0427461157017,178.82619417234775,0.047661429243663116,0.49853215992996724,0.02595708995016543,0.3530360730888662,0.21404557141781597,0.15184787520046836,0.533634747630618,-0.4572765572512743,0.49795951426353446,0.5296393143296919,0.6428084072761783,-104.87827580215814,79.44646032909858,17.738554919858476,0.053144547738709476,0.8417040900384527,0.07794684140824058,0.1204569975362377,0.4404922346472899,0.16916348763381808,-0.5059396978569738,0.5617386568704368,-0.47288912961302715,-0.43274292673182424,0.652257680766806,-183.10511795357402,25.139127937414102,16.679503952202744,1.4331164578343953,1.1648256483975552,0.6330087270819168,0.2817100180332515,0.10344741404593023,0.16466758831815387,-0.5460772560509936,-0.6313749735823005,-0.4731633313605029,-0.330948326653428,0.6540984255057516,31.136819573727422,45.50159708730409,82.05206817108593,1.6153729695661543,1.0821025671848514,1.048659277647854,0.7793481083550169,0.007008664230967774,0.9144645805593902,0.3683017164532215,0.16230022361464924,0.8904189803777827,-0.13675263905677176
0.69,-122.80735764943621,68.56895300371039,178.81919817633312,0.02986566186275089,0.44299218200140544,0.042722657471565485,0.16016572395342282,0.017526386292656432,0.051133959794744714,0.5039296740529382,-0.4711453147309073,0.5061470931896378,0.516864519256743,0.6668721858001322,-104.81764063119964,80.24720963968993,15.144890879237996,0.003472242425481312,0.7947226510845118,0.09998900453084174,0.13731410269045252,0.33738487656012384,0.31604086550091615,-0.5009555507197979,0.5355586857246281,-0.46650237678869294,-0.4497501355830308,0.6622406488683832,-183.67827190743455,26.127861213829906,18.883891744848277,1.546785258230382,1.1729172410408533,0.6966119633519099,0.08147278049592781,0.30983630700163695,0.1352826830268607,-0.5498389263810903,-0.5896413530724439,-0.49458030837206324,-0.30771368374915903,0.662242019355079,32.67897017825719,46.31893455745836,85.25990682907323,1.4884161688012711,1.119407108569001,0.9821045130675566,0.8217026073285575,1.1845059985260449,0.339127130708767,0.37526478697433446,0.13390921627863256,0.8977012598954486,-0.15251791649717214
0.7,-122.75899497441063,69.00598917024222,178.93603150983256,0.020125098858399942,0.3937558830423017,0.06445170946405153,0.2174462962012761,0.12080721017137107,0.3216490672118908,0.50582061644357,-0.4621771244543267,0.5056292399360689,0.5144596916543079,0.6638235426818402,-104.80717201926393,81.01503181511005,11.827235724229372,0.03983899787373961,0.8742100348301928,0.1172829865943765,0.4610020554593046,0.08218631092237366,0.3331636647565081,-0.4987133380424614,0.5248967641279987,-0.4804020844386094,-0.4946280072147033,0.668396795341578,-184.2641162746424,27.062726629025267,21.192173220172524,1.571485712610054,1.1445145106176213,0.6963744806166594,0.1895387420002746,0.02289936224976157,0.11041251428521905,-0.5615859624126917,-0.5776606824317349,-0.5007502686083146,-0.2841837806377867,0.6575238443637769,34.24467578625086,47.058589149810444,88.36581980264394,1.463629941943613,1.0676634025229244,0.966133339055847,1.1668525189070544,0.9533467726110306,0.6900564986210704,0.3403248096247707,0.11960587155238812,0.9124110308881446,-0.16673876661226808
0.71,-122.73661723328205,69.43836467489604,179.07408859362556,0.035711022153111685,0.3904353127605917,0.045621863972261194,0.18013861024188754,0.22474130178936436,0.4325855445040884,0.5197119844816627,-0.4677976252559202,0.4978316735435867,0.5172730333404536,0.6761898762072458,-104.68725911354085,81.73271683158703,7.6813117588541795,0.06783483306248823,0.7339306758756052,0.12613516494311636,0.439800784199435,0.02361731276567369,0.07871121382549634,-0.4902187387250786,0.5229805462459151,-0.4991342126626906,-0.49724425527101135,0.6575216208816657,-184.74961158171482,27.951756226265534,23.513279338903782,1.570024163008748,1.1393750563163523,0.6181018409579345,0.4824913096194176,0.16835996432782013,0.17316815392747503,-0.5544475562966933,-0.5837587803004132,-0.5110124624192013,-0.2855294651686993,0.689248308294335,36.0618400880867,47.93909635285899,91.50839030187223,1.3958050130797621,0.9364198063210988,1.2225139312372895,0.6465118638614507,0.13756065791747993,0.9633916137869868,0.347170548353646,0.08233880753764698,0.9280015127241291,-0.2015497621397322
0.72,-122.77093581064737,69.61923798858021,179.06228575661635,0.030811101974169912,0.36959787366014424,0.05855554115823655,0.2525411705592762,0.2489487436877462,0.3653107292758042,0.4931666780829929,-0.4780054778552168,0.5136121859032423,0.5360227353525269,0.6966259365224728,-104.59103974895514,82.03010078913961,5.66380179579339,0.08182365280984044,0.6912167195081621,0.13182696229118265,0.4809621315007886,0.015270768807812564,0.15948858070770572,-0.5141100640896736,0.513365089810903,-0.49744396989448564,-0.5048717050637499,0.6856113205405531,-184.93267072107687,28.377583679903832,24.63091867247979,1.5618473246893299,1.0963916614558766,0.5500344127580131,0.4381692341617276,0.2765647528185405,0.09972603880873682,-0.5746880053632536,-0.5885134594637483,-0.49464370291170623,-0.27210626283105,0.6799605758840997,37.08949567727339,48.37937282614322,93.08852696253383,1.3715412152228394,0.9101903998298694,1.2171880725367037,0.49115467897672566,0.4824984140886126,1.042407992914451,0.2951861766198396,0.06330214909302627,0.9282169001300745,-0.21536492162980278
0.73,-122.82088914025888,69.8074784250022,179.06110795143374,0.02313892470184793,0.3803958590097152,0.04646836036546645,0.3327636568384514,0.275661206627834,0.3143648547465676,0.5044946036367852,-0.4916301146713207,0.5127888270658794,0.5330186775072994,0.6981992739378708,-104.50697830736314,82.30790469643118,3.6174098899836293,0.07833024776708235,0.6519583476054397,0.12707961461886372,0.5240942543487773,0.024082345504867562,0.23173968142219742,-0.479468152571805,0.4917487859159695,-0.5172219708855214,-0.5272440653705964,0.6639220636846335,-185.11606135658687,28.792121116834924,25.75440749911746,1.563718852667663,1.0667104229440612,0.4797590414346244,0.41291311195078667,0.36527749545561294,0.04085383567017953,-0.5730329241725932,-0.5702026989332932,-0.4929069124027779,-0.26446415849432214,0.6902014201553005,38.13808876291977,48.81590882048929,94.69761904471218,1.324157217158322,0.8931408335604528,1.1694954776807547,0.36221470681228785,0.8328732531990881,1.061338464648001,0.2972619443387422,0.05239369141957245,0.9184202655084194,-0.21024409812677272
0.74,-122.87540830196842,70.18497464717512,178.93908219539983,0.08854844224352468,0.39393574730431274,0.031113534786219314,0.14345204979765092,0.16399601303036668,0.16723074765939594,0.5018969780268879,-0.48997708628107894,0.49552688466480643,0.5121248831073297,0.6943335199625488,-104.38530034851959,82.82499731998846,-0.557837071555851,0.07432452862815546,0.6656874843020739,0.08760069806812479,0.5400901057784855,0.08968949102917143,0.48920221395115004,-0.46103710360799244,0.4705018961175517,-0.5372022971059507,-0.5306754848867647,0.7058573993254921,-185.62830509015507,29.565332430725267,28.11780740706061,1.5981763504516078,1.0139739023455145,0.585164409840521,0.07583996085134875,0.4733464784983164,0.403668494992638,-0.5842085343703844,-0.5723530764079487,-0.4847960742669897,-0.26648639460574813,0.7060254181241576,40.06586187551693,49.56137121074547,97.6704729247197,1.2538222158829073,0.8249948278785675,1.0355589870085236,0.34533729461879603,1.5063818681357677,1.0207487634233856,0.29143036615141726,0.004566525507202166,0.9398609871257545,-0.23072689396042384
0.75,-122.9221412578495,70.61861155432244,179.00064323979626,0.07449712558363596,0.4339929444839969,0.04778356699409796,0.11480931761638034,0.07833209561555504,0.17234361174964125,0.4835391739278013,-0.4682675319956384,0.5128394485351767,0.5152888961610712,0.7177961237095853,-104.18807972649633,83.26144901387586,-0.5709085354379695,0.09152428541464222,0.7438803154701522,0.1339256755827396,0.7410750253123588,0.09381951357450884,0.4467293299413083,-0.4647209245275486,0.482405436933466,-0.5358527222017168,-0.49943208250768906,0.7176928173335414,-186.1248615180233,30.31002915150972,30.555721536215884,1.6723026882588987,1.08642344963108,0.6192309798113996,0.04570116427153194,0.6288495022218014,0.34369226066032604,-0.5946947703453819,-0.5642126894372156,-0.5171207867565873,-0.23304069157585625,0.7161430898175256,41.82144579025096,50.131876229153754,100.60482734454614,1.0975219589163507,0.8840512772835947,1.2465537819342314,0.5472559400460781,1.0002586943388454,0.3367379165660483,0.27134404643375265,-0.01744650986600643,0.929977296622853,-0.2536782824929655
0.76,-122.97834891902527,70.96402985826178,179.03629220863232,0.07120013106388455,0.39707953902165793,0.06437030906073157,0.3331657344190061,0.14326539490778933,0.29337693917298513,0.46982515413102177,-0.4592009139533275,0.5190738130201081,0.5219484571260482,0.7295848189250381,-103.94166494707954,83.57771321943122,-0.7338096665002858,0.1232746661848258,0.607114047652301,0.18372476768018314,0.46327238380589003,0.20136275543641094,0.15753311167847955,-0.4639448784673643,0.4697875042703906,-0.5268382057159571,-0.5209282157751498,0.721276927184099,-186.55264026883003,30.997290639345003,33.17712843964778,1.6770688665774895,1.1029376049315398,0.5690851292326267,0.32731972201760134,0.11257360484965284,0.550109318072472,-0.6214373423197062,-0.551539286664024,-0.5334094205871579,-0.22292865242097737,0.7023561882411532,43.79794928720598,50.88458221873093,103.6142840754768,1.0902064310801014,0.8150073527074456,1.2371848460428783,0.43885209625433963,0.9930770890553681,0.6725971162885772,0.24015084701176187,-0.05602534518655073,0.9407124489161348,-0.2699413268010651
0.77,-123.00504245874895,71.31516667812504,179.07163434826265,0.08623858514740892,0.40252330219988236,0.04766398353621083,0.539261138627009,0.2369458681738191,0.37848858808401675,0.5010161946809427,-0.4603066907157506,0.5151589941246929,0.5101784201634634,0.7268714336823303,-103.75345668078778,83.7991866304306,-0.9335455744853774,0.07718085127082179,0.5195315470135173,0.15582470507006396,0.25897451611345673,0.2979717421535314,0.06506061201632632,-0.47652190207103123,0.46726105397784207,-0.5158668885582257,-0.5295627704192977,0.7350006917008622,-186.93126682356888,31.687795710115328,35.552534720344774,1.543944400164456,1.049512725298865,0.3975467213594959,0.24587917835794973,0.2669234057096531,0.45081821281811657,-0.6164864325307442,-0.5455482395118776,-0.52455398308146,-0.20770098589550323,0.7324587198477653,45.955426721327825,51.50805262646027,106.66789689440434,1.2003501377585941,0.6684276041049977,1.154535069913701,0.30215228263693245,0.42868200014263835,1.3876062240526312,0.23250457260064422,-0.10253354048369935,0.9151645203360018,-0.2872866272144974
0.78,-123.14833494179855,71.62643997030372,179.05389169611527,0.04516600998465771,0.38172184067250386,0.04969723271706583,0.37646785676669625,0.03128959719477839,0.4207869570808224,0.49327871262256107,-0.4530401889708755,0.5131920870833561,0.5079758053466977,0.7524843490148256,-103.48679535742232,83.94358243849108,-1.0786052224437892,0.15586218165655427,0.504023290641687,0.1476170795471632,0.18300542696033037,0.15366964513481243,0.15097436429643055,-0.4856134451613142,0.48123555201197105,-0.5378250796209131,-0.5309652437030822,0.742095681310898,-187.31407149835087,32.38460225069213,37.94410736381912,1.4372712856882268,1.014109525891653,0.2506584850113232,0.1368626638774808,0.43521026177670435,0.34109749293766367,-0.6250063571828692,-0.5447727627075614,-0.5334702416034147,-0.19395657702268887,0.7539503839856635,48.24597781971583,52.128439117275335,109.8269308165107,1.0759658584291174,0.7138855494117713,1.2727690267762197,0.34605315599651215,0.3908405606274163,1.3605954295501568,0.20436981088824313,-0.14015396101371302,0.9415346273610714,-0.26489603179386356
0.79,-123.13381675248517,71.99760285751206,179.09636952311925,0.030120962563665372,0.40876260803940007,0.031946510167102364,0.33984059524041843,0.12664098475278956,0.30996192292113495,0.4884797536671716,-0.48620973554564956,0.522638076289017,0.48370561391672456,0.7722421087509721,-103.20727804988873,84.06116466427328,-1.2323838324557144,0.2232495803586817,0.5203295377887016,0.11342807081696023,0.12979339456150843,0.01284646232183568,0.22984489864214017,-0.46054504702861077,0.4764608018583747,-0.5142781052171268,-0.5406920420744535,0.7561790395845465,-187.3611033014127,33.05498943876715,40.12535653553854,1.4163177440978043,0.9784038695692558,0.16638040894535633,0.3180447870546347,0.17204316189574265,0.3800400553283911,-0.6230912387012741,-0.5266421908604891,-0.5346426658245802,-0.1673558728863751,0.7543395371195871,50.50725543100164,52.687621657916154,112.80441946956022,1.0147037016897293,0.6853475252612328,1.1847690315540114,0.7045184278964376,0.15934273685786726,0.9096384971796687,0.18066425362270627,-0.1433637368791385,0.9184296457821122,-0.2751890676997699
0.8,-123.13787468058901,72.3683539980518,179.1192882565174,0.019043057074257914,0.4243446916712968,0.02064448009754397,0.3292400568566441,0.17993788396110816,0.23091009863983755,0.49643599161681723,-0.4947956281687254,0.504027964814505,0.5067907852945398,0.759826827814583,-102.88202921606015,84.13226478204706,-1.3575684215449426,0.17912599946737912,0.5515959351616746,0.09231730832764584,0.11876360222005361,0.07254490790977934,0.3312462991872014,-0.46627097810295487,0.477779958609852,-0.5309462583142718,-0.5278474391409909,0.7668124253080475,-187.36423135934726,33.75965993655784,42.24973320029358,1.425417880116699,0.954662924528795,0.16479439592156692,0.14706980721912216,0.38597447747963926,0.516083920066033,-0.6231745987468,-0.5268753893182728,-0.5599031383975129,-0.14959356367942045,0.7561821575664562,52.422411837353415,53.00463458268994,112.80256189725037,0.9495792885633201,0.6356778839149392,1.0259437986726028,0.4104763174942701,0.281004308880909,0.75807462866719,0.18378214979118795,-0.17533173174610384,0.9225011968289027,-0.29501968117403343
0.81,-123.07479473423078,72.89195711054596,179.18902630242113,0.013576812861515544,0.40935627574066885,0.046309154071955086,0.010649053668196561,0.20901048154173185,0.01473154480673192,0.46968745325226,-0.48256095220067485,0.5273235673192612,0.5136751870179054,0.7709261024536075,-102.74902959190577,84.12099768717997,-1.432055265179188,0.1947895589142544,0.4070087374045348,0.096712388628763,0.0855205273135746,0.25306537320188205,0.11588425252015552,-0.48846940528057403,0.46073028516424497,-0.5195134574532679,-0.5386864855317526,0.7720598772954597,-187.3582777533933,34.438212072216615,44.377249179576395,1.385832962664813,1.0241889828629307,0.14119725790747414,0.35260023342071395,0.4206941579058294,0.5123645436577731,-0.6362587176101484,-0.5320889769869865,-0.5551255871182778,-0.1361948813413157,0.7779021685028543,54.380207807452315,53.31084570323642,112.81429036354916,0.8236184331695218,0.6254868421389805,0.8979209309513646,0.10950675655323429,0.38575239990285193,0.6444442190822024,0.1490821821530876,-0.18578335054001296,0.9407001419188878,-0.3002709786012143
0.82,-123.00205793255645,73.24774620221152,179.380383978716,0.031322172758828114,0.34818552635459504,0.05195359420991745,0.378705619795767,0.13250576622148671,0.3474856761568987,0.5089792207785703,-0.501458381011042,0.5390835799383396,0.5074112509312487,0.7829492210248108,-102.50536665414123,84.12197458926781,-1.501266689400439,0.2263610855064349,0.45209464698538493,0.07587380119322258,0.39088960294993874,0.28333993274175073,0.12417694156767227,-0.48817217926037615,0.47210022068563307,-0.5326318650522363,-0.5397465572260387,0.7863335238011863,-187.6135500046128,35.117972496651795,46.63703587351111,1.4110350705800125,1.1105363563725448,0.18050345928691547,0.12986832833342446,0.4269124712853185,0.30762658343976823,-0.6295867236489543,-0.5090773557358582,-0.5497443831222305,-0.0998220505046434,0.7677829991500371,56.42772458819538,53.75672241576514,115.43432893804632,0.7207719417656507,0.5398291168584345,1.1275957185481396,0.20528076329181527,0.8022117775979651,1.548021497709568,0.11942286577371554,-0.23457304410730057,0.9031032376939082,-0.3017498308251726
0.83,-122.87397837452338,73.68810366704304,179.49920516036062,0.03736294145607635,0.312579126583902,0.020532814867755978,0.6853737156238021,0.3190449786198804,0.45432653355778096,0.4932459305915635,-0.4869197801654971,0.5201454928284801,0.5027478882213371,0.7843652323298463,-102.24924807208512,84.06557315055859,-1.6287801850280983,0.1960263175788753,0.4342193697002419,0.059299844965124734,0.4108013816919828,0.24418890064872462,0.18013246282240855,-0.49188494207450245,0.4708099583975843,-0.5185424979333445,-0.5096425589313114,0.7806065747949595,-187.60395757628015,35.93728148321007,48.68992290840956,1.282586611618299,1.018680209823593,0.04324224944567724,0.2494027341471102,0.2832304568518818,0.12450085950060692,-0.6304353629525767,-0.5041274130804932,-0.5738465288400035,-0.09554303693547773,0.7749226614859113,58.25119463325375,54.048781543681265,117.86689455306578,0.602318492021189,0.45730182470022357,1.0423852247297287,1.0582054058813501,0.5022712348892794,1.4356942812471967,0.11666734107938033,-0.2614531752551448,0.9092510710832452,-0.29644906839025525
0.84,-122.81467700514438,74.00474637285367,179.6742394855252,0.059821738740988596,0.3013557535318626,0.02972425007801146,0.06583683627757889,0.2554948876176,0.26556811857428725,0.4986557237579458,-0.4873111345626172,0.5239093672028163,0.4882084432668424,0.8181667930594062,-101.99709451447738,84.00189003881839,-1.6119636946936327,0.21165506849185417,0.3514841538490053,0.09831689266989259,0.31163673421458377,0.08757152418603244,0.03687390894573757,-0.4842814763519065,0.4541535720198211,-0.5313256636671243,-0.5089922910950094,0.8156399646079179,-187.5565562380311,36.77109125032214,50.54545363208045,1.1418332367605324,1.0344316581814257,0.2172381762271024,0.3756022956027332,0.07581015745235473,0.28464385512358914,-0.6299529072622144,-0.48404227117859727,-0.5914233765321056,-0.09647311615917861,0.8073904537829093,59.9974883979587,54.3141702569534,120.18331727365405,0.6097848437082972,0.46609097501986213,0.9967159176439169,0.6303264743918107,0.7739428283048898,1.3526298374746983,0.09520087858485762,-0.26990168564605865,0.9104917170169536,-0.30927661509127563
0.85,-122.68900326762063,74.3675826090943,179.82187792878773,0.08115644901378485,0.30731472810443644,0.020234443297394916,0.32010990353729485,0.15915849897121748,0.06410339102332277,0.4740894459731415,-0.4943221229174094,0.5282062545727371,0.4982547692456607,0.7978424340093598,-101.71017180957865,83.85794337682736,-1.5643997058861212,0.21931943611788998,0.4325874927623816,0.07250149673084598,0.14000209823454174,0.22475274276833623,0.4245777103751144,-0.47869658337791343,0.477970624155712,-0.536627299388558,-0.5299416078330071,0.8227135515638129,-187.25118271751765,37.702324271333076,52.37715685503622,1.1180577811584533,0.9915947939494982,0.24087929753232779,0.5298880477982989,0.530764020113723,0.13297282518224668,-0.6252846697126546,-0.482589449662773,-0.5741193960423162,-0.0511599741696646,0.8099774308076514,61.61814624045055,54.49443280119439,122.30708255491805,0.5559743698063875,0.42729413865622856,0.8456152002792533,0.06067790854789998,0.033908303898915824,1.0912911600946256,0.07759796400637,-0.276681302197634,0.9233221909390625,-0.31260197535886547
0.86,-122.57714769276845,74.69835946061457,179.95335338143835,0.11227364913273491,0.3473314022794615,0.009960052133182414,0.045948193654783295,0.09348602024031348,0.044793085049238485,0.4876577095928252,-0.49175668234966174,0.5346753158270299,0.48179354352145176,0.8134089058453837,-101.43437976593658,83.7478058834574,-1.5029509413141426,0.1951455749297037,0.4923607454989291,0.04694041557693282,0.30996400442066196,0.3418367683116827,0.2309187252886774,-0.49348806770939035,0.4809314228974064,-0.5222652769421025,-0.518583390242886,0.8235868097676928,-186.94127723581155,38.50904266712664,54.12872380310867,1.0931598483676161,0.9163262228077019,0.18209257524236502,0.37292371469117386,0.45318306054434293,0.03870972078681351,-0.6298972499006266,-0.5004296840903393,-0.5867199295930453,-0.04397071803180834,0.826149772714383,63.1892664956724,54.61805921619067,124.30375569575182,0.48088689618208963,0.43414585707769954,0.7984412930985226,0.15065576988647492,0.05485229389238683,0.8397006943931804,0.04298680028849765,-0.2998973185765278,0.8796593911444254,-0.3114667797350859
0.87,-122.38033469488362,75.1291596303846,179.69936461423052,0.10336758170405885,0.33640917701290957,0.0389154109139801,0.42728389490821456,0.0740329421793469,0.3555717058522429,0.4653841532068607,-0.49296774348871786,0.5190429198910758,0.4917550739893008,0.8412873122954648,-101.25702651427787,83.61146341365063,-1.4444349083064891,0.16723766386314934,0.27036108302558126,0.016039468454493028,0.2626751307964309,0.20789062703903768,0.03498305320749688,-0.478959748163349,0.47102109025825206,-0.5203534206619443,-0.5147060891285032,0.8306771130422512,-186.66326890320045,39.29826624771358,55.876625499679946,1.0872215423673863,0.8938253917247148,0.24363323481747834,0.5359688824611931,0.5593333694850018,0.21348850512577847,-0.6383387689676194,-0.48255396793754646,-0.5967153152072325,-0.03858671445569916,0.8413063757330402,64.49925116892003,54.75103834303383,126.17608255796617,0.38833888471908856,0.4017059009119488,0.8042122167509242,0.5863095295724915,1.0826358892002188,0.1417508308880395,0.052764120803610245,-0.32491425727274476,0.8784456731737332,-0.3241166733499044
0.88,-122.1964602802904,75.44460104987006,179.30537341234924,0.08057686514026262,0.31168596309264435,0.056576212266954175,0.49890335861337437,0.2744342078043969,0.5107865944564193,0.48682619178686015,-0.5084338074583783,0.5142757065379908,0.5072246250943313,0.827168511096171,-101.07408436235261,83.48961649880353,-1.4372926074808754,0.16391744273347025,0.2350273006118726,0.030889368370230062,0.2889593982518101,0.2585139032377655,0.11447256900087838,-0.4844054551590031,0.484316801268482,-0.5317546422792836,-0.5212256917832193,0.8429021766023955,-186.36302387232456,40.05549035502905,57.610748321231895,1.0661545797521808,0.8742008511357322,0.3180924505462706,0.6934023700622061,0.6768188290627072,0.36528494159031694,-0.6471692599025385,-0.4819632752842064,-0.6088744929156407,-0.020308340904911723,0.8506882099219857,65.87922427547912,54.840709485231734,127.96590033166476,0.3972995393723011,0.3688942147355337,0.8432074764061341,0.6127855740016999,0.7403973269921063,0.21634499366836116,0.02353700721815304,-0.3645637421905981,0.8624410069715702,-0.29313227496470523
0.89,-122.01249361098303,75.7727764765241,179.00022568380274,0.08765594475069802,0.24911744751622444,0.04440863274644262,0.20121628837262828,0.44496294409872494,0.65239700352296,0.4765371488485653,-0.5110886911536975,0.5407360842036484,0.4945527798301328,0.8565398244712259,-100.9228109489416,83.44727364366696,-1.4678702091115596,0.1722399400294607,0.2480089876722436,-0.001493334050781415,0.2654059434189651,0.06630655691995148,0.030739377868531707,-0.4970948290544282,0.49885517915817057,-0.5462119618915305,-0.5130080941283109,0.8413936737948929,-186.01169937753212,40.80578230279486,59.24665947992251,1.06886998460435,0.680902987701825,0.3290184024028858,0.5840527299763789,0.3773550689878583,0.06301746520643615,-0.6140714702918855,-0.4762505068994268,-0.6114709901795072,-0.006069853555388723,0.8359785537889628,67.26575242687115,54.927050304425194,129.74091757029706,0.3588460536048936,0.35241355082424203,0.8744782872172688,0.6400046653938684,0.38170913427651476,0.2757930050713727,0.027547700632987775,-0.35692220630935645,0.8816543138970867,-0.307460978660849
0.9,-121.92034771991298,75.91266638388494,178.89008207357898,0.09041845703056349,0.27125994550347093,0.02933086101220351,0.18880619346638455,0.3356511304962978,0.5086723087530237,0.48123486338185195,-0.5105862742652629,0.5230911445451818,0.47671579075784304,0.8398632590260371,-100.81416761000565,83.37838884108646,-1.4737116046304726,0.21455097602778847,0.23611881477352137,0.00990126940733429,0.20460392744862443,0.06940155670253065,0.1359329353308469,-0.4845457471596768,0.4588981645004354,-0.5283961548737719,-0.5328401403186104,0.8569579160354472,-185.6366023256743,41.176202134963425,59.96013243447437,1.027101736004722,0.6377287127230125,0.3643050329374984,0.47675604959418505,0.37959923328987744,0.10337103216312651,-0.6218299305797728,-0.4735479264807853,-0.61279667270578,0.0060879592998064015,0.8635301655351759,67.93985603190964,54.95617221543459,130.64359696714493,0.3562546895165507,0.3662375484072507,0.8577792156416582,0.3104408795746469,0.2712077045343297,0.5111567857252916,-0.006263408766429485,-0.3806329753784073,0.8579848338560184,-0.30319866567215986
0.91,-121.86790751778977,76.0585591889599,178.78789274824132,0.09037863874206163,0.24378701134369352,0.012960483919537667,0.13691793416005954,0.24784758129205747,0.3337497603553202,0.4851316195469953,-0.5076796822758523,0.5398699030743696,0.4789597392712565,0.8658235906600055,-100.69220336987668,83.31907011283728,-1.4990304402241474,0.2609952991260753,0.27438707696385006,0.022628429342289244,0.15973153197977288,0.04975022180164436,0.27208688906450956,-0.4726198295665367,0.4822404093440917,-0.5334363074354415,-0.5145746654694305,0.8498424773787432,-185.2739606468888,41.529340085871546,60.65023278323921,1.0362409524060936,0.6226174260446687,0.4051378112077119,0.41040395285027215,0.35007728249496006,0.13480529706592498,-0.6229546987691451,-0.466917668860492,-0.6243441535161659,-0.004420972208864366,0.8641462778281837,68.62307368889103,55.00398810515789,131.55703325672806,0.3383575315326767,0.36838730545322407,0.8177235005712105,0.011484197298732724,0.09373279985410578,0.7255904591088023,0.015337029663022896,-0.3793431011332489,0.8615014460592113,-0.3177871558621806
0.92,-121.68313973524494,76.37983128894341,178.55459716870683,0.09256969848046795,0.2611138226698033,-0.005903716100265808,0.0968922482499236,0.0784974324229676,0.0717882414798894,0.48964502975634644,-0.5036885683952778,0.5432149961601719,0.47541596392982377,0.8770368262827978,-100.50759858343883,83.20815548355984,-1.5276946355897418,0.2512082892032427,0.23527006389551894,0.014241081882140483,0.1254349592945771,0.10989653494457127,0.19041175729151064,-0.48500539538237863,0.4753171078273449,-0.5327565164621969,-0.5368800876719706,0.8609967646283878,-184.5546333346417,42.234268433276824,62.051620211335994,0.9700117128528,0.5462256926158534,0.4527608463071493,0.2429824765117457,0.337510799821173,0.20713748229481835,-0.6337184345093546,-0.46004650588742063,-0.6245497154950684,0.035727063600520616,0.8821503090763749,69.81909162258762,54.95840413258396,133.24903552010423,0.2426710098841077,0.4324079688875399,0.7760395667870681,0.39933529505749127,0.3159912668852778,0.49340373363457957,-0.0075766763776076666,-0.3972529199622683,0.8580267034427358,-0.28960260673763916
0.93,-121.57264334991595,76.6339788986062,178.43580412649422,0.08208285374789524,0.2122083058100489,0.0011728633531308875,-0.0155569397917354,0.05736819106823311,0.024246105542982677,0.4780446722891825,-0.5161422130022033,0.5264691463186336,0.49185171531294003,0.876401925059334,-100.3244883950311,83.13015978823623,-1.5807139352873592,0.2232340355259564,0.20692378138353323,0.02975773942321789,0.060701566541279235,0.13431310950651099,0.05234936143185073,-0.486251173296751,0.48629236121835834,-0.5202376341407479,-0.5208218829694474,0.8886725071768437,-183.94830126352653,42.9482273812851,63.31023192245178,0.981048444254538,0.4084923566776501,0.4489364458695627,1.0296503634530414,1.1729362354223511,0.6229332855877392,-0.6266551216425501,-0.47243620643300854,-0.6317513325126091,0.02383998160650288,0.8906068380082847,70.68165711573769,54.81806125338533,134.75526573862226,0.14402493853540302,0.4278225076734396,0.6580747813656381,0.029841681204223328,0.0681143917364245,0.24336528934881063,-0.02155304197315924,-0.4256665609919876,0.8400573495934489,-0.3066031019699277
0.94,-121.4367564413966,76.80976549177994,178.31644277006686,0.09692643436805871,0.1706202826152283,0.01334711288792593,0.024219671341334563,0.01979637918586702,0.1247557582807381,0.48925839489044165,-0.49962912248021984,0.535153709591296,0.49107356175490446,0.886351696584744,-100.19884257553001,83.12607214528781,-1.5810065349369113,0.15304433307537726,0.22297536149664296,0.08367087102479902,0.0044498952742780045,0.11170884629045118,0.0886313160984741,-0.4911066885137438,0.477522331209633,-0.5120417648341794,-0.5059221972224459,0.8840560171815339,-182.88766129806015,43.73805440074729,64.5008682340354,0.9769879084990656,0.3905599547099425,0.7124528728303847,1.3762497494319852,0.30239905737615935,0.643852593307168,-0.6135783641927403,-0.46144096360224063,-0.6386682799308945,0.054987822236525805,0.8869856547008074,71.32122465851299,54.54970785318042,135.9956447386773,0.13783120945222416,0.4961434611015922,0.5366119110925665,0.6556455362019497,0.6493471884223166,0.04447593551575668,-0.029150441162603163,-0.4443062007077356,0.8315377767921949,-0.2874338407400292
0.95,-121.31939078987774,76.99570838426627,178.1828062434252,0.0831387622409894,0.1275083549161065,0.01732010235304649,0.48006698034791084,0.1770256940653287,0.4246799617074923,0.4769638772105887,-0.5195984688068519,0.5286550889172793,0.4892062662209771,0.9062216623786385,-100.13707783419085,83.04862580603614,-3.4765255298499036,0.12047815686523644,0.20858934131968762,0.036945103336412,0.3688941070978412,0.17704943960011554,0.4491036940424435,-0.4692454715118527,0.4832211374884692,-0.5201857183312198,-0.5178314299802672,0.9060475816095835,-182.2532600236108,44.20580074704444,65.06504450647584,0.9858574948713797,0.3469883630149981,0.4639971621075854,0.2573629776033805,1.3561265199568036,0.5538146138100225,-0.608832927000835,-0.45746400353229694,-0.6411676253235242,0.039800685482008366,0.8905966237138095,71.938999446085,54.23394094693347,137.18233687946895,0.13309958300977448,0.5536272430303765,0.5354619067826687,0.7679022830347078,1.014050749664504,0.38961502141851756,-0.027511412886604823,-0.44598919437489065,0.8142194434028586,-0.30314893501533846
0.96,-121.19389759105451,77.05550023995832,178.00722636919383,0.10920323789074518,0.060955783457214044,0.008028817176150602,0.12442891283626636,0.1771335945950351,0.39147373627462057,0.470402614961692,-0.49596049469904807,0.5396152804401161,0.48277544916586645,0.9081470431546809,-100.00503635581728,82.99514591827119,-4.9164498375356045,0.1880579745940012,0.09052667668180571,0.03888736591794791,0.013678642128753277,0.11048567836716744,0.18455626810043568,-0.44882455732900184,0.46326923179353113,-0.5420540634836868,-0.5170830826477157,0.942466517794804,-181.75764698421855,44.707500931654764,66.36678169447981,1.0408389117043548,0.42005866457496294,0.0340229665173345,0.17213295419085153,1.1879133116013498,0.3912512086524816,-0.6190518565210859,-0.44971186416421227,-0.6387103754556743,0.07691608738699801,0.9230905059443623,72.44917035041956,53.79219727604906,138.30157406092087,0.11733759212680467,0.5539161357267767,0.49434891635044215,0.5813045436287074,0.9552242640660003,1.0782473986683059,-0.049557723012954795,-0.4709975989034364,0.8356579245981121,-0.29190628378038264
0.97,-121.05352831421136,77.12663791827666,177.9503036259812,0.05731180575002852,0.055641739156957255,0.011787910026683014,0.16159215766378474,-0.0064703280897627094,0.2431334211001287,0.4530509277692039,-0.5214812311629472,0.5283767839159149,0.4769532837696668,0.9133812558432559,-99.85900042721147,83.01274646077948,-6.160748418149381,0.25492221597625375,0.09139747481677517,0.09427763964817673,0.1089911193058785,0.17803000177643866,-0.00021339211039468059,-0.468952863880872,0.4641269000204639,-0.5514051302620498,-0.5428665668237894,0.9125966661923585,-181.36800709550434,44.942213237397866,67.94500163861295,1.0037519645498418,0.42270708320890543,0.09049231119062878,0.8440342201730486,0.8486666785453344,0.4682506088674295,-0.6036226377944595,-0.4341882878352035,-0.6734438906855308,0.0953637904841564,0.9178860927739068,73.0585246415618,53.45299277923001,139.56377996685666,0.13356158222551365,0.5764229914865951,0.588371555498884,0.1098752976406767,0.13103336519851602,0.791208779925306,-0.041788538775884655,-0.46812026460192424,0.8411578584941479,-0.2735623452493345
0.98,-121.01656682096112,77.19519977069565,177.92949383646933,0.07817397361354417,0.06609629687790683,0.011686254011106696,0.01634499969163671,0.01339904103452155,0.1448903790003041,0.4692662590920237,-0.5108185385728948,0.5313691831151988,0.4852621473313957,0.9176813321485564,-99.75884997411669,82.99581102825054,-7.929462336211482,0.2294766846035285,0.11653639343248437,0.07538956923767406,0.4081823576121586,0.2138741634221172,0.1850356736969738,-0.4464776814929291,0.4415045795187566,-0.5459394503637781,-0.5521180807690648,0.9234109387443624,-180.86360794844478,45.1978778186934,69.49138696223108,1.050730810023048,0.40351238086616326,0.1185293324606597,0.5532989257693589,0.7122545571645654,0.6209384045456393,-0.5906007555772653,-0.410843475162834,-0.6786123272626176,0.08055695187371516,0.9254452240791393,73.56079267617964,53.00789220189951,140.62570897862676,0.06697636611567709,0.606806290273831,0.44703815857344853,0.43429330765547836,1.0458685022102336,0.45407675515465384,-0.07657308188051654,-0.4777841669532182,0.8330284473522113,-0.28666257139434353
0.99,-120.93081749917013,77.191576479175,177.94654143906158,0.06781420711395725,0.01099780933728396,0.005849946020940241,0.14010040191902695,0.19706592031231174,0.1969544900102248,0.4554795682794266,-0.48251120665379776,0.5379644920690688,0.48414807416430344,0.9374045467811539,-99.63897086499945,83.06519043796864,-8.801472026733874,0.16621454389345414,0.022455853535617794,0.06974279144616127,0.2619306462069961,0.4218072901676443,0.1699115754616032,-0.4634357665167615,0.4643427424200699,-0.5346335178986957,-0.5414261882738431,0.9280448383489925,-180.1275934661195,45.56045082518929,70.96514713558301,1.0736888228625012,0.3960797550184618,0.19099934169845237,0.5059747673977324,0.5711567532866311,0.503703282191566,-0.5672982910905363,-0.42496362897035267,-0.6583159153810446,0.09172957047719466,0.9370630488505515,73.56288260584914,52.44964594432035,141.33849049188674,0.05246978612039843,0.5998516100115829,0.4215223050965917,0.4371300837996465,0.8595038360692635,0.24710081836366501,-0.040719456899084905,-0.5011609159902526,0.8195198507370779,-0.285691596375276
1.0,-120.82438813821528,77.20604625832817,177.80085312903242,0.1144276638575924,-0.0003080278137582333,0.030211111796135615,0.11571711195800116,0.03096006590766744,0.3273897232933267,0.4706969515583498,-0.5056060019210602,0.5200164439817838,0.4831584080352925,0.9484982169134532,-99.5431627165051,83.11375296273013,-8.796883365169005,0.16292953526097875,0.06367147698562071,0.039364791065289305,0.2682801541344396,0.2516897888937439,0.17058671164926714,-0.4624727690157711,0.46110994092291485,-0.5385241197746086,-0.5390824251751256,0.9514293174341794,-179.37409932374905,45.94569667026398,72.42935433785571,1.0899341261738316,0.35358774793764025,0.23667857277523913,0.43276956971421066,0.4860472435642725,0.41059584711337443,-0.5798923434383466,-0.395586261907496,-0.6964344480198844,0.13377936285036243,0.9560825754531431,73.57290197461475,51.883799236812706,142.05714193163215,0.07822272813022768,0.6138864935053865,0.4261505238012094,0.47788727824057786,0.6542500223402758,0.04053446891159293,-0.04667595483986755,-0.48555450737485223,0.8209547251591212,-0.26010908119520476
1.01,-120.64069461515776,77.17699183572331,177.68948412895364,0.11204942420305403,0.009322814357243595,0.011943288395086835,0.09560286334952248,0.14280643679696733,0.2846113922638523,0.45334386116898284,-0.5059700862013286,0.5294987577696991,0.4695267050880282,0.9732576306110724,-99.42309887774799,83.19506774319592,-8.80641394698624,0.14125401471867483,0.0624881164933073,0.04902590706721391,0.2806023882382368,0.08300301248439766,0.16762083114105733,-0.46350364864125126,0.45634338026934146,-0.5365585815964901,-0.5315903809516099,0.9740399438838101,-178.8624272129065,46.36970112616296,73.8047383692003,1.0063743219407943,0.2976190304229288,0.3292802736222293,0.3092295852803205,0.1589254879392235,0.38751671574390945,-0.5815041406623376,-0.414004420069264,-0.6884041597782637,0.1401699518820402,0.9494387544964704,73.54349450662589,51.6264896960476,142.38057975559502,0.07169917985795662,0.5428245799256516,0.32805314033829636,0.0056449133287714455,0.5691343147240641,0.821493301776998,-0.0650151187401824,-0.5150904062736752,0.8170703193973127,-0.2806563700683761
1.02,-120.44249021818418,77.10727491781316,177.5731344222026,0.12094551222319934,0.020471183518399716,-0.0025738724570311252,0.06223056805126282,0.2386100008316587,0.24435248481102723,0.46760094409047503,-0.5188910153074524,0.5190057106403766,0.4799005384048484,0.9812706474306502,-99.39106618167679,83.26018143206615,-8.917079538390349,0.09898000663585277,0.07446493505372798,0.053156548170353306,0.0887247126731875,0.028666443134437933,0.10277884408309988,-0.451754157770373,0.4478641152170977,-0.5754743570927772,-0.5405749185099075,0.9659481809118478,-178.10843422802213,46.685112479812695,75.19502585179755,0.9781844118088958,0.3313449334500637,0.09034421203733213,0.04378247683250378,0.8197682163891117,0.9575682812020818,-0.579189403580523,-0.3947706467512106,-0.7260302663341669,0.13489022754527946,0.9757192157406696,73.38752533448275,51.08868652008564,142.80754871837308,0.12115591872868804,0.5068719880147009,0.29949771680437276,0.32958856612564646,0.5292456200350378,0.8448320188540552,-0.05754514038100109,-0.5121629287806417,0.8177866937378996,-0.2670038626538209
1.03,-120.29588739314832,77.10776429015299,177.49592085170352,0.11982645011251018,0.009603429055750758,0.007560053209584226,0.05296179295662324,0.17158055155537924,0.10896034888517636,0.47172455085367226,-0.515170429725417,0.5358124542813375,0.48802191089144686,0.9830465690764335,-99.3849678471077,83.31654144811388,-8.908062444571005,0.13228445984651296,0.021240054724740536,0.06449348310728849,0.012921721918383939,0.17049493282619319,0.02042940750061724,-0.434739355670759,0.45478523001501747,-0.5411796865149612,-0.5412523624450081,0.9935350704505466,-177.69296863487278,46.858970829353325,76.55912700043251,0.94456892396183,0.34092205929358294,0.09467856106796531,0.3123713490183025,0.37396703346992594,0.5733067297535162,-0.5775793905213373,-0.3793937969844697,-0.7045513325704499,0.14134436688347496,0.9770458740649091,73.23377397124739,50.556983912886984,143.23597337715177,0.1867094030037086,0.5164830431324792,0.2544735875595412,0.6379587420442094,0.5245774201716166,0.8696686249763818,-0.04362347626896175,-0.49617721310109714,0.8188476492117637,-0.27095103252370323
1.04,-120.11757631058374,77.10734002337873,177.44067805905726,0.13152513356465814,0.00022707569902356492,0.02620785161407027,0.05251926224899156,0.08187764979352434,0.12807979873388126,0.4663578494631777,-0.5097991555260317,0.5377077414686184,0.48307086616289224,0.9921381529451835,-99.32750468328773,83.38711494273434,-9.056117724064372,0.1645344336473212,0.07478800389353214,0.048023564992811234,0.14911456413532692,0.330921522940651,0.2518280243603508,-0.46203352316060875,0.4296369831381629,-0.5537841492586323,-0.54746093415706,0.996237346113716,-177.1794373379205,47.007425980919756,78.04620072656701,0.9668859145113453,0.3888768107044775,0.14855735533000547,1.022050565063497,0.9841427593800066,0.3829711992242846,-0.5604996536083399,-0.37429748420741954,-0.7151492865438442,0.15132538838038706,1.0050333251573553,72.8164370826359,50.12075333489239,143.5080753623807,0.25486519470393704,0.4659024275606235,0.17538798824793267,0.40500956666488386,0.5618231736545009,0.8159352608127551,-0.06223748721742836,-0.5062462152667324,0.8049232532960459,-0.2678292355526323
1.05,-120.01217817228749,77.12342157026377,177.44583216941112,0.09866141868150075,0.02288453653678735,0.019403363791713937,0.09744859669496057,0.19230647516221677,0.09371007382363486,0.45983818417890726,-0.5193566821490634,0.5463870792549209,0.5051736330885457,0.9883154632157989,-99.24378026644472,83.48940348300445,-9.091052491985462,0.15039755027254537,0.13320130798895288,0.034099158114766964,0.03905030955059548,0.08574534530788887,0.40900267017222725,-0.4509677609427051,0.46306186513336733,-0.5575877246998643,-0.5392291982942687,1.0014435746244315,-176.4201981786808,47.30614183832014,79.48746249732656,0.9766686455902465,0.3167832030146072,0.29566739353975574,0.3258211248240416,0.5181050694459554,0.06682040719971023,-0.5669502841245438,-0.37754392184581714,-0.7221208959953364,0.18060741320974102,1.0036485029203486,72.1954668648309,49.64965457758591,143.54948963677037,0.2952068518722591,0.45017080446735847,0.1667307569150848,0.7818840633162927,0.4877447109680768,0.1919094950520935,-0.0336448256546781,-0.519962604789166,0.8211928375489589,-0.2462913716394537
1.06,-119.97131918473339,77.06541719908252,177.37868046718387,0.08237117397819953,0.10482217398542386,0.015161610793479743,0.02450076475871489,0.11366718913426797,0.25003045644264604,0.48708654079286234,-0.5116455703322365,0.5349132358079295,0.49663429673106874,1.0191205053329047,-99.25130281166885,83.69292568097008,-9.213097296338816,0.03018657812601785,0.0362852936583903,0.1101081392223644,0.12093627299808331,0.03318089446852633,0.27219380005459415,-0.45519250271488454,0.4619601610404411,-0.5445360860113345,-0.559355401545838,1.0229573388159914,-175.55861080777657,47.69868859650608,80.80629841781438,1.0216747190718483,0.16712462605727946,0.3659101891204461,0.59456733399242,0.471113841123131,0.443714496178395,-0.5465102889992134,-0.3586745310630973,-0.7397092782735675,0.15970683600040664,1.0133803610766252,71.50320717611146,49.25110557959478,143.58743015275326,0.31760488329629477,0.35560787439716146,0.039365238313742314,0.37553698215445225,0.43366709700628686,0.020609887951972265,-0.04262296853056891,-0.5008227275905207,0.8360029855001011,-0.2375915115522577
1.07,-119.87872253151211,76.99936586821924,177.37960550786474,0.061224450388171626,0.10141602464748348,-0.007547590944262934,0.16724084476002465,0.04698617304809185,0.015466614528693337,0.4507961356115393,-0.486622241080156,0.5198543891539448,0.4853157661908716,1.0178735270257384,-99.32262022776341,83.72818277408895,-9.338568857189875,0.05525990070241175,-0.01012175153082977,0.10236466212229198,0.05777979968772035,0.1585914719559604,0.2003556865955979,-0.46096962287625975,0.4266819150692925,-0.5537417119213216,-0.5418879655642771,1.0336792696053148,-174.61337365480267,48.00719212265964,82.18118482859504,1.1135770965696332,0.22087140296225835,0.04117205134714469,0.9775585824714205,0.7123511808874217,0.2634361419671509,-0.539065645724425,-0.331050840250009,-0.7644861021355932,0.193318018031732,1.0333897765250792,70.55374814238716,48.88909417789799,143.31859996502024,0.39597867843220264,0.34728127503021505,0.050776959017616106,0.9733751333281304,0.33882997302633,0.41353024770254626,-0.039814233266187486,-0.48318308342069183,0.835232050363679,-0.2409152173034992
1.08,-119.80990909424001,76.96182276742475,177.34412804853258,0.08296239305605767,0.07929312879644831,-0.002120060476874043,0.09245690246424804,0.04939611668248241,0.02428185834908299,0.48729002623502565,-0.5006891680885317,0.5206344593197408,0.4785553863625305,1.0273285036839588,-99.34299410690377,83.81577569168213,-9.398009688270323,0.05870465329090441,0.0028676323508502917,0.08959452113771328,0.039608511548515205,0.16528139758415913,0.10992927984996417,-0.4582863379476044,0.44776506827328094,-0.5667208763241984,-0.5488555853585233,1.0270867433062527,-174.2825407148426,48.02779618610141,82.93390824767513,1.1276370104484335,0.2353969971907806,0.05556208689975981,1.1300271739371661,0.7431378288450385,0.2523037964404106,-0.5200960805790747,-0.34882047563180013,-0.7630977880439782,0.1923392300017039,1.0336920364040514,70.0715219133629,48.697299084615416,143.19510298174214,0.3945424412298942,0.3789538378954734,0.09184187998438617,1.0112035661131562,0.2395781727658649,0.2509283598123309,-0.01269186761608956,-0.4865048333611463,0.844275598476974,-0.2503837589323367
1.09,-119.75959074519596,76.94903450991396,177.30848119380732,0.09434726682817797,0.07302675458335295,0.0067603199015179504,0.01631206033757389,0.057249772645444445,0.08566892842227906,0.45161852833600374,-0.5085353481397044,0.529863009037587,0.47679377153910135,1.028910177122587,-99.3115051813422,83.87302175754981,-9.415087878915635,0.05285242549114851,0.03835687722063985,0.06888399521349442,-0.015907575332374323,0.17392573696082023,0.07333262474185631,-0.4449706168296795,0.4446260470222813,-0.5364929514047247,-0.5508112568086027,1.0349784126722938,-173.92628443721108,48.034865658117006,83.68039340815263,1.120691212500045,0.2411939902893511,0.06319791006919612,1.2908057758913605,0.7410074112162054,0.26202437809535273,-0.5563679326201396,-0.33269888306283313,-0.7551890543408486,0.1838026325184884,1.0246283019328197,69.54148382437785,48.501671102448704,143.0656932176677,0.44276608735124606,0.39537825937381993,0.15629580852194053,1.0659747182556853,0.10526011403979446,0.10997510259559148,-0.037891755897255436,-0.483955583958964,0.8407729654193794,-0.26717715681335374
1.1,-119.63393652739887,76.87683360043174,177.25334702334274,0.06492725656676465,0.045876669289816006,0.0025747002300727188,-0.00018354506308140145,-0.012878333039573111,0.143153644675292,0.4816073041885982,-0.5117036689928504,0.5350654347249698,0.5107715566080562,1.0321041857459883,-99.37684098330894,83.99806971715972,-9.561084500874363,0.003632030436317716,0.0734379576348157,0.05577866860010388,0.1421464973715543,0.03429655062051545,0.05469922951152679,-0.44535203338200463,0.43461183897563055,-0.5418862460610473,-0.542578820650689,1.049638715136171,-172.91048762255517,48.30017363409693,85.12454265748418,1.1644263813573184,0.16167100106836993,0.07636485852213412,0.8136301414127206,0.40511968987456676,0.4696118638700485,-0.5416652619581571,-0.3297569314336701,-0.770057659618485,0.210524199461717,1.0404349594277638,68.32259212271374,48.07563790560843,142.73854755440354,0.5462699398855798,0.35782948637748935,0.09462325902244519,0.6906386048034477,0.41032138925283285,0.33993171669310474,-0.011964400394495447,-0.47969357236996063,0.8272113234187328,-0.25862054072018414
1.11,-119.57875767001231,76.81253033558392,177.1856534620693,0.04677788800027844,0.038770083392280795,0.009880793858637547,0.23628683534308256,0.08220815096491207,0.20916821201731967,0.47424329489543426,-0.5158798934319372,0.5420401508405863,0.4794462177013963,1.0659367833713036,-99.48001921012607,84.0822834859452,-9.658804929846939,0.02623305588297342,0.05264870070681373,0.06970369409849649,0.192964914220845,0.051890085119798784,0.24337771962470728,-0.4463319338450288,0.4254437465392621,-0.5349263530857951,-0.5498604422083148,1.0448110052432713,-171.88190210814736,48.556329685023044,86.56205061210058,1.250781674358236,0.11812944556660691,0.12376699692998461,0.3481099226571732,0.04046681074160077,0.6697423700642218,-0.5083238174565108,-0.30831777403051763,-0.7708925224632022,0.22010510185407167,1.0477316796022054,66.71160305307102,47.699995340449036,142.13371455481843,0.6320941047719201,0.34032286572571463,0.06941229962843151,0.8165557860217759,0.23934173620615332,0.1997526387747406,0.018961002083225292,-0.47759256779336096,0.839723547165843,-0.23497632279401431
