0.01,-136.82,77.44,168.82,0.15,0.36,0.01,0.42,0.24,1.13,-108.01,83.47,175.77,0.24,0.26,0.08,0.7,0.31,0.8,-158.76,2.65,5.64,0.29,0.15,0.01,0.67,0.44,0.38,-131.52,8.93,12.74,-0.11,0.14,0.04,-0.0,0.01,-0.1
0.02,-136.94,76.41,169.6,-0.03,0.49,-0.03,1.08,0.44,0.83,-107.94,83.04,176.7,0.33,0.44,-0.05,1.06,0.47,0.84,-158.74,2.54,5.53,0.07,0.26,0.13,0.66,0.58,0.73,-131.35,9.22,12.83,-0.1,0.2,-0.12,0.34,0.12,0.12
0.03,-136.76,75.36,170.39,0.13,0.59,0.04,1.39,0.33,0.67,-108.0,82.66,178.06,0.33,0.43,0.12,1.54,0.3,0.66,-158.64,2.56,5.37,0.0,0.05,0.12,0.7,0.6,1.29,-131.27,9.23,12.8,0.04,0.11,-0.06,0.55,-0.07,0.22
0.04,-136.43,74.12,171.31,0.08,1.04,-0.12,1.76,0.4,0.62,-107.75,82.18,179.08,0.1,0.57,0.15,2.17,0.29,0.76,-158.53,2.96,5.19,0.05,0.12,0.1,0.69,0.6,1.8,-131.46,8.93,13.04,-0.04,0.16,0.12,0.38,-0.04,0.22
0.05,-136.37,72.86,172.0,0.29,1.15,0.13,1.97,0.57,0.37,-108.03,81.43,180.49,0.33,0.89,0.09,2.54,0.3,0.65,-158.13,2.89,5.01,0.22,0.16,0.13,0.75,0.83,2.05,-131.32,9.15,12.76,-0.12,0.16,-0.04,0.73,0.21,0.38
0.06,-136.13,71.46,172.92,0.26,1.41,0.14,2.57,0.29,0.47,-107.83,80.83,181.78,0.15,1.14,0.05,3.03,0.11,0.57,-157.87,2.66,4.52,0.28,0.26,0.36,0.8,0.85,2.56,-131.2,9.04,13.11,0.05,0.04,0.07,0.88,0.16,0.73
0.07,-136.21,70.13,173.63,0.23,1.42,0.24,2.54,0.47,0.45,-107.64,80.06,183.28,0.31,1.01,0.03,3.31,0.04,0.48,-157.35,2.58,4.55,0.27,0.09,0.38,0.88,0.78,2.93,-131.19,9.14,13.16,0.1,0.12,0.31,0.71,0.15,1.01
0.08,-136.04,68.49,174.06,0.27,1.68,-0.05,2.68,0.25,0.4,-107.74,78.79,184.9,0.14,1.26,0.03,3.6,0.22,0.5,-157.1,2.51,4.37,0.11,-0.02,0.28,1.02,0.97,3.57,-131.14,9.09,13.01,0.06,0.06,0.18,0.97,0.21,1.13
0.09,-136.08,66.92,174.93,0.32,1.87,0.16,2.61,0.45,0.29,-107.53,77.67,186.5,0.1,1.43,0.11,3.64,0.41,0.68,-156.6,2.54,3.81,0.13,0.06,0.62,0.72,0.74,3.73,-130.73,8.99,13.04,0.09,0.14,0.33,0.95,0.19,1.48
0.1,-135.87,65.28,175.72,0.33,1.66,0.01,2.52,0.42,0.59,-107.15,76.02,188.29,0.08,1.52,0.13,3.93,0.07,0.55,-156.29,2.26,3.46,0.28,0.07,0.4,0.86,0.54,3.84,-130.51,9.02,12.56,0.03,0.07,0.11,0.85,-0.0,2.0
0.11,-135.96,64.36,175.7,0.21,1.85,0.1,2.52,0.42,0.56,-107.16,74.89,189.18,0.22,1.69,0.08,3.85,0.06,0.42,-155.81,1.93,3.36,0.1,-0.08,0.53,0.76,0.74,3.82,-130.37,9.01,12.56,0.06,0.04,0.26,1.01,0.02,2.31
0.12,-135.91,63.52,176.19,0.27,1.9,0.28,2.44,0.34,0.77,-106.98,74.26,190.14,0.04,1.77,-0.06,3.58,0.29,0.59,-155.53,2.07,3.41,0.28,0.11,0.45,0.75,0.59,3.94,-130.33,9.08,12.42,0.05,0.09,0.22,1.16,0.02,2.37
0.13,-135.95,61.56,176.63,0.56,1.94,0.03,1.97,0.4,0.89,-107.11,72.31,191.63,0.18,1.84,0.05,3.7,0.12,0.6,-155.12,1.92,2.71,0.34,0.07,0.35,0.52,0.65,3.86,-130.01,8.85,12.28,-0.03,-0.0,0.18,0.84,0.03,2.84
0.14,-136.05,59.54,177.28,0.34,1.7,0.12,1.76,0.27,1.14,-106.48,70.55,193.29,0.14,1.87,0.02,3.41,0.26,0.5,-154.41,1.5,2.33,0.29,-0.04,0.38,0.61,0.74,3.76,-129.55,9.06,12.05,0.17,0.02,0.3,0.89,0.15,3.11
0.15,-136.05,57.73,177.64,0.32,1.63,-0.09,1.64,0.56,1.28,-106.5,68.2,194.54,0.22,2.07,-0.14,2.94,0.2,0.51,-153.83,1.2,2.28,0.25,-0.01,0.47,0.52,0.69,3.59,-129.1,8.95,11.84,-0.01,0.06,0.35,0.88,0.16,3.31
0.16,-136.03,55.7,178.0,0.23,1.52,-0.0,1.39,0.58,1.4,-106.1,66.01,195.97,0.08,2.13,0.15,2.64,0.37,0.35,-153.43,1.2,1.8,0.26,0.25,0.43,0.3,0.76,3.32,-128.66,9.03,11.4,0.26,-0.05,0.52,0.72,0.32,3.45
0.17,-136.09,54.32,178.53,0.23,1.51,0.15,1.0,0.59,1.56,-105.71,63.62,197.21,0.06,2.09,0.03,2.3,0.22,0.58,-152.62,0.94,1.48,0.42,0.16,0.68,0.62,0.69,3.18,-128.0,9.05,11.05,0.15,-0.17,0.46,0.57,0.19,3.57
0.18,-136.26,52.5,178.67,0.3,1.51,0.07,0.67,0.58,1.68,-105.23,61.15,198.04,0.1,1.95,-0.09,1.92,0.37,0.38,-152.11,0.83,1.42,0.33,0.31,0.53,0.67,0.63,2.66,-127.42,9.28,10.8,0.24,0.03,0.42,0.45,0.27,3.66
0.19,-136.36,50.79,178.66,0.25,1.11,0.05,0.75,0.62,1.88,-104.97,59.12,199.09,-0.02,1.99,-0.01,1.29,0.4,0.62,-151.88,0.88,1.18,0.14,0.22,0.48,0.45,0.52,2.17,-127.15,9.35,10.3,0.11,0.24,0.28,0.42,0.23,3.57
0.2,-136.24,49.37,178.88,0.24,0.92,0.12,0.6,0.62,1.88,-104.58,56.64,199.56,0.24,1.75,0.08,1.05,0.44,0.55,-151.24,1.04,1.16,0.29,0.38,0.55,0.63,0.57,1.93,-126.35,9.64,9.93,0.27,0.21,0.4,0.45,0.22,3.26
0.21,-136.34,48.24,178.92,0.38,0.99,0.21,0.55,0.65,1.67,-103.82,54.42,199.9,0.13,1.68,0.02,0.79,0.53,0.28,-150.56,1.08,1.17,0.19,0.33,0.27,0.55,0.51,1.54,-125.94,10.06,9.7,0.34,0.29,0.39,0.33,0.47,3.02
0.22,-136.35,47.85,178.72,0.18,0.84,0.07,0.55,0.56,1.72,-103.61,53.4,200.05,0.05,1.61,0.01,0.9,0.37,0.45,-150.48,1.32,1.29,0.16,0.56,0.36,0.58,0.64,1.61,-125.83,10.35,9.58,0.13,0.14,0.38,0.3,0.29,2.82
0.23,-136.75,47.19,178.69,0.27,0.75,0.0,0.53,0.44,1.65,-103.27,52.37,200.29,0.18,1.58,0.07,0.58,0.47,0.47,-150.16,1.39,1.37,0.23,0.37,0.38,0.66,0.68,1.37,-125.55,10.41,9.39,0.06,0.27,0.41,0.47,0.37,2.54
0.24,-136.56,46.25,178.8,0.14,0.72,0.29,0.51,0.61,1.51,-102.96,50.61,200.27,0.02,1.56,-0.03,0.55,0.53,0.42,-149.98,2.03,1.65,0.25,0.43,0.36,0.63,0.57,1.19,-125.18,10.88,9.1,0.3,0.24,0.21,0.27,0.33,2.44
0.25,-136.5,45.84,178.57,0.11,0.56,-0.06,0.69,0.6,1.49,-102.41,48.79,200.3,0.06,1.26,0.12,0.5,0.52,0.37,-149.59,2.5,2.03,0.17,0.53,0.17,0.6,0.57,0.95,-124.79,11.33,8.91,0.15,0.35,0.05,0.27,0.38,1.92
0.26,-137.02,45.17,178.46,0.21,0.48,0.12,0.76,0.64,1.33,-101.86,47.11,200.22,0.07,1.23,0.03,0.49,0.31,0.34,-149.47,3.22,2.59,0.22,0.4,0.28,0.59,0.6,0.96,-124.47,11.88,8.51,0.1,0.39,0.37,0.6,0.33,1.52
0.27,-137.13,44.93,178.33,0.23,0.45,-0.07,0.95,0.6,1.23,-101.39,45.56,200.26,0.29,0.98,0.02,0.64,0.55,0.45,-148.77,3.77,3.03,0.35,0.53,0.21,0.59,0.6,0.85,-124.19,12.66,8.6,0.11,0.49,0.3,0.29,0.39,1.19
0.28,-137.49,44.79,178.23,0.19,0.25,0.18,0.83,0.77,1.02,-101.05,44.39,200.01,0.22,0.84,-0.01,0.59,0.5,0.61,-148.67,4.58,3.39,0.42,0.56,0.13,0.37,0.36,1.21,-124.03,13.32,8.43,0.1,0.48,0.15,0.35,0.19,1.01
0.29,-137.89,45.0,177.91,0.32,0.31,0.28,1.36,0.63,1.09,-100.76,43.01,199.79,0.03,0.71,-0.09,0.92,0.66,0.58,-148.15,5.54,4.3,0.33,0.54,0.05,0.63,0.3,1.27,-123.63,14.08,8.43,0.12,0.62,0.21,0.35,0.27,0.59
0.3,-138.22,45.17,177.82,0.22,0.2,0.13,1.52,0.74,0.93,-100.51,42.13,199.62,0.05,0.65,-0.11,1.25,0.62,0.72,-147.96,6.5,4.8,0.49,0.5,0.3,0.4,0.25,1.47,-123.72,14.92,8.5,0.33,0.73,0.15,0.75,0.32,0.39
0.31,-138.55,45.37,177.45,0.2,0.01,-0.05,1.63,0.83,0.82,-100.23,41.21,199.52,0.25,0.54,0.1,1.48,0.47,0.61,-147.55,7.23,5.26,0.51,0.52,0.11,0.48,0.24,1.73,-123.78,15.69,8.56,-0.09,0.76,0.11,0.46,0.25,0.41
0.32,-138.91,45.78,177.44,0.21,0.25,0.04,1.66,0.91,0.87,-100.16,40.49,199.72,0.29,0.41,0.02,1.58,0.57,0.72,-147.39,7.94,5.77,0.14,0.61,0.1,0.36,0.16,2.03,-123.48,16.45,8.57,0.09,0.6,0.13,0.58,0.39,0.71
0.33,-139.15,45.87,177.6,0.15,0.37,0.15,2.05,0.7,0.8,-99.99,40.11,199.72,0.04,0.51,-0.09,1.56,0.81,0.94,-147.06,8.49,5.86,0.3,0.5,0.09,0.59,0.06,2.42,-123.4,17.0,8.67,0.08,0.86,-0.08,0.62,0.37,0.73
0.34,-139.16,46.06,177.58,0.16,0.0,0.15,1.9,1.04,1.0,-100.06,39.9,199.45,0.31,0.65,-0.16,2.04,0.64,1.01,-147.03,8.74,6.16,0.39,0.46,0.23,0.64,0.15,2.21,-123.37,17.49,8.7,0.16,0.49,0.01,0.66,0.25,0.85
0.35,-139.78,46.55,177.4,0.2,0.41,0.14,2.05,1.0,1.06,-99.96,39.19,199.57,0.21,0.38,0.13,2.14,0.97,1.14,-146.91,9.29,6.53,0.23,0.57,0.14,0.29,0.29,2.59,-123.3,18.23,8.58,0.09,0.82,-0.04,0.47,0.28,1.11
0.36,-140.0,46.99,177.57,0.13,0.24,-0.07,2.29,1.16,0.87,-100.02,38.77,199.83,0.2,0.24,0.1,2.19,1.01,1.61,-146.89,9.84,6.8,0.4,0.31,0.36,0.4,0.43,3.02,-123.02,19.01,8.62,0.19,0.76,0.08,0.5,0.34,1.26
0.37,-140.18,47.34,177.28,0.15,0.42,0.05,2.2,0.96,1.15,-99.95,38.48,199.76,0.08,0.23,-0.02,2.4,0.89,1.61,-147.0,10.22,7.01,0.35,0.45,0.28,0.55,0.57,3.03,-123.23,19.74,8.87,0.2,0.72,0.03,0.39,0.28,1.54
0.38,-140.62,48.0,177.48,0.2,0.42,0.01,2.34,0.98,1.32,-100.07,38.13,200.03,0.06,0.4,0.05,2.46,0.93,1.78,-147.13,10.53,7.06,0.23,0.44,0.32,0.54,0.63,3.26,-123.01,20.36,9.08,0.26,0.68,-0.05,0.57,0.16,1.99
0.39,-140.71,48.26,177.69,0.23,0.36,0.07,2.03,1.13,1.19,-100.17,37.67,200.06,0.26,0.32,-0.17,2.3,1.05,1.96,-147.72,10.71,7.08,0.45,0.16,0.44,0.49,0.84,3.28,-123.11,21.18,9.25,0.22,0.57,-0.01,0.43,0.2,2.51
0.4,-141.06,48.84,177.53,0.34,0.32,0.02,2.39,1.27,1.43,-100.28,37.32,200.63,0.24,0.32,0.12,2.42,1.12,2.08,-148.49,10.67,6.93,0.52,0.23,0.46,0.55,1.38,3.41,-123.01,21.75,9.17,0.13,0.7,0.1,0.39,0.41,2.75
0.41,-141.29,49.09,177.58,0.24,0.44,0.06,2.23,1.18,1.52,-100.07,37.14,200.78,0.18,0.24,0.22,2.26,1.02,2.0,-149.14,10.39,6.67,0.4,0.25,0.58,0.69,1.64,3.1,-123.17,22.5,9.85,0.04,0.54,0.36,0.41,0.38,3.16
0.42,-141.54,49.47,177.81,0.31,0.13,0.11,2.18,1.21,1.74,-100.18,36.94,201.06,0.21,0.24,-0.04,2.17,0.83,2.18,-150.35,10.28,6.43,0.44,0.0,0.81,1.01,1.95,3.2,-123.45,23.22,10.2,0.26,0.71,0.27,0.37,0.24,3.48
0.43,-141.65,49.79,177.77,0.14,0.21,0.04,1.93,1.11,1.67,-100.16,37.07,201.29,0.35,0.1,0.21,2.37,1.16,2.14,-151.31,10.06,6.03,0.4,0.28,0.78,1.02,2.52,3.09,-123.73,23.81,10.86,0.21,0.37,0.43,0.34,0.35,3.68
0.44,-141.65,50.12,177.78,0.33,0.42,0.04,2.21,1.19,1.62,-100.31,36.89,201.5,0.24,0.12,0.26,2.34,0.92,2.17,-151.88,9.61,5.73,0.42,-0.02,0.41,0.87,2.66,2.92,-124.21,24.23,11.24,0.35,0.43,0.58,0.47,0.47,3.7
0.45,-141.57,50.31,178.0,0.42,0.42,0.06,2.15,0.91,1.69,-100.27,37.04,201.53,0.29,0.2,0.12,2.07,0.9,2.22,-152.6,9.61,5.73,0.66,0.21,0.76,0.86,2.87,2.77,-124.45,24.51,11.43,0.23,0.75,0.45,0.38,0.59,3.84
0.46,-141.74,50.69,178.05,0.57,0.16,-0.14,1.91,1.19,1.76,-100.25,37.07,201.85,0.07,0.26,0.12,2.04,0.99,2.29,-153.83,9.36,5.33,0.48,0.32,0.84,0.88,3.13,2.58,-125.14,25.29,12.5,0.5,0.59,0.54,0.49,0.57,4.12
0.47,-141.83,50.93,177.96,0.19,0.09,0.14,2.0,0.96,1.86,-100.16,36.97,201.89,0.2,0.13,-0.02,2.02,0.83,2.43,-155.09,8.77,5.03,0.56,0.16,1.0,1.04,3.55,2.63,-125.87,25.85,13.26,0.5,0.85,0.72,0.55,0.67,3.81
0.48,-141.9,51.15,177.94,0.27,0.09,-0.0,2.1,0.88,1.96,-99.98,37.3,202.07,0.32,0.02,0.06,1.74,0.85,2.38,-156.45,8.39,4.84,0.41,0.07,0.92,1.21,3.66,2.3,-126.59,26.88,14.54,0.4,0.74,0.6,0.93,1.04,3.98
0.49,-141.87,51.07,177.79,0.31,0.11,0.07,1.83,0.85,1.96,-100.04,37.44,202.2,0.18,0.3,-0.04,1.77,0.93,2.25,-157.55,8.14,4.62,0.48,0.18,1.07,1.0,3.99,2.29,-127.63,27.59,15.69,0.49,0.54,0.76,0.79,1.16,3.78
0.5,-142.28,51.49,177.94,0.38,0.13,0.13,1.79,0.71,2.27,-100.07,37.78,202.26,0.23,0.22,-0.09,1.61,0.71,2.22,-158.62,7.62,4.52,0.46,0.32,0.87,1.04,4.02,2.08,-128.6,28.34,17.33,0.47,0.42,0.79,1.1,1.17,3.78
0.51,-142.31,51.81,177.95,0.37,0.26,0.22,1.58,0.71,2.09,-100.02,37.88,202.14,0.32,0.14,0.27,1.23,0.8,2.08,-159.48,7.3,4.4,0.37,0.39,0.87,0.98,3.97,2.06,-129.73,28.71,18.76,0.57,0.81,0.63,1.18,1.39,3.77
0.52,-142.5,51.91,178.09,0.34,0.13,-0.01,1.43,0.49,2.14,-100.01,38.11,202.28,0.02,0.27,0.2,1.4,0.91,2.14,-159.92,7.15,4.23,0.39,0.16,0.62,1.13,4.06,2.17,-130.63,29.35,20.05,0.52,0.58,0.7,1.21,1.33,3.53
0.53,-142.89,52.04,178.04,0.35,0.04,-0.01,1.42,0.55,2.2,-99.93,38.36,202.16,0.1,0.49,0.2,1.38,1.09,2.29,-160.49,6.82,4.24,0.24,0.29,0.48,0.94,3.83,2.18,-131.59,30.05,21.49,0.52,0.61,0.75,1.4,1.2,3.25
0.54,-143.17,51.97,178.29,0.43,0.27,0.01,1.45,0.52,2.09,-100.17,38.72,202.15,0.13,0.08,0.03,1.38,0.65,1.89,-160.63,6.86,4.1,0.22,0.18,0.64,0.96,3.56,2.06,-132.4,30.22,22.51,0.43,0.57,0.59,1.23,1.46,3.15
0.55,-143.38,51.95,178.24,0.4,-0.04,0.03,1.23,0.37,2.15,-100.25,38.7,202.38,0.36,0.29,0.12,1.3,0.93,2.01,-160.77,6.61,4.11,0.19,0.19,0.5,0.84,3.6,2.17,-132.79,30.44,23.44,0.63,0.57,0.75,1.37,1.4,3.26
0.56,-143.58,51.92,178.29,0.23,0.14,-0.02,1.31,0.36,2.06,-100.26,38.51,202.4,0.24,0.45,-0.01,1.36,0.83,2.05,-160.8,6.45,4.19,0.37,0.21,0.46,0.81,3.22,2.21,-133.16,30.67,23.94,0.61,0.65,0.78,1.41,1.57,3.18
0.57,-143.69,51.9,178.38,0.28,0.08,0.21,1.21,0.39,2.04,-100.16,38.68,202.38,0.14,0.46,0.05,1.19,0.75,1.76,-160.71,6.44,4.0,0.08,0.18,0.5,0.63,2.94,2.21,-133.6,30.72,25.2,0.75,0.37,0.54,1.33,1.47,2.94
0.58,-144.35,51.73,178.68,0.4,0.36,-0.03,1.03,0.33,2.04,-100.56,38.54,202.5,0.31,0.54,0.24,0.95,0.82,1.82,-160.26,6.23,3.7,0.31,0.29,0.28,0.77,2.64,1.98,-134.17,30.98,26.42,0.36,0.39,0.69,1.24,1.22,2.72
0.59,-144.83,51.43,178.76,0.38,0.35,0.04,1.03,0.51,1.97,-100.62,38.35,202.31,0.35,0.51,0.16,1.03,0.71,1.66,-160.13,6.13,3.32,0.41,0.19,0.3,0.97,2.35,1.91,-134.52,30.93,27.27,0.77,0.49,0.66,1.18,1.33,3.02
0.6,-144.98,50.9,178.97,0.13,0.47,-0.07,0.97,0.16,1.96,-100.5,37.96,202.56,0.2,0.73,0.03,0.7,0.68,1.58,-159.68,6.06,3.21,0.43,0.21,0.22,0.79,1.77,1.96,-134.78,31.09,27.92,0.43,0.14,0.47,0.96,1.25,2.74
0.61,-145.35,50.56,178.96,0.1,0.38,-0.08,1.08,0.31,1.66,-100.56,37.73,202.81,0.08,0.69,0.04,1.02,0.72,1.7,-159.51,5.78,2.93,0.42,0.42,0.29,0.64,1.65,2.01,-135.1,30.74,28.62,0.61,0.29,0.37,1.03,1.0,2.62
0.62,-145.74,49.99,179.26,0.16,0.47,0.22,1.01,0.19,1.5,-100.7,37.29,202.72,0.25,0.5,-0.09,0.93,0.5,1.54,-159.24,5.72,2.61,0.49,0.1,0.24,0.64,1.35,1.85,-134.77,30.68,29.27,0.43,0.13,0.25,0.9,0.92,2.47
0.63,-145.89,49.52,179.38,0.41,0.53,0.22,0.92,0.05,1.36,-100.67,36.74,202.75,0.18,0.45,-0.06,0.81,0.43,1.55,-158.99,5.28,2.42,0.42,0.36,0.33,0.57,0.82,1.68,-135.06,30.59,29.55,0.34,0.19,0.32,0.73,0.91,2.53
0.64,-146.13,48.61,179.68,-0.09,0.51,0.16,0.69,0.25,1.36,-100.81,36.17,203.1,0.5,0.45,0.1,0.93,0.47,1.44,-159.08,5.29,2.27,0.44,0.2,0.22,0.68,0.69,1.61,-134.51,30.58,29.86,0.31,0.05,0.26,0.51,0.75,2.33
0.65,-146.16,48.16,179.61,0.06,0.52,0.12,0.68,0.34,1.08,-100.92,35.45,203.13,0.03,0.48,0.06,0.75,0.6,1.33,-159.02,5.23,1.84,0.62,0.31,0.34,0.81,0.73,1.63,-134.29,30.3,30.39,0.37,-0.08,0.07,0.57,0.57,2.36
0.66,-146.24,47.6,179.56,0.12,0.64,-0.07,0.52,0.3,1.17,-100.63,35.07,203.23,0.12,0.43,0.09,0.85,0.73,1.26,-158.93,4.93,1.66,0.59,0.46,0.33,0.6,0.65,1.32,-134.29,30.41,30.38,0.54,0.03,0.27,0.48,0.7,2.26
0.67,-145.98,47.08,179.76,0.17,0.57,0.19,0.52,0.34,1.1,-100.62,34.8,203.04,0.1,0.6,0.09,0.92,0.69,1.15,-159.26,4.78,1.63,0.59,0.09,0.21,0.64,0.71,1.42,-134.11,30.45,30.71,0.31,0.07,0.18,0.52,0.52,2.12
0.68,-146.06,46.43,179.61,0.12,0.58,0.15,0.42,0.23,0.91,-100.58,34.32,203.37,0.03,0.36,0.21,0.81,0.44,0.94,-159.16,4.74,1.76,0.68,0.22,0.19,0.79,0.4,1.08,-133.72,30.37,30.92,0.42,0.06,0.19,0.49,0.5,2.07
0.69,-145.87,45.68,179.47,0.02,0.44,0.2,0.6,0.33,0.74,-100.44,33.62,203.47,0.05,0.38,0.11,0.72,0.68,0.84,-159.51,4.38,1.92,0.57,0.17,0.16,0.69,0.32,0.93,-133.3,30.45,31.17,0.43,-0.12,0.14,0.36,0.55,1.89
0.7,-145.76,45.06,179.34,0.11,0.5,0.08,0.49,0.35,0.79,-100.58,33.2,203.67,0.12,0.42,0.05,0.53,0.54,0.77,-160.03,4.2,2.4,0.66,-0.02,0.39,0.72,0.25,0.86,-133.09,30.5,31.51,0.39,0.1,0.09,0.5,0.57,1.87
0.71,-145.39,44.06,179.45,0.12,0.59,0.07,0.49,0.37,0.78,-100.47,32.82,203.86,0.2,0.48,-0.0,0.75,0.66,0.59,-160.37,3.9,2.61,0.85,0.17,0.36,0.61,0.47,0.63,-132.85,30.75,32.02,0.5,0.08,0.13,0.57,0.36,1.75
0.72,-145.01,43.52,179.16,0.03,0.31,0.16,0.59,0.33,0.94,-100.59,32.47,203.6,0.08,0.19,0.11,0.56,0.68,0.48,-160.78,3.75,3.34,0.82,0.21,0.24,0.68,0.29,0.86,-132.62,31.27,32.15,0.54,0.16,0.21,0.8,0.5,1.51
0.73,-144.72,42.85,179.14,0.27,0.39,0.09,0.47,0.32,0.95,-100.19,32.2,203.94,0.01,0.18,0.32,0.66,0.4,0.59,-161.09,3.45,3.79,0.78,0.14,0.21,0.62,0.42,0.93,-132.18,31.35,32.6,0.38,0.17,0.05,0.69,0.39,1.48
0.74,-144.68,42.75,179.03,-0.13,0.38,0.22,0.58,0.36,0.76,-100.07,32.21,203.78,0.04,0.32,0.1,0.75,0.41,0.4,-161.38,3.24,4.67,0.73,-0.02,0.36,0.61,0.42,0.83,-132.1,31.8,33.22,0.54,0.27,0.22,0.55,0.42,1.19
0.75,-144.44,42.18,178.81,0.05,0.08,-0.01,0.57,0.44,0.77,-100.09,31.88,203.97,0.19,0.18,0.11,0.62,0.51,0.4,-161.81,3.15,5.32,0.65,0.04,0.2,0.41,0.29,0.78,-131.84,32.05,33.79,0.58,0.22,0.27,0.65,0.35,1.27
0.76,-144.42,41.88,178.49,0.08,0.15,0.22,0.81,0.38,0.92,-99.94,31.76,203.81,0.05,0.17,0.07,0.68,0.34,0.45,-162.12,3.02,6.28,0.65,0.1,0.23,0.55,0.38,0.8,-131.73,32.54,34.37,0.4,0.47,0.21,0.55,0.57,0.85
0.77,-144.3,41.89,178.61,0.14,0.27,0.19,0.59,0.4,0.96,-100.08,32.04,204.05,0.08,0.15,0.14,0.58,0.38,0.52,-162.6,2.96,6.66,0.4,0.15,0.2,0.57,0.28,0.9,-131.58,32.61,34.56,0.37,0.36,0.28,0.86,0.35,1.02
0.78,-144.32,41.59,178.53,-0.06,0.19,0.14,0.8,0.36,0.87,-100.01,31.91,203.99,0.05,0.14,0.14,0.55,0.67,0.44,-162.59,2.93,7.08,0.42,-0.01,0.11,0.58,0.34,0.57,-131.33,32.88,34.82,0.49,0.27,0.25,0.59,0.36,1.01
0.79,-144.28,41.69,178.32,0.08,0.14,-0.06,0.71,0.3,0.87,-99.87,32.13,204.01,0.12,0.23,0.1,0.67,0.54,0.21,-162.86,3.0,7.9,0.55,0.01,0.28,0.35,0.69,0.6,-131.05,33.43,35.51,0.53,0.46,0.3,0.8,0.41,0.65
0.8,-144.45,42.03,178.24,0.16,0.19,-0.01,0.85,0.27,0.64,-100.02,32.6,203.95,0.04,0.16,0.01,0.76,0.39,0.58,-163.18,3.19,8.62,0.4,0.03,0.11,0.29,0.47,0.58,-130.61,33.94,36.01,0.56,0.35,0.24,0.87,0.35,0.79
0.81,-144.81,42.05,178.22,0.22,0.22,-0.01,0.79,0.36,1.07,-100.06,32.9,203.88,-0.08,0.16,0.1,0.91,0.31,0.6,-163.38,3.0,9.19,0.42,0.05,0.2,0.28,0.4,0.82,-130.51,34.36,36.86,0.75,0.34,0.28,0.52,0.2,0.69
0.82,-144.8,42.7,178.09,0.07,0.36,-0.08,0.99,0.37,0.9,-100.17,33.31,203.85,-0.1,0.38,0.07,0.86,0.41,0.55,-163.51,3.15,9.67,0.3,0.24,0.08,0.41,0.3,0.83,-129.99,35.04,37.62,0.68,0.37,0.26,0.4,0.54,0.65
0.83,-145.21,43.34,178.23,0.13,0.54,0.16,1.15,0.32,0.88,-100.17,33.8,203.96,0.02,0.39,0.2,0.82,0.57,0.33,-163.76,3.03,10.57,0.25,0.05,0.13,0.13,0.64,1.05,-129.89,35.59,38.34,0.48,0.29,0.15,0.78,0.39,0.72
0.84,-145.36,43.87,178.25,0.18,0.4,0.19,1.05,0.4,0.88,-100.12,34.54,203.85,-0.06,0.49,-0.15,0.99,0.53,0.59,-163.62,3.35,11.09,0.29,0.09,0.3,0.03,0.58,0.93,-129.43,35.92,39.27,0.67,0.37,0.27,0.56,0.3,0.79
0.85,-145.65,44.92,178.59,0.07,0.74,0.05,0.96,0.38,0.92,-100.07,34.97,203.89,0.08,0.31,0.22,0.97,0.44,0.72,-164.13,3.5,11.2,0.31,0.1,0.05,0.2,0.58,0.82,-129.18,36.6,39.81,0.67,0.16,0.32,0.45,0.43,0.66
0.86,-145.63,45.97,178.79,0.15,0.61,0.05,0.98,0.56,0.82,-100.43,35.88,204.04,-0.03,0.81,0.02,1.08,0.5,0.95,-164.53,3.75,11.66,0.18,0.12,0.19,0.24,0.41,0.89,-128.64,36.94,40.61,0.75,0.5,0.36,0.52,0.41,0.82
0.87,-145.96,47.31,178.62,-0.03,0.96,-0.04,1.13,0.3,0.84,-100.38,36.71,203.91,0.11,0.57,-0.05,1.09,0.51,0.53,-164.48,4.12,12.05,0.19,0.41,0.23,0.29,0.55,0.82,-128.39,37.72,41.46,0.75,0.39,0.19,0.53,0.42,0.64
0.88,-146.15,47.93,178.78,0.06,1.0,0.14,1.14,0.49,0.93,-100.41,37.27,203.95,0.01,0.6,0.13,0.86,0.39,0.36,-164.51,4.38,12.21,0.28,0.28,0.11,0.24,0.51,0.85,-128.2,37.92,41.88,0.75,0.46,0.2,0.43,0.57,0.75
0.89,-146.29,48.4,179.11,0.17,0.95,0.03,0.95,0.26,0.97,-100.22,37.54,203.96,-0.01,0.76,0.08,1.02,0.54,0.69,-164.5,4.69,12.23,0.31,0.27,0.18,0.23,0.5,0.94,-127.91,38.15,42.52,0.88,0.47,0.27,0.67,0.64,0.9
0.9,-146.27,49.9,179.27,0.17,1.08,0.32,0.96,0.54,0.92,-100.56,38.64,203.58,0.03,0.78,0.06,1.0,0.44,0.74,-164.88,5.25,12.38,0.18,0.39,0.18,0.2,0.51,0.65,-127.27,38.77,43.12,0.7,0.45,0.38,0.41,0.62,0.9
0.91,-146.49,51.4,179.27,0.23,1.4,0.22,0.72,0.39,0.84,-100.3,39.85,204.01,0.29,0.81,0.09,1.08,0.49,0.5,-165.11,5.46,12.54,-0.02,0.58,0.54,0.51,0.58,0.63,-127.12,39.3,43.62,0.52,0.37,0.33,0.57,0.52,0.84
0.92,-146.24,52.94,179.59,-0.03,1.16,0.26,0.86,0.32,0.88,-100.83,40.82,204.01,0.11,0.93,0.04,0.85,0.63,0.69,-165.42,6.25,12.26,0.07,0.46,0.42,0.43,0.48,0.89,-126.73,39.92,44.45,0.64,0.38,0.33,0.61,0.54,0.81
0.93,-146.42,54.48,179.69,0.23,1.46,0.08,0.82,0.62,0.84,-100.92,41.85,203.87,0.07,1.24,-0.14,0.85,0.38,0.75,-165.62,6.9,12.28,0.02,0.52,0.3,0.36,0.48,0.65,-126.19,40.29,45.37,0.61,0.69,0.38,0.53,0.67,0.81
0.94,-145.82,56.37,179.78,-0.06,1.29,0.04,0.74,0.53,0.77,-101.17,43.09,203.96,0.02,0.88,0.14,0.74,0.56,0.54,-165.89,7.58,11.82,0.28,0.64,0.18,0.56,0.68,0.79,-125.55,40.98,45.86,0.5,0.61,0.53,0.52,0.76,0.8
0.95,-146.06,57.91,179.78,-0.07,1.46,0.14,0.79,0.49,0.77,-101.58,44.46,203.98,-0.05,1.32,0.1,0.63,0.39,0.71,-166.11,8.33,11.23,0.28,0.77,0.29,0.68,0.86,0.67,-124.88,41.69,46.69,0.66,0.43,0.73,0.55,0.62,0.86
0.96,-145.79,59.64,179.58,-0.01,1.6,0.19,0.69,0.45,0.81,-101.87,45.76,204.07,0.01,1.33,0.06,0.65,0.37,0.63,-166.31,9.04,10.8,0.27,0.62,0.19,0.72,0.83,0.89,-124.3,42.49,46.9,0.55,0.42,0.48,0.64,0.72,0.78
0.97,-145.55,61.38,179.46,0.36,1.56,0.19,0.8,0.34,0.66,-102.12,46.92,204.27,0.23,1.28,0.14,0.66,0.28,0.45,-166.37,9.52,10.04,0.35,0.7,0.25,0.88,0.93,1.33,-123.46,43.06,47.41,0.59,0.46,0.7,0.88,0.97,0.74
0.98,-145.39,63.03,178.87,-0.09,1.69,0.3,0.81,0.61,0.78,-102.48,48.55,204.44,0.15,1.34,0.06,0.82,0.58,0.83,-166.95,10.44,9.39,0.44,0.7,0.28,0.95,0.78,1.23,-122.66,44.0,48.02,0.5,0.63,0.65,0.95,0.66,0.56
0.99,-145.13,63.86,178.55,0.15,1.47,0.36,0.8,0.34,0.71,-102.73,49.29,204.55,0.02,1.18,-0.1,0.84,0.38,0.5,-167.1,10.91,8.88,0.41,0.51,0.23,0.87,0.66,1.48,-122.41,44.62,48.09,0.36,0.39,0.88,0.86,0.69,0.65
1.0,-145.12,64.74,178.29,0.02,1.42,0.25,0.86,0.51,0.68,-103.01,49.91,204.53,0.02,1.41,-0.05,0.65,0.59,0.75,-167.06,10.93,8.5,0.49,0.62,0.26,1.11,0.85,1.36,-122.07,45.03,48.34,0.35,0.45,0.63,0.85,0.92,0.76
1.01,-144.79,66.32,177.67,0.09,1.55,0.05,1.04,0.45,0.59,-103.47,51.45,204.69,0.27,1.49,0.05,0.73,0.34,0.55,-167.57,11.96,7.5,0.76,0.67,0.47,0.9,0.66,1.6,-121.35,46.19,48.65,0.38,0.55,0.73,0.89,0.78,0.59
1.02,-144.59,67.89,176.42,0.16,1.59,0.18,0.96,0.54,0.58,-103.61,53.1,204.69,0.18,1.68,0.12,0.73,0.54,0.66,-167.56,12.65,6.6,0.63,0.69,0.29,0.96,0.6,1.51,-120.34,47.32,49.01,0.53,0.65,0.81,1.09,0.76,0.51
1.03,-144.21,69.44,175.19,-0.05,1.41,0.26,1.29,0.51,0.6,-103.98,54.67,204.62,0.06,1.57,-0.13,0.93,0.38,0.66,-168.12,13.37,5.91,0.54,0.49,0.56,1.05,0.78,1.9,-119.67,48.6,49.79,0.49,0.66,0.56,1.0,0.84,0.59
1.04,-144.12,71.11,173.98,0.03,1.49,0.03,1.24,0.45,0.55,-104.14,56.31,204.37,0.2,1.83,-0.04,1.04,0.35,0.56,-168.41,14.04,5.49,0.95,0.63,0.52,1.02,0.57,1.87,-118.91,50.22,50.49,0.48,0.81,0.75,1.08,0.88,0.51
1.05,-143.5,72.72,172.46,0.1,1.33,0.16,1.31,0.29,0.47,-104.3,58.09,204.34,0.08,1.64,0.14,1.1,0.43,0.72,-168.87,14.77,4.83,1.0,0.57,0.53,0.98,0.75,1.73,-118.21,51.51,51.25,0.41,0.71,0.71,1.19,0.77,0.45
1.06,-143.15,74.22,170.71,0.14,1.2,0.18,1.73,0.41,0.36,-104.33,59.96,203.9,0.03,1.64,0.15,1.28,0.38,0.7,-169.4,15.45,4.86,1.15,0.37,0.7,0.96,0.8,1.77,-117.41,53.45,52.25,0.65,0.91,0.76,1.18,0.62,0.4
1.07,-143.06,75.71,169.02,0.05,1.24,0.15,1.7,0.23,0.61,-104.44,61.77,203.58,0.09,1.66,0.05,1.53,0.5,0.82,-169.97,16.1,5.16,1.3,0.5,0.48,0.94,0.66,1.67,-116.67,54.88,53.5,0.67,1.11,0.78,1.32,0.66,0.44
1.08,-142.61,77.0,167.35,0.32,1.09,0.14,1.85,0.39,0.55,-104.34,63.73,202.78,0.01,1.64,0.05,1.76,0.36,0.76,-170.75,16.99,5.64,1.53,0.64,0.79,0.77,0.91,1.61,-116.06,56.82,55.11,0.77,1.37,0.72,1.33,0.7,0.59
1.09,-142.53,78.27,165.74,0.19,1.18,0.08,1.8,0.48,0.61,-104.24,65.31,201.75,0.26,1.6,0.14,1.92,0.54,0.99,-171.42,17.9,6.45,1.64,0.6,0.87,0.69,1.03,1.66,-115.45,58.33,56.98,0.97,1.65,0.31,1.33,0.56,0.33
1.1,-142.19,78.92,164.88,0.06,1.21,0.01,2.02,0.44,0.41,-104.12,66.33,201.57,0.16,1.53,0.03,1.69,0.41,0.94,-171.77,18.22,7.26,1.84,0.66,0.64,0.7,1.01,1.54,-115.04,59.3,58.27,0.75,1.5,0.5,1.23,0.57,0.35
1.11,-142.3,79.79,164.09,0.18,1.15,0.03,2.02,0.44,0.58,-104.02,67.25,201.0,0.14,1.95,-0.11,1.71,0.55,1.02,-172.11,18.57,7.68,1.91,0.8,0.77,0.89,0.95,1.54,-114.83,59.87,59.33,0.82,1.65,0.6,1.44,0.77,0.39
1.12,-142.02,80.75,162.67,0.27,0.9,0.16,1.63,0.6,0.26,-103.89,69.0,199.96,0.2,1.45,0.08,1.82,0.69,0.76,-172.95,19.41,9.37,1.85,0.91,0.7,0.72,1.01,1.11,-114.09,61.16,62.1,0.98,1.64,0.53,1.53,0.5,0.55
1.13,-141.51,81.93,161.19,0.19,0.94,-0.07,1.64,0.41,0.53,-103.4,70.94,198.83,0.24,1.58,0.28,1.84,0.46,0.88,-173.9,20.35,11.56,2.03,0.71,0.84,0.68,1.06,1.06,-113.35,62.73,65.26,0.92,2.01,0.6,1.42,0.71,0.54
1.14,-141.4,82.67,160.02,0.07,0.78,0.1,1.74,0.67,0.45,-103.26,72.92,197.69,-0.02,1.47,-0.02,1.95,0.49,0.65,-174.72,21.23,13.82,1.96,0.92,0.76,0.62,0.95,1.03,-112.56,63.55,68.97,1.2,2.24,0.59,1.59,0.56,0.64
1.15,-141.12,83.77,158.94,0.05,0.81,-0.0,1.51,0.55,0.51,-103.0,74.57,196.44,0.17,1.48,0.23,1.9,0.61,0.73,-175.62,22.13,16.49,1.96,1.11,0.69,0.49,0.91,0.8,-111.76,64.49,73.19,1.03,2.51,0.76,1.39,0.8,0.69
1.16,-140.69,84.54,158.22,-0.02,0.58,-0.03,1.18,0.69,0.62,-102.89,76.46,195.06,0.02,1.28,0.05,1.83,0.62,0.71,-176.27,23.07,19.28,2.13,1.17,0.56,0.63,1.14,0.73,-111.04,64.94,77.62,1.22,2.51,0.62,1.33,0.93,0.72
1.17,-140.62,85.12,157.45,0.08,0.76,0.25,1.05,0.73,0.56,-102.63,78.18,194.03,0.29,1.51,0.11,2.0,0.85,0.63,-177.25,24.13,22.16,2.24,1.11,0.94,0.6,1.03,0.45,-110.03,65.2,82.28,1.33,2.63,0.65,1.33,1.07,0.78
1.18,-140.64,85.64,157.04,-0.14,0.93,-0.07,0.95,0.61,0.56,-102.31,79.63,192.71,0.26,1.29,0.07,1.81,0.65,0.68,-177.93,24.97,25.03,2.19,1.42,0.63,0.82,1.33,0.32,-108.83,64.91,87.57,1.2,2.62,0.86,1.12,0.84,1.03
1.19,-140.3,85.9,156.56,0.2,0.66,0.18,0.93,0.7,0.6,-102.1,81.15,191.96,0.13,1.4,0.12,1.54,0.81,0.68,-178.75,26.16,27.84,2.19,1.62,0.78,0.85,1.31,0.38,-107.84,64.41,93.13,1.08,2.72,0.8,1.34,1.33,0.54
1.2,-140.22,86.13,156.63,0.2,0.63,0.26,0.77,0.49,0.58,-102.1,82.43,191.23,0.26,1.04,0.17,1.55,0.76,0.47,-179.33,27.21,30.8,2.22,1.46,0.6,0.78,1.21,0.31,-106.51,63.59,98.63,1.07,2.74,0.95,1.19,1.32,0.72
1.21,-140.2,86.37,156.58,0.39,0.58,0.06,0.63,0.66,0.59,-101.98,83.03,190.86,0.23,1.15,0.16,1.68,0.76,0.64,-179.6,27.87,32.07,2.16,1.48,0.45,0.95,1.28,0.5,-106.05,63.27,101.41,1.18,2.47,0.97,1.09,1.1,0.86
1.22,-140.18,86.55,156.51,0.16,0.5,0.09,0.66,0.88,0.81,-102.07,83.8,190.63,0.12,1.3,-0.05,1.48,0.82,0.61,-179.72,28.2,33.5,2.03,1.52,0.4,0.89,1.31,0.34,-105.53,62.59,104.53,1.03,2.65,1.06,1.18,1.12,0.87
1.23,-140.24,86.57,156.5,0.16,0.56,0.01,0.59,0.72,0.6,-102.02,84.82,190.18,0.22,1.12,-0.03,1.3,0.94,0.63,-180.36,29.31,36.22,2.11,1.46,0.55,1.0,1.06,0.49,-103.84,61.29,110.09,0.91,2.5,0.91,1.07,1.26,1.0
1.24,-139.98,86.59,156.73,0.16,0.49,0.06,0.37,0.68,0.76,-101.87,85.83,189.99,0.15,0.88,0.09,1.21,0.66,0.37,-180.36,30.51,38.97,1.99,1.48,0.42,0.8,1.08,0.42,-102.59,59.75,115.58,0.97,2.39,1.04,1.07,1.19,0.98
1.25,-140.17,86.36,156.54,0.22,0.55,-0.13,0.54,0.77,0.57,-102.0,86.6,189.9,0.07,1.07,-0.1,1.03,0.86,0.49,-180.56,31.63,41.96,2.01,1.58,0.19,0.93,1.28,0.64,-101.01,58.06,120.48,0.82,2.3,0.83,1.0,1.1,0.8
1.26,-140.3,86.18,156.51,0.14,0.38,0.2,0.28,0.89,0.77,-101.98,86.92,189.79,0.24,0.99,0.05,0.9,0.92,0.69,-180.58,32.73,44.44,2.0,1.42,0.36,0.91,1.33,0.48,-99.24,56.31,125.42,0.95,2.0,0.93,0.97,1.19,1.0
1.27,-140.62,86.14,156.59,0.09,0.61,0.39,0.12,1.09,0.75,-102.03,86.9,189.68,-0.01,1.1,-0.02,0.93,0.68,0.53,-180.54,33.73,47.22,1.78,1.25,0.21,0.95,1.27,0.9,-97.61,54.55,129.86,0.76,1.91,0.93,0.98,1.13,1.02
1.28,-140.44,85.85,156.42,0.12,0.28,0.05,0.35,0.96,0.54,-102.14,87.13,189.73,0.02,1.12,-0.06,0.85,0.92,0.34,-180.19,34.9,49.82,1.87,1.36,0.39,0.97,0.96,0.75,-95.58,53.03,133.54,0.57,1.51,1.05,0.84,1.29,0.88
1.29,-140.78,85.84,156.21,0.01,0.21,0.18,0.41,1.31,0.74,-102.07,86.7,189.23,0.32,1.03,0.08,0.74,0.88,0.36,-179.67,35.84,52.41,1.85,1.34,0.28,1.05,1.09,0.84,-93.88,51.35,136.79,0.57,1.49,0.86,0.85,0.95,0.77
1.3,-141.13,85.39,156.17,0.12,0.33,0.27,0.12,1.16,0.67,-102.14,86.27,189.25,0.3,0.92,0.11,0.88,1.0,0.57,-179.04,36.75,55.1,1.97,1.34,0.26,1.0,1.11,0.87,-92.09,49.7,139.5,0.41,1.26,0.67,0.65,1.04,0.78
1.31,-141.18,85.16,155.91,0.37,0.19,0.19,0.16,1.27,0.75,-101.9,85.7,189.02,0.15,1.23,0.05,0.68,0.71,0.71,-178.74,37.67,58.11,1.8,1.19,0.3,0.99,1.11,1.12,-90.5,48.41,141.7,0.74,1.03,0.55,0.95,1.16,0.44
1.32,-141.26,85.24,155.78,0.22,0.46,0.14,0.45,1.26,0.64,-102.14,85.14,188.52,0.32,1.15,0.0,0.77,0.99,0.64,-178.19,37.97,59.54,1.94,1.15,0.16,0.78,1.03,1.05,-89.45,47.68,142.49,0.6,1.05,0.59,0.91,1.1,0.66
1.33,-141.21,85.25,155.7,0.07,0.28,0.06,0.48,1.3,0.86,-101.97,84.85,188.2,0.23,0.95,0.02,0.66,0.76,0.4,-177.93,38.57,61.11,1.91,1.2,0.32,0.92,1.05,1.16,-88.72,47.01,143.27,0.75,0.98,0.55,0.71,1.06,0.73
1.34,-141.43,84.99,155.34,0.31,0.03,0.07,0.36,1.39,0.76,-101.9,83.84,187.39,0.15,0.97,0.14,0.72,1.07,0.5,-176.98,39.69,64.24,1.75,1.03,0.2,0.75,0.9,1.16,-86.84,45.96,144.6,0.6,1.06,0.47,0.93,1.05,0.63
1.35,-141.8,84.91,155.08,0.43,0.07,-0.09,0.34,1.67,0.81,-101.94,82.66,186.17,0.29,1.13,0.01,0.46,0.99,0.53,-176.08,40.32,67.5,1.89,0.93,0.29,0.92,1.16,1.19,-85.46,44.72,145.39,0.44,0.89,0.62,0.69,0.94,0.76
1.36,-141.89,84.71,155.14,0.33,0.01,0.19,0.33,1.62,1.04,-101.89,81.52,184.88,0.27,0.86,0.07,0.69,0.91,0.3,-174.83,41.26,70.93,2.2,1.06,0.34,0.92,0.97,0.94,-84.08,43.72,145.94,0.52,0.71,0.31,0.77,0.98,0.76
1.37,-142.15,84.84,155.03,0.31,0.12,0.14,0.5,1.74,0.95,-101.76,80.38,183.41,0.21,0.98,-0.06,0.73,0.87,0.51,-173.64,41.8,74.56,1.95,0.92,0.5,0.91,0.93,1.21,-82.73,42.89,145.98,0.49,0.65,0.12,0.77,1.07,0.75
1.38,-141.95,84.96,154.68,0.38,0.14,0.05,0.34,1.73,0.92,-101.53,79.25,181.86,0.25,0.82,-0.04,0.43,0.92,0.35,-172.58,42.85,78.06,1.85,0.98,0.51,0.87,1.05,1.42,-81.94,41.72,146.06,0.19,0.77,0.3,0.61,1.37,0.75
1.39,-141.97,84.81,154.59,0.45,0.09,0.13,0.56,1.78,1.01,-101.43,78.28,180.18,0.18,0.72,0.1,0.83,0.82,0.44,-171.24,43.51,81.89,1.79,0.78,0.35,1.05,0.94,1.21,-81.12,41.02,145.89,0.55,0.64,0.22,0.9,1.01,0.89
1.4,-142.02,84.87,154.56,0.47,0.21,0.14,0.4,1.53,0.94,-101.53,77.05,178.3,0.38,0.77,0.13,0.72,0.91,0.23,-169.81,44.22,85.58,1.73,1.07,0.52,1.08,1.08,0.95,-80.58,40.04,145.77,0.54,0.74,0.28,1.05,1.0,0.75
1.41,-141.74,85.24,154.35,0.35,0.01,0.38,0.49,1.67,0.92,-101.64,76.18,176.78,0.32,0.66,-0.01,0.66,0.74,0.36,-168.3,44.71,89.4,1.75,1.05,0.69,1.16,0.88,0.97,-80.21,39.49,145.35,0.3,0.53,0.21,0.75,1.06,1.0
1.42,-141.7,85.3,154.51,0.31,0.15,0.21,0.61,1.6,1.01,-101.53,75.53,175.47,0.24,0.51,0.3,0.86,0.97,0.43,-167.02,45.54,93.22,1.76,1.11,0.81,1.1,1.18,0.94,-80.27,38.37,145.32,0.48,0.63,0.17,0.74,0.94,1.1
1.43,-141.78,85.44,154.64,0.24,0.11,0.1,0.54,1.36,0.92,-101.5,75.16,174.66,0.3,0.56,0.24,0.3,0.89,0.3,-166.21,45.86,94.92,1.79,0.84,0.67,1.17,0.82,1.02,-80.36,38.21,145.1,0.23,0.47,0.21,0.6,0.93,0.98
1.44,-141.68,85.33,154.56,0.28,0.11,0.04,0.44,1.38,0.88,-101.66,74.9,174.08,0.41,0.73,0.07,0.46,1.1,0.37,-165.34,46.25,96.63,1.51,1.0,0.81,1.54,0.91,1.03,-80.41,37.74,145.01,0.32,0.66,0.2,0.75,0.88,0.93
1.45,-141.41,85.91,154.9,0.22,0.32,0.17,0.72,1.23,1.01,-101.73,74.46,173.39,0.24,0.5,0.2,0.38,1.06,0.3,-164.07,46.81,100.1,1.39,0.83,0.85,1.49,0.92,0.81,-80.43,37.09,144.96,0.52,0.61,0.12,0.53,0.81,0.96
1.46,-140.98,85.99,154.93,0.28,0.25,-0.09,0.48,1.12,0.91,-101.72,74.05,172.61,0.11,0.33,0.05,0.46,1.05,0.37,-162.49,47.57,103.79,1.42,0.88,0.67,1.56,1.26,0.97,-80.86,36.55,144.87,0.16,0.56,0.18,0.66,0.6,0.8
1.47,-140.68,86.33,155.18,0.2,0.27,0.32,0.62,1.14,0.62,-101.83,73.93,171.78,0.24,0.35,0.19,0.29,0.98,0.43,-160.79,48.05,106.91,1.17,0.94,0.63,1.79,1.19,0.88,-81.28,36.06,144.94,0.35,0.52,0.19,0.78,0.89,1.0
1.48,-140.48,86.71,155.39,0.32,0.25,0.08,0.54,0.77,0.84,-101.78,73.95,171.73,0.05,0.42,0.26,0.36,0.92,0.37,-159.5,48.5,110.02,0.99,0.82,0.8,1.85,0.83,0.98,-81.74,35.81,145.28,0.26,0.23,0.06,0.8,0.78,0.97
1.49,-140.06,86.71,155.55,0.07,0.48,0.48,0.36,0.71,0.67,-101.76,74.09,171.69,0.13,0.39,0.06,0.27,1.03,0.53,-158.01,48.92,112.84,0.98,0.78,0.7,1.96,1.13,0.84,-82.18,35.56,145.46,0.28,0.6,0.08,0.97,0.75,1.09
1.5,-139.63,87.04,155.65,0.29,0.48,0.28,0.61,0.76,0.69,-101.76,74.26,172.17,0.27,0.34,-0.05,0.35,0.75,0.46,-156.86,49.55,115.23,0.64,0.5,0.68,1.99,1.23,1.11,-82.83,35.5,145.37,0.12,0.2,0.2,1.25,0.58,0.99
1.51,-139.2,87.09,155.86,0.14,0.48,0.01,0.67,0.65,0.76,-101.69,74.71,172.57,0.3,0.32,0.15,0.26,0.76,0.54,-155.68,50.13,117.4,0.61,0.57,0.59,1.86,1.4,0.98,-83.25,35.53,145.68,0.32,0.28,0.43,1.1,0.6,0.9
1.52,-138.89,87.23,156.04,0.15,0.39,0.14,0.67,0.79,0.7,-101.5,75.29,173.19,0.07,0.28,0.13,0.26,0.76,0.75,-154.87,50.31,119.36,0.45,0.68,0.62,2.18,1.12,1.01,-84.01,35.51,145.84,0.4,0.2,0.27,1.61,0.72,1.12
1.53,-138.59,87.18,156.11,0.24,0.71,0.25,0.65,0.57,0.77,-101.15,75.8,173.74,0.25,0.39,0.28,0.38,0.52,0.58,-153.78,50.57,121.05,0.35,0.32,0.48,1.93,1.41,0.99,-84.59,35.59,145.92,0.23,0.33,0.3,1.49,0.63,1.07
1.54,-138.56,87.08,156.02,0.18,0.56,0.21,0.69,0.75,0.71,-101.09,76.19,174.38,0.29,0.44,0.16,0.21,0.53,0.71,-153.45,50.51,121.75,0.21,0.29,0.46,1.92,1.15,0.87,-84.93,36.03,146.08,0.27,0.26,0.46,1.6,0.66,1.05
1.55,-138.65,87.15,156.15,0.19,0.48,0.34,0.53,0.7,0.58,-100.94,76.66,174.43,0.3,0.27,0.09,0.27,0.61,0.55,-153.1,50.88,122.53,0.31,0.37,0.54,1.89,1.4,0.89,-85.08,35.94,146.18,0.47,0.39,0.24,1.72,0.73,1.01
1.56,-138.41,86.87,156.24,0.08,0.37,0.17,0.66,0.73,0.77,-100.56,77.42,175.35,0.2,0.55,0.04,0.47,0.49,0.65,-152.58,50.86,123.49,0.26,0.34,0.41,1.88,1.17,0.71,-85.76,36.34,146.12,0.23,0.22,0.19,1.72,0.72,1.24
1.57,-138.5,86.83,156.11,0.11,0.53,0.12,0.61,0.7,0.75,-100.36,78.16,175.94,0.29,0.33,0.07,0.38,0.51,0.69,-152.02,51.17,124.41,0.41,0.32,0.41,1.64,1.31,0.81,-86.46,36.66,146.26,0.44,0.11,0.35,1.79,0.57,1.11
1.58,-138.32,86.61,156.03,0.22,0.64,0.12,0.7,0.87,1.02,-99.94,78.85,176.32,0.17,0.68,-0.03,0.48,0.53,0.76,-151.83,51.14,124.92,0.05,0.23,0.38,1.59,1.04,1.07,-86.94,37.32,146.02,0.29,0.09,0.33,1.84,0.65,1.05
1.59,-138.48,86.02,156.15,0.27,0.5,0.08,0.64,0.95,0.93,-99.54,79.47,176.85,0.37,0.44,0.02,0.26,0.38,1.01,-151.6,51.15,125.14,0.28,0.24,0.38,1.42,1.3,0.93,-87.7,37.59,146.17,0.29,0.31,0.36,1.65,0.57,1.04
1.6,-138.78,85.68,155.94,0.34,0.5,-0.05,0.79,1.05,1.08,-99.22,80.33,176.98,0.32,0.52,0.1,0.45,0.29,0.98,-151.57,51.22,125.39,0.09,0.22,0.33,1.4,1.2,0.84,-88.27,38.08,145.97,0.27,0.25,0.49,1.7,0.69,0.93
1.61,-139.01,85.52,155.86,0.54,0.37,0.06,0.77,0.92,1.0,-99.15,80.91,177.17,0.05,0.53,0.12,0.48,0.2,0.96,-151.73,51.31,125.15,-0.01,0.23,0.28,1.14,1.13,0.94,-88.83,38.48,145.99,0.29,0.25,0.24,1.88,0.67,1.2
1.62,-138.87,85.24,155.8,0.25,0.36,0.22,0.71,1.03,0.8,-98.85,81.59,177.12,0.26,0.75,0.07,0.46,0.24,1.23,-151.85,51.26,125.02,0.1,0.2,0.35,0.93,1.13,1.02,-89.73,38.76,145.9,0.24,0.12,0.33,1.49,0.77,1.06
1.63,-139.24,84.97,155.6,0.13,0.3,0.22,0.59,1.28,0.79,-98.73,82.17,177.05,0.28,0.58,0.07,0.63,0.54,1.01,-152.03,51.5,124.81,0.04,0.01,0.32,0.76,0.97,0.86,-90.12,39.18,145.89,0.42,0.31,0.33,1.39,0.66,1.15
1.64,-139.64,84.52,155.65,0.09,0.35,0.13,0.71,1.19,0.98,-98.82,82.85,176.64,0.06,0.6,0.19,0.53,0.36,0.97,-152.21,51.65,124.36,0.11,0.04,0.37,0.64,1.12,0.97,-91.21,39.51,145.86,0.22,0.1,0.58,1.24,0.89,0.87
1.65,-139.72,84.43,155.72,0.19,0.23,0.12,0.88,1.19,1.0,-98.61,82.94,176.77,0.14,0.43,0.26,0.51,0.73,1.09,-152.27,51.62,124.12,0.1,0.15,0.39,1.02,1.12,0.84,-91.46,39.75,146.17,0.11,0.28,0.42,1.27,0.87,0.78
1.66,-140.16,84.35,155.78,0.32,0.2,0.18,0.73,1.33,0.9,-98.65,83.57,176.58,0.17,0.35,-0.18,0.65,0.6,0.83,-152.4,51.57,123.93,0.24,0.23,0.27,0.8,0.91,1.0,-91.91,39.98,145.92,0.38,0.35,0.24,1.15,0.69,0.9
1.67,-140.49,84.19,155.83,0.34,0.28,-0.01,0.46,1.07,1.08,-98.66,83.86,176.7,0.23,0.46,0.11,0.66,0.85,1.06,-152.79,51.79,123.51,0.36,0.19,0.5,0.65,0.94,0.92,-92.51,40.16,145.8,0.32,0.39,0.59,1.05,0.71,0.87
1.68,-140.88,83.93,156.07,0.17,0.17,0.19,0.51,1.25,0.86,-99.05,84.16,176.29,0.18,0.51,0.18,0.4,1.04,0.96,-153.09,51.89,122.83,0.2,0.22,0.22,0.72,0.9,0.99,-93.08,40.47,145.87,0.35,0.39,0.4,0.75,0.56,0.72
1.69,-141.28,83.78,156.25,0.11,0.19,0.34,0.61,0.84,0.73,-98.77,84.72,175.99,0.26,0.25,-0.05,0.53,0.99,1.09,-153.21,52.13,122.52,0.06,0.4,0.4,0.64,1.03,0.98,-93.88,40.81,145.99,0.21,0.39,0.38,0.65,0.73,0.58
1.7,-141.55,83.68,156.48,0.37,0.24,0.34,0.61,0.95,0.58,-99.08,85.14,175.81,0.12,0.2,0.22,0.58,0.97,1.16,-153.14,52.46,122.11,0.15,0.31,0.43,0.64,0.81,1.06,-94.65,41.19,145.73,0.0,0.47,0.38,0.44,0.68,0.62
1.71,-141.73,83.8,156.69,0.09,-0.04,0.31,0.81,0.56,0.83,-99.25,85.4,175.6,0.35,0.61,0.18,0.41,0.89,1.01,-153.3,52.54,121.35,0.1,0.32,0.52,0.69,0.95,1.19,-95.47,41.49,145.69,0.28,0.44,0.34,0.48,0.61,0.81
1.72,-142.23,83.78,157.17,0.23,0.04,0.24,0.38,0.67,0.78,-99.18,85.63,175.37,0.12,0.27,0.03,0.55,1.2,1.05,-153.54,52.92,121.19,0.1,0.23,0.45,0.83,0.92,1.15,-95.94,42.09,145.61,0.32,0.57,0.26,0.18,0.7,0.82
1.73,-142.71,83.97,157.4,-0.01,0.07,0.18,0.47,0.54,0.85,-99.42,86.13,175.54,0.15,0.12,0.06,0.56,1.22,1.07,-153.31,53.29,120.78,0.3,0.36,0.52,0.77,1.01,1.08,-96.63,42.51,145.51,0.31,0.55,0.26,0.33,0.67,0.69
1.74,-142.85,83.84,157.6,0.11,0.09,0.09,0.28,0.37,0.84,-99.45,86.37,175.36,0.09,0.09,0.08,0.68,1.05,1.04,-153.17,53.57,120.4,0.07,0.26,0.54,0.88,0.94,1.41,-97.01,43.02,145.29,0.37,0.62,0.3,0.27,0.91,0.68
1.75,-143.04,83.89,157.95,0.17,0.01,0.42,0.44,0.45,0.79,-99.6,86.77,175.35,0.24,0.18,0.04,0.48,1.06,1.03,-153.34,53.81,120.07,0.05,0.23,0.49,0.59,1.1,0.98,-97.57,43.63,145.12,0.22,0.42,0.21,0.45,0.89,0.89
1.76,-143.27,84.11,158.15,0.19,0.01,0.08,0.57,0.32,0.68,-99.68,86.72,175.25,-0.2,0.16,0.06,0.46,0.98,0.94,-153.07,53.87,119.84,0.17,0.31,0.22,0.82,1.08,1.01,-97.68,43.78,144.98,0.25,0.34,0.32,0.23,0.76,0.88
1.77,-143.36,84.22,158.28,0.1,0.06,0.13,0.53,0.32,0.85,-99.57,86.84,175.44,0.18,0.07,0.06,0.52,0.95,0.94,-153.23,54.07,119.66,0.23,0.46,0.54,0.76,0.95,1.04,-98.02,44.04,144.82,0.05,0.42,0.49,0.34,0.75,0.75
1.78,-143.37,84.26,158.54,0.15,-0.0,0.07,0.35,0.22,0.7,-99.71,87.29,175.36,0.15,0.28,0.24,0.49,0.91,0.92,-153.11,54.35,119.41,0.29,0.25,0.48,0.86,1.08,1.0,-98.27,44.63,144.7,0.28,0.56,0.39,0.12,0.95,0.89
1.79,-143.79,84.43,158.72,0.1,0.01,0.17,0.48,0.39,0.7,-99.93,87.58,175.45,0.25,0.27,-0.01,0.5,0.95,0.75,-152.86,54.7,119.13,0.08,0.33,0.27,0.97,1.28,1.19,-98.67,45.17,144.53,0.38,0.63,0.19,0.09,0.92,0.8
1.8,-143.96,84.5,159.07,0.21,0.07,0.11,0.49,0.35,0.84,-99.92,87.56,175.62,0.0,0.31,0.12,0.64,0.94,0.86,-152.56,54.9,119.07,0.22,0.35,0.17,0.82,1.26,0.95,-98.94,46.03,144.2,0.33,0.47,0.39,0.34,1.04,0.79
1.81,-144.05,84.24,158.77,0.1,0.28,0.09,0.32,0.36,0.81,-99.88,88.08,175.78,0.12,0.3,0.21,0.77,0.92,0.86,-152.34,55.19,119.08,0.1,0.36,0.35,0.91,1.46,1.0,-99.3,46.7,144.27,-0.01,0.47,0.21,0.16,1.11,0.94
1.82,-144.24,84.35,158.95,0.23,0.24,0.14,0.54,0.37,0.63,-100.03,88.13,175.82,0.19,0.25,0.04,0.62,0.82,0.69,-151.97,55.3,118.96,0.08,0.29,0.41,1.09,1.46,1.15,-99.63,47.16,143.89,0.36,0.63,0.33,0.32,0.82,0.9
1.83,-144.25,84.35,158.67,0.03,0.16,-0.03,0.62,0.21,0.82,-99.95,88.49,175.66,-0.03,0.4,-0.0,0.79,0.74,0.59,-151.86,55.52,118.81,0.13,0.35,0.28,1.16,1.48,0.99,-99.94,48.02,143.95,0.1,0.52,0.43,0.53,1.04,1.04
1.84,-144.36,84.13,158.66,0.29,0.01,0.29,0.59,0.28,0.64,-100.14,88.56,175.96,-0.08,0.02,0.15,0.45,0.56,0.7,-151.62,55.96,119.3,0.21,0.2,0.58,1.17,1.53,1.03,-100.34,48.4,143.95,0.37,0.64,0.44,0.52,0.99,1.1
1.85,-144.59,84.18,158.47,0.21,0.19,0.08,0.6,0.56,0.61,-100.12,88.73,176.06,0.25,0.43,-0.04,0.5,0.79,0.65,-151.05,56.23,119.39,0.1,0.21,0.18,1.22,1.61,1.2,-100.7,48.89,144.01,0.26,0.57,0.43,0.66,0.97,1.0
1.86,-144.92,83.82,157.85,0.13,0.16,0.12,0.49,0.52,0.54,-100.36,88.74,175.96,0.12,0.28,-0.01,0.73,0.58,0.52,-150.67,56.46,119.5,0.16,0.25,0.23,1.26,1.76,1.34,-101.43,49.71,144.07,0.48,0.49,0.27,0.67,1.15,1.24
1.87,-144.95,83.72,157.84,0.11,0.19,0.06,0.64,0.56,0.72,-100.31,88.74,176.08,0.12,0.43,0.16,0.7,0.5,0.75,-150.51,56.77,119.62,0.06,0.19,0.42,1.23,1.87,1.38,-101.83,49.84,144.22,0.27,0.38,0.36,0.73,1.14,1.19
1.88,-144.92,83.54,157.86,0.34,0.34,0.07,0.82,0.67,0.72,-100.29,88.87,176.17,0.16,0.36,0.03,0.65,0.57,0.57,-150.0,56.85,119.95,0.31,-0.03,0.46,1.4,1.66,1.17,-102.19,50.07,144.31,0.52,0.42,0.44,0.84,1.37,1.36
1.89,-145.14,83.13,157.27,0.19,0.13,-0.18,0.63,0.65,0.73,-100.54,88.81,176.02,0.2,0.3,0.05,0.29,0.71,0.29,-149.57,57.45,120.02,0.35,0.12,0.44,1.37,2.01,1.47,-102.97,50.74,144.69,0.34,0.61,0.55,0.97,1.53,1.23
1.9,-145.23,83.21,156.76,0.0,0.3,-0.0,0.42,0.73,0.56,-100.36,89.03,176.26,0.17,0.28,0.03,0.62,0.58,0.51,-148.95,57.62,120.25,0.24,0.16,0.35,1.52,1.96,1.55,-103.9,51.17,144.76,0.43,0.3,0.33,1.03,1.58,1.32
1.91,-145.21,82.94,156.49,0.28,0.16,-0.01,0.47,0.53,0.76,-100.46,88.99,176.26,0.13,0.18,0.1,0.84,0.73,0.52,-148.18,58.1,120.73,0.25,0.31,0.3,1.49,1.73,1.25,-104.77,51.42,145.13,0.62,0.37,0.34,1.24,1.46,1.51
1.92,-145.2,82.59,156.29,0.16,0.31,0.14,0.6,0.74,0.49,-100.59,88.85,176.36,0.22,0.11,0.01,0.57,0.45,0.63,-147.78,58.51,121.02,0.28,0.01,0.26,1.64,1.99,1.4,-105.8,51.8,145.43,0.44,0.34,0.39,1.47,1.79,1.42
1.93,-145.53,82.32,155.78,0.37,0.08,0.11,0.43,0.83,0.46,-100.71,88.76,176.34,-0.08,0.17,0.03,0.57,0.58,0.68,-147.29,58.97,121.15,0.38,0.26,0.5,1.57,1.89,1.31,-106.89,52.35,145.79,0.62,0.3,0.37,1.54,1.59,1.74
1.94,-145.52,82.07,155.67,0.4,0.27,0.14,0.39,0.57,0.65,-100.54,88.49,176.37,0.19,0.11,0.19,0.55,0.31,0.66,-146.46,59.57,121.31,0.28,0.22,0.4,1.64,1.67,1.36,-107.92,52.71,146.16,0.6,0.36,0.27,1.55,1.82,1.62
1.95,-145.31,81.64,155.59,0.01,0.26,0.12,0.55,0.6,0.39,-100.33,88.43,176.29,0.09,0.26,0.16,0.66,0.35,0.67,-145.93,59.86,121.72,0.18,0.15,0.4,1.61,1.97,1.3,-109.02,53.15,146.45,0.54,0.27,0.25,1.85,1.92,1.72
1.96,-145.34,81.3,155.68,0.11,0.05,0.08,0.57,0.71,0.39,-100.3,88.62,176.43,-0.0,0.29,-0.02,0.51,0.54,0.57,-145.38,60.22,121.89,0.16,0.2,0.42,1.74,1.65,1.2,-110.03,53.32,146.48,0.45,0.4,0.36,1.86,1.94,1.81
1.97,-144.96,81.27,155.16,0.31,0.19,0.17,0.48,0.75,0.56,-100.13,88.36,176.46,0.1,0.14,0.33,0.38,0.48,0.76,-144.9,60.53,122.26,0.44,0.12,0.42,1.41,1.83,1.16,-111.03,53.75,146.52,0.36,0.28,0.42,2.15,2.02,2.11
1.98,-144.9,81.1,155.47,0.31,0.23,0.05,0.57,0.44,0.5,-99.96,88.51,176.78,0.18,0.11,0.01,0.44,0.18,0.57,-144.61,60.58,122.37,0.24,0.3,0.4,1.33,1.42,1.16,-111.49,54.16,146.64,0.33,0.31,0.28,2.05,2.14,2.01
1.99,-144.91,81.1,155.37,0.05,0.17,0.19,0.51,0.55,0.66,-100.0,88.3,176.57,-0.23,0.14,0.04,0.58,0.3,0.63,-144.45,60.81,122.58,0.27,0.07,0.32,1.42,1.42,1.33,-111.94,54.17,146.32,0.36,0.15,0.54,2.01,1.71,2.08
2.0,-144.4,80.64,155.58,0.01,0.15,-0.04,0.76,0.71,0.75,-99.87,88.04,176.58,0.11,0.22,0.16,0.53,0.14,0.51,-144.03,61.29,122.78,0.06,0.1,0.53,1.31,1.33,1.03,-112.62,54.38,146.34,0.36,0.3,0.32,1.98,2.12,2.1
2.01,-144.43,80.65,155.54,0.1,0.21,0.18,0.58,0.65,0.46,-99.92,87.91,176.42,-0.05,0.11,0.1,0.52,0.33,0.73,-143.66,61.37,122.95,0.14,-0.01,0.31,1.14,1.19,1.13,-113.08,54.97,146.36,0.31,0.48,0.48,1.85,1.96,1.94
2.02,-144.04,80.53,155.56,0.24,0.12,0.16,0.55,0.55,0.48,-99.7,88.12,176.66,0.14,-0.02,0.1,0.62,0.29,0.44,-143.47,61.87,123.34,0.13,0.22,0.29,0.96,1.12,1.22,-113.54,54.94,146.43,0.43,0.34,0.38,1.86,2.08,1.96
2.03,-143.7,80.73,155.73,0.1,0.03,0.06,0.43,0.72,0.51,-99.38,87.94,176.46,-0.13,0.19,-0.02,0.5,0.3,0.46,-143.12,61.98,123.69,0.09,0.18,0.13,0.81,1.18,1.28,-113.87,55.24,146.12,0.35,0.26,0.37,1.65,1.74,1.81
2.04,-143.52,80.23,155.6,0.21,-0.07,0.18,0.36,0.68,0.45,-99.41,87.94,176.57,0.14,-0.02,0.06,0.4,0.1,0.5,-142.65,62.23,123.87,-0.09,0.11,0.11,0.66,1.04,1.33,-114.13,55.7,146.12,0.3,0.23,0.5,1.45,1.87,1.8
2.05,-143.22,80.33,155.66,0.27,0.12,0.15,0.62,0.5,0.26,-99.11,88.06,176.54,0.29,0.2,0.14,0.35,0.18,0.51,-142.3,62.42,124.24,-0.03,0.16,0.41,0.65,1.23,1.34,-114.3,55.5,146.01,0.37,0.27,0.47,1.5,1.59,1.79
2.06,-143.17,80.39,155.71,0.1,0.05,0.21,0.39,0.47,0.29,-99.3,87.97,176.49,0.1,0.26,0.1,0.33,0.34,0.56,-142.16,62.74,124.62,0.14,-0.01,0.31,0.44,1.1,1.19,-114.2,55.86,145.81,0.26,0.16,0.34,1.41,1.63,1.47
2.07,-143.31,80.33,155.52,0.02,0.09,0.09,0.45,0.46,0.42,-99.2,87.92,176.62,0.12,-0.03,0.06,0.5,0.31,0.75,-141.89,63.1,125.02,0.05,-0.07,0.36,0.69,0.99,1.74,-114.04,55.83,145.91,0.22,0.24,0.31,1.01,1.42,1.5
2.08,-143.25,80.39,155.62,0.13,-0.03,0.24,0.36,0.43,0.36,-99.08,88.15,176.3,0.15,-0.08,0.12,0.47,0.28,0.57,-141.67,63.24,125.37,-0.08,0.19,0.34,0.39,1.21,1.75,-113.86,56.11,146.01,0.18,0.16,0.33,0.76,1.39,1.14
2.09,-143.44,80.11,155.65,0.3,0.27,-0.02,0.28,0.54,0.32,-99.29,88.02,176.35,0.19,0.01,-0.06,0.58,0.3,0.72,-141.56,63.06,125.7,-0.0,0.09,0.21,0.5,1.18,1.86,-113.78,56.17,145.92,0.19,0.11,0.24,0.88,1.24,1.29
2.1,-143.5,80.4,155.69,0.07,0.17,0.01,0.33,0.66,0.31,-99.02,88.13,176.51,0.25,0.2,0.12,0.26,0.33,0.62,-141.4,63.2,125.87,0.14,0.28,-0.03,0.5,1.1,1.99,-113.65,56.05,146.04,0.17,0.02,0.35,0.68,1.09,1.17
2.11,-143.51,80.32,155.51,0.08,-0.13,-0.04,0.24,0.46,0.15,-99.26,88.12,176.62,0.19,0.09,0.14,0.42,0.33,0.81,-141.11,63.35,126.42,0.02,0.19,0.19,0.66,1.03,2.0,-113.44,56.29,146.16,0.03,0.06,0.28,0.46,1.34,1.04
2.12,-143.66,80.22,155.62,0.22,0.0,-0.04,0.31,0.8,0.36,-99.31,88.19,176.5,0.21,-0.07,-0.07,0.06,0.3,0.96,-140.89,63.53,126.73,0.07,-0.05,0.29,0.93,1.18,2.42,-112.72,56.27,146.3,0.08,0.03,0.41,0.17,1.26,0.73
2.13,-143.82,80.23,155.53,0.35,0.09,0.11,0.11,0.61,0.17,-99.32,88.25,176.69,0.39,0.19,0.1,0.11,0.6,0.98,-140.72,63.73,127.2,0.12,0.2,0.06,0.9,1.25,2.24,-112.11,56.16,146.57,0.0,-0.1,0.41,0.22,1.33,0.65
