0.02,-18.94,89.37,179.5,0.0,0.02,0.03,-94.62,84.18999999999998,0.19,0.08,0.12,0.03,-170.62,2.37,5.62,0.0899999999999999,0.07,0.01,-129.31,15.94,10.38,0.12,0.01,0.1
0.03,-18.94,89.37,179.5,0.03,0.02,0.06,-94.56,84.06,0.19,0.14,0.12,0.04,-170.59,2.34,5.655,0.0849999999999999,0.085,0.005,-129.31,15.94,10.38,0.12,0.03,0.1
0.04,-19.0,89.37,179.5,0.04,0.07,0.0899999999999999,-94.56,84.0,0.19,0.07,0.1,0.01,-170.56,2.31,5.69,0.08,0.1,0.0,-129.38,15.94,10.38,0.17,0.0,0.11
0.05,-18.94,89.43999999999998,179.5,0.03,0.06,0.07,-94.62,83.93999999999998,0.19,0.11,0.11,0.08,-170.56,2.31,5.75,0.06,0.0899999999999999,0.01,-129.38,15.94,10.38,0.13,0.03,0.15
0.06,-19.0,89.43999999999998,179.5,0.04,0.04,0.04,-94.62,83.87,0.19,0.21,0.06,0.05,-170.62,2.31,5.75,0.02,0.0899999999999999,0.04,-129.44,15.88,10.38,0.16,0.03,0.16
0.07,-19.0,89.43999999999998,179.5,0.07,0.04,0.08,-94.62,83.81,0.19,0.16,0.0849999999999999,0.045,-170.62,2.31,5.81,0.03,0.04,0.03,-129.44,15.88,10.44,0.11,0.05,0.08
0.08,-18.94,89.43999999999998,179.5,0.01,0.03,0.11,-94.62,83.75,0.19,0.11,0.11,0.04,-170.69,2.31,5.87,0.02,0.04,0.04,-129.5,15.81,10.44,0.0899999999999999,0.0,0.06
0.09,-18.94,89.43999999999998,179.5,0.025,0.03,0.065,-94.56,83.68999999999998,0.19,0.0899999999999999,0.16,0.1,-170.75,2.37,5.87,0.0,0.02,0.02,-129.56,15.75,10.5,0.0899999999999999,0.03,0.06
0.1,-18.94,89.43999999999998,179.5,0.04,0.03,0.02,-94.59,83.625,0.19,0.1149999999999999,0.1249999999999999,0.19,-170.75,2.37,5.94,0.02,0.04,0.05,-129.63,15.69,10.5,0.03,0.03,0.0
0.11,-18.94,89.43999999999998,179.5,0.03,0.0,0.0,-94.62,83.56,0.19,0.14,0.0899999999999999,0.28,-170.78,2.37,5.970000000000001,0.03,0.035,0.09,-129.69,15.56,10.56,0.01,0.01,0.02
0.12,-18.94,89.43999999999998,179.5,0.0,0.04,0.04,-94.62,83.5,0.19,0.01,0.19,0.27,-170.81,2.37,6.0,0.04,0.03,0.13,-129.75,15.5,10.63,0.16,0.06,0.06
0.13,-18.94,89.43999999999998,179.5,0.01,0.04,0.04,-94.62,83.5,0.19,0.15,0.21,0.0899999999999999,-170.87,2.37,6.06,0.02,0.08,0.02,-129.75,15.44,10.63,0.25,0.07,0.08
0.14,-19.0,89.43999999999998,179.5,0.04,0.01,0.01,-94.62,83.43999999999998,0.19,0.1,0.16,0.12,-170.94,2.31,6.06,0.05,0.07,0.08,-129.69,15.44,10.63,0.21,0.11,0.02
0.15,-19.0,89.5,179.5,0.0,0.03,0.03,-94.62,83.37,0.19,0.12,0.12,0.17,-171.0,2.37,6.12,0.05,0.02,0.1,-129.69,15.38,10.56,0.22,0.13,0.12
0.16,-19.06,89.5,179.5,0.04,0.06,0.0899999999999999,-94.62,83.37,0.19,0.07,0.07,0.24,-171.06,2.37,6.19,0.06,0.08,0.02,-129.69,15.31,10.5,0.26,0.05,0.0899999999999999
0.17,-19.06,89.5,179.5,0.01,0.06,0.04,-94.69,83.31,0.19,0.1,0.06,0.17,-171.06,2.37,6.19,0.08,0.02,0.0899999999999999,-129.69,15.31,10.44,0.24,0.03,0.05
0.18,-19.06,89.5,179.5,0.02,0.03,0.05,-94.69,83.31,0.22,0.085,0.0749999999999999,0.1299999999999999,-171.06,2.44,6.25,0.06,0.07,0.06,-129.69,15.31,10.44,0.14,0.03,0.17
0.19,-19.09,89.5,179.5,0.03,0.015,0.055,-94.69,83.31,0.25,0.07,0.0899999999999999,0.0899999999999999,-171.06,2.44,6.25,0.01,0.14,0.03,-129.69,15.25,10.44,0.1,0.02,0.16
0.2,-19.12,89.5,179.5,0.04,0.0,0.06,-94.75,83.25,0.25,0.15,0.12,0.0899999999999999,-171.06,2.44,6.25,0.0,0.17,0.0,-129.63,15.25,10.44,0.02,0.01,0.2
0.21,-19.19,89.5,179.5,0.03,0.02,0.06,-94.81,83.22,0.25,0.135,0.1149999999999999,0.0949999999999999,-171.06,2.47,6.279999999999999,0.0,0.135,0.03,-129.63,15.19,10.44,0.02,0.02,0.3
0.22,-19.19,89.5,179.5,0.08,0.05,0.03,-94.87,83.18999999999998,0.25,0.12,0.11,0.1,-171.06,2.5,6.31,0.0,0.1,0.06,-129.66,15.16,10.44,0.01,0.0549999999999999,0.245
0.23,-19.25,89.5,179.5,0.07,0.06,0.05,-94.94,83.18999999999998,0.25,0.0899999999999999,0.0899999999999999,0.0899999999999999,-171.13,2.5,6.31,0.0,0.0899999999999999,0.0,-129.69,15.13,10.44,0.0,0.0899999999999999,0.19
0.24,-19.25,89.5,179.5,0.02,0.05,0.07,-94.94,83.18999999999998,0.25,0.12,0.04,0.1,-171.16,2.47,6.34,0.005,0.0499999999999999,0.01,-129.69,15.13,10.44,0.0,0.06,0.15
0.25,-19.31,89.5,179.5,0.02,0.03,0.04,-95.0,83.18999999999998,0.25,0.11,0.0899999999999999,0.07,-171.19,2.44,6.37,0.01,0.01,0.02,-129.69,15.06,10.44,0.1,0.0899999999999999,0.16
0.26,-19.31,89.5,179.5,0.07,0.02,0.02,-95.0,83.18999999999998,0.25,0.13,0.12,0.07,-171.19,2.37,6.37,0.02,0.01,0.03,-129.63,15.0,10.5,0.07,0.06,0.01
0.27,-19.31,89.5,179.5,0.0899999999999999,0.0,0.01,-95.06,83.18999999999998,0.31,0.12,0.13,0.06,-171.19,2.37,6.37,0.04,0.03,0.04,-129.63,15.0,10.5,0.0,0.0,0.0
0.28,-19.31,89.5,179.5,0.0899999999999999,0.0,0.04,-95.06,83.18999999999998,0.31,0.11,0.18,0.05,-171.19,2.31,6.31,0.05,0.05,0.03,-129.56,14.94,10.5,0.0899999999999999,0.01,0.06
0.29,-19.31,89.5,179.5,0.0649999999999999,0.015,0.025,-95.09,83.22,0.31,0.0999999999999999,0.12,0.075,-171.19,2.31,6.31,0.13,0.06,0.01,-129.5,14.81,10.44,0.12,0.01,0.04
0.3,-19.31,89.5,179.5,0.04,0.03,0.01,-95.12,83.25,0.31,0.0899999999999999,0.06,0.1,-171.13,2.25,6.25,0.14,0.06,0.01,-129.405,14.78,10.44,0.175,0.0199999999999999,0.045
0.31,-19.37,89.5,179.5,0.01,0.06,0.01,-95.19,83.25,0.31,0.0899999999999999,0.02,0.16,-171.13,2.25,6.25,0.19,0.1,0.1,-129.31,14.75,10.44,0.23,0.03,0.05
0.32,-19.37,89.43999999999998,179.5,0.02,0.11,0.01,-95.25,83.25,0.31,0.2,0.01,0.0899999999999999,-171.13,2.28,6.1850000000000005,0.175,0.115,0.05,-129.19,14.69,10.38,0.2,0.01,0.0
0.33,-19.44,89.43999999999998,179.5,0.06,0.11,0.02,-95.25,83.25,0.31,0.14,0.03,0.07,-171.13,2.31,6.12,0.16,0.13,0.0,-129.06,14.63,10.31,0.28,0.02,0.07
0.34,-19.44,89.43999999999998,179.5,0.07,0.11,0.01,-95.31,83.31,0.31,0.0899999999999999,0.04,0.22,-171.13,2.31,6.12,0.12,0.11,0.05,-128.87,14.56,10.31,0.26,0.0,0.01
0.35,-19.44,89.37,179.5,0.02,0.03,0.07,-95.31,83.37,0.31,0.22,0.02,0.13,-171.19,2.31,6.06,0.14,0.11,0.05,-128.75,14.56,10.25,0.27,0.01,0.0899999999999999
0.36,-19.44,89.37,179.5,0.0,0.02,0.07,-95.38,83.37,0.31,0.04,0.07,0.29,-171.25,2.37,6.06,0.0899999999999999,0.1,0.04,-128.56,14.56,10.19,0.33,0.04,0.08
0.37,-19.5,89.31,179.5,0.02,0.03,0.03,-95.38,83.43999999999998,0.31,0.15,0.07,0.22,-171.31,2.37,6.06,0.02,0.05,0.0,-128.38,14.63,10.13,0.45,0.12,0.15
0.38,-19.5,89.31,179.5,0.02,0.06,0.04,-95.38,83.43999999999998,0.31,0.05,0.1,0.14,-171.37,2.44,6.0,0.01,0.04,0.06,-128.25,14.69,10.06,0.55,0.15,0.18
0.39,-19.5,89.31,179.5,0.02,0.08,0.13,-95.38,83.47,0.31,0.115,0.065,0.31,-171.44,2.44,6.0,0.04,0.11,0.1,-128.12,14.87,10.0,0.61,0.12,0.17
0.4,-19.56,89.25,179.5,0.0,0.14,0.16,-95.38,83.5,0.31,0.18,0.03,0.48,-171.5,2.44,5.94,0.07,0.15,0.18,-128.06,15.19,9.94,0.65,0.07,0.23
0.41,-19.56,89.18999999999998,179.5,0.05,0.06,0.27,-95.38,83.43999999999998,0.31,0.16,0.01,0.58,-171.5,2.5,5.87,0.05,0.27,0.25,-128.06,15.5,9.94,0.66,0.13,0.08
0.42,-19.59,89.15999999999998,179.5,0.045,0.08,0.295,-95.38,83.43999999999998,0.31,0.19,0.02,0.4,-171.47,2.435,5.8100000000000005,0.035,0.2,0.185,-128.12,16.0,9.94,0.65,0.1,0.0
0.43,-19.62,89.12999999999998,179.5,0.04,0.1,0.32,-95.31,83.5,0.31,0.14,0.0,0.41,-171.44,2.37,5.75,0.02,0.13,0.12,-128.37,16.47,9.97,0.61,0.12,0.215
0.44,-19.62,89.12999999999998,179.5,0.07,0.1,0.33,-95.31,83.62,0.37,0.28,0.03,0.33,-171.25,2.37,5.62,0.06,0.18,0.01,-128.62,16.94,10.0,0.57,0.14,0.43
0.45,-19.56,89.06,179.56,0.06,0.01,0.38,-95.31,83.68999999999998,0.44,0.18,0.08,0.36,-171.03,2.405,5.53,0.035,0.1349999999999999,0.015,-129.0,17.44,10.06,0.52,0.03,0.29
0.46,-19.56,88.93999999999998,179.5,0.04,0.0,0.33,-95.38,83.81,0.5,0.34,0.34,0.01,-170.81,2.44,5.44,0.01,0.0899999999999999,0.02,-129.38,17.94,10.13,0.44,0.14,0.19
0.47,-19.56,88.87,179.5,0.06,0.0,0.3,-95.38,84.0,0.56,0.11,0.1,0.52,-170.56,2.37,5.37,0.08,0.05,0.05,-129.87,18.5,10.19,0.42,0.16,0.11
0.48,-19.56,88.75,179.5,0.27,0.01,0.26,-95.5,84.31,0.62,0.15,0.27,0.15,-170.25,2.25,5.31,0.1,0.0,0.17,-130.31,19.12,10.19,0.34,0.17,0.12
0.49,-19.56,88.62,179.44,0.25,0.0,0.24,-95.625,84.59,0.685,0.28,0.245,0.1199999999999999,-170.06,2.06,5.37,0.04,0.14,0.17,-130.75,19.69,10.13,0.17,0.15,0.11
0.5,-19.62,88.43999999999998,179.44,0.19,0.03,0.22,-95.75,84.87,0.75,0.41,0.22,0.0899999999999999,-170.0,1.94,5.44,0.06,0.37,0.03,-131.19,20.31,10.13,0.07,0.04,0.11
0.51,-19.685,88.22,179.44,0.245,0.045,0.1699999999999999,-95.94,85.18999999999998,0.81,0.32,0.17,0.16,-169.94,1.75,5.56,0.13,0.44,0.14,-131.595,20.78,10.16,0.1,0.03,0.055
0.52,-19.75,88.0,179.44,0.3,0.06,0.12,-96.03,85.68999999999998,0.78,0.21,0.105,0.205,-169.87,1.56,5.75,0.27,0.34,0.01,-132.0,21.25,10.19,0.13,0.02,0.0
0.53,-19.81,87.68999999999998,179.44,0.3,0.06,0.0899999999999999,-96.12,86.18999999999998,0.75,0.1,0.04,0.25,-169.935,1.31,6.095000000000001,0.19,0.38,0.015,-132.69,21.87,10.31,0.28,0.11,0.05
0.54,-19.87,87.37,179.5,0.11,0.0899999999999999,0.11,-96.25,86.68999999999998,0.75,0.38,0.04,0.29,-170.0,1.06,6.44,0.11,0.42,0.02,-133.405,22.405,10.53,0.24,0.16,0.03
0.55,-19.94,87.18999999999998,179.5,0.17,0.08,0.15,-96.31,87.12,0.75,0.47,0.01,0.03,-170.25,0.75,6.81,0.11,0.36,0.03,-134.12,22.94,10.75,0.2,0.21,0.01
0.56,-20.0,86.81,179.5,0.36,0.0899999999999999,0.26,-96.37,87.43999999999998,0.75,0.57,0.1,0.3,-170.44,0.5,7.19,0.14,0.36,0.51,-134.81,23.44,11.0,0.27,0.17,0.03
0.57,-20.0,86.31,179.56,0.58,0.17,0.12,-96.44,88.06,0.75,0.34,0.07,0.41,-170.69,0.13,7.75,0.29,0.56,0.58,-135.37,24.0,11.25,0.38,0.3,0.08
0.58,-20.06,85.81,179.56,0.74,0.23,0.3,-96.44,88.75,0.69,0.18,0.11,0.05,-170.69,0.13,8.0,0.23,0.35,0.5,-136.12,24.5,11.44,0.5,0.44,0.12
0.59,-20.12,85.12,179.63,0.53,0.11,0.43,-96.44,89.37,0.56,0.35,0.17,0.24,-170.56,0.13,8.25,0.17,0.12,0.36,-136.69,25.0,11.69,0.42,0.64,0.49
0.6,-20.12,84.37,179.69,0.1,0.1,0.05,-96.405,88.905,0.5600000000000012,0.48,0.175,0.31,-170.5,0.13,8.31,0.24,0.05,0.24,-137.19,25.44,11.88,0.44,0.63,0.46
0.61,-20.12,83.59,179.065,0.315,0.105,0.195,-96.37,88.43999999999998,0.5600000000000023,0.61,0.18,0.38,-170.38,0.19,8.38,0.17,0.02,0.31,-137.81,25.81,12.06,0.33,0.5,0.24
0.62,-20.12,82.81,178.44,0.53,0.11,0.34,-96.31,87.56,0.6200000000000044,0.48,0.19,0.17,-170.31,0.25,8.5,0.17,0.05,0.54,-138.09,26.215,12.185,0.41,0.41,0.24
0.63,-20.12,82.06,179.06,0.69,0.02,0.14,-96.19,86.5,0.7400000000000091,0.56,0.18,0.19,-170.31,0.37,8.689999999999998,0.19,0.04,0.58,-138.37,26.62,12.31,0.49,0.32,0.24
0.64,-20.12,80.935,179.345,0.73,0.08,0.13,-96.12,85.31,0.8700000000000044,1.04,0.12,0.32,-170.38,0.44,8.81,0.19,0.02,0.46,-138.62,26.94,12.5,0.59,0.41,0.26
0.65,-20.12,79.81,179.63,0.77,0.14,0.12,-96.06,84.12999999999998,0.7400000000000091,1.19,0.06,0.34,-170.31,0.62,8.939999999999998,0.19,0.02,0.43,-138.88,27.19,12.69,0.49,0.48,0.35
0.66,-20.19,78.87,179.25,1.35,0.07,0.25,-96.0,82.87999999999998,-1.8199999999999927,1.18,0.17,0.43,-170.31,0.81,9.0,0.26,0.16,0.57,-139.25,27.37,13.0,0.42,0.51,0.33
0.67,-20.12,77.93999999999998,178.62,1.42,0.14,0.22,-95.87,81.5,-2.5699999999999927,1.44,0.22,0.51,-170.19,1.12,9.0,0.32,0.28,0.57,-139.31,27.5,13.13,0.37,0.33,0.0899999999999999
0.68,-20.0,76.87,178.12,1.31,0.01,0.2,-95.75,80.12,-3.1299999999999955,1.43,0.23,0.67,-170.0,1.44,8.939999999999998,0.23,0.26,0.61,-139.37,27.69,13.31,0.39,0.0899999999999999,0.32
0.69,-20.0,75.81,177.75,1.07,0.4,0.06,-95.69,78.81,-3.629999999999995,1.21,0.18,0.59,-169.81,1.62,8.939999999999998,0.03,0.3,0.8,-139.75,27.94,13.44,0.32,0.28,0.72
0.7,-19.94,74.75,177.5,0.59,0.47,0.05,-95.565,77.625,-4.039999999999992,1.09,0.19,0.425,-169.25,1.87,8.939999999999998,0.14,0.72,0.98,-139.75,28.12,13.56,0.95,0.05,0.53
0.71,-19.69,73.81,177.095,1.055,0.3299999999999999,0.06,-95.44,76.43999999999998,-4.449999999999989,0.97,0.2,0.26,-168.69,2.06,8.939999999999998,0.2,1.07,1.48,-140.0,28.25,13.81,0.63,0.49,0.74
0.72,-19.44,72.87,176.69,1.52,0.19,0.07,-95.19,75.31,-4.819999999999993,1.57,0.07,0.11,-168.06,2.31,8.81,0.38,0.87,1.5,-139.97,28.405,14.0,0.495,0.33,0.5700000000000001
0.73,-18.94,72.0,176.12,1.78,0.07,0.23,-94.87,74.18999999999998,-5.009999999999991,1.53,0.07,0.24,-167.5,2.56,8.685,0.22,0.945,1.1749999999999998,-139.94,28.56,14.19,0.36,0.17,0.4
0.74,-18.47,70.75,175.75,1.58,0.265,0.405,-94.75,73.62,-5.069999999999993,1.14,0.19,0.25,-166.94,2.81,8.56,0.06,1.02,0.8499999999999999,-140.06,28.94,14.44,0.27,0.28,1.0
0.75,-18.0,69.5,175.38,1.38,0.46,0.58,-94.5,72.56,-5.129999999999996,1.01,0.22,0.15,-166.69,2.94,8.56,0.07,0.9,1.39,-139.94,29.19,14.63,0.73,0.79,1.12
0.76,-17.94,68.94,175.44,0.55,0.4,0.3,-94.31,71.5,-5.129999999999996,1.01,0.38,0.04,-166.75,3.06,8.56,0.07,0.81,2.05,-140.0,29.37,14.63,0.0899999999999999,1.53,0.41
0.77,-17.94,67.87,175.62,0.39,0.24,0.37,-94.25,70.31,-5.069999999999993,0.38,0.34,0.22,-166.81,3.19,8.56,0.15,0.46,1.82,-139.69,29.5,14.56,0.47,1.08,0.0899999999999999
0.78,-18.12,66.75,176.0,0.07,0.27,0.51,-94.31,69.06,-4.879999999999996,0.06,0.12,0.03,-166.81,3.25,8.63,0.11,0.39,0.88,-138.69,30.0,14.38,0.17,0.5,0.34
0.79,-18.37,65.69,176.31,0.27,0.57,0.44,-94.37,68.0,-4.629999999999996,0.07,0.27,0.1,-166.69,3.25,8.75,0.05,0.76,0.79,-137.69,30.5,14.13,1.15,1.98,1.04
0.8,-18.62,64.81,176.63,0.18,0.59,0.25,-94.53,66.97,-4.444999999999993,0.15,0.275,0.105,-166.69,3.25,8.939999999999998,0.0899999999999999,0.7,0.72,-137.06,30.69,13.88,0.13,1.04,0.2
0.81,-18.81,63.94,176.81,0.13,0.44,0.35,-94.69,65.94,-4.259999999999991,0.23,0.28,0.11,-167.0,3.25,9.06,0.47,0.56,0.27,-137.0,30.69,13.81,0.07,0.4,0.44
0.82,-18.75,63.0,176.78,0.625,0.22,0.275,-94.62,64.69,-4.379999999999996,0.88,0.13,0.31,-167.5,3.25,9.13,0.37,0.39,0.2,-136.56,30.94,14.0,0.14,0.02,0.41
0.83,-18.69,62.06,176.75,1.12,0.0,0.2,-94.185,63.75,-4.664999999999992,0.67,0.13,0.36,-168.0,3.28,9.255,0.24,0.27,0.14,-136.0,31.37,14.06,0.57,1.21,0.18
0.84,-18.31,61.13,176.44,0.8499999999999999,0.08,0.12,-93.75,62.81,-4.949999999999989,0.46,0.13,0.41,-168.5,3.31,9.38,0.11,0.15,0.08,-136.12,31.87,14.06,0.02,1.04,0.76
0.85,-17.75,60.44,176.0,0.78,0.15,0.36,-93.5,62.0,-5.009999999999991,0.66,0.07,0.29,-169.0,3.31,9.56,0.0,0.04,0.21,-136.31,32.25,14.155,0.065,1.09,0.96
0.86,-17.31,59.75,175.69,0.53,0.12,0.36,-93.31,61.19,-4.949999999999989,0.58,0.45,0.07,-169.595,3.34,9.81,0.07,0.05,0.185,-136.5,32.63,14.25,0.11,1.14,1.16
0.87,-17.0,59.19,175.5,0.36,0.18,0.4,-93.25,60.44,-4.879999999999996,0.6,0.46,0.0,-170.19,3.37,10.06,0.14,0.06,0.16,-136.69,32.88,14.5,0.24,1.3,0.07
0.88,-16.87,58.75,175.31,0.29,0.02,0.39,-93.25,59.81,-4.759999999999991,0.37,0.06,0.03,-170.56,3.5,10.25,0.02,0.19,0.74,-137.19,32.94,14.87,0.14,1.47,0.49
0.89,-16.75,58.31,175.19,0.2,0.36,0.58,-93.31,59.13,-4.689999999999998,0.59,0.0,0.05,-170.56,3.5,10.31,0.12,0.18,0.79,-138.0,32.88,15.31,0.19,1.42,0.57
0.9,-16.81,57.75,175.19,0.56,0.15,0.32,-93.25,58.44,-4.819999999999993,0.33,0.04,0.0,-170.56,3.5,10.44,0.19,0.79,0.94,-138.56,32.81,15.75,0.06,0.8299999999999998,1.0
0.91,-16.81,57.19,175.19,0.52,0.02,0.38,-93.095,57.815,-4.884999999999991,0.375,0.045,0.02,-170.69,3.5,10.5,0.31,0.54,0.5,-139.5,32.81,16.19,0.06,0.81,0.43
0.92,-16.685,56.845,175.125,0.285,0.08,0.565,-92.94,57.19,-4.949999999999989,0.42,0.05,0.04,-170.75,3.5,10.5,0.21,0.31,0.26,-140.19,32.81,16.69,0.15,0.88,0.53
0.93,-16.56,56.5,175.06,0.05,0.14,0.75,-92.81,56.63,-4.879999999999996,0.25,0.01,0.19,-170.87,3.5,10.56,0.2,0.03,0.2,-140.595,32.935,17.22,0.3099999999999999,0.95,0.52
0.94,-16.56,56.0,175.12,0.22,0.0,0.68,-92.94,56.06,-4.819999999999993,0.41,0.0,0.21,-170.94,3.37,10.69,0.39,0.24,0.37,-141.0,33.06,17.75,0.47,1.02,0.51
0.95,-16.75,55.63,175.38,0.5,0.05,0.71,-93.12,55.63,-4.629999999999996,0.61,0.01,0.1,-170.81,3.37,10.81,0.14,0.34,0.58,-141.31,33.19,17.94,0.69,0.61,0.47
0.96,-17.19,55.38,175.62,0.14,0.33,0.86,-93.37,55.19,-4.449999999999989,0.2,0.2,0.05,-170.5,3.25,10.94,0.05,0.17,0.49,-141.53,33.41,17.625,0.675,0.435,0.395
0.97,-17.69,55.19,176.0,0.05,0.45,0.66,-93.56,54.81,-4.259999999999991,0.31,0.42,0.16,-170.12,3.12,11.0,0.18,0.17,0.11,-141.75,33.63,17.31,0.66,0.26,0.32
0.98,-18.19,55.0,176.31,0.5,0.21,0.2,-93.62,54.69,-4.199999999999989,0.53,0.57,0.4,-169.75,2.94,11.0,0.18,0.28,0.02,-141.69,33.94,16.75,1.13,0.28,0.71
0.99,-18.62,54.81,176.63,1.04,0.38,0.48,-93.87,54.31,-3.9499999999999886,0.8,0.14,0.7,-169.31,2.75,11.06,0.0,0.19,0.31,-141.94,34.0,16.25,0.95,0.8299999999999998,0.93
1.0,-19.06,54.75,177.06,1.0,0.87,0.43,-94.31,54.06,-3.629999999999995,0.5,0.21,0.57,-168.81,2.56,11.12,0.07,0.26,0.55,-141.94,34.0,16.06,0.98,0.0,0.58
1.01,-19.37,54.75,177.31,0.46,0.98,0.21,-94.62,53.81,-3.3799999999999955,0.74,0.08,0.08,-168.37,2.31,11.25,0.03,0.29,0.81,-142.0,33.69,16.06,0.05,0.3,0.91
1.02,-19.25,54.75,177.25,0.11,0.29,0.5,-94.56,53.38,-3.3799999999999955,0.78,0.01,0.07,-168.25,2.12,11.38,0.29,0.14,0.62,-142.37,33.38,16.19,0.03,0.36,1.17
1.03,-18.81,54.56,176.94,0.27,0.93,0.44,-94.31,53.0,-3.4499999999999886,0.73,0.25,0.27,-168.37,1.94,11.56,0.4,1.03,0.05,-142.5,33.19,16.19,0.44,0.35,1.09
1.04,-18.625,54.25,176.875,0.375,0.73,0.29,-94.13,52.75,-3.509999999999991,0.51,0.28,0.36,-168.56,1.94,11.75,0.08,0.81,0.07,-142.875,32.97,16.0,0.225,0.7649999999999999,0.775
1.05,-18.44,53.94,176.81,0.48,0.53,0.14,-94.25,52.56,-3.3799999999999955,0.35,0.41,0.56,-168.37,1.94,11.94,0.43,0.17,0.15,-143.25,32.75,15.81,0.01,1.18,0.46
1.06,-18.62,53.63,177.0,0.51,0.2,0.32,-94.5,52.38,-3.1999999999999886,0.58,0.37,0.46,-168.0,1.94,12.0,0.02,0.6,0.59,-143.87,32.56,15.88,0.12,0.19,0.36
1.07,-19.0,53.31,177.38,0.72,0.6,0.23,-94.81,52.06,-2.9499999999999886,0.86,0.06,0.48,-167.81,2.0,12.0,0.27,0.06,0.48,-145.25,32.25,16.25,0.2,0.6,0.1
1.08,-19.44,53.0,177.62,0.93,0.34,0.17,-94.87,51.69,-2.8799999999999955,0.87,0.54,0.43,-167.62,2.12,11.94,0.01,0.31,0.42,-146.13,31.69,16.62,0.41,0.56,1.97
1.09,-19.56,52.69,177.62,0.67,0.2,0.53,-94.75,51.44,-2.8799999999999955,0.77,0.48,0.36,-167.37,2.06,12.06,0.12,0.23,0.56,-147.13,31.31,17.06,0.89,0.03,2.11
1.1,-19.44,52.38,177.56,0.16,0.35,0.41,-94.5,51.31,-2.9499999999999886,0.45,0.3,0.18,-167.06,1.87,12.13,0.08,0.92,0.87,-147.44,31.25,17.56,1.23,1.75,0.44
1.11,-19.06,52.06,177.44,0.21,0.3,0.3,-94.25,51.19,-2.9499999999999886,0.42,0.1,0.16,-167.0,1.75,12.19,0.24,0.44,0.75,-147.56,31.31,18.0,1.16,2.04,0.14
1.12,-18.81,51.81,177.375,0.485,0.21,0.3299999999999999,-93.94,51.06,-3.009999999999991,0.36,0.1,0.28,-167.19,1.81,12.13,0.07,0.27,0.19,-148.25,31.25,18.44,0.15,2.38,0.01
1.13,-18.56,51.56,177.31,0.76,0.12,0.36,-93.94,51.06,-2.9499999999999886,0.5,0.07,0.7,-167.31,1.94,12.06,0.01,0.17,0.03,-149.0,30.94,19.25,0.53,0.57,0.56
1.14,-18.75,51.37,177.44,0.95,0.0,0.24,-93.94,51.06,-2.9499999999999886,0.64,0.08,0.78,-167.22,2.065,12.0,0.18,0.62,0.415,-150.44,30.44,20.5,0.61,1.31,0.86
1.15,-19.19,51.31,177.69,0.6,0.02,0.06,-93.87,50.94,-2.9499999999999886,0.68,0.31,0.62,-167.13,2.19,11.94,0.35,1.07,0.8,-150.69,30.19,21.5,0.1,0.89,0.33
1.16,-19.37,51.25,177.81,0.43,0.05,0.1,-93.69,50.81,-2.9499999999999886,0.75,0.29,0.37,-167.25,2.12,11.88,0.13,0.75,0.87,-150.62,30.12,22.13,0.44,0.59,0.0899999999999999
1.17,-19.37,51.19,177.81,0.0899999999999999,0.01,0.11,-93.69,50.81,-2.8799999999999955,0.56,0.23,0.31,-167.375,1.995,11.88,0.205,0.7050000000000001,1.125,-150.69,30.19,22.5,0.72,0.76,0.5
1.18,-19.31,51.13,177.87,0.03,0.05,0.15,-93.75,50.88,-2.8199999999999927,0.37,0.25,0.29,-167.5,1.87,11.88,0.28,0.66,1.38,-150.5,30.25,22.62,0.26,1.21,0.36
1.19,-19.37,51.06,178.0,0.17,0.0,0.04,-93.94,50.81,-2.6299999999999955,0.34,0.14,0.16,-167.81,1.75,11.88,0.41,0.39,1.39,-149.94,30.31,22.87,0.06,0.31,0.68
1.2,-19.56,50.88,178.12,0.27,0.16,0.21,-94.19,50.69,-2.4399999999999977,0.51,0.17,0.19,-168.25,1.62,11.81,0.3,0.31,1.22,-149.94,30.44,23.06,0.49,0.19,0.28
1.21,-19.75,50.69,178.19,0.31,0.18,0.24,-94.5,50.56,-2.3199999999999927,0.22,0.03,0.27,-168.69,1.5,11.75,0.11,0.2,0.23,-149.44,30.56,23.31,0.79,0.05,0.61
1.22,-19.94,50.56,178.25,0.2,0.06,0.05,-94.905,50.47,-2.0999999999999943,0.255,0.075,0.575,-168.94,1.37,11.63,0.24,0.29,0.19,-149.19,30.69,23.56,0.03,0.51,0.55
1.23,-20.06,50.5,178.31,0.15,0.15,0.04,-95.31,50.38,-1.879999999999996,0.29,0.12,0.88,-168.87,1.19,11.44,0.06,0.7,0.02,-148.31,30.88,23.69,0.9,0.11,1.93
1.24,-20.31,50.38,178.44,0.27,0.32,0.37,-95.5,50.25,-1.8199999999999927,0.21,0.16,0.73,-168.69,0.94,11.25,0.64,0.08,0.08,-147.31,31.06,23.94,0.81,0.73,1.86
1.25,-20.5,50.31,178.5,0.58,0.27,0.11,-95.5,50.12,-1.8199999999999927,0.32,0.21,0.47,-168.37,0.81,11.06,0.7,0.75,0.12,-146.81,31.31,24.31,0.64,0.46,0.77
1.26,-20.37,50.25,178.44,0.42,0.2,0.02,-95.38,50.0,-1.879999999999996,0.29,0.13,0.07,-167.87,0.75,10.69,0.29,0.48,0.22,-146.0,31.75,24.69,0.47,0.74,1.5
1.27,-20.0,50.31,178.12,0.24,0.15,0.33,-95.25,49.88,-1.9499999999999889,0.37,0.04,0.04,-167.435,0.72,10.19,0.475,0.295,0.475,-145.12,32.19,25.12,0.95,0.4,2.14
1.28,-19.56,50.31,177.87,0.15,0.22,0.27,-95.0,49.75,-2.0699999999999927,0.1,0.02,0.22,-167.0,0.69,9.69,0.66,0.11,0.73,-144.13,32.69,25.62,0.8,0.21,2.11
1.29,-19.31,50.25,177.75,0.38,0.27,0.1,-94.81,49.63,-2.1299999999999955,0.22,0.15,0.44,-166.94,0.75,9.44,0.22,0.18,0.26,-142.94,33.38,26.19,0.19,0.34,1.18
1.3,-19.12,50.19,177.69,0.62,0.21,0.16,-94.81,49.56,-2.1299999999999955,0.29,0.15,0.54,-166.88,0.94,9.38,0.14,0.48,0.48,-142.25,34.0,26.81,1.25,1.01,1.79
1.31,-19.0,50.25,177.56,0.71,0.17,0.27,-94.62,49.38,-2.259999999999991,0.52,0.05,0.65,-166.88,1.06,9.38,0.13,0.74,0.39,-141.12,34.69,27.5,0.73,1.15,1.9
1.32,-18.905,50.405,177.47,0.61,0.125,0.15,-94.31,49.25,-2.3799999999999955,0.68,0.0,0.57,-167.06,1.19,9.31,0.54,1.13,1.37,-140.06,35.44,28.44,0.57,0.46,1.69
1.33,-18.81,50.56,177.38,0.51,0.08,0.03,-94.13,49.19,-2.509999999999991,0.74,0.0,0.16,-167.62,1.25,9.19,0.69,1.26,1.59,-139.12,36.13,29.56,0.75,0.73,0.78
1.34,-18.75,50.75,177.38,0.13,0.13,0.35,-94.06,49.19,-2.509999999999991,0.9,0.25,0.21,-168.37,1.25,9.06,0.5,0.96,0.9,-138.31,36.88,30.75,0.36,0.79,1.07
1.35,-18.595,50.78,177.315,0.6299999999999999,0.08,0.425,-94.06,49.19,-2.509999999999991,1.09,0.34,0.5,-168.81,1.125,8.75,0.5700000000000001,0.945,0.8699999999999999,-137.595,37.69,31.94,0.3399999999999999,0.535,1.4
1.36,-18.44,50.81,177.25,1.13,0.03,0.5,-94.06,49.19,-2.509999999999991,0.98,0.14,1.34,-169.25,1.0,8.439999999999998,0.64,0.93,0.8399999999999999,-136.88,38.5,33.13,0.32,0.28,1.73
1.37,-18.37,50.88,177.19,1.38,0.0899999999999999,0.92,-94.13,49.38,-2.4399999999999977,1.1,0.05,1.41,-169.06,1.0,8.06,0.79,0.75,1.23,-136.44,39.13,34.5,0.31,0.73,1.58
1.38,-18.31,51.0,177.19,1.23,0.2,0.77,-94.25,49.56,-2.3799999999999955,1.29,0.03,1.0,-168.595,1.03,7.59,0.5800000000000001,0.515,1.33,-136.065,39.91,35.875,0.205,0.4649999999999999,1.265
1.39,-18.31,51.25,177.19,0.76,0.24,0.04,-94.5,49.81,-2.3199999999999927,1.3,0.21,0.69,-168.13,1.06,7.12,0.37,0.28,1.43,-135.69,40.69,37.25,0.1,0.2,0.95
1.4,-18.25,51.56,177.12,0.66,0.15,0.27,-94.62,50.12,-2.259999999999991,1.44,0.27,0.62,-167.87,1.12,6.62,0.39,0.76,1.65,-135.06,41.75,38.19,0.17,1.11,0.7
1.41,-18.19,51.81,177.06,1.05,0.0899999999999999,0.22,-94.5,50.44,-2.259999999999991,1.43,0.04,0.87,-167.81,1.19,6.37,0.13,1.29,2.03,-133.5,43.13,38.44,0.5,1.21,2.61
1.42,-18.12,52.06,177.12,1.26,0.14,0.64,-94.5,50.81,-2.259999999999991,1.26,0.02,0.98,-167.87,1.31,6.0,0.2,1.26,2.59,-132.37,44.5,39.56,0.94,2.9,0.86
1.43,-18.215,52.34,177.185,1.3050000000000002,0.18,0.605,-94.47,51.28,-2.289999999999992,1.345,0.1899999999999999,0.995,-168.31,1.19,5.69,0.63,1.09,2.78,-132.63,45.12,41.81,0.93,2.07,0.89
1.44,-18.31,52.62,177.25,1.35,0.22,0.57,-94.44,51.75,-2.3199999999999927,1.43,0.36,1.01,-169.13,0.94,5.44,0.57,0.6,2.38,-133.06,45.56,44.06,0.72,0.67,0.17
1.45,-18.37,53.0,177.25,1.11,0.25,0.18,-94.44,52.13,-2.3199999999999927,1.36,0.33,1.02,-170.12,0.44,5.31,0.0899999999999999,0.41,1.84,-133.25,45.88,45.12,0.75,1.82,0.17
1.46,-18.5,53.44,177.31,0.79,0.13,0.04,-94.56,52.69,-2.3199999999999927,1.32,0.06,0.67,-170.78,0.405,5.125,0.3999999999999999,0.6249999999999999,1.36,-132.72,47.065,46.995,0.46,1.64,0.6649999999999999
1.47,-18.69,53.94,177.44,0.67,0.22,0.02,-94.81,53.31,-2.1999999999999886,1.3,0.15,0.68,-171.44,0.37,4.94,0.71,0.8399999999999999,0.88,-132.19,48.25,48.87,0.17,1.46,1.16
1.48,-18.87,54.38,177.56,0.96,0.4,0.26,-95.0,54.13,-2.1999999999999886,0.67,0.26,0.8199999999999998,-171.56,0.69,4.62,0.66,0.67,0.65,-131.81,49.56,50.94,0.3,0.04,0.22
1.49,-19.0,54.94,177.62,0.95,0.25,0.66,-95.0,54.88,-2.259999999999991,0.75,0.37,0.88,-171.44,0.81,4.19,0.57,0.11,0.69,-131.63,50.69,53.06,0.06,1.15,1.29
1.5,-19.06,55.56,177.75,0.64,0.2,0.3,-95.0,55.56,-2.259999999999991,0.78,0.23,0.66,-171.06,0.88,3.75,0.07,0.15,1.53,-131.12,51.94,55.63,0.65,0.32,0.6
1.51,-19.19,56.25,177.87,0.52,0.23,0.07,-95.06,56.19,-2.259999999999991,0.76,0.04,0.47,-170.69,0.94,3.37,0.22,0.34,1.85,-130.75,53.25,58.63,1.43,0.11,0.6
1.52,-19.25,56.94,177.94,0.64,0.24,0.27,-95.19,56.88,-2.3199999999999927,0.92,0.01,0.53,-170.56,1.12,3.19,0.41,0.73,1.46,-130.69,54.63,62.19,1.13,0.71,0.69
1.53,-19.185,57.625,177.97,0.875,0.15,0.165,-95.19,57.47,-2.3799999999999955,0.835,0.0349999999999999,0.5900000000000001,-170.81,1.56,3.25,0.43,0.62,1.27,-130.5,56.19,66.25,2.73,1.03,1.09
1.54,-19.12,58.31,178.0,1.11,0.06,0.06,-95.19,58.06,-2.4399999999999977,0.75,0.06,0.65,-171.19,2.06,3.5,0.33,0.03,0.62,-130.06,57.5,70.69,2.1,0.12,1.38
1.55,-19.06,59.13,178.06,0.73,0.04,0.0,-95.19,58.87,-2.4399999999999977,0.54,0.03,0.35,-171.69,2.62,3.94,0.61,0.14,0.41,-129.5,58.13,75.0,1.05,0.36,2.07
1.56,-18.965,60.095,178.0,0.4649999999999999,0.135,0.275,-95.095,59.75,-2.5349999999999966,0.56,0.045,0.215,-172.19,3.03,4.345,0.4499999999999999,0.13,0.36,-128.87,58.5,79.5,0.17,0.12,1.15
1.57,-18.87,61.06,177.94,0.2,0.23,0.55,-95.0,60.63,-2.6299999999999955,0.58,0.06,0.08,-172.69,3.44,4.75,0.29,0.12,0.31,-128.38,59.31,79.5,0.75,0.8399999999999999,0.41
1.58,-18.69,62.0,177.87,0.19,0.32,0.72,-94.87,61.5,-2.8199999999999927,0.43,0.04,0.23,-173.19,3.75,5.06,0.12,0.16,0.17,-127.94,59.88,82.37,1.85,0.21,0.68
1.59,-18.44,62.94,177.69,0.08,0.14,0.45,-94.75,62.5,-3.0699999999999927,0.03,0.07,0.18,-173.405,3.935,5.25,0.22,0.265,0.305,-127.095,60.47,82.37,1.165,1.135,0.55
1.6,-18.25,64.0,177.38,0.3,0.11,0.24,-94.44,63.56,-3.509999999999991,0.28,0.06,0.03,-173.62,4.12,5.44,0.32,0.37,0.44,-126.25,61.06,82.37,0.48,2.06,0.42
1.61,-18.06,65.12,177.25,0.76,0.03,0.37,-94.13,64.69,-3.8199999999999927,0.37,0.21,0.39,-173.69,4.31,5.87,0.29,1.13,0.8199999999999998,-125.56,60.81,82.37,0.61,0.64,1.72
1.62,-17.87,66.19,177.12,1.06,0.16,0.46,-94.06,65.69,-3.9499999999999886,0.65,0.18,0.22,-174.0,4.56,6.44,0.1,1.04,0.02,-125.62,59.75,88.56,0.61,0.07,2.13
1.63,-17.62,67.25,176.94,0.79,0.14,0.34,-94.0,66.75,-4.129999999999996,0.91,0.02,0.08,-174.56,4.87,6.87,0.4,0.25,0.6,-125.25,58.75,94.38,0.39,1.09,0.38
1.64,-17.435000000000002,68.22,176.72,0.505,0.09,0.405,-93.81,67.81,-4.379999999999996,0.7150000000000001,0.0699999999999999,0.055,-175.25,5.19,7.5,0.49,0.9900000000000002,0.62,-124.25,57.94,99.56,1.04,2.04,0.26
1.65,-17.25,69.19,176.5,0.22,0.04,0.47,-93.62,68.87,-4.629999999999996,0.52,0.12,0.03,-175.81,5.5,8.31,0.07,0.54,0.35,-123.13,57.06,104.5,1.47,2.98,0.13
1.66,-17.0,70.31,176.25,0.5,0.1,0.45,-93.56,69.87,-4.949999999999989,0.55,0.3,0.03,-176.19,6.0,9.25,0.71,0.49,0.41,-123.06,55.44,108.69,1.87,4.0,2.39
1.67,-16.810000000000002,72.125,175.78,0.985,0.2,0.45,-93.31,71.215,-5.60499999999999,0.85,0.285,0.095,-176.94,6.5,10.25,0.5549999999999999,0.265,0.2499999999999999,-122.34,54.095,112.53,1.63,3.47,1.76
1.68,-16.62,73.93999999999998,175.31,1.47,0.3,0.45,-93.06,72.56,-6.259999999999991,1.15,0.27,0.16,-177.69,7.0,11.25,0.4,0.04,0.0899999999999999,-121.62,52.75,116.37,1.39,2.94,1.13
1.69,-16.5,75.06,174.87,1.16,0.0899999999999999,0.6,-92.94,73.62,-6.819999999999993,1.2,0.21,0.36,-178.81,7.559999999999999,12.37,0.48,0.39,0.6,-120.06,51.88,119.38,0.17,0.73,1.21
1.7,-16.37,76.12,174.5,1.04,0.02,0.37,-92.75,74.68999999999998,-7.319999999999993,1.03,0.28,0.27,-179.685,8.594999999999999,14.03,0.27,0.23,1.19,-119.87,50.5,121.69,0.98,3.53,1.88
1.71,-16.31,77.12,174.38,1.33,0.14,0.11,-92.69,75.25,-7.569999999999993,0.91,0.48,0.13,-180.56,9.63,15.69,0.06,0.07,1.78,-119.56,49.31,124.19,0.46,2.08,0.04
1.72,-16.25,78.18999999999998,174.31,1.45,0.17,0.08,-92.56,76.31,-8.129999999999995,1.37,0.52,0.0,-180.75,9.94,16.31,0.75,0.23,1.85,-117.0,48.94,127.44,0.88,3.2,1.42
1.73,-16.19,79.18999999999998,174.12,1.43,0.15,0.18,-92.69,77.31,-8.259999999999993,1.7,0.62,0.01,-180.81,10.5,17.37,0.8,0.05,1.19,-115.19,48.25,129.81,0.76,2.39,0.64
1.74,-16.035,80.125,173.31,1.3199999999999998,0.26,0.18,-92.72,78.25,-8.72999999999999,1.545,0.4599999999999999,0.17,-180.69,10.94,18.31,0.61,0.52,0.94,-115.06,47.0,130.81,0.02,4.23,0.44
1.75,-15.88,81.06,172.5,1.21,0.37,0.18,-92.75,79.18999999999998,-9.199999999999989,1.39,0.3,0.33,-180.5,11.44,19.37,0.42,0.57,1.21,-114.5,46.06,132.37,0.56,1.27,2.49
1.76,-15.69,81.93999999999998,171.56,1.15,0.2,0.27,-92.62,80.18999999999998,-10.199999999999989,1.27,0.2,0.01,-180.44,12.0,20.44,0.45,0.27,1.2,-113.25,45.94,133.75,1.36,2.12,2.3
1.77,-15.63,82.68999999999998,171.13,0.9900000000000002,0.03,0.17,-92.62,81.12,-11.129999999999995,1.16,0.14,0.07,-180.69,12.565,21.875,0.28,0.26,1.04,-110.845,45.565,135.905,0.945,2.53,1.975
1.78,-15.5,83.37,171.13,0.53,0.1,0.17,-92.62,81.93999999999998,-12.00999999999999,0.8499999999999999,0.29,0.0899999999999999,-180.94,13.13,23.31,0.11,0.25,0.88,-108.44,45.19,138.06,0.53,2.94,1.65
1.79,-15.38,84.06,171.13,0.07,0.57,0.0,-92.5,82.62,-13.129999999999995,0.55,0.35,0.32,-181.75,13.5,25.25,0.0,0.14,0.9,-107.37,44.44,139.5,0.76,0.28,3.16
1.8,-15.38,84.75,171.13,0.11,0.62,0.12,-92.31,83.31,-13.129999999999995,0.43,0.67,0.12,-182.69,13.75,27.31,0.72,0.48,1.24,-104.875,43.875,141.56,0.7899999999999999,0.285,1.79
1.81,-15.38,85.56,171.2,0.29,0.54,0.5,-92.25,84.12999999999998,-13.129999999999995,0.11,0.45,0.7,-183.5,14.0,29.31,1.1,1.6,1.27,-102.38,43.31,143.62,0.8199999999999998,0.29,0.42
1.82,-15.5,86.31,171.26,0.8,0.17,0.52,-92.25,84.81,-13.129999999999995,0.8,0.47,0.72,-183.94,14.13,31.25,0.58,1.6,0.96,-102.38,42.75,145.06,0.14,0.02,0.13
1.83,-15.5,86.905,171.26,0.72,0.195,0.29,-92.25,85.43999999999998,-13.069999999999991,0.9,0.49,0.23,-183.87,14.38,33.13,0.63,0.77,0.37,-102.06,42.13,145.87,0.6,1.72,0.23
1.84,-15.5,87.5,171.26,0.64,0.22,0.06,-92.25,85.97,-13.004999999999994,0.75,0.355,0.235,-183.5,14.63,35.06,0.9900000000000002,0.17,0.97,-102.19,41.56,147.0,0.9,1.02,0.89
1.85,-15.44,88.0,171.2,0.61,0.24,0.12,-92.25,86.5,-12.939999999999996,0.6,0.22,0.24,-183.25,14.87,37.06,0.38,0.94,0.86,-102.69,41.25,148.75,1.2,0.57,1.06
1.86,-15.38,88.18999999999998,171.13,0.42,0.14,0.2,-92.25,86.93999999999998,-12.939999999999996,0.79,0.0,0.23,-183.19,15.13,39.06,0.36,0.46,0.41,-103.38,41.19,150.31,1.37,0.36,0.73
1.87,-15.25,88.43999999999998,171.01,0.15,0.27,0.41,-92.19,87.37,-13.00999999999999,0.56,0.0,0.03,-182.47,15.625,40.56,0.37,0.575,0.255,-104.5,40.94,151.94,1.34,0.2,1.17
1.88,-15.06,88.62,170.95,0.31,0.5,0.05,-92.12,87.62,-13.00999999999999,0.03,0.19,0.27,-181.75,16.12,42.06,0.38,0.69,0.1,-105.88,40.88,154.12,1.09,2.68,0.02
1.89,-14.94,88.62,170.88,0.26,0.81,0.27,-92.0,87.81,-13.00999999999999,0.22,0.18,0.32,-180.87,16.62,43.56,0.13,0.4,0.41,-107.44,41.19,156.25,0.89,3.79,3.49
1.9,-14.75,88.5,170.88,0.53,0.8199999999999998,0.14,-91.87,87.87999999999998,-13.069999999999991,0.33,0.34,0.0,-180.06,17.06,45.31,1.26,0.8399999999999999,1.84,-108.0,41.81,157.0,0.7,3.72,2.2
1.91,-14.5,88.25,171.07,0.28,0.7249999999999999,0.32,-91.69,87.93999999999998,-13.129999999999995,0.22,0.62,0.07,-179.5,17.56,47.13,0.98,1.27,1.79,-109.5,42.62,155.25,0.71,0.66,1.7
1.92,-14.25,88.0,171.26,0.03,0.63,0.5,-91.53,87.90999999999998,-13.224999999999994,0.185,0.5700000000000001,0.07,-179.5,17.81,49.19,0.05,1.43,1.16,-110.82,43.13,153.31,0.95,0.2,0.25
1.93,-14.0,87.68999999999998,171.38,0.21,0.57,0.35,-91.37,87.87999999999998,-13.319999999999991,0.15,0.52,0.07,-179.69,18.06,51.19,1.22,0.12,0.29,-112.0,43.63,151.87,0.8199999999999998,0.74,0.27
1.94,-13.75,87.37,171.51,0.19,0.33,0.51,-91.19,87.81,-13.379999999999995,0.06,0.29,0.15,-179.94,18.44,52.94,0.97,1.44,0.16,-113.32,44.44,150.63,1.34,0.9,0.59
1.95,-13.44,87.06,171.7,0.29,0.22,0.38,-91.0,87.75,-13.50999999999999,0.0,0.17,0.07,-179.5,18.815,54.565,0.5449999999999999,0.965,0.3399999999999999,-113.32,45.19,149.62,0.27,0.39,1.11
1.96,-13.375,86.75,171.79,0.345,0.215,0.285,-90.87,87.68999999999998,-13.569999999999991,0.8299999999999998,0.13,0.1,-179.06,19.19,56.19,0.12,0.49,0.52,-113.76,45.69,149.38,0.94,2.47,0.8399999999999999
1.97,-13.31,86.43999999999998,171.88,0.4,0.21,0.19,-90.69,87.62,-13.629999999999995,0.47,0.19,0.72,-178.87,19.44,56.88,1.15,0.8499999999999999,0.65,-114.01,45.81,149.38,0.91,1.79,1.82
1.98,-17.56,85.43999999999998,170.95,0.37,0.26,0.19,-91.94,87.495,-13.629999999999995,0.425,0.185,0.44,-177.69,20.12,57.94,0.91,0.49,0.56,-113.82,46.0,148.69,0.57,0.5,1.67
1.99,-18.19,85.37999999999998,170.82,0.27,0.1,0.03,-93.19,87.37,-13.629999999999995,0.38,0.18,0.16,-176.69,20.88,59.06,0.87,0.46,0.32,-113.39,46.06,147.81,0.35,1.31,1.93
2.0,-18.87,85.31,170.7,0.07,0.48,0.08,-93.56,87.37,-13.689999999999996,0.18,0.01,0.41,-175.875,21.41,60.25,1.29,0.24,0.28,-113.57,46.0,147.63,1.3,1.05,0.92
2.01,-19.31,85.31,170.7,0.18,0.51,0.21,-93.87,87.43999999999998,-13.689999999999996,0.03,0.13,0.14,-175.06,21.94,61.44,1.71,0.02,0.24,-114.69999999999996,45.75,148.12,2.02,3.92,0.05
2.02,-19.75,85.37999999999998,170.63,0.57,0.31,0.26,-94.25,87.37,-13.75,0.05,0.2,0.0899999999999999,-174.94,18.81,61.44,0.29,0.89,0.56,-115.26,45.38,148.19,0.93,1.75,0.41
2.03,-20.19,85.43999999999998,170.63,0.56,0.29,0.29,-94.69,87.25,-13.819999999999991,0.32,0.24,0.16,-174.38,19.0,61.63,0.16,0.75,0.26,-114.82,44.88,147.87,0.33,0.76,0.22
2.04,-20.56,85.56,170.57,0.01,0.24,0.24,-94.87,87.18999999999998,-13.819999999999991,0.24,0.06,0.18,-173.38,19.56,61.69,0.78,0.36,0.04,-114.82,44.25,148.56,1.02,0.92,0.15
2.05,-20.935,85.655,170.48,0.0199999999999999,0.215,0.37,-95.06,87.12,-13.819999999999991,0.0,0.22,0.39,-172.5,20.31,61.69,0.74,0.98,0.11,-114.63,43.5,149.75,2.11,4.34,2.24
2.06,-21.31,85.75,170.39,0.03,0.19,0.5,-95.375,86.965,-13.849999999999994,0.015,0.115,0.42,-171.5,20.94,61.69,0.62,0.77,0.05,-114.755,42.5,150.56,1.515,3.585,1.145
2.07,-21.69,85.87,170.39,0.18,0.02,0.03,-95.69,86.81,-13.879999999999995,0.03,0.01,0.45,-171.19,21.37,61.81999999999999,0.94,0.36,0.08,-114.88,41.5,151.37,0.92,2.83,0.05
2.08,-22.0,86.12,170.32,0.0,0.08,0.0,-95.87,86.62999999999998,-13.939999999999996,0.14,0.14,0.44,-170.62,21.69,62.00999999999999,0.73,0.07,0.16,-113.82,40.56,153.06,0.53,2.27,0.0
2.09,-22.25,86.37,170.26,0.07,0.11,0.06,-96.06,86.56,-13.879999999999995,0.06,0.34,0.24,-170.405,21.72,62.25999999999999,0.45,0.31,0.48,-112.82,39.625,155.09,0.335,1.3,0.75
2.1,-22.56,86.62999999999998,170.26,0.11,0.0899999999999999,0.15,-96.44,86.5,-13.819999999999991,0.18,0.19,0.0899999999999999,-170.19,21.75,62.50999999999999,0.17,0.55,0.8,-111.82,38.69,157.12,0.14,0.33,1.5
2.11,-22.81,86.81,170.26,0.07,0.15,0.05,-96.69,86.31,-13.819999999999991,0.27,0.01,0.31,-170.19,21.62,62.69,0.08,0.94,1.03,-111.19999999999996,37.94,156.12,0.89,1.77,1.02
2.12,-23.06,87.0,170.2,0.15,0.1,0.37,-96.81,86.12,-13.879999999999995,0.6,0.33,0.44,-170.62,21.19,63.31999999999999,0.04,0.92,0.59,-110.32,37.44,154.56,0.89,0.8,0.76
2.13,-23.25,87.25,170.2,0.06,0.0899999999999999,0.17,-97.0,86.06,-13.879999999999995,0.54,0.38,0.18,-170.81,20.94,63.50999999999999,0.2,0.03,0.17,-109.63,37.0,152.63,0.23,0.51,2.0
2.14,-23.56,87.43999999999998,170.2,0.1,0.12,0.23,-97.25,85.81,-13.879999999999995,0.31,0.38,0.21,-170.87,20.81,63.75999999999999,0.25,0.68,0.79,-109.76,36.5,151.12,0.12,2.23,3.05
2.15,-23.78,87.68999999999998,170.165,0.105,0.175,0.165,-97.44,85.5,-14.00999999999999,0.01,0.01,0.57,-171.0,20.75,63.94,0.74,0.24,0.59,-109.82,36.0,149.94,0.3,0.3,1.61
2.16,-24.0,87.93999999999998,170.13,0.11,0.23,0.1,-97.625,85.405,-13.974999999999993,0.23,0.045,0.4499999999999999,-171.06,20.62,64.19,0.61,1.07,0.0,-109.38,35.38,148.44,0.51,1.68,0.6
2.17,-24.06,88.06,170.13,0.52,0.04,0.07,-97.81,85.31,-13.939999999999996,0.45,0.08,0.33,-170.94,20.62,64.19,0.0899999999999999,0.54,0.26,-109.03999999999998,35.005,147.22,0.405,1.48,1.185
2.18,-24.31,88.25,170.13,0.49,0.14,0.28,-98.06,85.06,-14.00999999999999,0.8,0.02,0.49,-170.56,20.94,63.94,0.12,0.68,1.51,-108.69999999999996,34.63,146.0,0.3,1.28,1.77
2.19,-24.37,88.37,170.13,0.15,0.01,0.27,-98.0,84.68999999999998,-14.189999999999996,0.0899999999999999,0.0899999999999999,0.57,-170.215,21.25,63.975,0.1,0.635,0.975,-108.57,34.13,144.56,0.49,4.08,0.91
2.2,-24.44,88.5,170.13,0.04,0.12,0.26,-97.81,84.56,-14.25999999999999,0.56,0.3,0.26,-169.87,21.56,64.00999999999999,0.08,0.59,0.44,-110.445,33.91,144.56,0.255,3.29,1.16
2.21,-24.44,88.62,170.13,0.06,0.05,0.45,-97.81,84.62,-14.189999999999996,0.21,0.05,0.59,-169.69,21.75,64.44,0.11,1.37,1.01,-112.32,33.69,144.56,0.02,2.5,1.41
2.22,-24.44,88.68999999999998,170.13,0.38,0.15,0.59,-97.81,84.5,-14.25999999999999,0.33,0.04,0.8199999999999998,-168.94,22.37,64.38,0.43,2.23,1.68,-114.38,33.69,144.81,0.96,0.49,0.79
2.23,-24.31,88.62,170.13,0.49,0.24,0.28,-97.69,84.37,-14.319999999999991,0.54,0.28,0.15,-169.0,22.62,64.25999999999999,0.23,1.84,1.08,-115.88,33.63,144.56,1.32,1.85,0.31
2.24,-24.12,88.68999999999998,170.13,0.07,0.12,0.0899999999999999,-97.69,84.25,-14.379999999999995,0.24,0.06,0.0,-169.94,21.94,64.50999999999999,0.13,0.68,1.0,-117.63,33.5,144.31,0.92,1.44,1.42
2.25,-23.685,88.78,170.26,0.09,0.27,0.1299999999999999,-97.44,84.0,-14.5,0.42,0.4,0.39,-170.94,21.25,64.69,0.95,0.3,1.59,-119.19999999999996,33.25,144.5,0.36,1.23,1.52
2.26,-23.25,88.87,170.39,0.11,0.42,0.17,-97.095,83.78,-14.595,0.24,0.56,0.235,-171.19,21.25,64.75999999999999,1.26,0.25,1.22,-120.82,33.25,144.75,0.92,0.1,0.88
2.27,-22.94,89.0,170.45,0.39,0.03,0.02,-96.75,83.56,-14.689999999999996,0.06,0.72,0.08,-171.56,21.25,65.00999999999999,1.86,0.95,0.68,-122.19999999999996,33.44,144.69,0.76,0.94,1.52
2.28,-22.875,89.095,170.325,0.245,0.2499999999999999,0.285,-96.69,83.43999999999998,-14.629999999999995,1.09,0.45,0.57,-172.19,20.75,65.32,1.27,2.64,0.77,-123.07,33.44,144.75,0.23,0.92,1.76
2.29,-22.81,89.18999999999998,170.2,0.1,0.47,0.55,-96.28,83.28,-14.629999999999995,0.8200000000000001,0.515,0.72,-171.065,21.625,64.945,1.24,2.08,0.52,-123.63,33.5,145.0,0.48,0.17,0.65
2.3,-22.69,89.31,170.07,0.59,0.8499999999999999,0.46,-95.87,83.12,-14.629999999999995,0.55,0.58,0.87,-169.94,22.5,64.57,1.21,1.52,0.27,-124.14,33.94,144.81,0.8,0.67,0.12
2.31,-22.56,89.43999999999998,170.01,0.47,0.64,0.4,-95.81,83.5,-14.629999999999995,0.54,0.69,0.9,-169.75,22.81,64.69,0.67,1.57,0.65,-124.63,34.63,144.44,0.78,0.0899999999999999,0.26
2.32,-22.37,89.5,169.95,1.34,0.08,0.57,-95.94,84.06,-14.439999999999996,0.93,0.51,0.27,-169.81,22.965,65.1,0.42,1.285,0.785,-125.51,35.38,144.38,1.3,1.46,1.6
2.33,-22.25,89.5,169.88,1.49,0.67,0.23,-95.87,84.18999999999998,-14.439999999999996,1.07,0.45,0.23,-169.87,23.12,65.50999999999999,0.17,1.0,0.92,-126.19999999999996,36.13,144.19,0.31,0.76,1.24
2.34,-22.25,89.56,169.82,0.71,1.03,0.51,-95.62,84.12999999999998,-14.439999999999996,1.6,0.06,0.3,-169.5,23.69,65.75999999999999,1.64,0.69,0.9900000000000002,-127.01,37.06,144.0,0.49,2.41,0.8299999999999998
2.35,-22.06,89.68999999999998,169.82,0.43,0.44,0.35,-95.44,84.25,-14.25,1.1,0.24,0.25,-169.94,23.81,66.00999999999999,2.03,0.8499999999999999,0.87,-127.69999999999996,38.06,144.19,0.08,0.78,1.68
2.36,-21.59,89.47,169.695,0.66,0.59,0.185,-95.31,84.18999999999998,-14.25,0.39,0.32,0.0899999999999999,-170.19,23.81,66.13,0.38,0.16,0.26,-127.88,39.0,144.19,0.22,0.03,1.36
2.37,-21.12,89.25,169.57,0.89,0.74,0.02,-94.905,83.97,-14.409999999999997,0.7649999999999999,0.545,0.445,-169.62,24.25,66.13,0.11,1.27,0.45,-128.01,39.81,143.94,0.06,0.73,0.44
2.38,-20.56,88.87,169.32,0.64,0.73,0.2,-94.5,83.75,-14.569999999999991,1.14,0.77,0.8,-169.06,24.81,66.13,0.17,1.83,0.01,-128.01,40.63,143.62,1.71,8.41,1.25
2.39,-20.12,88.43999999999998,169.19,0.19,0.39,0.0,-94.06,83.68999999999998,-14.629999999999995,1.23,0.71,0.54,-169.13,24.75,66.44,0.72,0.21,1.3,-127.76,40.38,143.19,6.99,0.79,2.28
2.4,-19.87,88.06,169.13,0.52,0.06,0.11,-94.0,83.81,-14.5,0.0,0.22,0.1,-170.19,23.94,67.38,0.55,0.34,0.78,-127.915,40.13,143.405,3.66,1.555,2.205
2.41,-19.94,87.87999999999998,169.13,0.76,0.05,0.19,-94.06,84.0,-14.310000000000002,0.44,0.31,0.0899999999999999,-171.44,22.87,68.44,0.17,0.2,0.38,-128.07,39.88,143.62,0.33,2.32,2.13
2.42,-20.12,87.75,169.19,0.94,0.45,0.0899999999999999,-94.31,84.12999999999998,-14.189999999999996,1.33,0.27,0.02,-172.44,21.94,69.07,0.67,0.31,0.64,-128.76,39.88,143.5,3.21,3.98,3.19
2.43,-20.31,87.62,169.25,0.26,0.46,0.0,-94.56,84.0,-14.189999999999996,0.52,0.66,0.29,-172.87,21.56,69.25999999999999,0.54,0.13,0.71,-129.39,39.63,143.25,2.51,2.45,0.48
2.44,-20.56,87.37,169.38,0.62,0.0,0.33,-94.81,83.68999999999998,-14.189999999999996,0.0,0.38,0.1,-172.94,21.31,69.25999999999999,0.44,0.8399999999999999,0.15,-129.51,39.31,142.31,1.39,0.28,0.51
2.45,-20.88,87.06,169.44,0.49,0.17,0.21,-94.94,83.31,-14.189999999999996,0.38,0.13,0.63,-172.94,21.37,69.13,0.71,1.5,0.18,-129.45,39.38,141.31,1.76,0.53,1.08
2.46,-21.06,86.75,169.44,0.3,0.17,0.05,-95.06,83.18999999999998,-14.129999999999995,0.17,0.0,0.87,-172.31,21.87,69.07,0.92,0.41,0.66,-129.32,39.94,140.69,12.06,5.79,5.8
2.47,-21.12,86.37,169.44,0.29,0.12,0.14,-95.19,83.12,-14.0,0.02,0.05,0.66,-171.31,22.69,68.94,0.39,2.3,0.03,-128.63,39.44,140.0,0.7,3.06,3.89
2.48,-21.19,86.06,169.38,0.42,0.26,0.08,-95.44,83.0,-14.0,0.2,0.04,0.04,-170.81,23.25,68.75999999999999,1.14,2.57,0.22,-129.2,39.38,140.31,0.58,4.82,0.04
2.49,-21.315,85.59,169.315,0.235,0.155,0.185,-95.655,82.845,-12.689999999999998,0.165,0.265,0.03,-171.0,23.06,68.50999999999999,1.65,1.33,0.34,-130.07,39.75,140.5,1.55,0.69,1.93
2.5,-21.44,85.12,169.25,0.05,0.05,0.29,-95.87,82.68999999999998,-11.379999999999995,0.13,0.49,0.02,-171.81,22.44,68.32,0.04,0.29,1.06,-131.6,40.065,141.125,0.865,0.3849999999999999,1.74
2.51,-21.62,84.81,169.25,0.11,0.06,0.25,-96.0,82.5,-10.939999999999996,0.0,0.41,0.02,-172.56,21.44,68.38,1.13,0.77,1.32,-133.13,40.38,141.75,0.18,0.08,1.55
2.52,-21.81,84.56,169.32,0.3,0.11,0.21,-96.06,82.25,-10.629999999999995,0.15,0.24,0.38,-173.59,20.565,68.785,0.835,0.61,1.04,-133.76,40.5,141.69,0.12,0.2,0.63
2.53,-22.0,84.25,169.32,0.69,0.25,0.02,-95.94,82.0,-10.189999999999996,0.7,0.32,0.62,-174.62,19.69,69.19,0.54,0.45,0.76,-134.2,40.53,141.405,0.495,0.53,0.55
2.54,-22.13,84.12999999999998,169.38,0.64,0.3,0.1,-95.87,81.81,-9.629999999999995,0.31,0.64,1.08,-175.56,19.0,69.57,1.72,0.07,0.53,-134.64,40.56,141.12,0.87,0.86,0.47
2.55,-22.25,84.06,169.44,0.08,0.34,0.68,-95.94,81.93999999999998,-9.5,0.02,0.47,1.07,-176.25,18.37,69.69,0.5,1.4,0.19,-134.82,40.56,140.75,1.11,0.46,0.53
2.56,-22.25,84.0,169.38,0.05,0.35,0.77,-96.06,82.0,-9.189999999999996,0.26,0.14,0.66,-176.81,17.44,69.69,0.52,1.51,2.26,-135.01,40.56,140.37,1.02,0.18,0.29
2.57,-22.13,84.0,169.32,0.45,0.46,0.59,-96.12,82.06,-8.819999999999993,0.32,0.13,0.75,-176.06,17.56,69.07,0.04,1.15,2.95,-135.2,40.56,140.19,0.8399999999999999,0.14,0.15
2.58,-22.0,84.0,169.25,0.77,0.64,0.53,-96.12,82.12,-8.5,0.74,0.07,0.21,-174.87,18.69,68.25999999999999,1.54,1.13,1.14,-135.38,40.63,140.0,1.3,0.64,1.44
2.59,-21.875,83.875,169.25,0.565,0.515,0.28,-96.12,82.18999999999998,-8.379999999999995,0.7,0.03,0.13,-173.87,19.62,67.57,1.94,0.2,0.53,-135.7,40.69,140.0,0.46,0.35,1.26
2.6,-21.75,83.75,169.25,0.36,0.39,0.03,-96.06,82.06499999999998,-8.129999999999995,0.495,0.04,0.115,-172.37,21.0,66.63,0.73,0.48,0.45,-136.13,40.88,140.13,0.49,0.62,1.13
2.61,-21.62,83.5,169.19,0.26,0.05,0.51,-96.0,81.93999999999998,-7.8799999999999955,0.29,0.05,0.1,-171.06,21.94,65.94,0.79,1.2,0.32,-136.32,40.94,140.13,0.51,1.21,0.65
2.62,-21.5,83.18999999999998,169.19,0.08,0.23,0.6,-96.0,81.87,-7.569999999999993,0.15,0.13,0.18,-171.06,21.81,65.82,0.04,1.51,0.75,-136.51,41.0,140.06,1.13,0.3,1.24
2.63,-21.44,82.87999999999998,169.19,0.34,0.32,0.51,-96.06,81.75,-7.3799999999999955,0.36,0.25,0.17,-171.31,21.37,65.75999999999999,1.81,1.52,0.54,-136.82,41.06,140.06,0.76,0.73,1.04
2.64,-21.37,82.68999999999998,169.19,0.38,0.29,0.32,-96.06,81.62999999999998,-7.189999999999998,0.47,0.42,0.22,-171.56,20.69,65.82,0.06,0.3,1.19,-136.95,41.13,140.19,1.08,0.61,0.8499999999999999
2.65,-21.31,82.56,169.19,0.17,0.19,0.13,-96.06,81.62999999999998,-7.189999999999998,0.38,0.53,0.2,-172.25,19.62,66.13,0.21,0.21,1.26,-136.57,41.06,140.06,1.16,0.26,0.66
2.66,-21.25,82.37,169.07,0.02,0.08,0.0899999999999999,-96.12,81.68999999999998,-7.189999999999998,0.06,0.26,0.12,-173.38,18.5,66.63,0.64,0.62,1.07,-135.95,41.06,139.69,1.23,0.54,1.23
2.67,-21.19,82.25,168.88,0.0,0.02,0.07,-96.25,81.81,-7.189999999999998,0.12,0.1,0.25,-174.44,17.31,67.07,0.66,1.63,0.18,-135.32,40.94,139.37,0.7,0.13,1.26
2.68,-21.19,82.12,168.88,0.05,0.02,0.13,-96.25,81.81,-7.060000000000001,0.06,0.11,0.21,-174.69,16.94,67.13,0.78,1.36,0.26,-134.95,40.94,139.44,0.54,0.35,0.8
2.69,-21.405,82.03,169.19,0.11,0.015,0.09,-96.37,81.75,-6.819999999999993,0.04,0.22,0.37,-174.0,16.94,66.82,0.41,0.53,0.67,-134.88,40.94,139.5,0.3,0.43,0.01
2.7,-21.62,81.93999999999998,169.5,0.17,0.01,0.05,-96.465,81.72,-6.439999999999998,0.0649999999999999,0.175,0.355,-173.0,17.19,66.19,1.13,0.03,1.08,-134.76,40.94,139.5,0.52,0.39,0.47
2.71,-21.87,81.93999999999998,169.88,0.11,0.15,0.01,-96.56,81.68999999999998,-6.060000000000001,0.0899999999999999,0.13,0.34,-172.5,17.31,65.75999999999999,1.24,0.7,1.4,-134.76,40.97,139.625,0.29,0.625,0.76
2.72,-22.19,81.93999999999998,170.25,0.13,0.23,0.03,-96.81,81.68999999999998,-5.689999999999998,0.15,0.0899999999999999,0.03,-172.5,17.06,65.69,1.13,0.92,1.84,-134.76,41.0,139.75,0.06,0.86,1.05
2.73,-22.37,81.87,170.56,0.08,0.42,0.01,-97.06,81.75,-5.439999999999998,0.19,0.05,0.28,-172.375,17.125,65.725,0.6299999999999999,0.885,1.605,-134.95,41.0,139.75,0.08,0.08,0.64
2.74,-22.56,81.81,170.69,0.0,0.39,0.07,-97.31,81.75,-5.129999999999996,0.03,0.03,0.45,-172.25,17.19,65.75999999999999,0.13,0.8499999999999999,1.37,-135.13,40.94,139.75,0.58,0.33,0.67
2.75,-22.62,81.81,170.5,0.13,0.19,0.13,-97.56,81.81,-4.939999999999998,0.08,0.03,0.36,-172.56,17.12,65.69,0.9,0.32,0.35,-135.26,40.94,139.75,0.2,0.17,0.21
2.76,-22.75,81.81,170.5,0.13,0.04,0.27,-97.81,81.93999999999998,-4.75,0.03,0.16,0.33,-173.0,17.0,65.50999999999999,0.59,0.69,0.11,-135.64,41.0,140.0,0.27,0.23,0.18
2.77,-22.87,81.81,170.75,0.1,0.02,0.28,-98.0,82.0,-4.689999999999998,0.06,0.22,0.27,-173.25,16.87,65.25999999999999,0.31,0.7,0.13,-135.76,40.94,140.06,0.28,0.21,0.58
2.78,-23.06,81.87,171.06,0.0899999999999999,0.13,0.25,-98.25,82.12,-4.439999999999998,0.15,0.12,0.0,-173.31,16.75,65.07,0.34,0.14,0.0899999999999999,-136.01,41.0,140.13,0.12,0.11,0.6
2.79,-23.25,81.93999999999998,171.13,0.08,0.14,0.18,-98.44,82.18999999999998,-4.25,0.18,0.15,0.12,-173.0,17.0,64.75999999999999,0.43,0.0,0.01,-136.2,41.0,140.25,0.15,0.01,0.12
2.8,-23.345,82.0,171.16,0.095,0.07,0.1149999999999999,-98.5,82.31,-4.379999999999996,0.12,0.24,0.01,-172.56,17.31,64.38,0.26,0.1,0.12,-136.26,41.0,140.19,0.72,0.49,0.57
2.81,-23.44,82.06,171.19,0.11,0.0,0.05,-98.56,82.405,-4.534999999999997,0.14,0.205,0.1099999999999999,-172.81,17.125,64.35,0.325,0.145,0.575,-136.38,41.0,140.19,0.57,0.26,0.19
2.82,-23.56,82.12,171.19,0.14,0.12,0.02,-98.62,82.5,-4.689999999999998,0.16,0.17,0.21,-173.06,16.94,64.32,0.39,0.19,1.03,-136.7,41.06,140.37,0.12,0.47,0.12
2.83,-23.69,82.18999999999998,171.06,0.16,0.16,0.02,-98.69,82.62,-4.689999999999998,0.0899999999999999,0.25,0.15,-173.75,16.37,64.69,0.24,0.35,1.05,-136.76,41.19,140.56,0.0899999999999999,0.05,0.47
2.84,-23.75,82.25,170.88,0.23,0.2,0.01,-98.81,82.75,-4.629999999999996,0.19,0.16,0.19,-174.28,15.935,65.005,0.145,0.215,0.67,-136.76,41.25,140.655,0.1799999999999999,0.24,0.55
2.85,-23.87,82.31,170.69,0.13,0.16,0.02,-98.94,82.87999999999998,-4.629999999999996,0.29,0.03,0.38,-174.81,15.5,65.32,0.05,0.08,0.29,-136.76,41.31,140.75,0.27,0.43,0.63
2.86,-23.94,82.31,170.44,0.0,0.15,0.02,-99.06,83.0,-4.810000000000001,0.26,0.1,0.21,-175.12,15.25,65.38,0.24,0.58,0.03,-136.95,41.44,140.87,0.07,0.27,0.25
2.87,-24.06,82.31,170.32,0.03,0.16,0.04,-99.19,83.06,-5.069999999999993,0.06,0.18,0.01,-175.12,15.19,65.38,0.0,0.69,0.01,-137.07,41.5,141.0,0.26,0.27,0.17
2.88,-24.12,82.37,170.19,0.05,0.17,0.21,-99.25,83.06,-5.379999999999996,0.0899999999999999,0.18,0.07,-175.19,15.38,65.32,0.12,0.62,0.07,-137.01,41.5,141.0,0.21,0.04,0.46
2.89,-24.19,82.37,170.19,0.04,0.0,0.33,-99.25,83.125,-5.379999999999996,0.0899999999999999,0.2,0.16,-174.69,15.75,65.19,0.05,0.31,0.25,-137.01,41.5,140.94,0.13,0.15,0.34
2.9,-24.25,82.37,170.25,0.04,0.06,0.26,-99.25,83.18999999999998,-5.379999999999996,0.0899999999999999,0.22,0.25,-174.06,16.25,65.07,0.05,0.62,0.29,-136.88,41.37,140.75,0.52,0.32,0.49
2.91,-24.31,82.43999999999998,170.32,0.19,0.02,0.16,-99.25,83.18999999999998,-5.439999999999998,0.16,0.05,0.23,-173.75,16.56,64.94,0.14,1.01,0.4,-136.82,41.31,140.56,0.18,0.19,0.36
2.92,-24.37,82.43999999999998,170.5,0.17,0.02,0.04,-99.19,83.25,-5.439999999999998,0.22,0.18,0.25,-173.875,16.435,64.975,0.11,0.655,0.5449999999999999,-136.76,41.28,140.5,0.21,0.105,0.31
2.93,-24.44,82.43999999999998,170.56,0.11,0.04,0.06,-99.19,83.31,-5.439999999999998,0.22,0.23,0.0899999999999999,-174.0,16.31,65.00999999999999,0.08,0.3,0.69,-136.7,41.25,140.44,0.24,0.02,0.26
2.94,-24.44,82.43999999999998,170.56,0.07,0.06,0.03,-99.19,83.43999999999998,-5.439999999999998,0.02,0.28,0.17,-174.44,16.0,65.25999999999999,0.0899999999999999,0.07,0.52,-136.64,41.19,140.37,0.39,0.28,0.18
