0.01,118.13,49.63,126.31,7.53,5.31,3.51,0.05,0.02,0.03,50.00,34.00,4.56,0.06,0.20,0.24,0.29,0.35,0.76,0.48
0.02,128.75,15.63,10.56,2.60,1.68,9.23,0.04,0.04,0.05,0.75,3.00,55.69,0.03,0.05,0.04,0.43,0.08,0.14,0.89
0.03,128.87,15.63,10.56,2.60,1.70,9.20,0.02,0.04,0.07,0.75,2.69,54.06,0.05,0.04,0.11,0.43,0.08,0.14,0.89
0.04,128.94,15.69,10.56,2.64,1.79,9.17,0.01,0.03,0.07,0.75,2.69,54.06,0.01,0.06,0.10,0.42,0.09,0.14,0.89
0.05,129.00,15.69,10.56,2.66,1.79,9.18,0.02,0.02,0.05,0.75,2.69,54.06,0.00,0.06,0.09,0.42,0.09,0.14,0.89
0.06,129.06,15.69,10.56,2.60,1.78,9.18,0.01,0.02,0.04,0.06,3.37,54.06,0.01,0.04,0.08,0.42,0.09,0.14,0.89
0.07,129.06,15.69,10.56,2.61,1.75,9.15,0.02,0.02,0.01,0.06,3.37,54.06,0.05,0.00,0.09,0.42,0.09,0.14,0.89
0.08,129.06,15.75,10.50,2.63,1.68,9.18,0.03,0.02,0.02,0.06,3.37,54.06,0.04,0.00,0.17,0.42,0.09,0.14,0.89
0.09,129.06,15.75,10.50,2.64,1.73,9.06,0.03,0.02,0.02,0.37,2.69,54.50,0.03,0.01,0.20,0.42,0.09,0.14,0.89
0.10,129.12,15.75,10.50,2.68,1.72,9.12,0.03,0.03,0.03,0.37,2.69,54.50,0.02,0.03,0.09,0.42,0.09,0.14,0.89
0.11,129.19,15.81,10.44,2.70,1.68,9.19,0.03,0.03,0.04,0.06,3.37,55.25,0.05,0.05,0.08,0.42,0.09,0.14,0.89
0.12,129.25,15.81,10.44,2.74,1.79,9.14,0.04,0.04,0.06,0.06,3.37,55.25,0.02,0.09,0.13,0.42,0.09,0.14,0.89
0.13,129.31,15.88,10.44,2.70,1.82,9.16,0.03,0.04,0.04,0.06,3.37,55.25,0.01,0.11,0.11,0.42,0.09,0.14,0.89
0.14,129.31,15.88,10.38,2.72,1.71,9.17,0.02,0.03,0.03,0.06,3.69,54.50,0.03,0.00,0.09,0.42,0.09,0.14,0.89
0.15,129.38,15.94,10.38,2.72,1.78,9.25,0.02,0.02,0.01,0.06,3.69,54.50,0.02,0.04,0.04,0.42,0.09,0.14,0.89
0.17,129.31,15.94,10.38,2.63,1.69,9.28,0.01,0.01,0.01,0.75,2.25,55.25,0.10,0.01,0.02,0.42,0.09,0.14,0.89
0.18,129.31,15.94,10.38,2.61,1.67,9.23,0.01,0.01,0.01,0.25,2.69,54.50,0.11,0.03,0.06,0.42,0.09,0.14,0.89
0.19,129.31,15.94,10.38,2.57,1.71,9.17,0.00,0.01,0.01,0.25,2.69,54.50,0.12,0.01,0.10,0.42,0.09,0.14,0.89
0.20,129.31,15.94,10.38,2.56,1.67,9.17,0.01,0.01,0.02,0.25,2.69,54.50,0.12,0.03,0.10,0.42,0.09,0.14,0.89
0.21,129.38,15.94,10.38,2.52,1.71,9.16,0.00,0.01,0.03,1.06,3.37,54.06,0.17,0.00,0.11,0.42,0.09,0.14,0.89
0.22,129.38,15.94,10.38,2.55,1.66,9.12,0.00,0.02,0.03,1.06,3.37,54.06,0.13,0.03,0.15,0.42,0.09,0.14,0.89
0.23,129.44,15.88,10.38,2.55,1.66,9.11,0.01,0.02,0.03,0.25,3.00,55.69,0.16,0.03,0.16,0.42,0.09,0.14,0.89
0.24,129.44,15.88,10.44,2.55,1.68,9.14,0.02,0.03,0.05,0.25,3.00,55.69,0.11,0.05,0.08,0.42,0.09,0.14,0.89
0.25,129.50,15.81,10.44,2.57,1.71,9.21,0.02,0.04,0.05,0.25,3.00,55.69,0.09,0.00,0.06,0.42,0.09,0.14,0.89
0.26,129.56,15.75,10.50,2.55,1.67,9.22,0.02,0.05,0.06,0.37,3.69,55.25,0.09,0.03,0.06,0.42,0.09,0.14,0.89
0.27,129.63,15.69,10.50,2.60,1.70,9.23,0.02,0.06,0.07,0.37,3.69,55.25,0.03,0.03,0.00,0.42,0.09,0.14,0.89
0.28,129.69,15.56,10.56,2.65,1.74,9.25,0.03,0.07,0.06,0.37,3.69,55.25,0.01,0.01,0.02,0.42,0.09,0.14,0.89
0.29,129.75,15.50,10.63,2.78,1.67,9.34,0.02,0.07,0.04,0.25,3.00,54.88,0.16,0.06,0.06,0.42,0.08,0.14,0.89
0.30,129.75,15.44,10.63,2.88,1.71,9.26,0.01,0.05,0.02,0.25,3.00,54.88,0.25,0.07,0.08,0.42,0.08,0.14,0.89
0.31,129.69,15.44,10.63,2.82,1.62,9.26,0.00,0.05,0.02,0.37,3.00,54.06,0.21,0.11,0.02,0.42,0.08,0.14,0.89
0.32,129.69,15.38,10.56,2.82,1.60,9.42,0.03,0.06,0.01,0.37,3.00,54.06,0.22,0.13,0.12,0.42,0.08,0.14,0.89
0.33,129.69,15.31,10.50,2.86,1.66,9.39,0.04,0.05,0.00,0.37,3.00,54.06,0.26,0.05,0.09,0.42,0.08,0.14,0.89
0.34,129.69,15.31,10.44,2.83,1.75,9.24,0.02,0.04,0.01,0.37,4.06,54.50,0.24,0.03,0.05,0.42,0.08,0.14,0.89
0.35,129.69,15.31,10.44,2.73,1.74,9.12,0.01,0.04,0.01,0.37,4.06,54.50,0.14,0.03,0.17,0.42,0.08,0.14,0.89
0.36,129.69,15.25,10.44,2.69,1.72,9.12,0.00,0.04,0.03,1.06,3.00,55.00,0.10,0.02,0.16,0.42,0.08,0.14,0.89
0.37,129.63,15.25,10.44,2.55,1.70,9.09,0.02,0.03,0.00,1.06,3.00,55.00,0.02,0.01,0.20,0.42,0.08,0.14,0.89
0.38,129.63,15.19,10.44,2.55,1.74,9.00,0.01,0.04,0.01,1.06,3.00,55.00,0.02,0.02,0.30,0.42,0.08,0.14,0.89
0.40,129.69,15.13,10.44,2.57,1.83,9.04,0.01,0.04,0.02,0.75,3.69,54.50,0.00,0.09,0.19,0.42,0.08,0.14,0.89
0.41,129.69,15.13,10.44,2.57,1.81,9.16,0.00,0.03,0.01,0.75,3.69,54.50,0.00,0.06,0.15,0.42,0.08,0.14,0.89
0.42,129.69,15.06,10.44,2.44,1.81,9.14,0.01,0.03,0.01,0.75,3.69,54.06,0.10,0.09,0.16,0.42,0.08,0.14,0.89
0.43,129.63,15.00,10.50,2.57,1.68,9.32,0.02,0.04,0.01,0.75,3.69,54.06,0.07,0.06,0.01,0.42,0.08,0.14,0.89
0.44,129.63,15.00,10.50,2.53,1.72,9.32,0.01,0.04,0.02,1.06,4.50,53.69,0.00,0.00,0.00,0.42,0.08,0.14,0.89
0.45,129.56,14.94,10.50,2.62,1.71,9.38,0.01,0.08,0.04,1.06,4.50,53.69,0.09,0.01,0.06,0.42,0.08,0.14,0.89
0.46,129.50,14.81,10.44,2.64,1.74,9.36,0.01,0.07,0.06,1.06,4.50,53.69,0.12,0.01,0.04,0.42,0.08,0.14,0.89
0.48,129.31,14.75,10.44,2.73,1.67,9.38,0.01,0.10,0.11,1.87,3.00,55.69,0.23,0.03,0.05,0.42,0.08,0.14,0.89
0.49,129.19,14.69,10.38,2.69,1.71,9.37,0.00,0.09,0.13,1.50,2.25,55.00,0.20,0.01,0.00,0.42,0.08,0.14,0.89
0.50,129.06,14.63,10.31,2.75,1.68,9.25,0.00,0.09,0.12,1.50,2.25,55.00,0.28,0.02,0.07,0.42,0.08,0.13,0.89
0.51,128.87,14.56,10.31,2.73,1.70,9.32,0.01,0.07,0.13,1.50,2.25,55.00,0.26,0.00,0.01,0.43,0.08,0.13,0.89
0.52,128.75,14.56,10.25,2.73,1.72,9.37,0.01,0.06,0.14,1.50,3.69,55.75,0.27,0.01,0.09,0.43,0.08,0.13,0.89
0.53,128.56,14.56,10.19,2.78,1.64,9.45,0.01,0.03,0.15,1.50,3.69,55.75,0.33,0.04,0.08,0.43,0.08,0.13,0.89
0.54,128.38,14.63,10.13,2.83,1.55,9.49,0.02,0.01,0.16,2.19,3.69,55.00,0.45,0.12,0.15,0.43,0.08,0.13,0.89
0.55,128.25,14.69,10.06,3.01,1.51,9.53,0.03,0.03,0.14,2.19,3.69,55.00,0.55,0.15,0.18,0.43,0.08,0.13,0.89
0.56,128.12,14.87,10.00,3.14,1.47,9.52,0.00,0.12,0.08,2.19,3.69,55.00,0.61,0.12,0.17,0.43,0.08,0.13,0.89
0.57,128.06,15.19,9.94,3.21,1.50,9.51,0.00,0.15,0.05,1.87,3.37,55.00,0.65,0.07,0.23,0.43,0.08,0.13,0.89
0.58,128.06,15.50,9.94,3.34,1.52,9.46,0.01,0.24,0.02,1.87,3.37,55.00,0.66,0.13,0.08,0.43,0.09,0.14,0.89
0.59,128.12,16.00,9.94,3.35,1.52,9.28,0.01,0.34,0.09,1.87,3.37,55.00,0.65,0.10,0.00,0.43,0.09,0.14,0.89
0.61,128.62,16.94,10.00,3.47,1.54,8.88,0.03,0.48,0.22,0.75,3.00,56.50,0.57,0.14,0.43,0.43,0.10,0.14,0.89
0.62,129.00,17.44,10.06,3.51,1.53,8.83,0.05,0.49,0.28,0.75,3.37,55.25,0.52,0.03,0.29,0.42,0.10,0.14,0.89
0.63,129.38,17.94,10.13,3.49,1.75,8.96,0.10,0.50,0.34,0.75,3.37,55.25,0.44,0.14,0.19,0.42,0.11,0.14,0.89
0.64,129.87,18.50,10.19,3.54,1.81,9.03,0.14,0.53,0.34,0.75,3.37,55.25,0.42,0.16,0.11,0.42,0.11,0.15,0.89
0.65,130.31,19.12,10.19,3.55,1.81,9.24,0.17,0.58,0.31,1.06,3.37,54.50,0.34,0.17,0.12,0.41,0.12,0.15,0.89
0.66,130.75,19.69,10.13,3.48,1.78,9.20,0.19,0.62,0.31,1.06,3.37,54.50,0.17,0.15,0.11,0.41,0.12,0.15,0.89
0.67,131.19,20.31,10.13,3.48,1.65,9.16,0.18,0.62,0.34,2.87,4.50,53.69,0.07,0.04,0.11,0.40,0.13,0.15,0.89
0.69,132.00,21.25,10.19,3.47,1.60,8.96,0.13,0.65,0.48,2.87,4.50,53.69,0.13,0.02,0.00,0.40,0.14,0.15,0.90
0.70,132.69,21.87,10.31,3.45,1.67,8.91,0.10,0.65,0.55,4.69,4.06,53.25,0.28,0.11,0.05,0.39,0.14,0.15,0.90
0.72,134.12,22.94,10.75,3.51,1.91,8.78,0.06,0.60,0.53,7.25,3.69,54.06,0.20,0.21,0.01,0.38,0.15,0.16,0.90
0.73,134.81,23.44,11.00,3.68,1.89,8.83,0.06,0.62,0.50,7.25,3.69,54.06,0.27,0.17,0.03,0.37,0.15,0.16,0.90
0.74,135.37,24.00,11.25,3.66,1.97,8.83,0.08,0.63,0.45,7.25,3.69,54.06,0.38,0.30,0.08,0.37,0.16,0.16,0.90
0.75,136.12,24.50,11.44,3.58,2.14,8.75,0.08,0.61,0.45,8.69,4.50,52.50,0.50,0.44,0.12,0.36,0.16,0.17,0.90
0.76,136.69,25.00,11.69,3.75,2.40,8.27,0.07,0.54,0.43,8.69,4.50,52.50,0.42,0.64,0.49,0.36,0.17,0.17,0.90
0.77,137.19,25.44,11.88,3.77,2.45,8.19,0.03,0.45,0.33,8.69,4.50,52.50,0.44,0.63,0.46,0.35,0.17,0.17,0.90
0.78,137.81,25.81,12.06,3.94,2.34,8.38,0.02,0.41,0.24,10.56,5.19,52.56,0.33,0.50,0.24,0.35,0.17,0.17,0.90
0.80,138.37,26.62,12.31,3.89,2.19,8.31,0.05,0.44,0.07,12.00,4.19,51.75,0.49,0.32,0.24,0.34,0.18,0.17,0.90
0.81,138.62,26.94,12.50,3.85,2.31,8.27,0.03,0.39,0.15,12.00,4.19,51.75,0.59,0.41,0.26,0.34,0.18,0.18,0.90
0.82,138.88,27.19,12.69,3.99,2.41,8.14,0.01,0.33,0.11,12.00,4.19,51.75,0.49,0.48,0.35,0.34,0.19,0.18,0.90
0.83,139.25,27.37,13.00,4.09,2.47,8.14,0.06,0.27,0.07,13.88,4.19,52.56,0.42,0.51,0.33,0.34,0.19,0.18,0.91
0.84,139.31,27.50,13.13,4.16,2.32,8.36,0.07,0.25,0.02,13.88,4.19,52.56,0.37,0.33,0.09,0.34,0.19,0.18,0.90
0.85,139.37,27.69,13.31,4.17,2.27,8.39,0.04,0.25,0.01,15.00,4.19,51.06,0.39,0.09,0.32,0.33,0.19,0.18,0.90
0.86,139.75,27.94,13.44,4.25,2.11,7.86,0.07,0.21,0.02,15.00,4.19,51.06,0.32,0.28,0.72,0.33,0.19,0.18,0.91
0.87,139.75,28.12,13.56,3.68,2.09,7.85,0.14,0.16,0.07,15.00,4.19,51.06,0.95,0.05,0.53,0.33,0.19,0.19,0.90
0.88,140.00,28.25,13.81,3.90,1.75,7.76,0.16,0.14,0.00,14.69,3.56,51.50,0.63,0.49,0.74,0.33,0.19,0.19,0.91
0.90,139.94,28.56,14.19,4.75,2.13,8.12,0.20,0.24,0.12,14.69,3.56,51.50,0.36,0.17,0.40,0.33,0.20,0.19,0.90
0.91,140.06,28.94,14.44,4.46,2.03,7.36,0.24,0.29,0.10,15.75,3.19,51.19,0.27,0.28,1.00,0.33,0.20,0.19,0.90
0.92,139.94,29.19,14.63,4.10,1.58,7.25,0.09,0.17,0.14,15.75,3.19,51.19,0.73,0.79,1.12,0.33,0.20,0.20,0.90
0.93,140.00,29.37,14.63,5.12,2.76,7.39,0.04,0.02,0.11,16.50,3.19,52.25,0.09,1.53,0.41,0.33,0.20,0.20,0.90
0.94,139.69,29.50,14.56,4.71,3.95,8.22,0.23,0.16,0.81,16.50,3.19,52.25,0.47,1.08,0.09,0.33,0.20,0.20,0.90
0.95,138.69,30.00,14.38,4.79,2.31,8.12,0.32,0.27,0.97,16.50,3.19,52.25,0.17,0.50,0.34,0.34,0.20,0.20,0.90
0.96,137.69,30.50,14.13,4.67,0.91,7.51,0.26,0.17,0.93,15.75,2.87,50.25,1.15,1.98,1.04,0.35,0.21,0.20,0.89
0.97,137.06,30.69,13.88,4.36,0.44,7.41,0.05,0.06,0.29,15.75,2.87,50.25,0.13,1.04,0.20,0.35,0.21,0.20,0.89
0.98,137.00,30.69,13.81,5.15,2.19,8.69,0.14,0.00,0.24,17.25,2.87,51.50,0.07,0.40,0.44,0.35,0.21,0.20,0.89
0.99,136.56,30.94,14.00,5.08,2.42,8.55,0.34,0.27,0.45,17.25,2.87,51.50,0.14,0.02,0.41,0.35,0.21,0.20,0.89
1.00,136.00,31.37,14.06,5.68,0.82,8.30,0.26,0.34,0.50,17.25,2.87,51.50,0.57,1.21,0.18,0.36,0.21,0.20,0.89
1.01,136.12,31.87,14.06,5.39,0.59,7.65,0.03,0.40,0.16,18.00,3.19,51.19,0.02,1.04,0.76,0.36,0.22,0.20,0.89
1.03,136.50,32.63,14.25,5.32,0.96,8.96,0.08,0.31,0.03,18.25,2.87,51.19,0.11,1.14,1.16,0.35,0.22,0.21,0.89
1.04,136.69,32.88,14.50,5.17,0.91,8.65,0.04,0.28,0.28,18.25,2.87,51.19,0.24,1.30,0.07,0.35,0.22,0.21,0.89
1.05,137.19,32.94,14.87,5.19,0.63,7.45,0.05,0.16,0.45,18.25,2.87,51.19,0.14,1.47,0.49,0.35,0.23,0.21,0.89
1.06,138.00,32.88,15.31,5.13,0.75,7.36,0.11,0.04,0.47,19.75,2.06,49.88,0.19,1.42,0.57,0.34,0.22,0.21,0.89
1.07,138.56,32.81,15.75,5.55,1.30,8.63,0.06,0.08,0.52,19.75,2.06,49.88,0.06,0.83,1.00,0.34,0.22,0.21,0.89
1.08,139.50,32.81,16.19,5.25,1.48,8.34,0.03,0.16,0.62,20.88,1.37,50.00,0.06,0.81,0.43,0.33,0.22,0.21,0.89
1.09,140.19,32.81,16.69,5.18,2.97,7.49,0.07,0.21,0.55,20.88,1.37,50.00,0.15,0.88,0.53,0.32,0.23,0.22,0.89
1.11,141.00,33.06,17.75,4.88,1.47,8.33,0.30,0.16,0.14,20.88,1.69,50.38,0.47,1.02,0.51,0.32,0.23,0.22,0.89
1.12,141.31,33.19,17.94,4.67,1.91,8.27,0.08,0.16,0.20,20.88,1.69,50.38,0.69,0.61,0.47,0.31,0.23,0.22,0.89
1.14,141.75,33.63,17.31,6.10,2.16,8.11,0.35,0.25,0.22,21.56,1.00,50.38,0.66,0.26,0.32,0.31,0.23,0.22,0.90
1.15,141.69,33.94,16.75,4.34,2.06,8.50,0.40,0.18,0.16,21.56,1.00,50.38,1.13,0.28,0.71,0.31,0.24,0.22,0.89
1.16,141.94,34.00,16.25,4.53,1.44,8.73,0.35,0.02,0.14,21.25,0.25,48.75,0.95,0.83,0.93,0.31,0.24,0.21,0.90
1.17,141.94,34.00,16.06,4.48,2.25,8.41,0.09,0.21,0.05,21.25,0.25,48.75,0.98,0.00,0.58,0.31,0.24,0.21,0.90
1.18,142.00,33.69,16.06,5.36,2.57,8.76,0.12,0.28,0.07,22.37,2.50,48.75,0.05,0.30,0.91,0.31,0.24,0.21,0.90
1.19,142.37,33.38,16.19,5.34,1.92,9.04,0.03,0.21,0.10,22.37,2.50,48.75,0.03,0.36,1.17,0.31,0.24,0.21,0.90
1.20,142.50,33.19,16.19,4.91,1.92,8.98,0.20,0.14,0.10,22.37,2.50,48.75,0.44,0.35,1.09,0.30,0.23,0.21,0.90
1.22,143.25,32.75,15.81,5.28,1.06,8.40,0.22,0.06,0.37,22.50,1.69,50.75,0.01,1.18,0.46,0.30,0.23,0.20,0.90
1.23,143.87,32.56,15.88,5.15,1.52,8.07,0.23,0.03,0.62,22.50,1.69,50.75,0.12,0.19,0.36,0.29,0.23,0.20,0.90
1.24,145.25,32.25,16.25,4.85,3.01,7.46,0.20,0.11,0.92,21.25,2.50,48.38,0.20,0.60,0.10,0.28,0.23,0.20,0.91
1.25,146.13,31.69,16.62,5.39,2.96,8.68,0.07,0.24,0.61,21.25,2.50,48.38,0.41,0.56,1.97,0.28,0.23,0.20,0.91
1.26,147.13,31.31,17.06,5.77,2.88,10.26,0.13,0.13,0.56,22.00,2.87,50.00,0.89,0.03,2.11,0.27,0.22,0.20,0.91
1.27,147.44,31.25,17.56,6.06,1.88,9.52,0.25,0.05,0.26,22.00,2.87,50.00,1.23,1.75,0.44,0.27,0.22,0.21,0.91
1.28,147.56,31.31,18.00,6.26,0.54,8.11,0.28,0.11,0.24,22.00,2.87,50.00,1.16,2.04,0.14,0.27,0.22,0.21,0.91
1.29,148.25,31.25,18.44,5.25,0.27,7.93,0.20,0.04,0.24,22.00,1.37,48.38,0.15,2.38,0.01,0.26,0.22,0.21,0.92
1.30,149.00,30.94,19.25,5.80,1.92,8.50,0.34,0.06,0.99,22.00,1.37,48.38,0.53,0.57,0.56,0.25,0.22,0.22,0.92
1.31,150.44,30.44,20.50,5.59,4.27,8.77,0.64,0.10,0.92,23.06,0.69,49.69,0.61,1.31,0.86,0.24,0.22,0.22,0.92
1.32,150.69,30.19,21.50,5.04,4.00,8.21,0.70,0.10,0.33,23.06,0.69,49.69,0.10,0.89,0.33,0.24,0.21,0.23,0.92
1.33,150.62,30.12,22.13,4.48,3.79,7.94,0.46,0.01,0.00,23.06,0.69,49.69,0.44,0.59,0.09,0.24,0.21,0.23,0.92
1.34,150.69,30.19,22.50,4.21,4.01,8.32,0.39,0.01,0.19,22.37,1.37,49.69,0.72,0.76,0.50,0.24,0.21,0.24,0.92
1.35,150.50,30.25,22.62,4.68,4.49,8.17,0.39,0.06,0.31,22.37,1.37,49.69,0.26,1.21,0.36,0.24,0.21,0.24,0.92
1.36,149.94,30.31,22.87,5.03,3.61,8.46,0.40,0.03,0.39,22.50,2.19,48.87,0.06,0.31,0.68,0.24,0.21,0.24,0.92
1.37,149.94,30.44,23.06,5.47,3.14,8.04,0.41,0.05,0.28,22.50,2.19,48.87,0.49,0.19,0.28,0.25,0.21,0.24,0.91
1.38,149.44,30.56,23.31,5.78,3.42,8.35,0.44,0.04,0.42,22.50,2.19,48.87,0.79,0.05,0.61,0.25,0.21,0.25,0.91
1.39,149.19,30.69,23.56,5.64,3.75,8.37,0.46,0.05,0.62,22.00,2.50,49.25,0.03,0.51,0.55,0.25,0.21,0.25,0.91
1.40,148.31,30.88,23.69,5.19,3.87,8.57,0.59,0.16,0.69,22.00,2.50,49.25,0.90,0.11,1.93,0.26,0.21,0.25,0.91
1.41,147.31,31.06,23.94,6.05,3.05,9.68,0.68,0.15,0.69,22.00,2.50,49.25,0.81,0.73,1.86,0.27,0.21,0.25,0.91
1.42,146.81,31.31,24.31,5.81,2.50,9.00,0.72,0.03,0.64,23.06,3.19,50.38,0.64,0.46,0.77,0.27,0.21,0.26,0.90
1.43,146.00,31.75,24.69,5.62,3.14,8.34,0.70,0.12,0.69,23.06,3.19,50.38,0.47,0.74,1.50,0.28,0.21,0.26,0.90
1.44,145.12,32.19,25.12,5.99,3.83,9.63,0.76,0.12,0.67,20.50,4.69,48.38,0.95,0.40,2.14,0.28,0.21,0.27,0.90
1.45,144.13,32.69,25.62,6.25,3.99,9.54,0.89,0.21,0.83,20.50,4.69,48.38,0.80,0.21,2.11,0.29,0.21,0.27,0.89
1.46,142.94,33.38,26.19,5.59,3.27,8.53,0.91,0.28,0.80,20.50,4.69,48.38,0.19,0.34,1.18,0.30,0.22,0.28,0.89
1.47,142.25,34.00,26.81,6.28,4.20,8.28,0.89,0.33,0.66,22.00,5.06,49.19,1.25,1.01,1.79,0.30,0.22,0.29,0.88
1.48,141.12,34.69,27.50,6.67,5.21,9.07,1.13,0.33,0.79,22.00,5.06,49.19,0.73,1.15,1.90,0.31,0.22,0.29,0.88
1.49,140.06,35.44,28.44,6.26,4.27,8.71,1.20,0.35,0.73,22.69,7.25,49.19,0.57,0.46,1.69,0.32,0.22,0.30,0.87
1.50,139.12,36.13,29.56,6.11,4.29,7.60,1.20,0.44,0.43,22.69,7.25,49.19,0.75,0.73,0.78,0.32,0.22,0.31,0.86
1.51,138.31,36.88,30.75,6.24,4.80,7.81,1.14,0.54,0.50,22.69,7.25,49.19,0.36,0.79,1.07,0.33,0.23,0.32,0.86
1.53,136.88,38.50,33.13,5.61,4.56,7.84,1.10,0.65,0.28,22.69,9.06,47.69,0.32,0.28,1.73,0.33,0.23,0.34,0.85
1.54,136.44,39.13,34.50,6.51,3.57,7.85,1.08,0.62,0.07,23.50,10.50,47.69,0.31,0.73,1.58,0.34,0.23,0.35,0.84
1.56,135.69,40.69,37.25,6.29,4.71,6.86,0.93,0.85,0.19,23.50,10.50,47.69,0.10,0.20,0.95,0.34,0.24,0.37,0.83
1.57,135.06,41.75,38.19,6.35,5.64,5.04,0.72,0.76,0.69,26.75,13.38,46.37,0.17,1.11,0.70,0.34,0.25,0.38,0.82
1.58,133.50,43.13,38.44,7.21,5.66,8.21,0.82,0.62,1.36,26.75,13.38,46.37,0.50,1.21,2.61,0.35,0.25,0.39,0.81
1.59,132.37,44.50,39.56,7.82,1.54,6.25,1.12,1.02,0.55,26.75,14.00,44.50,0.94,2.90,0.86,0.36,0.26,0.40,0.81
1.60,132.63,45.12,41.81,7.88,2.53,4.25,1.00,1.05,0.58,26.75,14.00,44.50,0.93,2.07,0.89,0.35,0.26,0.41,0.80
1.61,133.06,45.56,44.06,7.73,5.45,4.75,0.94,1.04,0.51,26.75,14.00,44.50,0.72,0.67,0.17,0.34,0.27,0.42,0.80
1.62,133.25,45.88,45.12,7.84,6.70,4.51,0.98,1.01,0.09,29.69,15.06,40.38,0.75,1.82,0.17,0.34,0.27,0.43,0.79
1.64,132.19,48.25,48.87,7.72,5.20,3.78,1.05,1.35,0.53,30.50,18.06,38.75,0.17,1.46,1.16,0.34,0.28,0.45,0.78
1.65,131.81,49.56,50.94,7.42,3.89,3.06,0.83,1.39,0.31,30.50,18.06,38.75,0.30,0.04,0.22,0.34,0.29,0.46,0.77
1.66,131.63,50.69,53.06,7.36,6.97,4.91,0.96,1.45,0.35,30.50,18.06,38.75,0.06,1.15,1.29,0.34,0.30,0.47,0.76
1.67,131.12,51.94,55.63,8.05,5.02,4.43,1.08,1.57,0.32,33.06,20.25,37.56,0.65,0.32,0.60,0.34,0.31,0.48,0.75
1.68,130.75,53.25,58.63,8.77,4.87,3.39,1.09,1.74,0.26,33.06,20.25,37.56,1.43,0.11,0.60,0.34,0.32,0.49,0.74
1.69,130.69,54.63,62.19,9.13,5.72,3.34,0.95,2.06,0.28,33.06,20.25,37.56,1.13,0.71,0.69,0.33,0.33,0.51,0.72
1.70,130.50,56.19,66.25,5.41,6.02,3.28,0.98,2.30,0.46,35.75,20.88,32.75,2.73,1.03,1.09,0.33,0.35,0.52,0.71
1.71,130.06,57.50,70.69,5.22,4.04,2.59,1.30,1.99,0.37,35.75,20.88,32.75,2.10,0.12,1.38,0.32,0.36,0.53,0.70
1.72,129.50,58.13,75.00,7.27,4.63,3.41,1.67,1.42,0.01,41.06,21.69,27.56,1.05,0.36,2.07,0.32,0.37,0.55,0.68
1.73,128.87,58.50,79.50,8.54,5.14,2.08,1.55,1.66,0.11,41.06,21.69,27.56,0.17,0.12,1.15,0.32,0.37,0.56,0.67
1.74,128.38,59.31,84.75,7.68,4.12,0.04,1.30,2.27,0.55,41.06,21.69,27.56,0.75,0.84,0.41,0.31,0.38,0.57,0.65
1.75,127.94,59.88,87.62,6.66,5.05,0.73,1.24,2.34,0.91,42.88,22.25,24.00,1.85,0.21,0.68,0.31,0.40,0.59,0.63
1.77,126.25,61.06,99.19,9.07,2.56,1.42,1.63,1.96,0.34,44.56,22.00,16.25,0.48,2.06,0.42,0.30,0.42,0.61,0.60
1.78,125.56,60.81,105.12,9.13,3.96,3.23,1.51,2.43,0.14,44.56,22.00,16.25,0.61,0.64,1.72,0.30,0.42,0.62,0.59
1.79,125.62,59.75,111.31,7.81,4.48,4.19,1.47,2.52,0.04,44.56,22.00,16.25,0.61,0.07,2.13,0.29,0.43,0.64,0.57
1.80,125.25,58.75,117.13,8.27,5.31,3.53,1.60,2.05,0.21,47.25,22.69,10.69,0.39,1.09,0.38,0.28,0.44,0.65,0.55
1.81,124.25,57.94,122.31,9.32,2.27,2.74,1.63,1.92,0.43,47.25,22.69,10.69,1.04,2.04,0.26,0.28,0.45,0.66,0.53
1.82,123.13,57.06,127.25,9.91,1.24,2.91,1.47,2.03,0.34,47.25,22.69,10.69,1.47,2.98,0.13,0.28,0.46,0.67,0.51
1.83,123.06,55.44,131.44,8.13,5.59,5.30,1.07,2.35,0.06,48.25,23.50,3.50,1.87,4.00,2.39,0.27,0.47,0.68,0.49
1.85,121.62,52.75,139.12,9.20,0.93,3.35,1.49,1.38,0.58,48.25,22.69,2.06,1.39,2.94,1.13,0.25,0.48,0.70,0.45
1.86,120.06,51.88,142.13,8.78,1.47,4.10,1.24,1.32,0.23,48.25,22.69,2.06,0.17,0.73,1.21,0.25,0.49,0.71,0.44
1.87,119.87,50.50,144.44,6.58,7.16,6.96,0.74,1.65,0.05,48.25,22.69,2.06,0.98,3.53,1.88,0.25,0.49,0.72,0.43
1.88,119.56,49.31,146.94,6.97,5.57,5.39,0.82,1.48,0.74,49.25,20.88,6.87,0.46,2.08,0.04,0.24,0.50,0.72,0.41
1.89,117.00,48.94,150.19,8.27,0.00,4.16,1.29,1.00,1.11,49.25,20.88,6.87,0.88,3.20,1.42,0.24,0.51,0.72,0.40
1.90,115.19,48.25,152.56,8.09,0.60,5.14,1.05,0.95,0.21,49.19,20.37,11.69,0.76,2.39,0.64,0.24,0.52,0.73,0.38
1.91,115.06,47.00,153.56,7.14,7.20,5.54,0.59,1.18,0.49,49.19,20.37,11.69,0.02,4.23,0.44,0.24,0.52,0.73,0.37
1.92,114.50,46.06,155.12,7.63,4.13,3.67,0.60,1.03,0.78,49.19,20.37,11.69,0.56,1.27,2.49,0.23,0.52,0.74,0.36
1.93,113.25,45.94,156.50,8.40,0.43,4.02,1.03,0.73,1.42,48.38,17.87,14.87,1.36,2.12,2.30,0.23,0.53,0.74,0.36
1.95,108.44,45.19,160.81,7.76,3.74,6.05,0.71,0.70,0.38,48.75,16.37,17.25,0.53,2.94,1.65,0.24,0.54,0.74,0.33
1.96,107.37,44.44,162.25,7.78,2.09,3.57,0.67,0.84,0.94,48.75,16.37,17.25,0.76,0.28,3.16,0.24,0.54,0.74,0.32
1.98,102.38,43.31,166.37,6.24,1.53,5.87,0.91,0.59,0.47,47.88,13.50,19.25,0.82,0.29,0.42,0.24,0.56,0.74,0.30
1.99,74.44,42.75,167.81,5.91,1.14,7.25,0.76,0.58,0.07,47.88,13.50,19.25,0.14,0.02,0.13,0.24,0.56,0.74,0.29
2.00,74.12,42.13,168.62,6.83,2.32,7.42,0.63,0.55,0.07,47.88,13.50,19.25,0.60,1.72,0.23,0.24,0.56,0.74,0.28
2.01,74.25,41.56,169.75,7.01,2.04,7.70,0.84,0.46,0.74,47.19,12.00,21.69,0.90,1.02,0.89,0.24,0.56,0.74,0.27
2.02,74.75,41.25,171.50,7.83,0.54,8.32,0.72,0.16,0.78,47.19,12.00,21.69,1.20,0.57,1.06,0.24,0.57,0.74,0.26
2.03,75.44,41.19,173.06,7.98,0.66,8.41,0.53,0.23,0.86,46.75,10.06,23.25,1.37,0.36,0.73,0.25,0.57,0.74,0.25
2.04,76.56,40.94,174.69,7.34,1.81,7.18,0.62,0.24,1.42,46.75,10.06,23.25,1.34,0.20,1.17,0.25,0.58,0.73,0.25
2.05,77.94,40.88,176.87,8.26,1.76,6.39,0.74,0.07,1.63,46.75,10.06,23.25,1.09,2.68,0.02,0.26,0.59,0.73,0.24
2.06,79.50,41.19,179.00,5.95,0.81,8.90,0.65,0.30,1.21,47.50,6.50,24.50,0.89,3.79,3.49,0.27,0.60,0.72,0.23
2.07,80.06,41.81,179.75,5.66,4.93,10.15,0.46,0.65,0.63,47.50,6.50,24.50,0.70,3.72,2.20,0.27,0.60,0.72,0.23
2.08,81.56,42.62,178.00,5.93,0.42,8.91,0.57,0.72,1.32,47.50,2.06,24.06,0.71,0.66,1.70,0.28,0.61,0.71,0.23
2.09,82.88,43.13,176.06,6.32,1.57,7.30,0.41,0.50,1.31,47.50,2.06,24.06,0.95,0.20,0.25,0.29,0.62,0.70,0.22
2.10,84.06,43.63,174.62,5.94,0.08,7.33,0.13,0.63,1.11,47.50,2.06,24.06,0.82,0.74,0.27,0.30,0.62,0.69,0.22
2.11,85.38,44.44,173.38,5.51,0.09,7.54,0.19,0.81,0.86,47.75,0.19,22.87,1.34,0.90,0.59,0.31,0.63,0.68,0.22
2.12,71.12,45.19,172.37,6.68,1.30,5.73,0.10,0.75,0.55,47.75,0.19,22.87,0.27,0.39,1.11,0.32,0.63,0.67,0.23
2.13,71.56,45.69,172.13,6.06,1.53,5.93,0.24,0.39,0.22,49.25,2.69,23.00,0.94,2.47,0.84,0.32,0.63,0.67,0.23
2.14,71.81,45.81,172.13,6.12,0.83,4.92,0.29,0.26,0.70,49.25,2.69,23.00,0.91,1.79,1.82,0.32,0.64,0.66,0.23
2.15,71.62,46.00,171.44,6.49,0.56,5.04,0.06,0.23,0.87,49.25,2.69,23.00,0.57,0.50,1.67,0.32,0.64,0.66,0.23
2.16,71.19,46.06,170.56,6.51,2.08,5.10,0.11,0.02,0.44,48.87,4.37,20.06,0.35,1.31,1.93,0.32,0.64,0.65,0.23
2.17,71.37,46.00,170.38,6.61,2.06,4.61,0.53,0.10,0.19,48.87,4.37,20.06,1.30,1.05,0.92,0.32,0.65,0.65,0.23
2.18,72.50,45.75,170.87,5.17,2.71,6.81,0.55,0.30,0.06,49.25,5.69,19.00,2.02,3.92,0.05,0.32,0.65,0.65,0.23
2.19,73.06,45.38,170.94,5.16,0.48,6.68,0.05,0.32,0.56,49.25,5.69,19.00,0.93,1.75,0.41,0.31,0.66,0.65,0.23
2.20,72.62,44.88,170.62,6.55,1.87,6.66,0.18,0.55,0.16,49.25,5.69,19.00,0.33,0.76,0.22,0.31,0.66,0.64,0.23
2.21,91.06,44.25,171.31,6.04,0.98,6.76,0.38,0.69,0.40,49.38,5.69,20.19,1.02,0.92,0.15,0.31,0.66,0.65,0.23
2.22,90.87,43.50,172.50,4.94,1.98,8.49,0.73,0.94,0.31,49.38,5.69,20.19,2.11,4.34,2.24,0.30,0.66,0.65,0.23
2.24,91.12,41.50,174.12,5.96,4.20,7.21,0.29,0.85,0.20,47.88,6.25,23.38,0.92,2.83,0.05,0.28,0.67,0.65,0.23
2.25,90.06,40.56,175.81,6.16,0.39,7.48,0.60,0.96,1.36,47.88,6.25,23.38,0.53,2.27,0.00,0.27,0.66,0.66,0.23
2.27,88.06,38.69,179.87,6.22,0.40,6.19,0.50,0.80,0.74,47.56,4.87,25.00,0.14,0.33,1.50,0.24,0.66,0.68,0.23
2.28,87.44,37.94,178.87,6.85,0.59,5.33,0.46,0.54,0.73,45.69,0.19,27.00,0.89,1.77,1.02,0.23,0.65,0.68,0.23
2.29,86.56,37.44,177.31,7.43,0.19,6.82,1.00,0.34,1.09,45.69,0.19,27.00,0.89,0.80,0.76,0.22,0.65,0.69,0.23
2.30,85.87,37.00,175.38,6.11,1.25,5.81,1.11,0.32,0.51,45.69,0.19,27.00,0.23,0.51,2.00,0.21,0.65,0.69,0.24
2.31,86.00,36.50,173.87,5.56,0.25,5.70,1.03,0.43,0.31,45.38,0.88,27.00,0.12,2.23,3.05,0.20,0.65,0.69,0.25
2.32,86.06,36.00,172.69,5.60,0.97,5.24,0.91,0.45,0.27,45.38,0.88,27.00,0.30,0.30,1.61,0.19,0.65,0.69,0.25
2.33,85.62,35.38,171.19,5.16,2.91,7.29,0.91,0.42,0.81,45.38,0.88,27.00,0.51,1.68,0.60,0.18,0.65,0.70,0.26
2.35,84.94,34.63,168.75,6.88,0.36,6.50,0.70,0.17,0.44,45.69,4.19,27.37,0.30,1.28,1.77,0.16,0.64,0.70,0.26
2.36,84.81,34.13,167.31,5.01,5.85,7.00,1.14,0.45,0.33,43.87,7.19,28.19,0.49,4.08,0.91,0.15,0.64,0.70,0.27
2.38,88.56,33.69,167.31,6.34,1.96,6.17,0.82,0.40,1.67,43.38,8.69,29.00,0.02,2.50,1.41,0.14,0.66,0.68,0.27
2.39,90.62,33.69,167.56,4.49,0.40,7.12,0.86,0.26,1.16,43.38,8.69,29.00,0.96,0.49,0.79,0.14,0.68,0.67,0.27
2.40,92.12,33.63,167.31,4.10,3.66,7.64,0.96,0.30,0.90,43.38,8.69,29.00,1.32,1.85,0.31,0.13,0.69,0.66,0.28
2.41,93.87,33.50,167.06,5.72,1.92,6.77,0.71,0.46,1.12,42.75,5.75,29.37,0.92,1.44,1.42,0.13,0.70,0.65,0.28
2.42,95.44,33.25,167.25,5.94,0.44,6.06,0.58,0.36,1.22,42.75,5.75,29.37,0.36,1.23,1.52,0.12,0.71,0.64,0.28
2.43,97.06,33.25,167.50,4.34,1.55,7.21,0.73,0.19,1.29,42.75,5.75,29.37,0.92,0.10,0.88,0.12,0.71,0.63,0.28
2.44,98.44,33.44,167.44,4.53,1.47,6.64,0.64,0.07,0.84,43.38,5.75,29.37,0.76,0.94,1.52,0.12,0.72,0.62,0.28
2.45,99.31,33.44,167.50,4.91,0.08,5.73,0.02,0.09,0.48,43.38,5.75,29.37,0.23,0.92,1.76,0.12,0.73,0.62,0.28
2.46,99.87,33.50,167.75,5.52,1.36,7.16,0.10,0.09,0.39,44.19,4.37,29.37,0.48,0.17,0.65,0.12,0.73,0.61,0.28
2.47,100.38,33.94,167.56,4.79,2.69,8.06,0.48,0.48,0.26,44.19,4.37,29.37,0.80,0.67,0.12,0.12,0.73,0.61,0.29
2.48,100.87,34.63,167.19,4.78,1.68,7.60,0.50,0.54,0.52,44.19,4.37,29.37,0.78,0.09,0.26,0.12,0.73,0.60,0.29
2.49,101.75,35.38,167.13,4.10,0.51,6.19,0.43,0.53,0.68,44.06,4.06,29.00,1.30,1.46,1.60,0.12,0.73,0.60,0.30
2.50,102.44,36.13,166.94,5.55,0.95,6.23,0.52,0.68,0.61,44.06,4.06,29.00,0.31,0.76,1.24,0.12,0.74,0.59,0.30
2.51,103.25,37.06,166.75,6.08,0.49,6.71,0.41,0.74,0.63,44.06,3.37,28.19,0.49,2.41,0.83,0.12,0.74,0.58,0.31
2.52,103.94,38.06,166.94,5.84,0.20,6.04,0.04,0.83,0.30,44.06,3.37,28.19,0.08,0.78,1.68,0.13,0.74,0.58,0.32
2.53,104.12,39.00,166.94,5.95,1.68,6.06,0.09,0.81,0.16,44.06,3.37,28.19,0.22,0.03,1.36,0.13,0.74,0.58,0.32
2.54,104.25,39.81,166.69,6.05,1.79,6.96,0.15,0.75,0.05,46.25,2.69,27.75,0.06,0.73,0.44,0.14,0.74,0.57,0.33
2.55,104.25,40.63,166.37,14.05,2.67,6.26,0.20,0.09,0.87,46.25,2.69,27.75,1.71,8.41,1.25,0.14,0.74,0.57,0.33
2.56,104.00,40.38,165.94,13.34,1.01,9.53,0.15,0.44,0.24,46.25,2.69,25.00,6.99,0.79,2.28,0.14,0.73,0.57,0.33
2.58,104.31,39.88,166.37,5.95,4.09,9.44,0.21,0.06,0.04,46.25,2.69,25.00,0.33,2.32,2.13,0.13,0.74,0.57,0.33
2.59,105.00,39.88,166.25,3.07,2.20,4.11,0.47,0.11,0.50,46.69,2.00,25.37,3.21,3.98,3.19,0.13,0.74,0.57,0.33
2.60,105.63,39.63,166.00,3.61,0.60,5.95,0.52,0.40,0.16,46.69,2.00,25.37,2.51,2.45,0.48,0.13,0.74,0.56,0.33
2.61,105.75,39.31,165.06,4.82,1.66,7.84,0.77,0.10,0.35,45.88,2.25,26.19,1.39,0.28,0.51,0.12,0.75,0.56,0.33
2.62,105.69,39.38,164.06,4.46,2.61,8.36,0.60,0.25,0.20,45.88,2.25,26.19,1.76,0.53,1.08,0.11,0.74,0.56,0.34
2.63,105.56,39.94,163.44,18.35,3.65,1.40,0.18,0.54,0.23,45.88,2.25,26.19,12.06,5.79,5.80,0.12,0.74,0.56,0.35
2.64,104.87,39.44,162.75,5.53,5.31,11.12,0.16,0.51,0.14,45.88,3.75,25.75,0.70,3.06,3.89,0.11,0.74,0.57,0.35
2.65,105.44,39.38,163.06,6.83,7.02,7.28,0.31,0.08,0.47,45.88,3.75,25.75,0.58,4.82,0.04,0.11,0.74,0.56,0.34
2.66,106.31,39.75,163.25,7.86,2.81,5.27,0.47,0.02,1.32,45.50,5.19,25.37,1.55,0.69,1.93,0.11,0.75,0.56,0.35
2.68,109.37,40.38,164.50,6.55,1.89,5.63,0.33,0.02,0.47,45.50,5.19,25.37,0.18,0.08,1.55,0.11,0.76,0.54,0.35
2.69,110.00,40.50,164.44,6.24,2.19,6.33,0.45,0.01,0.29,46.69,2.69,25.37,0.12,0.20,0.63,0.11,0.76,0.53,0.35
2.71,110.88,40.56,163.87,7.25,1.21,6.66,0.37,0.06,0.06,45.88,2.00,26.19,0.87,0.86,0.47,0.11,0.77,0.53,0.35
2.72,111.06,40.56,163.50,7.49,2.60,6.60,0.35,0.01,0.01,45.88,2.00,26.19,1.11,0.46,0.53,0.10,0.77,0.53,0.35
2.73,111.25,40.56,163.12,7.40,2.35,6.82,0.30,0.01,0.08,45.88,2.00,26.19,1.02,0.18,0.29,0.10,0.77,0.52,0.36
2.74,111.44,40.56,162.94,6.97,2.43,7.46,0.28,0.01,0.15,47.38,2.69,25.75,0.84,0.14,0.15,0.10,0.77,0.52,0.36
2.75,111.62,40.63,162.75,7.72,2.54,5.98,0.20,0.05,0.17,47.38,2.69,25.75,1.30,0.64,1.44,0.10,0.77,0.52,0.36
2.76,111.94,40.69,162.75,7.08,1.90,5.64,0.12,0.02,0.34,46.25,2.25,25.00,0.46,0.35,1.26,0.10,0.77,0.52,0.36
2.77,112.37,40.88,162.88,6.80,2.29,5.87,0.10,0.02,0.17,46.25,2.25,25.00,0.49,0.62,1.13,0.10,0.77,0.52,0.36
2.78,112.56,40.94,162.88,6.95,0.96,6.41,0.19,0.01,0.13,46.25,2.25,25.00,0.51,1.21,0.65,0.10,0.77,0.51,0.36
2.79,112.75,41.00,162.81,7.35,0.98,6.18,0.18,0.02,0.13,46.69,2.69,25.37,1.13,0.30,1.24,0.10,0.77,0.51,0.36
2.80,113.06,41.06,162.81,7.37,1.77,5.84,0.05,0.01,0.24,46.69,2.69,25.37,0.76,0.73,1.04,0.10,0.77,0.51,0.36
2.81,113.19,41.13,162.94,7.38,1.27,6.02,0.04,0.00,0.06,46.69,2.69,25.37,1.08,0.61,0.85,0.10,0.77,0.51,0.36
2.82,112.81,41.06,162.81,7.57,1.82,6.36,0.12,0.08,0.38,45.50,2.00,25.00,1.16,0.26,0.66,0.10,0.77,0.51,0.36
2.83,112.19,41.06,162.44,7.64,2.87,5.86,0.12,0.13,0.56,45.50,2.00,25.00,1.23,0.54,1.23,0.10,0.77,0.52,0.36
2.84,111.56,40.94,162.12,7.13,2.40,5.78,0.21,0.04,0.42,46.69,2.69,25.75,0.70,0.13,1.26,0.10,0.77,0.52,0.36
2.85,111.19,40.94,162.19,7.01,2.79,5.96,0.20,0.06,0.19,46.69,2.69,25.75,0.54,0.35,0.80,0.10,0.77,0.52,0.36
2.86,111.12,40.94,162.25,6.74,2.68,7.03,0.07,0.02,0.01,46.69,2.69,25.75,0.30,0.43,0.01,0.10,0.76,0.52,0.36
2.87,111.00,40.94,162.25,6.96,2.64,6.58,0.08,0.02,0.05,46.69,3.00,25.75,0.52,0.39,0.47,0.10,0.76,0.52,0.36
2.89,111.00,41.00,162.50,6.49,3.08,6.00,0.02,0.01,0.10,47.38,3.75,25.37,0.06,0.86,1.05,0.10,0.76,0.53,0.36
2.90,111.19,41.00,162.50,6.52,2.13,6.40,0.15,0.04,0.14,47.38,3.75,25.37,0.08,0.08,0.64,0.10,0.77,0.52,0.36
2.91,111.37,40.94,162.50,7.01,1.89,6.38,0.15,0.08,0.13,47.38,3.75,25.37,0.58,0.33,0.67,0.10,0.77,0.52,0.36
2.92,111.50,40.94,162.50,6.63,2.02,7.28,0.08,0.07,0.29,46.25,3.75,25.75,0.20,0.17,0.21,0.10,0.77,0.52,0.36
2.93,111.88,41.00,162.75,6.71,2.42,6.88,0.05,0.06,0.14,46.25,3.75,25.75,0.27,0.23,0.18,0.10,0.77,0.52,0.36
2.94,112.00,40.94,162.81,6.54,2.35,6.63,0.08,0.01,0.15,46.69,2.69,25.00,0.28,0.21,0.58,0.10,0.77,0.52,0.36
2.95,112.25,41.00,162.88,6.63,2.48,6.39,0.04,0.06,0.17,46.69,2.69,25.00,0.12,0.11,0.60,0.10,0.77,0.52,0.36
2.96,112.44,41.00,163.00,6.59,2.17,6.95,0.02,0.05,0.06,46.69,2.69,25.00,0.15,0.01,0.12,0.10,0.77,0.52,0.36
2.97,112.50,41.00,162.94,6.98,2.45,6.73,0.09,0.03,0.06,45.50,2.25,25.00,0.72,0.49,0.57,0.10,0.77,0.52,0.36
2.98,112.62,41.00,162.94,7.13,2.13,6.69,0.09,0.04,0.22,45.50,2.25,25.00,0.57,0.26,0.19,0.10,0.77,0.51,0.36
2.99,112.94,41.06,163.12,6.76,1.61,7.06,0.05,0.00,0.26,45.50,2.25,25.00,0.12,0.47,0.12,0.10,0.77,0.51,0.36
3.00,113.00,41.19,163.31,6.61,1.84,6.80,0.07,0.09,0.12,46.69,3.00,25.37,0.09,0.05,0.47,0.10,0.77,0.51,0.36
3.02,113.00,41.31,163.50,6.74,2.86,6.61,0.08,0.05,0.02,46.69,2.00,26.19,0.27,0.43,0.63,0.10,0.77,0.51,0.36
3.03,113.19,41.44,163.62,6.58,1.80,6.64,0.00,0.03,0.18,46.69,2.00,26.19,0.07,0.27,0.25,0.10,0.77,0.51,0.36
3.04,113.31,41.50,163.75,6.23,1.77,6.87,0.01,0.03,0.09,46.69,2.00,26.19,0.26,0.27,0.17,0.10,0.77,0.51,0.36
3.05,113.25,41.50,163.75,6.18,2.28,6.62,0.03,0.02,0.01,46.69,2.25,25.00,0.21,0.04,0.46,0.10,0.77,0.51,0.36
3.06,113.25,41.50,163.69,6.40,1.82,6.64,0.06,0.05,0.11,46.69,2.25,25.00,0.13,0.15,0.34,0.10,0.77,0.51,0.36
3.07,113.12,41.37,163.50,6.95,2.19,6.57,0.06,0.05,0.16,46.69,1.19,25.00,0.52,0.32,0.49,0.10,0.77,0.51,0.36
3.08,113.06,41.31,163.31,6.91,2.38,6.60,0.07,0.04,0.10,46.69,1.19,25.00,0.18,0.19,0.36,0.10,0.77,0.51,0.36
3.10,112.94,41.25,163.19,6.71,2.15,6.78,0.00,0.02,0.07,45.50,2.00,25.37,0.24,0.02,0.26,0.10,0.77,0.51,0.36
3.11,112.88,41.19,163.12,6.95,2.47,6.87,0.02,0.03,0.03,45.50,2.00,25.37,0.39,0.28,0.18,0.10,0.77,0.51,0.36
