0.02,-132.01071437765037,73.81419667089637,176.29790172996528,0.1290312569157256,-0.0206713179341073,0.1886851861179176,-138.60728401374325,81.74564749412069,66.3069528428462,0.0866836197033515,-0.2102704076947995,-0.1968585256280093,-192.19432641843036,3.662461864847416,14.77250431139832,0.0510555156629573,0.014148876275364,0.0464957505222002,-153.53254615176564,13.79838680934463,17.604001565448296,0.0870275093204557,0.0956668333048399,-0.0449651757908209
0.03,-132.13690277290792,74.11537118329377,176.02948573058504,-0.0839975814331806,0.0060048109982787,-0.0160225818889194,-138.74450257133932,81.9979395044469,66.13003858788264,0.1132795733969343,-0.0359359599709316,-0.2912361305167457,-192.49483371938325,3.7719702519361062,14.518769035346748,-0.1568689965712652,0.2189467899923069,0.2615281408395973,-153.50582088193545,14.34367452468307,17.458293791528593,0.1567537671473579,0.0718954143855607,-0.0980278391265756
0.04,-132.17613965323574,73.56322710657363,176.37907424357812,0.1532823738841454,0.1726829374656015,0.2566916452378424,-138.48189797955376,82.02171208092912,66.25818642718866,0.3219625393333412,-0.139995892862219,0.0644765611607261,-192.33817714357397,4.007846956234534,14.47146268850946,-0.0916842941122554,-0.0050301999838714,0.3988927009822772,-153.48377873084337,13.979221136480664,17.614401306956722,0.2442519091427127,0.1167284679603671,0.0403266540803862
0.05,-132.01730331653775,73.94136925391807,176.15010460296966,0.1193907207240133,0.1648519619274082,-0.0459680974709389,-138.62356504897946,81.70095737830013,66.10390780040278,-0.1034057991277733,-0.13177623491199,0.0154609381166389,-192.2741536124862,3.703731663811815,14.509572231769065,-0.0500019566816802,-0.1925381039906391,0.0528206102585838,-153.59568392383278,13.780415418209047,17.541252779231606,-0.1000398637322432,-0.2320797405162545,-0.1069325544752932
0.06,-132.27192307238408,73.82303534663056,176.11341978229453,-0.1965840064268748,0.0118694695678892,0.061513116827536,-138.4514153560958,81.9034659561795,65.82685789044403,0.1003401978870684,-0.1323401731514371,-0.1688676828298779,-192.1663190085861,3.806774299149292,14.56486621204945,-0.0256850856659021,0.0227118724037004,-0.0682426844881027,-153.91121715413954,13.597146207774536,17.6856182022849,0.179533458386309,0.0023794217636586,0.2523556647012464
0.07,-132.20984314811292,73.69090815152364,176.54252997816567,0.0467594983202585,-0.0304986485744439,-0.1878718660853898,-138.70392458717205,82.06062116235651,65.92260723581401,0.0642421708256879,0.04659457223348,-0.0032259568869969,-192.52625508977155,3.8643778275880822,14.655105787675696,0.2297982448145315,-0.0448368587927034,-0.2037584606229978,-153.73603815186252,13.91262730202609,17.54245212356425,-0.228576831398689,0.1761145320514179,0.0394703468786532
0.08,-132.10748695262,73.6567664310891,176.30102564050324,0.2290045705555402,-0.1998787336392755,0.286892040991421,-138.58961617603035,81.84881373081788,66.19595540239902,-0.0085824518878875,0.007925155012287,-0.2479675033719321,-192.57909998950896,3.550179051568875,14.539332291269924,0.0793623529511928,-0.0783876431910036,0.1924702942159159,-153.7924325372675,13.956498516158971,17.59937495326091,0.1414581781076723,0.2799715675390901,0.168235797568219
0.09,-132.33208654257254,73.74851571224363,175.6036581345378,-0.1635536906919127,-0.0318299731510475,0.3541041314095794,-138.83530989715024,81.72857881653756,66.09482619835948,-0.0841239004524789,-0.1091728536920029,0.0036133545899877,-192.1586572581052,3.845666090191712,14.747682720303526,0.1685670016800199,-0.0685206399043156,0.1637475584626984,-153.5822371450323,14.054389972503795,17.453709250338157,0.1900883898521846,-0.1001891888861048,0.048983102971674
0.1,-132.3822050456494,73.88448064284873,175.65231526580453,0.2999721249200022,0.1391242765575881,0.0761560883986764,-138.83468171378607,81.87634086940798,66.03697012530726,0.2323569738886261,0.1214483201072694,0.0790465245943307,-192.32570549916167,3.8917360982253535,14.580618629580885,0.1644593030856312,0.0812930091997859,-0.0703670562050884,-153.68876585655096,13.8738225490445,17.683661101889225,0.1879876326736939,0.0230697939155217,0.0205849763920975
0.11,-132.4030197788087,73.97786360384215,175.81648469462212,-0.011454961561821,-0.0926835487185812,0.0059077799825593,-138.69731045927716,82.03717189678373,66.46057515094576,0.0526372526523529,0.1891122479251337,0.2766369358245432,-192.21905561011067,3.787564871051857,14.308178712538163,-0.0370118955794316,-0.1227931108209589,0.1701062464314949,-154.04187174931417,13.946444574066955,17.5873273035848,-0.0437778485854805,0.1133370260677772,-0.1493107720289458
0.12,-132.42208336935133,73.91811629016179,175.45486936475842,-0.2754621541232621,0.1284466250270992,-0.0464236450961477,-138.66768952567998,81.77972618247982,66.51683462230744,0.0892150775534653,-0.2518297351663002,-0.0395636660196411,-192.2212970807962,3.902272296042885,14.584030728262624,-0.0489528536403149,-0.2600821280085363,-0.038432470188846,-153.98632497223662,13.68253585019639,17.686796807357855,-0.022679227957063,0.0699374859048593,0.0762334925662035
0.13,-132.46595632955422,73.89899633266653,175.52369486293864,-0.0208786277598152,0.2200763206461413,0.3003953579233785,-138.48401315366428,81.95517494851468,66.73076674689011,0.0910390865334495,0.1757643047121534,-0.0027316905354672,-192.4011613437993,3.813117967209891,14.450883727643228,0.1715341829288441,0.0045829118527016,0.0579737960834554,-153.8464271601968,13.787297095684544,17.630852123218435,-0.1007440598879981,-0.1438501724779529,-0.0304633932063088
0.14,-132.2876114871729,73.8607871939611,175.4289607394212,0.3211836651586022,0.1187123754891227,0.1144937993719128,-138.38644460500373,81.73559237426552,67.348874814546,-0.1990590323941237,0.0883000294272132,-0.0849744279932258,-192.40598908701892,3.823153363563498,14.593954992507792,0.0731246475234708,-0.086219147238606,0.1185201938062095,-153.89707093296775,13.86087897676755,17.605944564324467,-0.0322997522567707,-0.0780328894356517,-0.1436076791249694
0.15,-132.47188789902071,73.92968089876159,175.77458557978412,0.3571661834014863,0.040379329958754,0.1531532367780218,-138.5291932923948,81.78759875014377,67.5915556408629,-0.0892945335732298,-0.0483783848382974,-0.285104448636112,-192.2758841295803,3.8553220824016616,14.44360267182875,-0.2695886851055145,0.068538233716347,-0.1999053941033405,-153.94387229139335,13.55935587639891,17.796688763283754,0.1699446939802611,0.0148655342245882,-0.016928707683399
0.16,-132.34683875762065,74.01620296747828,176.1776850828409,-0.0076380028225564,0.2191234066533614,0.005594066784489,-138.12628089659344,81.79665038969927,68.4157387174409,0.1160860988786157,0.0465278156252328,-0.0731425732325355,-192.197233774347,3.7850589846476703,14.55839848761603,0.2634010129065689,0.2059209501475341,-0.0647450153628814,-153.99499212600676,13.645364315821356,17.691005277004326,-0.116759799808344,0.161279625553906,0.1328908074566387
0.17,-132.34825654966193,73.92802521794046,176.19298493371502,0.1368089165391964,0.0581728297006193,0.0125731817161073,-138.087061423604,81.98758887059346,69.84041397939819,0.2543445131768388,0.1344867532302143,-0.1022877827451769,-192.44271162560176,3.867795134360124,14.519134140128608,-0.0773605824198488,-0.0431946827137369,-0.1231918871562847,-153.82586155188778,13.859618624116322,18.032452032734348,-0.0617013179011216,-0.0298211781462911,0.2415614579584293
0.18,-132.34731146636517,73.43627256082458,175.89791540202643,-0.1572522815989468,0.1412700460651366,0.3862876341592851,-138.1666473703104,82.03742936138711,70.29720212516638,0.1009988156911228,0.0585392956902603,0.0071941681338827,-192.5257817938342,3.61641562961559,14.36146765812388,0.0760739068250219,0.0113279840089315,0.0069520860914181,-153.85666297953344,13.874374770470103,17.939481194017304,0.3143436911031705,0.0962308610664936,-0.2049752862254659
0.19,-132.60158971082103,73.81972875354177,175.5196355912683,0.2080596695758364,-0.0736731760002455,0.0440659603211848,-138.11522229043084,81.85264466506825,70.15640565373157,0.0795156519500349,0.0129648792379379,-0.0384353304854035,-192.28538179314836,3.7945136343769374,14.322470393051272,0.2770434813270447,-0.0164727890116161,-0.0451489681627247,-153.65999189149142,13.724664408045166,17.799873244248914,-0.1253815726611659,0.0333213132911105,-0.0477053055443446
0.2,-132.4432777402225,73.79518261549322,175.497165594582,0.2479066905316719,-0.1203872656858018,0.08199694551566,-138.06502411531986,81.72180127029486,70.59624279351505,0.0539936524234739,0.2791780942805698,0.0608179001277338,-192.39553010068323,3.777095777295182,14.299934295656342,-0.0988302834796207,-0.1354201019944968,0.1713617546333156,-153.85715006939986,13.69536296345935,17.805978222046477,0.0692496322707533,-0.2272602071573473,0.1682889482029096
0.21,-132.89856222567622,73.87252462870305,175.03701215914225,-0.1807654212509317,-0.0734466569667816,-0.1035702579284577,-137.98298374053886,81.92719699503344,71.44641980485143,0.1381911196809345,-0.2313858343983209,0.0854202879133349,-192.58717577153297,3.941718612528693,14.421235288882492,-0.1494797764819126,0.1402390315851568,0.0824055919429013,-153.98857259487085,13.96831292853106,17.84239720086964,-0.0510173555952774,0.2467012787038989,0.2821548770335399
0.22,-133.0190141554122,73.74827032523946,175.3546302539681,0.21875388885009,-0.0238536529168932,0.172717495167838,-137.96923546735252,82.05295192380915,71.53723943039215,-0.2505397163356076,0.0515568649321866,0.0744324690027093,-192.119049560686,3.739430986591032,14.520256414202118,0.0319640639020063,0.0884566388144112,0.2421588449964471,-153.8643654036504,13.8179278086341,17.89311675713413,0.1032175181589202,0.2708715024501086,0.1577756886354603
0.23,-132.65606423807665,73.6185159925891,174.8369722762171,0.0527167078332277,-0.207669502953266,0.2347052458541704,-138.1913547547037,81.90952129785808,71.8661178015253,-0.0551187326220649,0.1691661284815989,0.0930446556832957,-192.20129361872264,3.640847164335138,14.424310331461962,0.1118324334953326,-0.2598411068492682,0.2929537809201651,-153.74904199064608,13.727812264298244,17.977660922903066,0.0516816093846081,-0.1010507976111893,-0.0605507761497179
0.24,-132.51931093256462,73.44411179951906,174.765199742699,-0.0167043223935618,-0.0243679889731291,-0.0080378759132914,-137.86586124192348,81.70154710198616,71.3535042343388,0.0228479374083125,0.0191551672926637,-0.0889364122414802,-192.50049518840072,3.819244304826829,14.321968628673869,0.3919054220335627,-0.1702404737901885,0.2911835489558748,-154.03020646643114,13.732707977941091,17.829030539937115,0.0114368272343874,-0.1245052501569205,0.0291343526856694
0.25,-132.78304908136425,73.67952148865824,174.55926171358203,0.2708110116896072,-0.0930019558197775,-0.1238390716970845,-137.8103312503145,81.54100475291045,71.8046225086781,0.1564097710572337,-0.0258876831095909,-0.0333805683171761,-192.1131703444309,3.782609719973278,14.55075418558919,-0.1231959477118558,-0.0090759434717931,-0.1876551990677708,-153.66256881951,13.816838988640187,17.857870993485733,0.024905209754734,0.094005358993269,-0.0210446085272199
0.26,-132.74760538797662,73.7541134071265,174.77604834708436,0.0336458699853458,-0.1801677422025764,0.1773202369650647,-137.91835511247828,81.8013122903054,71.22429595315455,-0.0316679513561002,0.2157346024480903,0.0720025957255225,-192.18045014935765,3.745593164868666,14.433900442454032,-0.2538363683391451,0.033340869053818,-0.1813059235025467,-153.76819896845447,13.722200071190793,17.68239899670942,0.0500416263340659,-0.1322400488189231,0.0107991396730728
0.27,-132.78713716492638,73.61580120959401,175.01731227537564,0.2554213864663329,0.0524487481430557,-0.1355572393187526,-137.6859556484582,81.73666623129957,71.78088949678741,-0.0135062448995667,0.176762145761409,0.0337253726661826,-192.1677228590182,3.700803108607707,14.595684580587724,0.1375051528182549,0.1584109114993606,0.3221947963621454,-153.75769435371743,13.730110603366558,17.65796066720395,0.1705444718402818,-0.1401721640771113,-0.1020871424555171
0.28,-132.69854544355644,73.59417716737828,175.0393120653618,-0.0633071142314271,0.139124847446995,-0.2323310259892881,-137.563252620114,81.66965354988926,72.07761012457274,0.0931387305141001,0.1623772301711374,-0.0751876844446685,-192.29310106044568,3.567488556880776,14.702663657144733,0.1532650495002547,0.259963685849956,0.2028557614467074,-153.5855030017823,13.716450670066642,17.586684977631894,0.1345674307600404,-0.0310349125001411,0.0067593932214094
0.29,-132.6210927689258,73.71264019787948,175.0323684643957,-0.0402758753516752,-0.1519630845518019,-0.1834164087503538,-138.10562795129954,81.70917755470829,72.39334084250133,-0.0580847430688716,0.2615912984071282,0.2249033653504345,-192.17365018240835,3.563378760871545,14.356283856614011,0.0531458516526172,0.2571029602637665,0.1091004146065041,-153.7671994488478,13.802404554217008,17.9193706122289,0.0944683411680802,0.0564856621555367,-0.032318605404606
0.3,-132.4660806713712,73.70913224085672,175.28968431824006,0.1267588861743621,0.1301950366095346,0.1805386918255175,-138.1551812995895,81.78610040276652,72.8884812464127,-0.2096786787584051,0.0503327887777407,0.113599603866597,-192.21517986435884,3.5225585708371354,14.315879238416256,0.146448383019657,-0.230515059225864,0.0498812609684704,-153.6790735320183,13.82014101054111,17.666789813170826,0.1290132126968554,0.0547492825200132,0.0678474499937732
0.31,-132.24922504885336,73.52924062298283,175.40317185386937,0.1279161068004954,0.0752818171765387,-0.1460672706784986,-137.54187725756597,81.94999465651986,73.05530991602045,-0.1297934115003696,-0.0283972951880344,0.0862473496598548,-192.08909992386864,3.605304008120248,14.212509246749836,-0.0938154072521733,0.1335663161660714,-0.1343231822980429,-153.66265249841464,13.683015895121844,17.761984122210027,0.128475988634782,-0.0157379498092667,0.0977339642444091
0.32,-132.3339889913848,73.4140450553471,175.40114403716692,0.0069910377519632,0.1100448965737146,0.0161577368171655,-137.43638911056846,81.90970181809506,73.1766957988238,0.1253490043169126,-0.2340743215686105,0.0781391649096086,-192.0566173380041,3.67552685278718,14.33028560974564,-0.1651283284602047,-0.1181432668980283,-0.1070581088121528,-153.62963304672004,13.705996181312102,17.57516950874373,0.0544823919444273,0.0004037284978436,-0.0002372339976151
0.33,-132.26314473388294,73.67270689293302,175.66499679647453,0.2016958558611715,0.0748613862244828,0.2429610116015979,-137.65176602360205,81.91122692989389,72.82109500843153,0.1258992969124117,0.2091811743985413,-0.0555885037308917,-192.47312062386183,3.4047746559663605,14.22399332006598,0.0969848330312756,-0.0022927171463697,0.1789692502719627,-154.22063053382342,13.725030915925624,17.836930060856012,0.0556581122636666,-0.0007799785792993,-0.1137774578990155
0.34,-132.33752961198326,73.52744270168202,175.46370494576306,0.1282263081418657,0.0703864874222852,0.3382922016663669,-137.8014156440954,81.70161759632838,71.8026635332946,-0.1954764321634167,0.2688625476981027,0.0110108104267323,-192.28531842053556,3.5837960406107903,14.36735313978786,0.0215116569279918,0.2844704880349267,0.27372922410986,-153.35948769754364,13.693615448631846,17.77986942749125,-0.0826955501297493,-0.0031619366677914,-0.1422187633083121
0.35,-132.21084755219326,73.2504311415449,175.6848268188569,-0.0507109696318292,0.0283461380957833,0.3233116991651265,-137.93651139607093,81.92087847343998,71.4243218533667,0.083324134767957,0.4781937026686079,0.1090443694446542,-192.66045470766937,3.307924798302649,13.940518295593971,0.211953494762404,-0.0306038092348119,-0.1088258193179085,-153.80981633733236,13.777999675015224,17.84336610337104,-0.1031211708473902,0.0546673611050378,0.0661180132988743
0.36,-132.24082395420143,73.33434151830065,176.14637715031768,0.0901913256408194,-0.0103301084921947,0.2280325393087391,-137.86164353584974,81.75519033896107,70.07333569082434,-0.0789070706560635,0.0048195887018954,0.0793562043255885,-192.29023392773223,2.887632502947723,13.500503616108348,0.3950180373191196,-0.0115875509607534,0.1145949641259412,-153.47881800236004,13.933677550825484,17.62276671642065,0.055990539145222,-0.0852597016568758,-0.2469348793713444
0.37,-132.1384146283746,73.05136892162282,175.87707918616667,0.0237465032667423,0.1922897140983111,0.1756355245745718,-137.7669011778021,81.73868839939361,69.51655124062738,-0.0463725596444124,-0.183706697918542,0.1110278252379942,-192.07800673983508,2.796096064314958,13.6965238730346,0.1950227333576945,0.1908303836610882,0.259750685017513,-153.93490075564122,13.59599487794434,17.73299645108495,0.0624008205352656,-0.1681973982435903,-0.15855838318906
0.38,-132.18136379079897,73.20453215718186,175.91965831532372,0.1285537104104293,0.0279558543886857,-0.0781473359965824,-137.80229414553412,81.91346897477897,69.16895262825648,-0.0248992889027275,-0.0258314460599153,-0.0404288353559029,-191.70411857385733,2.799784742510057,13.455884373087104,0.1514592782658979,0.2039161743752211,0.4060378018643549,-153.6580691822656,13.978813489964,17.910045232406596,-0.1625808122058949,-0.025872110238156,-0.0813588467215356
0.39,-131.96632386275175,73.02654039135972,175.82692823240905,0.0027658503104082,0.1479240178042716,-0.0614800302225432,-137.89646761700112,81.92013494523258,69.4487364459312,-0.3494253806604937,-0.0502184260307538,0.1336145954205242,-191.43410249401333,2.5783556858384937,12.924304947259133,0.2374222385925901,0.1361386359670029,0.2105888490873314,-153.66148177237642,13.766423782706648,17.459192376605557,0.0900615484500181,0.184801080410838,0.1009427450078075
0.4,-132.21728408335434,72.84463815605406,175.84959735921578,0.1248061286648487,0.0303299539196794,-0.0696237298225447,-138.0312827205687,81.9212187631402,69.72911714654731,0.1820886107955673,-0.1260823313833435,0.0986749103665492,-190.87867252757184,2.175591983397022,12.975266340058369,0.4688743914360445,0.0799359516178487,0.6632873698046194,-153.65610775071,13.91526633313858,17.533051172997613,-0.0590500062991545,-0.0294465382704433,-0.1638880030519514
0.41,-131.81480105374237,72.9170750363809,176.1764959829543,0.2066814451445642,0.2153354817443995,-0.0050475457112353,-138.13254487434756,81.96844283457371,69.88090192520336,0.1586441231045755,-0.0402708935476867,0.1277624019949913,-190.1478443869429,2.227126712327812,12.499923493707843,0.300211072178254,-0.0236439160512622,0.793003411396236,-153.9074564105506,13.951308467771256,17.405651455314405,-0.0976843695361685,0.0876110311540684,0.1863337355916228
0.42,-131.60677630531177,72.78609743194136,176.11241542938384,-0.0906941738090973,0.2751612519196166,0.055878976512291,-138.08045481931958,82.06409772557349,70.11394912800594,0.2351817002211132,-0.039842655122876,0.1197698057804676,-189.71885108912613,2.228976935018058,12.479506698358616,0.3957063042038933,0.0651571410733909,0.6722734228774303,-153.4854209561149,14.101496299100925,17.343117290119835,0.1057542388621342,-0.0168541476829988,-0.2047362762928861
0.43,-131.85626411790534,72.58379660694787,175.99896000910897,-0.1665954525521912,0.0486901652054571,0.062826148505976,-138.05780917062182,82.16852113665765,70.52402943316159,0.2025701800604035,0.1825604524249714,0.0634514379881984,-189.3537792782413,2.07073020056872,12.137139209298754,0.3474461753401386,0.2812177694302875,0.8221585172805302,-153.56988271614196,14.289663307370333,17.51144560690856,0.0338394119392196,-0.0627353166560691,-0.0664412722326795
0.44,-131.82588586309808,72.91982791134502,175.9335854722442,0.2505003991883995,-0.020954699902551,0.0186181007617709,-138.04799373259127,82.11821676705556,71.35641873793317,-0.1424707412180764,0.2595530648650435,0.1213512750991494,-188.246691826488,2.2041095067951715,12.045039372744991,0.4654854955747487,0.0291839608869096,0.8301755515617274,-153.69397460891926,14.067080155761008,17.49765862819557,0.2735045839030208,-0.1220226211682606,0.108856382267761
0.45,-132.2026566331283,72.69664501660318,175.44963614524468,0.1650321535621423,0.0965434039088077,0.1922561705648179,-138.0759711950288,82.2858813792211,72.16771952630268,0.1288197494733971,0.1712495399988769,0.0388161958363758,-186.6210187987663,2.350722467475166,11.463756169095983,0.2426509323727416,0.0134634804169822,0.7389737144730707,-153.4216679327202,14.224952466408803,17.3181579263794,0.0595827898139363,0.0994380559499494,0.0190434300252243
0.46,-132.0880263480217,72.58839815292843,175.4085212632059,0.0486979248568755,0.0173476215981476,0.0993836551619073,-138.1963908114041,82.48269592428689,74.04070679857738,0.3644666955823251,0.3605783401647896,0.0931986331588525,-185.6121846336924,2.298553058920912,11.14128780398254,0.3592781255249817,0.4585808225674903,0.7973065036873203,-153.06020100624386,14.436816045823637,16.836662983602146,0.1182022991515536,0.3029730040493626,0.550310485352544
0.47,-131.9260532708105,72.55215151942245,175.22505428677897,-0.1241169147608765,0.0385838995424538,-0.3500629814433201,-138.54161096217376,82.36510064176301,75.60948855688274,-0.0016112935344116,0.3470207216566235,-0.0999288998549464,-184.83915444919967,2.6575373111360907,10.78834869107936,0.5990404643483436,0.5366822655689684,0.6480415674301221,-152.85980939449988,14.821178471598476,16.972265510388677,-0.044788760105762,0.112558851350696,0.2601894593252949
0.48,-132.31853598066007,72.26806694949498,175.36944413988115,-0.0033291584976385,0.0955993538864392,0.0935530706443148,-138.8817007182148,82.74172365690784,78.41948521002396,0.2643942026436564,0.28082238710293,0.1110098149788517,-183.87662564973957,2.605593203882854,10.349117479142912,0.5876568064740358,0.1472658468628152,0.6846261179145734,-152.75868157900845,14.967224730800185,16.87587378834863,0.0534825406272169,0.2729653310284891,0.0178555401081286
0.49,-132.50121518830488,71.92293125235335,175.1215161095052,0.0810529264054077,-0.0437981378220537,0.2364389581729717,-138.9035739481224,83.07333000658575,84.21875622989197,-0.1373450941518893,0.2455635473802927,0.1234937951364944,-182.65145664006,3.42210727918773,9.773806829926537,0.2818405079106282,0.7116438651232669,0.5188403506080309,-152.55031798380625,15.136217209591724,16.74695453865797,0.2871428408050364,0.1630543446561271,0.0424350125536802
0.5,-132.2355862774387,71.78344012484116,175.00362053484162,-0.0820332240410291,-0.0074885480089132,-0.0222309060891161,-138.94401656652636,82.97055288443165,87.0536963168457,-0.0428551227598347,0.4905123900367873,0.3698483495594014,-181.65488995824984,3.717098949919992,8.849573160856247,0.2603175619583527,0.520615155744448,0.5411029671837514,-152.86412011997976,15.439091675516591,16.693401845588767,0.2551895864216953,0.182619284115542,0.1679764365559209
0.51,-132.37981867528396,71.81818761301396,175.108865553722,-0.0778469988701212,-0.0826434288862964,0.0590477237315091,-138.98439294453772,83.13342120495611,87.44520853968861,0.4327633684934489,0.5224649022818326,0.0828751482859875,-180.91960353928275,4.1392021524712295,8.798003327917693,0.4510571694158619,0.5209614044087477,0.5905629186210729,-152.87486908483206,15.721800964640924,16.523442341116386,0.235833870872567,0.1553923919593125,0.5176050762560712
0.52,-132.34035019783175,71.54479763725861,175.30758108525572,0.1716371615138823,-0.0132235873944183,-0.0856091440728053,-139.16323937784037,82.97823664855616,87.14581886016474,0.0129454091345437,0.8068007691902619,0.0637432159648834,-180.6669266012404,4.462497948266589,8.345852395947368,0.3130738539453191,0.433041045357484,0.5468643693716126,-153.46323363295366,16.07751417397386,16.35442053474336,0.2077527694692002,0.1811084893761985,0.1337585802225046
0.53,-132.46715344214954,70.79206307863655,175.25549333456067,0.0573343624191256,-0.024341979746064,-0.2932714332416192,-139.0869239031365,83.12614906608505,87.37387759039568,0.2493559685432795,0.9949958982263364,-0.2443384382903423,-179.95055183731418,4.7966139619511,8.639772609130592,0.2891087025683981,0.2428047028066278,0.5024620642927103,-153.82627135837413,16.32807052525225,16.71162218541436,0.2282867051947907,0.0838703576049327,0.4894268913021384
0.54,-132.60190150051042,71.06632425732566,175.78638653589675,-0.0586490480912566,-0.1388453562859031,0.1294640461487504,-139.31562410009644,82.64527489963262,87.4132668917991,0.037005434311826,0.995624154757214,0.1363960725477087,-179.54824376942372,4.746988968276472,8.330399088759947,0.3393209255949441,0.3488403753937806,0.1251836026046059,-154.18952293713346,16.040848505890114,16.494344006669024,-0.1035742413570171,0.2032219456129022,0.2379281729399452
0.55,-132.60575433127704,70.38575209549964,175.42768434297096,0.1447173665031459,0.0472196815958416,-0.0204304494532246,-139.36565863449047,82.15674186099676,93.19157038773808,0.3811785161564189,0.7432668935634481,0.2004062435521987,-178.8808049417749,5.083776817113414,7.919787388259242,0.3630924254434049,0.2705288592757962,0.188318062582778,-154.51260974101794,16.05398959293341,16.52197058541442,0.2866899198555083,0.3314190955283463,0.4117241416679025
0.56,-132.67673382119602,70.55109238546993,175.38708523875357,0.1284516581350058,-0.0595309287295062,0.0812278427238539,-139.4855610910399,82.11249108458055,94.82991518367476,0.285522065585672,0.9197963706581782,-0.0472077365561908,-179.23259876157434,5.207273085311992,7.59023256378453,0.3429718460611426,0.2020186876633745,-0.0127626117597368,-154.75166156263765,16.385701898462912,16.67049634269415,0.0458110070289769,0.2028164164016456,0.3375910178089494
0.57,-132.8467580229448,70.26559003961422,175.5467419674167,0.0164789988777874,0.1919987860846426,0.227796860621365,-139.64597272207178,82.04855691397064,96.267251749915,0.2384480084891878,0.5724790901501455,-0.2859213587936663,-179.44885369341588,5.3337772521420375,7.498725553011447,0.2566508790147744,-0.0818265691816709,0.1447663446494291,-154.95418589238272,16.398228933012756,16.81850400951112,-0.0243596803608894,0.0531934101478345,0.3720802763627375
0.58,-133.28420333676092,70.23271771251659,175.27746340781923,-0.00834744431463,-0.0589857069502393,0.135010470461008,-139.88438545350488,81.47785402787649,102.2476563438445,0.1523223875580356,1.0020341933235468,-0.1112108252111732,-178.89743938692567,5.33178848422596,7.252277150319053,0.1028849637086654,0.3043991389074191,0.0683862481097027,-155.23049504310728,16.697051704558305,16.3635133691675,0.0970022844862708,0.1915578365571065,0.5428108649952003
0.59,-133.03354251173826,69.96019006858185,175.23550365477547,0.2822676773607386,0.1856625539288402,0.3053074809189787,-140.00691707146882,80.86344056674155,107.83122313847012,0.3471968069730031,1.1047775627306795,0.0048922610803047,-179.38562745740902,5.485291602010594,6.951327342767381,0.2372072176764547,-0.1485394243153649,0.4580996836052409,-155.72326096284272,16.87936905705101,16.835293264229215,-0.0075279378555714,0.1697976914581168,0.3469193785226518
0.6,-133.89255149026226,69.76754884764338,175.06740096861662,0.3262399588211868,0.6206882134394986,-0.1576798686956134,-140.19376143779994,79.80046591241029,112.939531834315,0.0567946648136833,1.216632629724813,-0.0511060671274405,-179.79409896503668,5.587090519350976,6.970015991712282,-0.0087659259566246,0.3041777674952862,0.4130104822288334,-156.33773774132626,16.701111152144282,16.677871913442143,0.0631209966036377,0.2167082482978,0.517794353175706
0.61,-133.69574382278014,68.93649001893351,174.82676370714412,0.2141622789551205,0.5615846106116957,0.1495707194750791,-140.1621364533641,78.63800161346845,118.0421049315748,0.3974676389603185,1.2883670598925392,0.3538745273365309,-179.89145239480845,5.638355569526752,6.737038460933528,-0.1542038626129753,0.0567299871126535,0.2721375654782873,-156.934448152866,16.46532389061409,16.836965982685786,0.0105466047616483,0.0928853826911398,0.4949544407696284
0.62,-134.07282192331175,68.16022913292807,174.7165168953125,0.0979607674951958,0.7333915177668787,-0.0990735351622691,-140.37138506830092,77.43757526798187,121.39437734555158,0.1047268329486024,1.2740620308260282,-0.2185588776555509,-179.86514349585337,6.185660952060752,6.521392696051714,0.1195211093275371,0.069024237842995,0.3536487536482064,-157.1222044624734,16.769439473095872,17.18500965909049,-0.2523726035716371,0.0118939723884624,0.3105484544937494
0.63,-134.52234317626073,67.00528201843161,174.58329311042402,0.2651545756828539,0.998957312030285,-0.1266589660976693,-140.226029324909,76.25956119314664,125.33830310923048,0.2663432962938971,1.6348189608418122,0.1416728463648877,-179.8944250186655,6.0976147718798,6.423942866087482,0.1568524947079105,0.0172328393301578,0.2183831060315551,-157.4920785164472,16.68896615725164,16.919841458420592,-0.0758444727714417,0.0783288270490914,0.2313939980529148
0.64,-135.280278852189,65.64556436137377,174.4224187340503,0.2328857113798317,1.1771642889949718,-0.0302113485892732,-140.84405196589643,74.80042535090354,128.30416829324918,0.5332020309192459,1.5646776803739435,-0.0830654294545971,-179.4340336781742,6.0136077182250585,6.429324649710015,0.051424192522902,0.1987090151043302,0.0806096628898838,-157.6052298115976,17.095918774113972,17.274532606758374,0.0770063126633761,0.149736692361915,0.1590201830366412
0.65,-136.9900862526148,62.60540168158437,173.87366615533384,0.377565326800447,1.6851498601848485,-0.0728656212214617,-141.19389108411264,71.41613427438952,132.9839258486802,0.2036992150628651,1.884759238273784,0.0476981537371778,-178.3236707566826,6.465029923831893,6.188844641053714,0.1275264490528451,0.2969533314015888,0.1475627177655091,-157.25789178559577,17.50133645682126,17.48967933338112,0.3260226083897093,-0.2341346795242436,0.1339919348393496
0.66,-137.52572452722495,60.39206591281966,174.22342382494804,0.0966240903186705,1.86637127213344,0.0247350199405708,-141.3475335383497,69.6855387047178,135.06480671583884,0.3083719808341683,1.398920854338497,-0.0397857370867422,-178.5285619209935,6.869899998874717,6.285353566344447,-0.0484670566412799,0.1390755183089233,0.1342409847261639,-157.28413739682455,17.759018028860186,17.714002352152033,0.0970848740746719,-0.0061502478778305,0.0060941702463814
0.67,-138.48369017496543,58.18117937140823,173.93863688792771,0.3016598828885644,1.9805805416369069,0.1731092542335277,-141.68937720203058,67.78169663104174,137.02184685951588,0.5865808966994934,1.9347477315392947,-0.1442446227645329,-178.56818646648478,6.736180139340872,6.440268125439717,0.0115585118816191,0.0589878980746469,0.1362131552910001,-157.3713904532174,17.55861452386108,17.39857796382577,-0.3343995451707843,0.3348749508738753,0.0605615899399505
0.68,-139.66714063047596,56.16161676147983,174.06932994416158,0.3727451655115246,1.624077977882844,0.3401339434135995,-141.86697359018817,65.88037685819465,138.66182255081813,0.3741977690312934,1.8449768698371607,-0.0749024126611181,-178.5597247388771,6.928848707873832,6.33193991743608,-0.3154175888973669,0.0757644001253123,-0.0536984779266233,-157.45361540612618,17.855301022916954,17.19373510874484,-0.0097981612033318,0.1069361882025869,-0.0655540537326405
0.69,-140.66369685800217,54.72091847582749,173.75995451232657,0.142834178535911,1.28365171835893,-0.1008710184419766,-142.17461789890098,64.26156466880626,139.6897780523231,0.5226001671896995,1.2944160152432662,0.2146611260895658,-178.64742043636042,7.159935234613733,6.567735088541834,0.2082174059936437,-0.0089848773235234,0.2715217120195857,-157.53632204189051,18.14094098790428,17.590016365489767,0.0972591571722813,0.2330835990282864,0.0854060201892444
0.7,-141.1422072841316,54.24668118464393,173.88887471592662,0.251187262010034,1.1400887583869932,0.1122055445317171,-142.20789219200924,63.56275738929398,139.99157311257005,0.5433945969825638,1.553287907894198,0.1574202824288267,-178.66197022450424,7.183474800300361,6.258017335074457,-0.0176731332429925,0.1558963097228704,0.0349783167898994,-157.66885121578767,17.91134380186578,17.709845420969078,0.031371099930298,0.2063197179902686,0.000151919422221
0.71,-141.73290921678486,53.49887062465014,173.72824177831546,0.2418230757696598,0.9456469151020788,-0.0447929685578426,-142.28849609333545,62.92611426041053,140.72808917884302,0.557919088849796,1.6531351034695152,-0.0486793175990439,-178.81802482515857,7.402966937328442,6.202402882381974,0.0121907508670536,-0.1813602613924266,0.2223336407884605,-157.69097858965193,18.12359686959128,17.545575735535166,0.011977689591462,0.1690468763322129,0.4210779171545793
0.72,-141.87715519872322,52.29634492600215,173.77070541003326,0.2412290176001771,1.2651097260632809,-0.0215346337234106,-142.2373369285446,60.44747524614394,141.30577114509086,0.2511935269210106,1.6065531903241137,0.2535616688025943,-178.48943796365975,6.62028733338944,6.171536693648272,0.0650769008246687,-0.2114103639491515,-0.0252606452039476,-158.1872485539077,17.7940083616786,17.8786592142397,0.2964163552290557,-0.1161570072327506,0.2112736745204624
0.73,-142.2300624407517,50.476051012957534,173.91029321881916,0.1909265491667277,1.655790596734255,-0.1022967412206925,-141.69638027236087,58.4802499271424,142.47876511127515,0.129052246237588,2.0745207645228763,0.1054275734663383,-178.33818755006268,7.193275453024563,5.6698435799656846,0.2795567261117192,-0.0380390260873959,0.3636197926233013,-158.14568860846833,17.946120897629772,17.62236744991456,0.2387785780796234,-0.010393341909292,0.0894148411774464
0.74,-142.73066129961433,48.77202075812936,173.83100086305151,0.2433360374696452,1.2384989247677387,0.0909782729638355,-142.27378155601977,56.47143970081864,143.29072836185549,0.5400372683270134,1.3481502199398252,0.3024392899869504,-178.3227654160912,7.324278872059435,5.417480273424471,0.2922698341540307,-0.1827922615250576,0.3798678415755346,-158.4065147481076,18.33638253126449,17.489979918010878,0.1736741148892303,0.3854218448668912,0.4829829024096468
0.75,-142.7223618395778,48.26308605106152,174.21215799166268,0.1110794547331247,1.0302836363620576,0.1395791766469709,-142.740061083871,55.2899443012915,144.18567428871197,0.4153509504116937,0.8043106159355792,0.0341056178518961,-177.9349922545737,7.455839011352467,5.6266123416103495,-0.2140249910257869,0.1345184542805808,0.0119256389999712,-159.53714735780858,17.827216981115882,17.647607847978392,0.0513719989177571,0.2060353855114085,0.7623615830849523
0.76,-142.77030653932715,46.60818957982521,174.4593574123346,0.1099544526723334,1.0186187259527784,0.2329256101036283,-142.3410747777379,54.27313710497387,144.44640555033212,0.1372234502561586,1.2937933630857372,0.0292746627600849,-178.3478138183258,7.008462779334758,5.459463057546135,-0.1472635229417055,0.0846776545135301,0.3598922566069744,-160.0899108351374,17.55242935545664,18.485318529390536,0.1840393322595947,0.0090295605279418,0.9786537518471228
0.77,-142.85280339981887,45.91379413639974,174.42353847434234,0.1671128376781186,1.498953911106795,0.3506239481401531,-142.4457602859501,52.56705134595586,144.7831240576548,0.2044082922081079,1.5175553305581375,0.2374022693162643,-178.97092799569978,7.076329881292961,5.314594674892045,0.1183208491462265,0.2453700313965472,0.4806841499806824,-160.8088525653801,17.16439570477202,18.60402620013356,0.1144289718105844,0.2000347976058688,1.23589847960417
0.78,-142.7000545722775,44.38589297175071,174.73903901230577,0.0279625450985422,1.2469947592792503,0.1222939111863788,-142.49081462133174,50.62988838033918,145.7126959315983,0.2775349181157759,1.5166019357047096,0.0512017238806259,-179.2244667978002,6.759682069747538,4.998592097464231,0.0661532050611417,0.1344215682896225,0.5011286441570654,-162.040526150496,16.874226144576706,18.65563046504756,0.4508620965200969,0.1547491370072748,0.8127975827491236
0.79,-143.27878984133204,42.81206892007032,174.95398872698206,-0.2294355439680639,1.3017680374079483,-0.123098452236259,-142.84795277120452,48.96808230682269,146.205369037679,0.2460490181755286,1.119510221951505,0.1550377959810344,-179.04397794008062,6.531862640880244,4.371812576546308,0.3536471181100858,-0.2363892963415115,0.1128009601758145,-162.92841920631207,16.639890594303893,18.976770368277517,0.3386955777861524,0.4829145770655588,0.316853478990087
0.8,-143.0117018906053,40.97912741386447,175.3864049970173,-0.0936583771514394,1.4723140047094787,0.2737922422812412,-142.82980523698055,48.32897610001357,146.77656331456888,0.2867505359666817,0.851724783974073,-0.0391383813328369,-178.62955475579844,6.692204034185514,4.51892869546024,-0.0236778425089615,0.2684663932735689,0.4769586285497375,-163.72228972317131,17.027572050374708,18.37236294306888,0.4275770668056311,0.0731338492737272,0.286987688985108
0.81,-143.29129249882254,38.63100933813415,175.3298951242931,0.2604457921033085,1.106457711873074,0.1883091714999413,-143.69396321322762,46.838703797455146,147.37782150444505,-0.007901012020838,0.6341459173341812,0.1619328768485498,-177.20553033826633,6.172408662790551,4.306841129182827,0.5607781461032485,0.1044997723422169,0.5591840009159782,-164.93886361461293,16.225188919114146,18.80306598886613,0.699829772720529,0.1147087496319986,0.4937342595184619
0.82,-143.10021599007905,37.48202555979052,175.04436353814347,0.1050229677848714,1.074010079701532,-0.0148433038653841,-143.72781003679336,45.86338283389428,147.48973912210434,-0.1065623220075893,1.0010595420475354,0.2299914720705165,-176.61774557286068,6.2510032416872425,4.071028632605455,0.6727993125404412,0.0744430067960522,0.5006741714774909,-165.59624321281407,15.952259528489844,19.66916637676408,1.088353729932545,-0.0386788286594433,0.0789912144201993
0.83,-143.26269569289138,36.21054353554795,175.858986560599,0.0150352853862824,1.1140131267828226,0.1879060146100241,-143.37385843472808,44.579940378789566,147.81149494960465,0.053078651482943,1.2192962685234143,0.0717879460588828,-176.10982319536666,5.784631437566524,3.785529601194997,0.3575539729810497,0.361973303065004,0.2628396889497414,-165.60466932155722,15.81992050520233,21.086613570887856,1.3810039113825487,0.1798203400608006,0.0409901366851852
0.84,-143.34654765925842,35.60715375629468,175.7796431255217,0.0659522081179748,0.8207246764110022,0.1344348092156265,-143.22962113073748,44.03769080272178,147.96897168429277,0.0933065246701288,1.096692166152815,0.2843745400751701,-175.931996057316,5.606651902764994,3.5305064346553667,0.3130374915309342,0.3194111931131739,0.384160400926308,-165.87007827809376,15.782540123598396,21.86832034691266,1.5651956738056716,0.4400074878274441,0.3141362776496023
0.85,-143.1900354453674,35.19124803216469,176.1653228678335,0.1740243078522446,1.063449756926004,0.2510596514858284,-143.51058489742687,43.39379894805855,148.037643021816,0.0356199961699174,1.041304068172192,0.000352708035125,-175.70737160461383,5.6374552552443085,3.245538308709979,0.3888713677275671,0.2354288214598694,0.7047410941174009,-165.56746069522498,15.881397229498184,22.932639684042982,1.6168174556299608,0.1063317450976572,0.6339761679872531
0.86,-143.25663830295582,33.958436073416856,176.28923081698863,0.0148789736136745,1.0233823450315065,0.2363133079505088,-143.45849435453155,42.47008776665768,148.05644090933464,0.0912448452116688,0.4112910288640093,0.3232443251052904,-175.018393438376,5.205863004681467,2.996494027483973,0.6435215000062185,0.1179624178668747,0.7062497712491973,-166.48502818409,15.951940705843397,24.47249215352628,1.3142409611842945,0.3032818673948423,0.2485718431295284
0.87,-143.28253350084051,33.12615757203463,176.34037257197633,0.0724981668120753,0.87343410353651,-0.0971134664677863,-143.5920415783338,41.888991295665285,148.2819752457545,0.182515700334733,0.0812120692755998,0.1361864426225964,-173.92515888437876,5.299103263999215,2.4473986154899228,1.1034847464898303,0.1597457982348532,0.864965754984523,-166.42259309668717,16.044791260894232,25.898901967592533,1.0790775278239155,0.2522640014719931,0.2632598664048963
0.88,-143.32639090158423,34.42878268169527,176.86549805194912,0.0505462702105928,2.006827578948692,-0.0631594866478939,-143.39872538589785,41.947395147709706,148.79049564463466,-0.0124007217746514,0.2099780956554185,0.405063525165345,-172.93201633566218,5.414396226148897,1.6521372438860102,0.4913705977349668,0.1555790348826788,0.8150769482167414,-166.6869212691916,15.932389249509653,26.987263920258453,0.911780265560366,0.2971528843446256,0.0785795305565471
0.89,-143.35746757994733,36.58321046441088,177.3518997099249,0.5039468050164838,1.771759561656166,0.3254463594650427,-143.27114717640077,41.38843423222166,148.73647481244967,-0.0261084665731585,0.7887425711916988,0.0272324549495322,-172.17890723739566,5.633184174833936,1.0417405571840976,0.3117367513569488,-0.1225517490964268,0.4222484539270552,-165.55694174958285,15.860758929586174,27.917559782651743,1.139110582205864,0.1574958749489902,0.3609382526675629
0.9,-143.51223574067646,38.65176192196181,177.93650483339084,0.4836224945131074,1.4603433220627924,0.2335222286248795,-143.24612885674918,40.45286161148537,148.88448915248986,-0.0096423114561832,0.8065450371938434,-0.0207400485856291,-172.10243542857626,5.160186559547777,0.667641159942811,0.6532795805247187,0.0755179509309718,0.0802186324452896,-164.85519054039614,16.194910262794235,29.20183976040541,0.991838682391041,0.2706460708202425,1.2923046875866897
0.91,-143.74080043199075,41.02593742995835,178.9999233902187,0.4038930781580773,2.0377590370772403,0.7220486319887673,-143.26163235253682,39.82550181646229,149.12120718409037,0.0104337571975589,0.5814835113412808,-0.1542637247738785,-171.8586176519401,5.039477152150814,0.5665951237914558,0.1630665755125282,0.088179253786762,-0.2049813624731329,-163.83828167520682,16.711517767900936,29.79474583765931,0.7453486825609463,-0.2370616158480141,0.5907627651472325
0.92,-143.6539485005438,43.0994715619943,179.33733462446307,0.2688020708241037,2.1222185064037267,0.2952118429186519,-143.31302959113577,39.821975452292406,149.31271805866703,0.0477565866352298,0.2280370562212794,-0.0828763975895884,-171.79501825784317,5.540892255550467,1.1170874328594629,0.6225379177333409,0.4070756606198386,-0.1885177716344145,-163.62664686090991,16.759756147274256,30.73207991920889,1.115557518729752,0.0993214799781613,0.1706631932029423
0.93,-143.3641221481072,45.5821414025303,179.7401637802489,0.3805956277179389,1.878477479676249,0.2912397130726456,-143.38391574777646,39.69288459120387,149.50276475363364,-0.2195849614862623,0.0835879616216144,0.0827940715855972,-171.53674744465678,5.827138296105079,1.6163417150945865,0.7740900148361739,0.2227257292840306,0.0872489286543369,-163.4856453229301,16.871698558636634,31.82473329769263,1.0051464413331377,0.0081609168772591,-0.0066085110452995
0.94,-142.38524347366013,47.03423987315755,179.0784635682213,0.2509922210294067,1.0398897816811945,0.165505777887611,-143.1126532115032,39.5079893414688,149.46068380585973,0.215251557068139,0.2595303365608409,-0.0035037130446717,-171.5814300912351,6.094818812207115,1.4413080961301077,0.7322694332877618,-0.1548349364163413,0.1474720271729593,-163.647034666875,16.698918705876203,32.57423348017564,0.7603300964050624,-0.0445733029959808,0.1031318641569955
0.95,-142.766759303663,48.15240283799422,178.95883114287656,-0.0474108820157285,0.9873458966052407,0.2820911139221869,-143.19087168358334,39.374193893921095,149.46828029266217,0.0781938382829834,-0.0146456307439974,-0.2249200726015509,-171.3802355029047,6.111204703488613,2.4181781225970505,0.8043052516731726,0.2316310031880947,0.1477487018435157,-163.47370033539977,16.967292251793985,32.57628864197769,0.1263189716769134,0.0226913012947658,0.2619537561372202
0.96,-142.3685060238136,49.47949137261562,178.75358956259967,0.0942356079481596,0.9865735998795008,-0.064406299067919,-143.17191937685683,39.33846528999264,149.71552754341005,0.2360090871175708,0.236311760314845,0.2232356740861977,-171.10353946819777,5.73035358354785,2.6620096440469903,0.31820453514967,0.1520711972455809,-0.0884739385263841,-163.48713899728017,17.085928646749124,33.164585028375534,0.1141390205955615,0.107441963441998,0.0630402420496714
0.97,-142.3645106264714,51.28560931586247,178.72035527698614,0.225482322832994,0.6500183100708468,0.3442016529665809,-143.42129421315826,39.437127191739,150.08226536021806,-0.0122019568391019,0.3195473987933033,-0.2321741954275826,-170.59564106216118,5.4640641885862165,2.597564897303194,-0.1795664643697523,-0.2654640716390948,0.1389240924889126,-163.35197033291567,17.321661825310883,33.71021684050068,0.4299379675090888,0.0588455564998617,0.2980983276314342
0.98,-142.68924669260804,51.44595769584417,178.83355985244464,0.0876567746758952,0.5060571649996604,0.3996168033540871,-143.19639718225017,39.53297914746602,149.88444147573043,-0.0144348189616196,0.2011906772801454,-0.114195132860242,-170.89838311746124,5.372030393658653,2.5279034702967813,0.0712875669310211,-0.20193455369241,0.0691027478474576,-163.1805326071105,17.345064732812467,33.98648784938369,0.4557917243013394,-0.0305407579135524,0.3177020232579393
0.99,-142.9098528419771,51.773401178766825,178.7483491468826,-0.0266156479528029,0.4029941573106623,0.3702617988727655,-143.341671204417,39.53886106129144,149.89277765195038,-0.1551477894721611,0.1256616655295126,0.2540626725530082,-170.89048747689552,5.282301259251776,2.307193164533896,0.2007469242334855,-0.025664625467946,-0.0127787917386229,-163.19511435957114,17.50180855476817,34.032593426472395,0.4710007969613206,0.2824440091177629,0.3789362185741433
1.0,-143.10202318990918,52.04935240390649,179.01285327789265,0.0895021441885187,0.4684917707235426,0.2706394936266896,-143.37443797316803,39.34013874328595,149.69736975534306,0.1243184519814018,-0.0981657768365954,-0.1879884667094372,-171.1458863767008,5.034697768845624,2.2097268707750297,0.440602118826425,-0.0078592021272693,0.4773893034538519,-163.32280708967855,17.623359330529546,34.18689695484945,0.4310659099983747,0.4367021972414717,0.1784610187222925
1.01,-143.3579131385779,52.53129626697509,178.71747858817233,0.1789447828258903,0.2475196097797544,-0.2104770971502064,-143.61587132202564,39.45900355317622,150.01749936230755,-0.0415509750797856,0.288700811801596,0.1473008777055554,-171.78323455954552,5.276791402133362,1.5971069806777138,0.3682974901123546,0.1269607902712648,0.3659509608964814,-162.01563442694896,17.610469353795576,34.28335426515756,0.5383919216961892,0.1467776514990421,0.4259979459267782
1.02,-143.1066205760291,53.22188996206704,178.599764605907,0.2077269154508184,0.0784442982864397,-0.1908093608593989,-143.55336158184343,39.55104017460453,149.484029256703,0.1825364026113686,0.2829671153581965,0.0702768907425727,-171.5145779614977,5.358442093979303,1.16831708498512,0.0394121315008018,0.1369959015084866,0.4318432412952998,-161.6994990221094,17.51762983770958,34.33634753483688,0.300917799691751,0.062272213015084,0.4113761672870379
1.03,-143.39100950849866,53.279433109856,178.86751906783442,0.3311818364028631,0.428818138884091,0.1605489863257055,-143.60870795375726,39.86872735007654,149.66596781461465,-0.0027929444531879,0.4001986797110171,0.071746560311524,-171.0670520303338,5.503375030197256,1.4909522046148267,0.3724101087705498,0.4924427337550512,-0.1407722212022052,-161.10155490600394,17.5414108854688,34.425590290034805,0.2599325732316415,0.3323988719715759,0.2861846817265016
1.04,-143.47015406277663,53.63810851347015,178.69417626793006,0.2225069695056886,0.1824933994482421,-0.1131494349476795,-143.53321663505912,40.39606622439586,149.49298553523315,-0.0884691858942249,0.0959224110118883,0.0973357031367525,-170.80522535113815,5.617722292405164,1.8923536646914751,0.3355040550747544,0.1886835714789213,-0.0222259095396935,-160.9384998521639,17.47510482550676,34.853659136868245,0.4527387304097858,0.2610382640394603,0.0863766557764127
1.05,-143.3956207274917,54.08330630935816,178.7983466635142,0.112041639303432,0.2937046036135482,-0.0422448896491075,-143.745736686857,39.974486884496905,149.24690813705047,-0.0430732328919818,0.2312387350118804,0.1906354826708825,-170.4397834628706,5.908528572757106,2.149493914754346,0.2375704823654444,-0.1030006424898988,0.4024319670397405,-160.846379771478,17.222690581590964,35.04549910192693,0.064008918880531,0.259284243207527,0.7357028045678755
1.06,-143.277496145074,54.26137143791527,178.7431719945266,0.2554683870129045,0.0578676682706579,0.2725595319230798,-143.94489205042183,40.45454890553438,149.01471571898887,0.0484695863223418,0.0031502108104798,0.3461156172436597,-171.00154895794844,5.716134301226049,1.9810216726995136,0.3061830696880361,0.2519396604221245,0.264821032570874,-159.9833749036258,17.5859716239078,35.1629911373344,0.2424411020702216,0.0962250986317323,0.912051321278965
1.07,-143.6631624353147,54.147817699942365,178.87813238360047,-0.0269859327082377,-0.1052864815235758,-0.0383126439313315,-143.87702507610123,40.30956006446499,149.21628508148052,-0.2159616703130704,0.4714231335154756,0.1583556519831615,-171.20404518363134,5.707057522083677,2.260074924829644,0.0515837125812629,-0.0382644861876118,0.1137153982770099,-159.7185742253939,17.904891997596543,35.36239799987759,0.4445767673751177,0.1920603397689705,0.631768905023365
1.08,-144.02178657217272,54.35490535107259,179.14120757740835,0.3632447362036655,0.3215881052908956,-0.0686236876608484,-143.88709962026817,40.73887350263804,149.0651581674462,0.1325098947102201,0.3326544370429921,0.0971048908129795,-171.54406219765738,6.0504184808653925,2.2492938204765287,-0.0390307474054076,0.2871051918292107,0.2190472292373547,-158.8853957389316,17.9843153419407,35.64952359692932,0.704451324095836,0.0906512100232334,0.5436230851892745
1.09,-144.33451218102917,53.87099916569287,179.41303623081168,0.0546577545214073,0.2914971069585464,0.2689754572788919,-143.95525691768668,40.33056200094234,149.13350504909062,0.0849228127324608,-0.2876440404635423,0.0058657714387423,-171.6395898628543,6.057019035254153,2.114141275310539,0.0774189048750891,0.0114910637338253,0.5600548982947792,-158.4669308878142,18.106523325028466,36.30913542079813,0.6753952363500527,0.0506515620606985,0.3934932970380344
1.1,-144.61454919168173,53.719924892840886,179.57396348606912,0.0175463419068022,0.8078918413564002,0.0491509842115343,-143.56493373168513,40.77933458300279,148.91007545125316,0.2327358814060831,0.0346082812520492,-0.1111154230528127,-172.0752741352442,5.971630824031718,2.1595207313649105,0.3608860905879819,-0.042621555578483,0.2729169804427909,-157.92517375699762,18.475262606412688,36.33733840978821,0.2066228866081949,-0.1448432587868592,0.4039330885947427
1.11,-145.09926141801856,52.33431871630773,179.98715753862672,0.1220425833160684,0.8085975482175255,0.1474550477691709,-144.1650239064627,40.83503456963281,148.93355450445046,-0.1106580102741405,0.0193859590594377,0.0515957248314379,-171.67417289896144,5.961349876122203,2.5542039580972755,0.0645333375289784,0.1449189960144133,0.3076690165164722,-157.66233837633607,18.76490736858188,36.83538900982025,0.0080557872545833,-0.2796729253867311,0.8984176595516356
1.12,-145.22731534622773,51.9751053964581,179.8155323967062,0.2228587057195178,1.1077560048210096,-0.0017495093856603,-143.9728523150533,40.70657353947113,148.89869068791378,0.1297746330751699,0.1056317973861012,-0.1409720891127104,-171.45168545790153,5.940921438000559,2.6105991864327285,0.0951993006134688,0.1793071172276384,0.3191257723865131,-157.09793612970316,19.098837956664017,36.87090612828573,0.2581262735841006,-0.1035095477546987,0.4691026678407131
1.13,-145.35463120401835,51.47777747545537,179.76380690224943,0.226857550965055,1.306523200252533,0.1594299035436974,-144.24532472611313,40.76299528777285,148.8670256742326,0.0623982744984041,-0.0037903353080571,-0.1120238420581052,-171.45097940409337,6.137064859726607,2.673608255180182,0.3094404188243109,0.4972372068493252,0.300973355160508,-156.6171295047676,19.362916481746208,36.76497268117303,0.4546980674261,-0.188946547800895,0.3105116535971135
1.14,-146.2063853031256,48.62353993842311,179.4405270539849,0.1022838020780919,1.4580811311338515,-0.1317851245318685,-144.2234993249665,41.154081354690334,148.82389851032565,0.3202112064963174,0.0067036310442309,0.1142367100722744,-171.6672647500447,6.028283074574627,3.106712175323979,0.264488298278883,0.4189150962448396,0.4828105454856551,-157.21229794795792,19.28901935930191,38.27241840090723,0.4690499969245982,0.1138001313876006,0.11533763965131
1.15,-146.81465810705802,46.9832938814404,179.29791443300567,0.1550462980452496,1.227411797571628,0.3006879334837679,-144.4126476566409,41.45574144477308,148.76864282496547,0.3292601682661307,0.3275020460370658,-0.2237759910447047,-172.0556107543201,6.096449363710979,2.8695671308451995,0.1827633767724127,0.108580756005446,0.6158167481946465,-156.8935478475855,19.379085999238825,38.76622966364618,0.3190610874571962,0.3452779215748871,0.6031718695390171
1.16,-147.0524441803911,45.29305706411566,178.9737344987875,-0.0496682503429855,0.8077530566489115,0.2516157124163198,-144.33666221208404,41.94296537870893,148.67992940193352,-0.1113715485575861,0.2851641393911173,-0.1464225264457982,-172.23959596952136,6.125556925633124,2.916701962622025,0.3458141235400648,0.2278085424092226,0.1168678878837685,-156.52162680028923,19.88693848968167,39.21013227321605,0.3430396104849025,0.3880641475263713,0.404078463953621
1.17,-144.8198824337192,44.47560226076133,178.34404120358818,0.0259470312929765,0.8173645868260885,0.3615222340341348,-144.60910633925698,42.56294308817117,148.7820473129861,0.0021607757144832,0.6765413231476705,0.2201256027591407,-172.1081219720494,6.177882433504862,3.158664050700849,0.1753258240602184,0.1551916735551455,0.2876544933516332,-156.51095544812068,20.460048717316845,39.80648095811336,0.8152732101326337,-0.0233965892010616,0.2361581665902876
1.18,-144.7461832407941,43.52361514646898,178.11116550430862,0.2639216611058363,0.616392886815426,0.1703689732352227,-144.55996478553584,43.191571779110255,149.14041897075884,0.0488349039567681,0.8430051295439026,0.1683278330150001,-171.6435099406924,6.316399169111901,3.728848263373204,-0.0616403737266012,0.0919319004902655,-0.0915049437979629,-156.61382958690027,20.611544261850877,40.67156187973416,0.8610687361474735,0.4287209679365845,0.1509276519858646
1.19,-144.93456024607676,42.708990376760966,177.83576249357972,0.1637132037475638,0.7899023575673614,0.0962590362933343,-144.81388886448525,43.92578862420383,148.77540996082718,0.3740847451369428,0.260322318343053,0.2119151203306374,-171.98924278812146,6.323744849615174,3.761837267364808,-0.0361441410579515,0.2864637166537899,0.6869332269425074,-156.55878863255614,20.622007934817454,41.72576549893417,0.8909078210264083,0.2957542614637112,0.3468939880240156
1.2,-144.63950505936089,41.89945173574009,177.88068890219463,0.0869087168418054,0.6358496450368811,0.1274226514379749,-144.43031559572202,44.44108481493903,148.07131947448963,0.3782608454727933,0.4369197571020213,0.0437494116120848,-172.58487809883349,6.204668464304028,3.886352939697258,0.0148057783323533,0.2152985212235228,0.6291280550877518,-156.27592480771213,21.01252928444037,42.63813452156072,0.820981063658989,0.4571199708537521,0.2573335614448792
1.21,-144.49703776642113,42.42535512487829,177.73444835756567,0.0127512390157155,0.4449543128602737,-0.0993322550927737,-144.40214232274937,44.76296525902849,147.89838057334407,0.1720263655145991,0.6496455183700224,0.1373547680135679,-173.10854786653354,6.14940660713873,4.046019967777566,0.1513684603287116,0.190838001496463,-0.0782620232694765,-156.18960027880786,21.12742126514689,43.59432139837118,0.9251591758757886,0.3372793252156297,0.1090681295965421
1.22,-144.39671734557928,42.64522493709225,177.5659250116141,0.3149752396082353,0.3386510636637468,0.219296298645465,-144.24671101266478,45.92814281010414,147.73593905784546,0.2866114315270658,0.513127648559577,-0.1233780268979622,-173.1626634276083,5.956127148219004,4.279244069460789,0.2223122708833252,0.2152600310136674,0.2104194274265439,-156.02888097045624,21.73720974541632,44.66050087971018,1.0231561287511306,0.2701532311607105,0.1761987563162096
1.23,-143.99641068065247,43.58059013744784,177.48811401643343,0.0881151229663221,0.576739489229107,0.13481325802629,-143.6388833634872,46.965574228218685,147.20080585759294,0.1832480299820228,0.7584819886890166,0.1404577714339077,-173.1463449307843,6.253306265272844,4.679367340710168,0.2543137704120681,-0.0326053658587123,-0.1563842692235586,-156.1217377432059,22.194691238223317,45.64287377899969,1.0564843406762583,-0.0392880371890933,-0.0852235372868155
1.24,-143.85818494391856,43.93150672006628,177.4397740250878,0.0249964894216591,0.8784922873589645,0.0602182314956384,-143.3330144683234,47.74203099351806,146.83805766892726,0.4634850098310958,0.7435954619898121,0.1685600452140461,-173.04973742169935,6.595350315763601,4.824262034946077,0.3084342829959742,0.1527913946518477,0.2279632286903608,-155.85217242277733,22.36390451622504,47.09986466373038,1.094078567955721,0.585407894320027,-0.1578193581302203
1.25,-145.79588005015808,44.71861735486964,177.49370610625522,0.0244527354874752,0.5204874873240907,-0.0931878045835509,-142.8095569408303,48.19359618171477,146.37993114265026,-0.0097983244997789,0.8030663402552067,-0.1437498810944825,-173.3769023239798,6.417002857603746,5.173237681815438,0.3448254544406102,0.0463643245959311,0.0339446620862636,-155.56476638392292,22.648498788789816,48.2054998373229,1.1455037380882118,0.3103569337358717,0.4899349131780351
1.26,-146.91743890414432,45.38114357706876,177.9061613572383,0.1984844990134928,0.476414546162929,-0.0626528313653954,-142.63843806743645,48.692713953613165,146.36174874368308,0.1336523272007477,1.0140816348245083,0.1474653112451181,-173.6143680254939,6.601659302420555,5.454733316026967,0.2450567536250669,0.2419535677300317,0.2519032042712836,-155.4278279433749,22.828018427674376,48.9201866344696,1.1836922767861158,0.4006170068847006,0.3644083018393107
1.27,-147.8439828415124,45.480097906186366,177.59960532456452,0.0503557759587061,0.7994791799612521,0.0886208428636385,-142.69785312797907,49.034402401823854,146.20395838414257,0.1027037076932406,1.089787867527661,0.3598412131257689,-173.67894933369587,6.994133215643794,5.465769992503656,0.2645020910605329,0.1155884135159236,0.4742317735160782,-155.26169302607883,23.21649166093916,49.64199285039824,1.107092683424313,0.6192694630360944,0.1751617424755003
1.28,-147.83162992493413,45.98058169359609,177.69767624023305,-0.0268493683541932,0.5869114181507978,0.0790601196639834,-142.41022102749943,49.87126965311911,146.1359915828309,-0.0878368178634452,0.6442758450141872,0.1181086644843486,-173.98095054564808,6.39208012380726,5.689923945673188,0.0712275294482389,0.3580254169606606,0.6882483978624853,-155.1622885113434,23.643297521806385,50.78375271337085,1.0337220108796692,0.5106199355417744,-0.026237803881644
1.29,-147.51463713405826,47.27554832787212,177.3376565209716,-0.1765225057537852,0.8825457157270437,0.1574219734955347,-141.76635527325556,50.66001349471313,145.3415689814871,0.526519961400209,0.6043668424751454,-0.0415616494153518,-174.8637004390906,6.670752208823624,5.815524783413345,0.1072399614533099,-0.0098476466407182,0.7641286691699662,-154.6946822751408,24.25666144128147,52.17512826282132,1.1030416964322831,0.8901345546406368,0.1041781101030002
1.3,-147.36929217781298,48.93406879633279,177.5897947820839,0.0114485536436464,0.5449519100000284,0.0340060286012885,-141.74034854084726,52.423151463958575,144.67794380498933,0.3621794713299268,1.0821489934000177,0.0949754040706819,-175.52328960978227,6.605147247102097,5.532908489922861,-0.0289244488848412,0.2172379190979868,-0.1387379160366033,-155.24589985477982,25.62868220376833,55.44303651103321,1.2767925909726734,0.8404245192268226,0.034700060623385
1.31,-147.51835642489047,49.5910092792807,177.2051824336601,-0.0158540657402794,0.6269686475713815,-0.0527665435437261,-141.02874661006834,53.42754839327859,144.0765274019991,0.2010528892503336,0.5231209208777823,-0.0181026308397498,-175.55879822202832,6.799457095423481,5.816090471776645,0.2364577762769109,0.110103711136754,0.0161925094519865,-155.213148563907,26.252737340733145,56.66584845231269,0.8217103030547124,0.8115169981010065,0.0367714454902243
1.32,-147.6608623188548,50.31464688186479,177.1693249294795,0.0746265246824039,0.8635726375557854,-0.0080068902829385,-140.80302008884075,54.35493261793224,143.6164872555878,0.3377942226354771,0.4974492421926001,0.0418004654333029,-175.73523766400996,6.9448238989049145,6.047197222375732,-0.0679199558912857,0.1064294871146353,0.4072290995083898,-155.6474761677505,26.416273676760994,58.59387846851524,0.9579714347468788,0.96268179332821,0.4585720229643903
1.33,-147.49670416988408,51.25101762056981,177.08735896841102,-0.046452767972484,1.0796628967471686,0.224314950611021,-140.48651900688023,54.93840517080384,142.93751435390757,-0.1010826579560233,0.7292412554426597,0.2959593510253278,-175.65809664147002,6.981368987496968,5.865478319829297,0.028365158227966,0.2222721505574936,0.3789003011244296,-156.24296145781383,26.854692111446465,60.08568579444791,0.9906779058237628,0.6323192266169869,0.5406602623025991
1.34,-147.41651510847387,52.00132306932156,176.90238686468945,-0.1447863704150564,0.767569930916709,0.1233303020221732,-140.84741663476223,55.95543385430283,142.90719610178925,-0.1589068721866997,0.7710686620146715,0.1312516047711444,-175.8214978672319,7.015581401843468,5.716408202317568,0.1605006894992169,0.2761075252710436,0.3869314367442642,-156.29422269159883,26.74253842104791,61.79194564363869,1.2445375407117458,0.5740091311156938,0.1501608420491732
1.35,-147.09199174236397,53.14574487414644,177.06603184265717,-0.2454273591887483,0.6706556034606079,0.0631827163696373,-140.6750046646139,57.21886072735389,141.8206554101222,0.1379319390889793,0.7555096654295158,0.0419678620786637,-176.02857105222375,6.9580151312502485,5.736555325358911,0.1180260894631344,0.1913255582738366,0.0624310291544435,-156.44459367706952,26.799769032749555,63.57159583947326,1.3424018323168712,0.7017194178342498,0.2007715384076269
1.36,-146.68713656747417,53.71941338773701,177.16285305675302,0.00384326287608,0.7129530426051811,-0.0716486060906118,-140.3768814431918,57.66925548382184,141.69966669936002,0.0700768232387693,0.5627383570274043,0.0471993224009561,-176.1672745483542,7.209199975879182,5.611737906125766,0.0114347153714067,0.1855810014831271,-0.1590400732006205,-156.56958041760376,27.740997431742723,65.64375382109438,1.265040651450363,1.044653354144013,0.1134452525689338
1.37,-146.57196992223714,54.34693316648069,177.23663131641229,0.0885378635686886,0.5786810657713114,-0.2784796290687229,-140.4617909325453,58.3980004869432,140.65444059654362,0.2061090327927069,0.9374653098918274,0.1395234951734106,-176.16831650117493,7.243490821741047,5.46900991884602,0.3423167421200474,-0.0957420291803236,0.1141573743114422,-155.9609440358209,28.6075037832551,67.27123540535698,1.3028838296404337,0.9887550118029438,0.2590507209783037
1.38,-146.42881648400447,55.22805774544003,177.19519730688197,-0.1728464108112192,0.8081335548810282,0.1815643636086936,-140.54183149594135,59.74347149202307,140.02942115109434,0.0788180221513842,1.100386368938895,0.0649756598413939,-176.06312746493683,7.012984328195092,5.1804892903451965,0.5290249815648785,0.0496167894894738,-0.1605292169096666,-156.3349066377493,29.156240556899487,69.46452691612322,1.1832489913037008,1.0132687613793063,0.0340627233675761
1.39,-146.16036270951523,56.28907536485627,177.5919085923448,0.0651888478999018,0.7592755317591203,0.0911649841132926,-140.20787887329055,60.730763029235725,138.99127770419096,0.0615725323223465,1.040016662825045,0.1078991392623641,-176.70979394519588,7.173839492933291,4.674189309689082,0.3015406174988253,-0.0554596413280926,0.0167838840930527,-156.10215463483812,29.296528349474173,71.44756059931711,1.6390954680924168,0.4581444812798716,-0.0840282175341301
1.4,-146.12514346156135,56.26022022292198,177.66299444737578,0.2144985394485389,0.6043347788152231,0.0001066234142409,-140.09050455043976,61.12113044041378,138.62259009227736,0.0689113611393843,0.9069986659315702,0.2503734274754947,-176.64756962492498,7.273737054514638,4.410460064060596,0.4670583515536377,0.2390841553709692,0.0589097951633367,-155.98500060799995,29.625584911358104,72.54469034336346,1.3537243278284006,0.8726370025740782,0.029702220876682
1.41,-146.24673630536807,56.71556830596027,177.47433758389386,0.2155300246418574,0.7983165797534579,-0.0621325278918304,-139.89804506659902,61.385131022310055,138.2314790409718,0.2299899364798126,0.7148246888619021,0.1579867710786287,-176.51051808929472,6.9664708818640495,4.356400604935184,0.0948836638451542,0.3655229040661664,-0.2044493326043789,-155.7932013497584,29.74331861385292,74.12319995411143,1.5447676494907463,0.8826213302571165,0.0034272932548324
1.42,-146.16143406200231,57.42938867772122,177.46712746815422,0.3025031713877156,0.645887477806866,0.3085797764307494,-140.11537028655937,62.55767395257712,137.2352394826371,0.1876921778044982,0.7109741530041899,-0.084923040440074,-176.5580529074495,7.380189789356481,4.370851287461591,0.179308900172034,0.1455384822962567,0.0255189168977355,-155.57581970382486,30.1987326866102,75.5665300174522,1.4730038891074997,1.040610576205294,0.0566107147798886
1.43,-146.27480597328145,58.06480402126887,177.2296194172705,0.2133952379580521,0.4766063214276511,0.2423093230613963,-140.1852679588097,63.49378107516169,136.4976919027586,0.1807980477369776,1.0705370682297264,0.0165613657365914,-176.9674318823359,7.386497729066078,3.967278596973681,0.4790563769251795,0.1462593241087705,0.2869114516181388,-155.7959254240258,30.52339854474189,77.30881192571695,1.8490247978647796,1.2018186211832276,0.2752959859875192
1.44,-146.12748822225996,59.21910959074405,177.18655149191756,0.3087310653320445,1.0752948951393149,0.1222370973678953,-140.26674712211158,64.32959846712299,135.4705693056886,-0.012957949010973,1.0484823792530025,0.2014742035895776,-177.3965708107357,7.273934512102475,3.766311146599679,0.3829958680120455,-0.112708505728066,0.3420350558880043,-155.36374861658825,31.328849415618244,80.08793015008135,1.8874975295108551,0.754625434579322,0.8797944071372347
1.45,-146.1718529865719,59.95316805668336,177.11094096842157,0.1575230521855927,0.7583008003774321,0.2180905475746068,-140.6028095674536,65.51742815960978,134.6351850052376,0.0334286920915075,1.0725212446433026,0.1115486106128662,-177.41228331925015,7.148848287118768,3.3758958990233108,0.3643770992555015,-0.0029330619489209,0.3295848378668532,-154.40668658379346,32.30044072663928,82.62759701162767,1.824995752071896,0.7503691339517723,0.8514690015031919
1.46,-146.57762036252157,61.63553232502476,177.11461756045438,0.1071436601373172,0.88030243157816,0.1888552846109401,-141.05914724622363,67.1443489047456,132.8845872489057,0.0251847117129754,0.7560392432430705,0.0220413314142507,-178.22088675488763,6.985815679657511,2.614329280611459,0.0506617334960012,0.1332994464457036,-0.0038258201812026,-153.09942393885356,33.37505893629914,87.7370820567926,1.9315399364069048,0.9827648320422628,0.516789916598009
1.47,-146.43096383025747,62.453398905221846,176.84360521292197,-0.0089569537556385,0.6326927962101068,0.1069915875801101,-140.75833901231522,68.05251157757974,131.5638058715807,-0.2581083790182086,0.8626593695596557,0.3181281266262735,-178.83035223923045,6.896773137489308,2.302454787818313,0.3205149221143037,0.009139797009229,-0.0168133517837616,-152.35411944577226,34.24604812546175,90.5669352772136,1.9340782393853944,0.6981458631566545,0.5439908223873388
1.48,-146.44136000097862,62.907591802843264,176.6781229405048,0.2318188495202736,0.5519869078465581,-0.0973684506433298,-140.9870039289569,69.0633164369988,130.39416081121075,0.2976835993700071,0.9735481705976498,-0.1174709985310494,-179.14446214220604,7.161164913248295,1.9470543353383063,0.5256784940468061,-0.0181250002189576,0.1712849716751249,-151.2964246127128,35.01274890864178,93.11532850176486,1.411822019082571,0.8420659203511779,0.6380425574746404
1.49,-146.94365633594495,64.04316132871472,176.61343213776567,0.1192859064993896,0.6693677999738816,0.0706846825410662,-140.72982695777625,69.89285425845264,129.3467622634882,0.0110799171886807,1.0000511071573894,0.2073363014575895,-179.56127822381492,7.03060284934322,1.4260875727802624,0.6813807820066394,0.0579985338912775,0.2924098672343936,-150.18236287887228,35.75906578295756,95.84969995508384,1.5887423278719082,1.0646785935482637,0.6372127469793285
1.5,-146.7722598919583,64.73673744619089,176.42441149879642,-0.1861228923446469,0.3969211282763521,-0.0494314067720472,-141.4919972283177,70.97934787241651,128.16648232736938,-0.0050665950092206,0.8426947036418632,-0.0613098412989426,-179.85516283887455,6.574890578105687,0.7730376007396168,0.6203986743165536,0.2971835720210666,0.4977497545008804,-148.9403328266772,36.54064374964673,98.22813900049916,1.7419485488883633,0.8387409715323727,0.8448193980963814
1.51,-146.52951703221126,64.9615443580738,176.8462234681745,0.1234440984659675,0.464074059317057,-0.0864182734059146,-141.26125005712137,71.78280826103507,126.6182238095479,0.0067289104643943,0.7570763983524506,-0.0529784105198107,-180.26198063120927,6.657071899473842,0.1145626970856778,0.6977714653403326,0.3280463484753135,0.3293730718418506,-147.27418898741325,37.79299847644681,101.39359252929196,1.974908304309284,0.7976013409214735,0.8699953342117921
1.52,-146.50661146288664,65.48312607051905,176.70375142318997,-0.0268765268959513,0.3899472226131026,0.3227204906419222,-141.1105876036953,72.26929562866039,125.06484358847467,0.0191164370731225,0.7071480654248518,0.0782352730407641,-180.57960400291307,6.717819243962784,0.2913636192991813,0.3400596407589876,0.1235264883598084,0.027006557895392,-146.34421359706522,38.11665645723672,101.41185229678403,1.710386834891888,0.8495268392424755,1.191557532416532
1.53,-146.3563316878124,66.17295127344873,176.82170108507557,0.0290068395736269,0.5030146580248984,0.0227376379081402,-141.50612271172727,73.25469881711716,123.63670471629035,0.342122152711,0.8289600830571574,-0.0104506127843289,-180.90919135245565,6.341712075713476,0.7370898540705176,0.6486164230026908,0.3285265457226013,0.4693177454116948,-145.05770424082127,38.94756968321243,101.32747573483348,1.2015130035116397,1.0684957079403643,1.0755750985496049
1.54,-146.45081433836802,66.39956054763879,176.4221784806213,0.1688879685643224,0.3452049118857982,-0.1539329536600045,-141.54065776817134,73.52519235261475,122.97854803647616,0.1618289260785645,0.8644191448389755,-0.1051022221736412,-181.13724198692947,6.178507015889873,0.7967298423200977,0.6137208425824144,0.3506608707723309,0.3993840817563086,-144.14579724848542,39.59818815917612,102.88113082634317,1.395651374946263,1.0100430238952018,1.2357483873398607
1.55,-146.88620388517165,66.77694668874149,176.21898608150318,0.1915211267409282,0.5234898926081558,-0.1148100692554543,-141.5485133095658,73.99703657821347,122.1953697230856,-0.1183567895040765,1.2094790928762111,0.040595291239193,-181.3662263317112,6.11362690553336,1.170524996049702,0.6798312777798581,0.3185433949504476,0.2399647916443839,-143.07889743327462,40.30084922780808,104.2297977545594,1.3268465590421208,0.8705144758676783,1.4677387028618765
1.56,-147.02259765001406,67.2433799954925,176.4071510531636,-0.1089060428836625,0.5684897869454606,0.0181304032033986,-141.98253853316663,74.7371290431568,120.61108861886338,0.0971323611014204,0.7934371771322279,-0.0821851593277865,-181.53231159184608,5.609157354734559,2.441068070199707,0.700134124786955,0.4086411747686254,0.1292700412154289,-141.39864970106956,41.33037842682223,107.00765358231628,1.347336070782296,0.7216365880873613,1.418893496403298
1.57,-146.7518209711982,67.72262609066337,176.0198665634136,0.0193124874041547,0.3399192047000752,-0.1998803125219502,-142.0503713373466,75.31228361436426,118.9852128703327,0.21892348205138,0.5930170619378365,-0.0836082109220738,-182.00282580418727,5.168101531128058,2.938489180869318,0.526699142288338,0.3319159333203098,0.2784888456761706,-139.38022019517533,42.37175184863203,110.07133436422096,1.4314027409923646,0.7813011239246894,1.7916677853503924
1.58,-146.90450783825762,68.1170908500367,176.21085157065966,-0.0575785087391625,0.5400516866053955,0.1293051007995982,-142.08445636578475,76.10747536076224,117.27900135437646,-0.0348179446804458,0.5124142430960196,-0.236565847546981,-182.47402889190352,5.350103500060647,3.5239344497846257,0.5360017579386668,0.3255346904796748,-0.3272690831778158,-138.0703572216507,43.25772217005196,112.87042428983608,1.2273395788638528,0.6652196491475446,1.2607136777359866
1.59,-146.60846629637504,68.68285448522634,176.21617631614654,0.0497333348937167,0.4140991804380416,0.0967227748424579,-142.15587693632548,76.78349351704435,115.11807993355671,-0.1622027516565523,0.6150500049198631,-0.0287672526361904,-182.38246665382607,4.475850029527481,4.012839820167194,0.5105080455466652,0.4348849250496454,0.133911935467515,-136.1481047204488,44.10614089789521,115.53151283797334,1.096338299867064,0.851024774931674,1.6123611021730853
1.6,-146.9008068814204,69.17979516492717,175.769092337497,0.23905432230171,0.5286550993624659,0.0823179110343254,-142.1816570715268,77.16562177268393,113.46357737301628,0.3597468618229392,0.6878536551901617,0.1574919969577117,-182.63877123243577,4.588294271175458,4.796816049233015,0.5523009572443149,0.3555560558265474,-0.1267919553117897,-133.41861937133203,45.1765676594888,119.03371498478724,1.4655322743928123,0.6765299212791978,1.4944465786547951
1.61,-146.81835680363596,69.83090300052764,175.69230458458654,0.0534712616989614,0.236532081505027,0.3005476934852691,-142.01263151298795,77.47453428261295,111.84710246784802,0.1221191244188244,0.5784678936700398,0.0779264245300807,-182.99311688467387,4.153391264836709,5.127597331517188,0.7151089991452313,0.5240414928199566,-0.0589277927283419,-132.75400536110206,45.14604356867751,120.48618404640452,1.481045740271013,0.5586213331686624,1.0883994481401489
1.62,-146.53046829905858,70.9325019708955,175.74130361075947,0.0976021818236759,0.4326200762480682,-0.1409897774446038,-142.06157515064098,78.76117872907345,107.01060623904615,0.1283472833939445,0.5356403527386558,-0.1386689156371983,-183.43770148047648,3.5009764854583216,6.822933013221163,0.7025555940245694,0.1760776131561851,-0.0075402189820089,-128.5600518837171,45.34763210781276,126.37364443187442,1.4516694369013945,0.8365463515907066,0.7659578969209209
1.63,-146.50499339286154,71.02770260528185,175.9082894710106,-0.1895508773202108,0.3187993133720155,0.2011479974756369,-141.99239421396769,79.12733347999884,104.55345769493204,0.0712915153952674,0.3582645660794057,-0.0693395322991196,-183.36192412884597,2.818173034769116,7.223849981654281,0.4478164571213934,0.5229765436231634,-0.1033363062897209,-127.13499449880976,45.826665643999874,129.0188519295885,1.2897495002568895,0.7459430373606619,1.7133369171836894
1.64,-146.58370974535686,71.7543412763158,175.77868559434432,0.1355647889422119,0.4943033997180374,0.2130757091044654,-142.0921818116192,79.86414300368823,101.99763554651582,0.2028206604090252,0.4275973670419225,-0.015518334710994,-183.8083284286805,2.090785005753048,8.515425245224415,0.7492712177797978,0.4805049595812684,0.3093171499586576,-124.8417059758534,46.0988108648146,132.03494770979037,0.8839541815271621,0.7124436394912715,0.7512491725353325
1.65,-146.60880200721644,71.76970870643991,175.64865826394507,-0.0186420194509755,0.4292750910401218,0.2082335492070738,-142.11615244513249,79.99169625973092,99.71943194584443,0.1692831672335601,0.4233445576526704,-0.0807299307503078,-183.91109121725577,1.7834443927230816,8.686087172018226,0.4238702554479432,0.6988505708324777,0.1045595653586803,-123.42418238848651,45.65618630794609,133.90678930705434,0.7481420824377922,0.5703143831297616,0.6710446350835092
1.66,-146.5186364498159,72.4578271718218,175.3121299604715,-0.1242956631520818,0.3820567491457186,0.0309951450039214,-141.91256113605945,80.66606678725654,99.6062634475656,0.3444323626497797,0.5558407660536016,0.1221781928480641,-184.08690743034973,1.5932412552290802,9.25768129438922,0.8489173212690002,0.2941109923679958,-0.0700567682201093,-122.26629907743322,45.57153197071055,136.2236129139859,0.8300652937220213,0.7815586139064605,0.2339280151842644
1.67,-146.43360283456337,72.77965876995384,175.1477326420166,-0.0413070497258491,0.1581624626544165,0.0066695877342699,-141.6701851390774,80.77077997766685,99.45878699619098,0.3852207574359089,0.3279986381765828,0.1533323559543214,-184.8010285378548,1.043910133159552,9.920042866937608,0.7276493491633033,0.1391036706269838,0.4198937642744398,-121.28102133278576,45.04186696176788,137.6758653780368,0.8078719477352131,0.718524268232827,0.7676065480159022
1.68,-146.6118792889647,72.93341249221535,175.13950398827131,0.2541720279744696,0.5441834794033046,0.114844570546898,-141.5536309930424,80.98197387691255,98.54950837928554,0.1841432264969182,0.6216813879170667,-0.0619597894495591,-184.73045784251053,0.8802746045641701,10.323870400264008,0.8148772434180278,0.44046783974843,0.4475422619814112,-120.12044494631265,45.16259453264086,138.91966062242102,0.7580749659335626,0.6310733339190983,0.8534707427344661
1.69,-146.75476930183422,73.48559056224741,174.80782470700714,0.1827509044937686,0.2234866889998861,0.2936250812111324,-141.7303507785636,80.8972309151781,97.41049242420908,0.1743547764416259,0.4746420664033253,0.1845601540719849,-184.80451815153975,0.604076405699503,11.030048294813604,0.7700782966384065,0.6128016990342061,0.4707771620060673,-119.10031031943996,45.375146522890994,139.89856197031483,0.8323834091410711,0.6217814679254615,1.2709559844782747
1.7,-146.4187308518566,73.7778828640045,174.78464087979924,0.1123051702488475,0.4976775628492402,-0.1931768823582354,-141.57354738768396,81.00934442994212,94.66976557282084,0.3018081693605832,0.2838129366632456,-0.2007070919368274,-185.4318734840659,0.1713458212229399,12.111662700636884,1.0546040329756332,0.7991280580125697,0.2429937159077765,-117.3833267986036,45.59829513466548,141.90048220641953,0.5211318107632052,0.8065576996729846,0.4431276596276329
1.71,-146.37419598594863,74.31847666352526,174.09563009068444,0.1073952899491059,0.1781315860112685,0.335494957554332,-141.13976696514982,81.40437318301288,90.99940622586752,0.7152332532324014,0.3906952708640299,0.2378408068662877,-185.9400880002449,0.1980087589124752,12.55761596426658,0.4050497126770962,0.282067589840507,0.1034479867759241,-117.28338686539882,44.5665079404645,143.1734644241017,0.2741986705741711,1.087402409668711,0.0032586200135879
1.72,-146.20620968133852,74.6594969636449,173.8030546791212,0.3534173349903248,0.3642711981355079,0.342239805551982,-140.87943850765018,81.53600703148072,87.81521581521055,0.1194216038085591,0.4013533114778193,0.1307459025191579,-186.1326579667831,0.3730167957736536,13.303292085038445,0.4000092241439212,0.4357655951756054,0.1366589199769583,-117.37405872177784,43.874438618745614,144.36322599925057,0.1795642620883906,0.826545579610726,0.6114499756026377
1.73,-146.4287509765017,74.76829436979926,173.69317712458377,-0.1558314145889925,0.1828919157221583,0.0570534081215821,-140.8251311506901,81.54591220907024,86.31397033802092,0.1733407831055347,0.2526742405981857,0.1165440317240187,-187.0944828428041,0.8111749253487536,13.969774638459516,0.5296140488716097,0.537828568008348,0.8196849803149139,-115.47236932111556,43.78648288882732,146.41951783000613,0.7339503373306128,0.6397416632934103,1.277808384720255
1.74,-146.53851187181004,74.93648240112842,173.81708630602787,0.1748401876323667,0.2271307100758842,0.0626552253108972,-140.77197098297538,81.60919040769986,83.80593950997472,-0.0027592774852788,0.3248224176869129,0.1530179046921494,-187.72053936928543,1.6354556600629744,14.99652699851126,0.7680909025673677,0.9288720189180338,0.6772278300354724,-114.19965563293567,43.62395193693636,147.74730792387638,0.8766961357366552,0.4699932571814805,0.1230986319561214
1.75,-146.47207915984498,75.5325273285299,173.66228996123388,0.0838429782139201,0.1137818507628612,-0.0680640874678889,-140.61431377347725,81.89457998209323,81.10325305953437,-0.0368938218157081,0.2142474247951148,0.000749140757027,-188.50361929988696,2.204455735643719,15.729677625665673,0.7701770169884301,0.797203555221162,0.3813875756666595,-113.8234232542762,42.53460126187869,148.5432614353124,0.5621474619834894,0.9415092534792986,0.4301605524343768
1.76,-146.96123699012878,75.8124231560303,173.1646475625274,0.1171218591386163,0.2539718602115537,0.0828187961945529,-141.0197933709707,81.93968685459602,79.00300118868233,0.0665578841754293,0.4247754543104137,0.0600389320672452,-189.11024719354305,2.4943228794714307,16.891604602156804,1.0424862114361704,0.5424190992076803,0.6124795069797515,-114.36937362479904,41.49871174003941,149.1778058776954,0.691019923394521,0.891234461028584,0.1735283173369927
1.77,-146.82157916909676,75.83561065228471,172.57626261474877,0.3195495249442136,0.2960049746507,0.0935576456509468,-140.84608733378693,82.03457105750839,76.06143808845208,-0.1165737273965689,0.1162437270803917,0.1531636846132248,-189.1680470376204,2.517279219280476,16.954209175349078,0.6862372702589844,0.5906412057520171,0.6921698667666141,-115.191078469657,40.54145627587071,149.72206664095953,0.544572990667569,0.9155068110326928,0.3116975008596603
1.78,-147.2263914041423,76.31566118887217,172.22776750417324,0.3001374756042956,0.2813127493530533,0.2144728175529991,-141.22486592210973,82.19668889265988,72.35109131231434,0.1329879588900714,-0.1004507649748214,0.313913090502902,-190.40898763838268,3.508640921651193,18.832081375436363,0.8406207952274425,0.5471560817158008,0.3229821997706547,-113.73356455318148,39.76621085236133,151.53956204918745,0.8302226373189043,0.3311669369567951,-0.0629659367729657
1.79,-147.80622768359643,76.40165900473704,170.9458456648812,0.1815128560364201,0.3187418904723594,0.1141059569156984,-141.18870320570528,81.99303178941388,71.87708661886361,0.1578133901047686,0.2068436480497322,0.0550453185501164,-190.9074841952177,4.138124641201112,19.50563316889096,0.7169447447799366,0.5865977129084161,0.0233690404250596,-113.54540012323102,39.315936699199966,151.59760576820082,0.5130380517139397,0.3168961346284932,0.6829403326958257
1.8,-148.28545108624607,76.62781057244891,170.1155604077886,-0.0739043092529242,0.3232174907337254,-0.0515651389566746,-141.36298917979877,82.04957422591961,71.52252206905935,0.1740640415526654,0.1230999912722181,0.015509319866696,-191.4282773966912,4.210955616759729,20.490750450799933,0.8808921108594887,0.0219856382361787,0.375784273614611,-113.47409716204882,38.99487008124229,152.09467463740887,0.4165459128304818,0.1067984821405734,-0.186302182888818
1.81,-148.7548310509689,76.74702542788816,169.87981065289833,0.2332180347906221,0.1214694645967836,-0.0631995159385917,-141.63905706963317,82.21827786189914,71.46872786725555,-0.0458140895738797,0.1436795541501158,-0.1407475998992292,-191.8587750770201,4.447559144639872,21.43646316325517,0.7133567904082101,0.5733803472262523,0.4460001320646956,-113.56475894115444,38.937556050873766,152.1596375002727,0.1544399415163877,0.1840238182234189,0.3107393821188542
1.82,-148.520247467214,76.69449248948216,169.69982606501182,0.1024738321516014,0.1721373071705043,0.0026359826626736,-141.73829743101874,81.98499300757942,70.8971270287649,-0.1341720471366743,0.1002797354995082,0.1902503420926084,-192.4745134575589,4.571439943923963,21.721933849935155,0.7045836465143491,0.4387740910882592,0.4339088776315702,-113.98534134023276,38.925733045498966,152.4914452644659,0.2349081663740681,0.2911712127875187,0.2299255707755398
1.83,-148.44543720430786,76.73340294741352,169.66967267893705,-0.0811564079472173,0.1558997689797034,0.0272867876000251,-141.74065606585413,81.90230428215638,70.24402484524745,-0.0250584585814628,-0.1035911436692349,0.2520752449142434,-192.790548750764,4.7602218312855245,22.16212354162949,0.9858204729485897,0.4983070222359995,0.350517456539074,-114.00452492348674,38.91042171561327,153.00553179731884,0.2346346988612999,0.5421388062359742,-0.0398144097845879
1.84,-149.31113637206428,76.81785065976993,169.40752705129856,0.2262767414682952,-0.0694595292159787,-0.0686714554625423,-141.97073642721364,82.06016475870602,69.59479527751876,0.3040497099712613,0.2828953922208328,0.2390089196003403,-193.7681534373719,5.082721734184531,23.31313891224279,0.5685168940497558,0.4265913124993003,0.1748239459110962,-113.59556196030007,38.46598765148173,152.80004728901895,0.0671882743864273,0.4870324491710681,0.4022747896246746
1.85,-148.90963796599058,77.31484588457938,169.165723715166,0.0143171387506969,0.1749929308011516,0.1349033053030432,-141.76635958348902,82.12658786061178,69.5527492258274,-0.0825167018013299,0.243500552381383,0.0406052563587317,-194.2940306392688,5.5922832573476144,24.4720299080462,0.6445272442948698,0.3224034312170019,0.085032215768777,-113.64434480542076,37.998371826761264,152.81959446794485,0.0338641864859525,0.6398998698510783,0.8013296585911075
1.86,-149.2373770579718,77.26813415553553,169.0519568749168,-0.0383448931805937,-0.0010096845737464,-0.0706409883781358,-142.07640828342838,82.12061925366842,70.31282963523999,-0.0619414720769414,0.1414182789176923,-0.1804668419518543,-194.4605229059046,5.640626278909638,25.179955991519872,0.4929489159200253,0.5564964641344222,0.1596792197698521,-112.64875477755156,37.21223374854687,152.41043620940073,0.2506473582923132,0.4094708863753246,0.782206148245791
1.87,-148.8041639903889,77.3975268485033,169.12862553582715,0.0825259254783916,0.0907020325631369,0.0043688333789177,-142.0234210512658,82.07002152934095,70.63501372370705,0.0748443173086851,0.0771086026170069,0.1232844387387484,-195.09950547144572,6.223309732052208,26.269791903930344,0.7947451120888528,0.5729187992853864,0.502850735655171,-112.71232263266138,36.947285194374025,152.4042178585332,0.2040652805371243,0.4302143982991472,0.4977445715738446
1.88,-148.98155250345658,77.51037878490591,169.52311914539732,-0.038629284180436,-0.204965333024369,0.1598034362965753,-142.29641589978024,82.29035257771483,68.56186875707503,0.0334121152279485,0.6333755698572078,0.3438411017499918,-195.6348234578732,6.504457264281431,27.11836725885355,0.9950603123265612,0.8493201980226182,0.3148079291255425,-112.54099484217552,36.256563550547966,152.64044783829002,0.0900060253520822,0.1753474908918294,0.3556590357383786
1.89,-148.5109950403369,77.56620958756452,169.929321431935,0.0003616036600119,0.3098941270146649,0.2780028127910876,-142.58305269977646,82.3215406787321,67.97353887791485,-0.0689193874298872,0.0242630584993373,0.0195916082369472,-196.72322260041597,7.368901654420333,28.43368472799873,0.802661793703608,0.9079579490339548,0.4844478162678869,-111.73724368667152,35.65594314999569,152.15733383739098,0.0793697516712488,-0.1208773618879784,0.8355633499467916
1.9,-148.6135267603968,77.64300218252002,170.6366401684052,0.218879782026634,0.2455511059561456,0.0299742009279769,-142.5495438921363,82.26704029648384,70.09258027721347,-0.2038666081333775,0.2040987434276284,0.034831596643541,-197.0358550737315,8.027559226288908,29.792591908910357,0.9368881752253788,0.7415973571908819,0.1214051493348847,-110.64806119592346,35.07292827195979,152.07233450684345,0.20860047480785,0.1019427347579685,0.9123319934515748
1.91,-148.10415544778422,77.8610801469782,171.4945594158771,-0.0568379871811153,0.0691097869325453,0.240265920640046,-142.2820694755495,82.42685536765177,70.23417437274763,0.3383818844135031,0.0110360860293213,-0.2485025934344191,-197.3531731177861,8.501157831817306,30.851694597641227,0.9843758424009964,0.6586663235245641,0.1421403230782111,-109.83294779237715,35.178211362546186,151.18751670157178,0.045377652072962,-0.0575165868655509,0.2858575838591839
1.92,-147.64015290823804,77.62932094919474,172.28872481986616,0.2978952814156743,0.1135596983211891,-0.1399979109385822,-142.57322955050745,82.15358338162017,70.02578310139697,0.1503614072954641,0.2184747834682508,-0.128802187325668,-197.7743303938825,9.28370187547641,32.05604700492807,1.1160613891403433,0.7085581762024022,0.1475237556161809,-109.95802309618132,34.820668956183205,151.37739481519236,0.0861908190926023,0.0484905249973997,0.2013165169992513
1.93,-147.34457079684196,77.86012236981307,172.3046983891032,0.2829354398831775,0.0503311215713533,-0.0595702305791605,-142.275956174856,82.67691152734437,70.71433354752757,0.1286043580726289,0.0243108589727953,0.1943799626763672,-197.8167924012607,10.304662788001794,33.36736088827991,0.911558351408439,0.8765629790708611,0.0046121144625257,-109.74462452665684,34.93328037229156,150.94507577795778,0.2233384480192427,0.3420513431187653,0.3290742392314847
1.94,-146.11066980266708,77.89330507533522,173.5498837932594,0.1822350136568961,-0.1696152792475806,-0.3286126764189301,-141.88136052643966,82.48425269217928,73.21839747041838,-0.0118425528811845,0.6275682314203523,0.0276092098949044,-197.14010854667097,12.041124005795316,35.27206403911483,0.8780352297410569,0.3705396923346765,0.5507025748158388,-109.94187872558666,35.37158393395273,150.89860820472077,0.011788293710604,0.1784096367859884,0.0540886594598454
1.95,-145.93911977262832,77.82561015836802,174.011721652902,0.3775413064417265,0.1382460057431752,-0.1327203472098251,-141.87014460716645,82.2288335611415,73.38955148126493,0.2115112698213322,0.0955400090322528,0.3085117029735628,-197.05451817717545,12.805072433423309,36.31370677186295,0.7066236610644085,0.6747213738935065,0.5255717798259169,-109.98086152350308,35.574080244497715,150.93901103529294,-0.2642172132992014,0.1154618732758984,0.1307447314345809
1.96,-145.4677982383316,77.85151467283751,174.1613610440946,0.5365340128509906,0.0839493270113511,0.0689202375119287,-141.7458255524887,82.3574183267945,73.39511935245719,0.0780404613983367,0.1896383251586022,0.1256147843490755,-197.1844237545101,13.34388528727514,36.970231301020334,0.7876060844826107,0.7227003970121001,0.1244664435614993,-110.20184086720327,35.57967924799628,150.9823462885222,0.0142973373657526,0.178605002364014,0.2557678818094894
1.97,-145.19510468357583,77.69050884443794,174.7082268827339,0.6379773810639391,0.0404647060904751,-0.0359152742924306,-141.62891683184998,82.40053102068738,73.63515866904528,0.2327228043682684,0.1546456420797183,0.0217278076769834,-197.11150760874247,13.786046433588046,37.39205207406681,0.7309972908985697,0.8197861784297074,0.0413974045570534,-110.0133190977003,35.47714713111143,150.92013366643295,0.5181129182052442,0.0600071251176517,0.4725755827330862
1.98,-144.9381377341636,77.69439805599252,175.27353991118733,0.3038971680743735,0.1647828482241809,-0.0004846997881856,-141.4391295358691,82.13618257097978,73.39063062770313,0.3841936676812931,0.4345382327267321,0.1987524220833222,-197.2081810833984,14.26223700679273,38.67248163836872,0.908706919180241,0.7836820527026094,0.0317931099581542,-109.40174474035084,34.9526655910017,150.9432723511947,0.239698624231066,0.2677745806399726,0.7895715553488032
1.99,-144.26031210406427,77.6650445825136,175.49144319444045,0.374387927505023,-0.2084989459123307,-0.1898561201725259,-141.17836423057673,82.34797512841456,75.25132938126202,0.5423761263853901,0.3858616601802385,0.1071735148588491,-197.71378579889415,14.769961247432752,39.24039373592278,0.8733513570330804,0.8122647665727687,0.1241114287616902,-108.71329205938363,34.85438822642108,150.8444541014474,0.3457004467178994,0.5578320610812917,0.4923084621138111
2.0,-144.01187614879095,77.70666927036237,175.7723706088036,0.0962990175645892,-0.0660373706762129,-0.090542683537829,-140.9000677029754,82.08290523894976,76.5746949660818,0.0020215397164137,0.0585909603129253,-0.0011671545100632,-198.12721143973167,15.370613572682757,40.99509030806208,0.7269708599619642,1.1947318502380588,0.01642213614866,-108.54270431601994,34.47539319446466,150.80468254802514,0.2238075943935223,0.0780079999357747,0.1268639221282355
2.01,-144.08279855416774,77.19019880729117,176.2773290039871,-0.0786449779489936,0.2717169476994653,0.1313746487452189,-141.0357145506464,82.3808638485202,77.29758246172781,0.1150210662984306,0.1718054512271548,-0.213040530764505,-198.22674679875976,15.757427415183036,42.03519565692744,0.8248444984103218,0.768142960275141,0.005353608705569,-108.25322143748386,33.6275160869696,151.34708921625605,-0.0668802328380981,0.2177385305890678,0.5903268394062829
2.02,-143.43006723680045,77.20630232828874,177.28581049154715,0.208429688867172,0.1440691766283645,0.0196019137541965,-140.95845800693857,82.54760908181402,78.19905628792834,0.1147145733531977,0.1602116557758928,0.0675266573947269,-197.7197652862021,16.709378025496036,43.13235385326792,0.9159039700332297,0.5837023474493459,0.6997502452384649,-107.88354211780856,33.54204463441476,151.35663514510543,0.2530001276752449,-0.0422111744523502,0.5374187453559747
2.03,-143.54184399780863,77.04156987554926,177.94256939406927,0.0117813014222034,-0.1194345034041507,0.0738446453115435,-140.82405022635763,82.22945090013908,80.91910997707646,0.0311061179746809,0.0565356986473492,-0.0653611808974414,-197.46963651415973,17.58040697762907,43.79126864673347,0.7443667737470459,0.5507578808443819,0.3650539549515215,-107.06166537306278,32.426253850037355,150.97322388111573,-0.0222138405648478,0.0164991527446463,0.7576322745060707
2.04,-142.91445158237664,76.94797061476777,178.36907352200666,0.0469722672158466,0.1340428809807836,0.2145739830028588,-140.69983867470629,82.24114734114417,82.74884510240443,-0.0002247426531571,0.4509944857899355,0.1742553876375221,-197.15705808097525,17.834969014355043,44.73403107154562,0.8905222749168787,0.1978311662799129,0.2179634430341984,-106.41174370623553,32.369531767775065,150.6999289403063,0.1203437764189114,-0.1049985163946118,0.1746909912179765
2.05,-142.49063795349224,76.90813263555714,178.7995005941802,0.2134705042995103,0.2695544647553362,-0.0542785057845169,-140.5990463610059,82.03386883587662,84.26244298416938,0.0558698780062354,0.2210704967396419,0.0889310885332857,-197.2986322885116,18.30180707731137,45.54337418362742,1.075829438973988,0.4247228830568201,0.0426725891433184,-106.53385724265952,32.453502410611314,150.37333581717215,0.0108210060196307,0.1269885233181957,0.2303125099147136
2.06,-142.2652871821312,76.42270349319371,179.25442026165047,0.0203531823331206,0.2833290639450913,-0.1233545378235508,-140.51631720606375,82.29539915714601,84.8833964264858,0.3206931886907596,0.0490119918023596,-0.1259251665406761,-197.43210719801408,18.243284264361595,46.44466817285472,0.8829743279935361,0.3860040169113299,0.2315658141609696,-105.97332053259768,32.2338535110257,150.25384735478968,0.1216458692211627,0.1743426562924269,0.1535577290346788
2.07,-142.1540208425519,76.19159924061718,179.3428447957274,-0.1049331972957303,-0.0525835209140018,0.0273946501596493,-140.272242715083,82.18256804968883,87.23440239124861,0.196938767070263,0.0377920715062787,0.1079349876354937,-197.41392940068783,18.43028744721509,47.573439357054326,0.7462934342023874,0.486047604886777,-0.0127039389177123,-105.57516523595856,32.11758464188604,149.6647615663285,0.4410743221322412,0.3367577121586437,0.6605413769996706
2.08,-141.97637463372962,76.46512282737665,179.10798149850442,0.2337052628784844,-0.1111215378693635,0.1525496357185275,-140.11082629979452,81.99323203967008,90.42508761945398,0.2130423392929956,0.4882196303048021,0.2325831517595243,-197.4755208688883,18.935308805560908,48.726821108974505,0.9225967362273788,0.6326506104907631,-0.0797192495969425,-105.49951484061354,31.791399945223706,148.75162486056595,0.5449876909516975,-0.0826743147023878,0.3972640811826944
2.09,-141.5953246041122,76.32084860800317,179.20570029870427,0.145632034668544,0.3362041196409919,0.2349011081272917,-140.0008919092099,82.12947073796346,92.75653418934608,-0.014908975878535,0.3078482892635357,-0.0451503770178564,-197.3615910793588,19.06695227558714,49.83157669362996,0.8629553328531978,0.4215597461915488,0.1289041290893134,-104.97274039945408,31.240093384419204,148.04122303713254,0.2544730482481153,0.2739898789814968,0.2140709910165629
2.1,-141.32308568303156,75.6502496733132,179.6419124782965,0.2657810148261835,0.4504085979695207,0.031155170536556,-139.7574462631555,82.12303900089607,93.54348990204738,0.1093054944443649,0.3582654362072518,0.1360556347807699,-197.56641700732047,19.687283382974297,50.73805923209968,0.976409168600407,0.3537985750500786,0.1923139162820507,-104.47038903624012,30.741872933696456,147.7524970211896,0.3505901359021028,0.2127024573179755,0.3918438727322522
2.11,-140.7403759109752,75.13707707535906,179.73797385266707,0.2426453788114424,0.5675425980230178,0.1231134527758602,-139.92457485057912,82.00772580841192,95.0483119445882,0.1319333771987535,-0.3699214316864189,0.4222336954950137,-197.25314905340483,20.19762292446996,51.96219881137117,0.8951842839812824,0.5051018097526235,0.4073022761250052,-104.223279499436,30.108515330843776,147.25213256647766,0.3409106581600162,0.2543497132522621,0.629076199618329
2.12,-140.76110736557254,75.12832514354393,179.71637382307432,0.1422988653764727,0.3465854964864874,0.2663969754119227,-139.83131424257903,81.9903635140064,97.57789810213086,0.1169147265351631,0.4957928136811528,0.0734644767513358,-197.11614314209015,20.58794852104956,53.06103455388598,1.1689027034598996,0.4468130035197509,0.6212380007918611,-104.30380416655798,29.646268289213836,146.1886098241488,0.4748570332068648,0.2783352473773433,0.3329663677516587
2.13,-140.64875839590331,74.59978395545947,179.45435266957475,0.0561301451589743,0.1815331466176088,0.167614797632296,-139.4347628595208,81.81055506025679,100.50367042701208,-0.0325350103505297,0.5076258187890772,0.2537680666699873,-196.4366312324719,21.662457918288,54.1508657586325,0.9461712128912464,0.5350462677127474,0.7132856206319089,-104.22790157988356,29.39835984926154,145.67515668961605,0.4728032937355544,0.1282509636049917,0.2584872771199202
2.14,-140.3426911761441,74.37873205317722,179.45657052899423,0.0653792214433811,0.3917227182668511,0.1400111454904711,-139.1586485168239,81.69525744146512,102.12203143071608,0.1307183125767745,-0.1813380009161199,0.0767808718271361,-195.96122154890224,22.319291583902874,55.347191511020775,0.7533872192581264,0.4635227016381036,0.8194371171399756,-103.9144573654651,29.30857133634653,144.76995403155132,0.1911921867605908,0.054924464327817,0.6862700284097197
2.15,-140.35722160418496,74.20569122658318,179.69632757394936,0.2359475516286905,0.0956661602532018,0.2305106891021004,-139.12707254387237,81.72209702528589,103.200581869797,0.2259341298898135,0.2575640778184416,0.0382329737381176,-195.1906318002281,23.287703305479624,56.01794208057739,0.9280242553168924,0.4995830027583549,0.6771707995610479,-103.80778300118364,29.26145358335662,144.62792817948258,0.1331592324807248,0.1943425513407922,0.3533572170845326
2.16,-139.53634976568418,74.20159601782179,179.74814693829688,0.0307680282449059,0.3845185235834629,0.279400755224465,-138.7872717972844,81.13814155221164,106.03685703245422,0.1175902094821246,0.721736332115382,0.1908696449967974,-194.3408863849507,24.283663573661613,56.68942843115912,0.7151540079381354,0.4535744644773844,0.6240007327542507,-103.66720796353997,29.27061991872713,143.85453426609135,0.5681463985232159,-0.1445701670999964,0.2838033742046996
2.17,-139.57903883412314,74.01326626580077,178.88971116630194,0.1259772094901964,-0.0103336314262662,0.0526718960108407,-138.70151438243877,81.28009002468602,107.26046723394248,0.0330190748121595,-0.0244233380055848,0.088843198360645,-193.92662600697247,25.19682081223198,57.6182305992696,0.3915154481262132,0.5254258824624044,0.8391806630533801,-103.44940712854184,28.762780894853893,142.7945929685822,0.8249379809541707,-0.0798927618137308,0.6121839096621033
2.18,-139.3515914409614,73.98393825465587,179.13235778611946,0.0143953582945493,0.2248640523476896,-0.0246183167838252,-138.4824776202082,81.03018003135337,108.97240266755064,0.0368754730890208,0.0084522051568277,0.2088443884318205,-192.8141163893359,25.90662404543365,58.40983030575201,0.5453402268852527,0.186407392235457,0.9168425914664192,-103.4072018727925,28.950803224469887,142.27319245521994,0.6134592479437422,-0.0051287830171253,0.5860341106547363
2.19,-138.68763472211015,73.17823106615823,178.874629032735,0.2403035282556498,0.1693502157842265,0.1827253760298459,-138.17138226927975,80.95340694185026,109.56746021299352,-0.2035674535921474,-0.0373197501243697,-0.1021875513239682,-191.67192043304055,27.342091576404325,58.950407981006265,0.7008520502004599,0.0105945577469599,1.2162580913439849,-103.51966873609696,29.434013893308737,141.291781638031,0.953299037464363,0.2011358155667388,0.1305036040583606
2.2,-138.35861817371668,73.11153076419696,177.98667580486497,0.1548062166664549,0.0408424585906153,-0.1353437382039732,-138.09247112734488,80.50890972102188,111.71636660633412,-0.0376900872349255,0.3587933256378146,0.0656759665419551,-190.2498007024751,28.19551376550272,59.35058852947836,0.9364393347090236,0.1078784485994258,1.0639944320857675,-104.02349408136376,29.47155092856429,140.71765773146785,0.8057698898843538,0.2307491471075716,0.1442968350272579
2.21,-138.19827432279385,73.0743552368606,177.70668148714236,0.0846078118528747,0.0971016787048194,0.0848895567489609,-138.04926286798187,79.95491797962349,113.92328962848087,-0.0315517855702132,0.5987681080222713,0.0193796086823525,-188.9872215115995,29.367640494655063,60.66004848306021,0.8979007841587782,0.6384245735428069,0.8745323845427166,-103.50442859610828,29.49817328286634,139.70391378390127,0.5815848812207607,-0.0785976298986652,0.5078226617180273
2.22,-138.06710228889057,72.62617989439883,177.6312403477949,0.0559173534119726,0.5532562852936237,0.0756043700630932,-138.28248697068673,80.04203062836172,114.07674609053832,0.0134878553298241,0.1280096311272752,-0.1316977128646633,-188.31427722911667,30.847416385822264,61.40550689487912,0.9015831066132052,0.2759516401453851,0.929552809081058,-103.62476525565332,29.79784654307378,138.75934620459998,0.5325309935947147,0.3143717037406828,0.2131779745013407
2.23,-137.90338449747784,72.29145740862118,177.87011841826794,0.1803111299403892,0.2731185229774073,-0.024479200336873,-138.15206948237127,80.22195185711472,114.32144303347414,-0.1836140551173752,0.1076145485426556,0.0830218025573499,-187.4158692711217,31.630981420997447,62.98811697712774,1.300198319231047,0.413076304547168,0.8257390976562654,-104.03289302397762,30.516292647323656,138.15838323655865,1.074309842888436,0.4188893623090454,0.7777048235672224
2.24,-137.94878970380435,72.45832291942747,177.7456048690358,0.1958717360171684,0.2157981638244485,0.0694035358304432,-138.38574684681444,80.03691857917771,114.58026106125746,-0.0561229917563358,0.0349541643475358,0.0633629094567985,-186.86721871884507,32.23743309851225,63.36511556514587,1.050258499561435,0.4408074744775845,0.9696131590099644,-104.1623954483394,30.71441066773216,137.89377092968775,0.9502913200637086,0.4176710865055097,0.386951864185352
2.25,-137.7843767181131,72.42140656457441,177.2394295812484,0.3121226398609026,0.2649151225341084,-0.1323680944513648,-138.2665029875144,80.02626397557701,115.26730430431144,-0.1078239010652729,0.3828031944062633,0.1280127722676725,-186.3620671131233,32.56895548141918,63.90471307523285,0.9546995842698736,0.1260718049868179,0.9951855909247888,-104.08400803374036,30.615651705388395,137.55264257195842,0.8299112963801606,0.5056248454823575,0.0344661040438814
2.26,-138.37324278032432,71.7409552890527,177.3421493511104,0.0230195396968112,0.1180182933461815,0.0743320794035872,-137.97157506998047,79.38224837417822,116.9571923392444,0.0334869094555289,0.3800488006902045,0.0954917757630082,-185.11374246152008,33.42203913786426,64.69054563072045,0.9026645855066026,0.1714560271437354,0.8893416611849732,-105.7852241102393,30.42517526394743,136.48715387385562,0.8748465993336613,0.2803819255586262,0.8308100869243205
2.27,-137.85680895519667,71.27227106404125,177.06635521259,0.0211980481990559,0.3854510258749327,0.4311146049382387,-138.22733183483058,79.23549514640327,118.08890404162948,0.2367020963982097,0.2748277859093945,0.0883645390944423,-183.7975160253168,34.52648529612378,67.51137172502165,1.132547563780961,0.3096024838966825,0.2885799762055657,-106.9631096287576,31.03345377176341,134.97226917253434,0.6142429070485138,0.4187191211342111,0.6463246599898207
2.28,-137.5640638370692,71.45851032258751,176.92981063587197,0.1137470322545105,0.0029042011006105,0.0882644438494039,-138.2733315016149,79.0655038677709,118.7500065797812,0.1350275576665438,0.5011782047849953,0.1095700005575568,-183.1057146738408,35.1337901631448,68.60591193583751,1.2047554058994154,0.2582492940996528,0.3295767365671302,-106.77851522246668,31.802273006920245,134.74413518311482,0.1524884901026831,0.5996061504266226,0.1882184251434198
2.29,-137.60814442268173,71.28050275905915,176.81455760111552,0.213126129941827,-0.259797522713241,-0.2143711413493502,-137.98999944188927,78.80548587374093,120.07323620211844,0.190956955868436,0.2841659816093603,0.0370798259272495,-181.538509777448,35.43880698965415,69.83328552798669,1.573663249958185,0.0800718490292497,0.5211430978576609,-107.01752202359518,32.024397237122265,134.17251018011464,0.426090262504947,0.3201030748911664,0.0611342049307747
2.3,-137.5411668634906,70.79304645640609,176.97630855174086,0.1340553319045509,0.5440899170170908,-0.1790551342954106,-137.9728327347762,78.50236206461167,120.57860393760345,0.1593861238763369,-0.0556761954085578,0.1397610111367924,-180.95430503290575,36.147962800267614,71.29876186683249,1.3321062014676746,-0.0943908846517009,0.3020082096956827,-107.61616110979998,32.416464068906585,133.4112902789141,0.354527771456763,0.2732762824976176,-0.223254843647534
2.31,-137.72432054141169,70.47999435433665,176.87582658197312,-0.0686711090809011,0.318836697629867,0.0611320124683235,-138.27151704293493,78.79307971894784,121.5184142106711,0.1218755418440985,-0.0324439667973174,0.0521850307979678,-180.41719047845083,36.57913032104025,72.90593863978023,1.0104600578747236,0.3765231905660636,0.4203734163663936,-107.41941948114912,32.581000186374816,132.7844450592255,0.311457039467702,0.3830518144498065,0.344469466077644
2.32,-137.29439220045438,70.33073641627183,176.37449718388734,0.3044530609379657,0.336772360675565,0.3899696406696001,-138.28353275266062,78.47120266318392,121.93460017859611,0.2203893001382232,0.4569291193568517,0.0197491938546006,-179.26479661886344,36.96485559391584,74.48282039659978,1.267458870180551,0.3273453449428667,0.2741812758367702,-107.20253193936192,32.96959312488885,132.96393447527544,0.2954122417505568,0.0279668595458495,0.3092631151343493
2.33,-137.3285070876037,70.14128166518095,176.1133930389254,0.0931330147507824,0.2982810867594853,0.1540527153854856,-138.20695816296436,78.18175378204268,123.09263518344493,-0.0911086653703511,0.0654633599863753,0.4249886687125292,-178.4271303920954,37.42420188787971,75.99497034942442,1.1809957499015091,0.2575222759156984,0.7698094165848858,-107.43906564536668,32.94428264488256,132.39067726984263,0.2065434600329493,-0.0098206994822803,0.2631887340339937
2.34,-137.57700366529974,69.9616091411775,176.27676229450248,0.3479660898262804,0.2774260907929449,-0.0771924943053459,-138.4486317810267,78.0037307136518,123.5614868414924,0.0172544674089674,0.178648370173272,-0.0351499626776523,-177.21380749394066,38.26850934495355,77.0904882457257,0.8999409676121728,0.1836926759942911,0.6071009702563431,-107.8085399843709,33.00825555344102,132.19155286248605,0.3363476746251358,0.2385257454272101,-0.0917427136618732
2.35,-136.90588046011283,69.60645384280001,175.79666934561078,0.0691837969799095,0.2971294287252636,0.1350156446726269,-138.4579880536269,77.64941680956754,124.07844108779253,-0.0812194244058579,0.1897579190666558,0.0010556743903762,-176.49270836819292,39.04549458931356,78.39328834151195,1.0410056090385995,0.0811261364528281,0.3676162162856349,-107.3742846353246,33.361945448856304,132.34620665049604,0.5622724681675739,0.0987120285671724,0.5079708624182775
2.36,-137.07889785068818,69.3325241705042,175.9710769161943,0.1729590139373599,0.0449650483077467,0.1046484651400372,-138.38073010829825,77.65295799250943,124.85997201451656,0.144053962638489,0.1393218515337899,0.2042270460224263,-175.503787081057,38.98290769400352,79.13706108087925,0.9900933494170896,0.0317203429118439,0.2099038505892164,-106.93759859184276,34.2965647431626,132.16801036527292,0.229805148307822,0.2699687975069945,0.7582019762109432
2.37,-136.98732325001316,69.44925938989968,175.8858442318941,0.3302749279357205,-0.1325914474416349,0.0781185889491982,-138.4921661785149,77.69925470220602,125.89226315569884,0.4494312521973341,0.3408799407788183,0.047256732876244,-174.83502857657214,39.2843289627867,80.63178868015412,1.2489967974860354,-0.1095429395228436,0.3224624866274225,-105.7879081179356,34.44019999141272,132.4137903419518,0.1535354452808562,0.1711197217852215,0.2986808112825747
2.38,-137.16150302717048,69.23736783827458,175.76209773011448,0.4359025957935303,0.1243501199368286,0.125153348877255,-138.8215796331543,77.4090474359965,126.29042650511286,0.3106814772491189,0.3000595902402164,0.038506798527189,-174.49678384183326,39.14554623351765,81.51921707491765,1.0776559664086245,0.0824479312669294,0.2513576479662359,-105.40951587977167,34.445611798585745,132.56693435955447,0.2633764871758375,0.1204835486696477,0.1996015810508723
2.39,-137.4118036306828,69.18529712068108,175.8141465007012,-0.0066177623394525,0.2397418832450911,0.1817184224824942,-138.7117391467039,77.16184119587042,126.73897916388027,0.1771935838898359,0.3212031850318371,-0.2015508997804617,-174.1335789237326,39.04325116484233,82.0345383848092,0.7127425868671772,0.1486115275118775,0.6311374123508651,-104.67364701118862,34.6802755482585,132.81586028025183,0.4873040614731584,0.2053286280613106,0.1105027622161871
2.4,-137.60272027749426,68.83296351682495,175.88117183199336,0.0042445697267615,0.2666364462510664,0.1503923182247608,-139.3096149699955,76.99469771000754,127.47709947823743,0.2250941147343413,0.177401651765398,0.1136311784994801,-173.5464378852204,39.32428225966075,82.46781924901833,0.6794406519658933,0.3120345575643805,0.1108743408035534,-104.61469536683695,34.484022337456274,133.2328380561818,0.2202016608917173,-0.0449983274862664,0.3666153267447584
2.41,-137.4218035745606,68.4079851017162,176.0877503002237,0.3212462984379509,0.2941708485426807,0.1518557768378931,-139.70175968101333,77.31916612599174,128.49912419977912,0.1574264015151649,-0.03005511612771,0.1568492230647694,-172.54268083134525,39.27195035070682,83.26186035273828,0.7788015740354564,0.134541589400093,-0.1126201368571733,-104.86179619806116,34.858542061536895,133.4670336164011,0.1368926644811253,0.2770108105891379,0.5362317084259361
2.42,-137.89618886259566,67.88591584497628,176.08929358455933,0.2521968500979695,0.2784496612313443,0.0777267760859007,-139.84137441309116,77.30222627940242,129.58515503834175,0.2679375398301828,0.1478390456206067,0.0735307571862093,-172.3658842030099,39.00085705755215,84.01280708429228,0.7513229191577027,0.0401659698703639,0.243644469156389,-105.28689259931392,34.528956011465,133.56831978086012,0.1525771477307176,0.3219124138780944,0.3089988844677785
2.43,-138.41367760334998,67.80913105096896,177.16608050927246,0.2214055012670253,0.1437795997687422,0.3114356477799609,-140.4510355282786,76.76651121565176,130.37713909094313,0.1154565177075214,0.0641972153686599,0.1344339700183238,-171.47431922372638,39.25287411446311,85.67690546935353,1.0217368027703952,0.0446315629399914,0.0270323522844205,-107.45320374097356,33.54507470825277,133.08990525399167,0.480303850798804,0.3473395274457695,-0.0944665187996224
2.44,-138.8570849837061,67.37116538428936,177.5801970656849,0.2631233124618167,0.0665513200218778,0.014369217868213,-140.48253098489346,76.53316165829979,131.1322034592731,0.1098196553953211,0.1414258804590799,0.0239857682137872,-170.92941640350352,39.51840891727936,86.42962799184441,0.9886996077333984,0.2435002105790417,0.1394155744727639,-108.62929920884388,33.28886585265741,132.81549137871252,0.3474668670548895,-0.0321262498297053,0.145345764689471
2.45,-139.36959185358313,67.36460125792627,177.60113484264744,0.2775261483998719,0.0701627949952181,0.0016265611501157,-140.56093956897243,76.45889612021836,131.39958146668954,0.3266519091614643,0.4042365676702403,0.1855009275139946,-169.9317807107717,39.48801600851214,86.96633115468781,0.6454327795964034,0.7330483040278237,0.2108078295448434,-109.9241221031818,33.08636629187784,132.1405201589994,0.3214012197434037,0.130021564567746,-0.0165036867498679
2.46,-139.55808524785402,67.13801374016296,177.86469205129777,0.074100487822231,0.312673153815417,0.090863684686889,-140.57290760654791,76.35394149390874,132.51359916518513,-0.1137970249901082,0.4019228444653618,-0.0509917470095249,-169.19455592919329,39.42815863980194,86.96365807092906,0.6255784210334934,0.567880752178962,0.4053844168268007,-110.54649191132717,33.128296880221846,132.241806787148,0.1545216056904073,-0.1963218610656478,0.2003854793855524
2.47,-139.8841167508884,67.09830533055477,178.6458151352308,0.1957978103724326,0.2790297108186859,0.1312625362930743,-141.09133841638234,76.29416397028434,133.22397879131205,0.1636088865395799,0.2307915561357356,0.0479016062619758,-167.929136625004,39.77394540634173,87.43278460498193,0.634913648039481,0.0314783403130079,0.5781597945431404,-110.48591689528617,33.268112802592896,132.15571435992132,-0.1038936486896267,0.5056375053693526,-0.009819192733689
2.48,-140.38076600378017,67.03096320597912,178.64125892991464,0.1509831982511832,0.0550823105418612,0.0685756509008518,-141.28752076640993,76.01238611159512,133.49629421009027,-0.0210555521412015,0.2357742129992563,0.0134885443021154,-166.7654557170452,40.6808344703335,87.57078411448262,0.9673328372413916,0.3041512864994002,0.6504499394259312,-110.20369166286306,33.62142656806062,131.84341961110795,0.2142022885600726,0.0376134786266274,0.2623943940212833
2.49,-140.41047314892302,66.62554534208141,179.0071309052933,0.048401501359535,0.3406691091913505,0.0879142341500243,-140.8823872950157,75.70810289666767,134.22438028478356,0.0218182418407047,0.3764820035717947,0.4932480724245342,-165.2897162583553,41.27436060540925,88.25122219437061,0.8039525702171528,0.6119429243035397,0.2036286552611794,-111.13944676188795,33.684290375512745,131.21493658504107,0.394996248129038,0.3585635436145897,-0.2029884052553938
2.5,-140.72560471917808,66.6406239891221,179.043233221969,0.2415082787982656,0.1398917560041252,0.1449686382037027,-140.9847693439955,75.31334058943554,134.44907598424297,-0.153066901968444,0.0827561526119455,0.0631359281738603,-164.34246072521162,41.41676798434032,88.66274276504471,0.643825829439212,0.7962382845405855,0.2118603501145994,-111.86972360206072,33.14014322130515,131.63351682795607,0.2983889944209321,0.1067235970680195,0.0477280558288308
2.51,-140.9527133078776,65.96361863479511,178.65242032145733,0.1840993198608361,0.7250872384561659,0.1053334949970161,-141.11100063905093,75.09819145963131,134.62901863013,0.0169699136280686,0.1039179797023248,0.0925772830345854,-164.2116074060663,40.98330709340114,88.7370360134495,0.3778749186703026,0.1991022946521886,0.9389693207535303,-112.16817781758569,32.8148234254515,131.67160788736032,0.0193868152570616,0.2163507468065585,0.2578839132092264
2.52,-141.05322655041903,65.92521366369631,178.81433112325357,0.0513437722576874,0.4433300971297286,0.0092163182968633,-141.394844510883,74.91966467734336,135.15525722753517,0.2507052175862048,0.59702756239634,0.0037277425178742,-164.58856223864103,40.3388107206261,88.94459765810137,0.4754484614144065,0.0828624673226266,0.6909904266452677,-112.1470227624812,32.63200007461148,131.84825395933032,0.1728010402086029,0.094670466231209,0.1182862855275836
2.53,-140.9581267446852,65.74465964825919,178.96154602344114,-0.0278793710505623,0.0854738398828899,0.2755401371250453,-141.29931604294032,74.94930690079902,135.41212354627854,0.1235536088229502,1.0093913721261338,-0.0419947770959965,-164.69862839860045,40.09716179421712,89.4293929716752,0.36125893529777,0.0432742933633411,0.5653507827970775,-112.48772606483828,32.63614285868456,131.7228426017607,0.2963645954029456,-0.0365158194677722,0.1764004087023343
2.54,-141.2445457126909,65.18097733888685,179.28129337204288,0.2206539444686275,0.235814893652941,-0.0322748865703505,-141.12236807615392,73.82829255337965,137.07991059578455,0.161717319484539,0.8807974767165192,0.140179151612051,-164.9451738109391,39.509751078842505,89.28731754600496,0.3835737693227647,0.1851089813481373,0.2673752935701097,-111.6811134560082,32.855589691224395,132.09282142393718,0.1376531192526734,0.0818427278120932,0.5861324413813666
2.55,-141.04835347078694,65.09106877635611,179.38452994372702,0.4122634289454689,0.2807989003891461,0.0429611924789267,-141.38364478267488,73.3594296321445,137.7760116832395,0.407684202554187,0.2046725159294026,0.393705344030062,-164.63196624622364,39.51297784171646,89.61253166298745,0.6496734660158896,0.6005850179311056,0.0410523233680535,-110.23022697697714,33.3145985690929,132.3715218678689,-0.1109134159704749,0.3187373082269708,0.4981340696733626
2.56,-140.70479059113237,64.64048367703573,179.418069375972,0.1169570718290651,0.3644489245044998,0.0331835865946535,-141.05958111803184,73.53319975471841,138.79283570860477,0.1757771244073625,0.3397295574894685,0.4084901433184947,-163.90726350120892,39.75418124473788,89.54888692844533,0.0460581758876884,0.3697797053494769,0.3551716480710101,-109.34352386390962,33.879538913738834,132.48903606011126,0.1723420502191021,0.2121534033482623,0.7236301835160647
2.57,-140.6505855935818,64.33522993404203,179.1479009829616,0.1840151975657724,0.4380666118304221,-0.0134815644936049,-140.88368587137882,73.04283890407122,139.7785150906423,0.2158732521139143,0.6177939437472599,-0.0082771949355413,-163.064023844122,40.12099251768081,89.52702233775558,0.3013132987454415,0.1950609614985491,0.4957578696565888,-109.24932121009792,34.387126473126465,132.37040256901307,0.4592074298788611,0.2545511319817457,0.4015935668921631
2.58,-140.8951779231859,64.10416460820556,179.39792642395204,-0.101584365352647,0.1831449791507227,-0.1448836780613633,-141.12304689165623,72.6522560884891,140.49651499393192,0.2374711820223602,0.275621984705554,0.009345072369469,-162.36341908578515,40.84387432765579,89.0395179512762,0.0484423984933678,0.3843389309134387,0.8163382903083034,-111.21458872670873,34.17774748409436,131.692930604981,0.6203831393804191,0.0236563008547984,0.1329673116014555
2.59,-141.0446110136557,63.66708125833996,179.7745922966299,0.2342063666935576,0.223058847934953,0.0959292207861043,-141.67286032397283,72.10210593050813,141.52655633113224,0.3499135033757024,0.192552105378194,0.1949443380212026,-161.0200528524309,41.78599806670178,89.21389961281947,0.1206503383787568,0.3412156399494047,0.0167237153063358,-112.6740448396138,33.268923121900684,131.33841419121194,0.261145542429061,0.1175074983271492,0.3580621895931122
2.6,-141.23607988888008,63.24721851768761,179.71147958812867,0.3459615421098002,0.0463851421896794,0.3231669709633026,-141.5731971580366,71.82545230678998,142.21697616906806,0.1742897101467275,-0.0312292326521091,0.1787716802701113,-161.27787136692874,41.11785673687913,88.90985795700678,0.0405505865934271,-0.2079967176680884,0.1684632122091252,-113.37435763714632,33.1210195047308,130.93575440643218,0.3710335488480635,-0.0014226689885196,0.2181669599034493
2.61,-141.572515957073,62.77101468187702,179.71493421671323,0.1980609111317565,0.32733596017086,0.0198865570136934,-141.1691562458079,71.60198239249387,142.2903669574162,0.2465851403644834,0.1751296100105284,0.1731491502044777,-161.09010357153608,41.58262592799988,89.29394793906107,0.2268962834544276,-0.0538131706525344,0.1970970738752797,-114.71083555948994,32.88979652496876,130.9285899279274,0.4601903715729261,0.3708669296559531,0.2094742755875681
2.62,-141.89345283110669,62.79525972943456,179.108970315299,0.2849417943258819,0.3853435128662825,0.1674555211713676,-141.6290024226138,71.90019816637326,142.62425633017443,0.2522241281597203,0.1150565531564695,0.1417685068735737,-160.78473818643715,41.74261374125848,89.0735863737409,-0.107585911739594,-0.0699216590503193,0.6646946681602455,-115.06517687832208,32.67589771081897,130.68848765384442,0.1324571482918409,0.0449928986800464,0.2721758989028668
