0.01,-111.47,79.85,177.35,0.06,0.19,0.15,-0.06,0.03,1.3,-100.33,79.62,149.3,0.03,0.13,0.21,0.75,0.6,0.49,-180.01,6.97,9.45,0.2,-0.19,0.39,0.42,1.18,0.09,-133.24,2.37,11.24,-0.07,0.19,0.26,0.88,1.98,1.37
0.02,-111.56,79.86,177.51,0.27,-0.14,0.22,0.08,0.09,1.12,-100.25,78.73,151.5,0.24,0.45,0.22,0.69,0.43,0.45,-179.35,6.86,8.98,-0.04,0.02,0.35,0.46,1.19,0.17,-132.53,2.21,11.21,-0.05,-0.03,0.3,0.9,1.92,1.29
0.03,-111.41,79.7,177.63,0.07,0.08,0.11,0.34,0.2,1.32,-100.18,78.15,153.61,-0.01,0.49,0.02,0.81,0.39,0.53,-178.85,7.0,9.0,0.31,-0.03,0.41,0.35,1.03,0.48,-131.98,2.45,11.11,0.18,0.23,0.23,0.68,1.75,1.68
0.04,-111.35,79.74,177.72,0.25,0.11,-0.07,0.47,0.22,1.25,-100.04,77.42,155.76,0.16,0.77,0.26,1.0,0.23,0.36,-178.35,6.98,8.77,0.05,0.16,0.44,0.45,0.78,0.85,-131.6,2.46,11.42,-0.07,-0.06,0.63,0.79,1.4,1.68
0.05,-111.28,79.84,177.73,0.15,0.11,0.15,0.62,0.42,1.2,-100.07,76.55,157.73,0.11,0.84,0.17,0.94,0.42,0.21,-177.91,6.95,8.45,0.39,-0.09,0.24,0.43,0.84,0.75,-130.78,2.52,11.26,0.2,0.11,0.66,0.43,1.38,1.81
0.06,-111.32,79.59,177.68,0.11,0.13,0.13,0.66,0.53,1.05,-99.99,75.86,159.69,0.11,0.98,0.19,1.09,0.24,0.33,-177.51,6.88,8.2,0.02,0.12,0.39,0.57,1.01,1.34,-130.6,2.34,11.34,0.33,0.14,0.85,0.45,1.07,1.92
0.07,-111.13,79.58,177.81,0.13,0.27,-0.0,0.73,0.5,1.12,-99.83,74.91,161.56,0.14,1.32,0.11,1.3,0.41,0.39,-177.08,6.79,8.36,0.09,0.19,0.44,0.17,0.69,1.34,-130.05,2.4,11.28,0.02,-0.07,0.78,0.32,1.18,1.88
0.08,-110.67,79.28,177.61,0.32,0.45,0.11,0.71,0.63,1.12,-99.97,73.94,163.35,0.1,1.26,0.16,1.12,0.12,0.21,-176.49,6.87,7.95,0.35,0.06,0.59,0.3,0.58,1.49,-129.77,2.42,11.4,0.13,-0.09,0.67,0.27,0.75,1.93
0.09,-110.58,79.01,177.58,0.26,0.49,0.04,0.88,0.64,1.01,-99.98,72.57,165.09,0.06,1.29,0.07,1.16,0.15,0.25,-176.17,7.06,7.73,0.29,-0.02,0.46,0.44,0.7,2.0,-129.35,2.33,11.55,0.18,0.05,0.62,0.12,0.72,1.91
0.1,-110.17,78.49,177.63,0.4,0.48,0.11,1.04,0.59,0.76,-100.12,71.4,166.47,0.17,1.36,0.2,1.66,0.24,0.46,-175.63,6.78,7.85,0.16,0.13,0.63,0.47,0.72,1.92,-128.94,2.55,11.71,0.07,0.08,0.72,0.12,0.49,1.62
0.11,-109.82,77.95,177.4,0.35,0.58,-0.08,1.06,0.81,0.84,-100.12,69.91,167.65,0.25,1.55,-0.08,1.33,0.17,0.45,-175.37,7.07,7.59,0.4,-0.07,0.48,0.41,0.55,1.96,-128.81,2.29,11.74,-0.07,-0.08,0.53,0.03,0.42,1.49
0.12,-109.53,77.17,177.25,0.21,0.72,-0.11,1.17,0.79,0.73,-100.16,68.26,168.71,0.09,1.78,-0.05,1.49,0.29,0.26,-174.93,7.25,7.16,0.18,0.14,0.37,0.4,0.62,2.2,-128.58,2.49,11.81,-0.06,0.13,0.45,0.1,0.38,1.28
0.13,-109.24,76.56,177.35,0.48,0.97,0.08,1.04,0.79,0.84,-100.3,66.64,170.07,0.11,1.64,-0.09,1.59,0.08,0.28,-174.8,7.21,6.88,0.26,0.13,0.42,0.18,0.46,2.2,-128.42,2.65,12.07,0.01,0.1,0.31,0.18,0.39,1.15
0.14,-108.64,74.3,177.52,0.05,0.84,0.06,1.09,0.61,0.49,-100.43,62.78,171.85,0.13,1.57,-0.1,1.35,0.17,0.44,-174.37,7.48,6.65,0.15,0.13,0.55,0.26,0.51,2.01,-128.12,2.74,12.1,0.22,0.11,0.49,0.13,0.15,0.89
0.15,-108.54,72.96,177.57,0.28,1.18,0.01,0.86,0.76,0.37,-100.94,60.94,172.8,0.08,1.63,-0.03,1.4,0.28,0.29,-173.91,7.38,6.65,0.17,0.25,0.35,0.39,0.5,2.05,-128.02,2.8,12.3,0.05,0.26,0.14,0.08,0.15,0.67
0.16,-108.28,71.88,177.66,0.13,1.19,0.24,0.94,0.6,0.38,-101.29,58.86,173.41,0.46,1.6,0.01,1.3,0.11,0.42,-173.63,7.48,6.55,0.21,-0.0,0.37,0.3,0.35,1.82,-127.94,3.03,12.49,0.1,0.1,0.01,0.46,0.14,0.82
0.17,-108.27,70.27,177.85,0.22,1.36,0.05,1.13,0.7,0.41,-101.67,56.63,173.7,0.38,1.64,-0.03,1.39,0.08,0.38,-173.44,7.63,6.46,0.34,0.1,0.35,0.48,0.41,1.81,-127.69,3.14,12.55,0.13,0.05,0.11,0.25,-0.0,0.43
0.18,-108.37,68.77,178.23,0.17,1.31,0.25,0.72,0.58,0.72,-101.95,54.89,174.81,0.16,1.7,0.04,1.1,0.1,0.34,-173.25,7.72,6.61,0.22,0.01,0.37,0.19,0.33,1.65,-127.33,3.44,12.71,0.19,0.36,-0.14,0.56,-0.01,0.52
0.19,-108.45,67.41,178.55,0.08,1.43,-0.07,0.87,0.62,0.73,-102.15,52.85,175.16,0.2,1.5,0.07,0.99,0.32,0.41,-172.95,7.48,6.55,0.24,-0.02,0.13,0.32,0.31,1.48,-127.26,3.89,12.92,0.09,0.27,0.26,0.54,-0.0,0.79
0.2,-108.45,65.73,178.61,0.13,1.22,0.23,0.58,0.35,0.52,-102.34,50.92,175.74,0.26,1.61,-0.05,1.02,0.26,0.53,-172.65,7.67,6.56,0.09,-0.1,0.26,0.34,0.28,1.26,-127.12,4.09,13.11,-0.1,0.24,0.07,0.6,0.16,0.82
0.21,-108.61,64.06,178.93,0.19,1.35,0.09,0.6,0.37,0.89,-102.59,49.16,175.95,0.3,1.67,0.09,0.83,0.18,0.46,-172.3,7.66,7.0,-0.06,0.23,0.27,0.28,0.4,1.1,-127.03,4.36,13.1,0.19,0.1,0.11,0.59,0.16,0.95
0.22,-108.81,62.76,179.04,0.19,1.24,0.07,0.72,0.38,0.83,-102.89,47.18,176.43,0.17,1.53,0.04,0.81,0.23,0.44,-172.06,7.62,6.75,0.1,0.07,0.33,0.19,0.38,0.8,-126.8,4.55,13.37,0.14,0.21,0.4,0.66,0.13,0.95
0.23,-109.11,61.15,179.18,-0.05,1.2,0.12,0.61,0.46,0.72,-103.09,45.53,176.66,0.21,1.29,0.18,0.71,0.18,0.43,-171.97,7.69,7.25,0.28,-0.14,0.13,0.14,0.37,0.93,-126.63,4.87,13.55,0.24,0.32,0.17,0.51,0.24,1.07
0.24,-109.19,59.6,179.5,0.21,1.16,0.05,0.46,0.18,0.87,-103.12,43.98,177.03,0.31,1.39,-0.06,0.69,0.05,0.32,-171.62,7.59,7.51,0.29,-0.11,0.06,0.17,0.24,0.7,-126.39,5.31,13.67,0.11,0.25,0.31,0.68,0.43,1.28
0.25,-109.55,58.03,179.62,0.14,1.12,-0.1,0.72,0.54,0.87,-103.36,42.36,177.24,0.07,1.4,0.08,0.63,0.19,0.42,-171.44,7.6,7.87,0.16,0.12,0.21,0.19,0.29,0.57,-126.23,5.31,13.92,0.12,0.21,0.19,0.76,0.23,1.3
0.26,-109.76,56.86,179.62,0.18,1.19,-0.03,0.66,0.43,0.86,-103.3,41.21,177.54,0.06,1.25,-0.01,0.69,0.26,0.54,-171.01,7.5,8.19,0.08,0.12,0.12,0.3,0.31,0.61,-125.85,5.58,14.15,0.13,0.2,0.1,0.72,0.5,1.46
0.27,-110.16,54.02,179.9,0.26,1.22,0.15,0.78,0.39,0.66,-103.4,38.49,177.77,0.23,1.01,0.2,0.75,0.25,0.44,-170.36,7.3,8.51,0.01,0.15,0.2,0.26,0.53,0.76,-125.54,6.56,14.52,0.15,0.23,0.23,0.78,0.81,1.67
0.28,-110.38,52.97,179.88,0.12,0.94,-0.07,0.83,0.55,0.78,-103.34,37.33,178.02,0.23,1.06,0.09,0.68,0.24,0.44,-170.2,7.14,9.02,0.16,-0.07,0.39,0.44,0.63,0.78,-125.42,6.58,14.68,0.41,0.4,0.28,0.69,0.94,1.58
0.29,-110.71,51.62,179.77,0.02,1.09,0.06,0.73,0.73,0.64,-103.09,36.64,178.15,0.18,0.87,0.13,0.63,0.37,0.47,-169.96,7.02,9.1,0.37,-0.07,0.29,0.35,0.56,0.92,-125.0,6.92,15.09,0.38,0.36,0.28,0.9,0.95,1.5
0.3,-110.94,50.61,179.56,0.31,1.02,0.13,0.86,0.53,0.45,-102.88,35.51,178.58,0.05,0.94,0.09,0.71,0.38,0.36,-169.92,6.78,9.09,0.13,0.03,0.08,0.27,0.68,1.04,-124.67,7.4,15.4,0.42,0.25,0.36,0.77,1.22,1.81
0.31,-111.04,49.54,179.48,0.12,1.0,0.04,0.76,0.67,0.48,-102.77,34.58,178.44,0.06,0.79,0.15,0.71,0.37,0.57,-169.5,6.72,9.17,0.11,-0.06,0.24,0.29,0.87,1.06,-124.72,7.78,15.72,0.33,0.52,0.59,1.02,1.17,1.63
0.32,-111.09,48.7,179.45,0.24,0.84,0.03,0.8,0.81,0.44,-102.54,33.91,178.62,0.06,0.8,0.1,0.63,0.42,0.39,-169.61,6.79,8.93,0.15,-0.09,0.07,0.38,0.96,1.2,-124.31,8.36,15.95,0.35,0.27,0.42,0.76,1.2,1.82
0.33,-111.31,47.83,179.17,0.16,0.78,0.14,0.88,0.71,0.51,-102.35,33.19,178.81,0.27,0.78,0.08,0.7,0.43,0.6,-169.3,6.68,8.65,0.12,-0.14,0.24,0.41,0.92,1.01,-124.03,8.7,16.41,0.41,0.48,0.37,0.9,1.27,1.75
0.34,-110.96,46.81,178.82,0.06,0.85,0.14,0.71,0.79,0.36,-102.23,32.41,178.85,0.06,0.77,0.01,0.42,0.44,0.48,-169.4,6.28,8.45,0.09,0.07,0.17,0.36,1.01,1.17,-123.82,9.33,17.06,0.41,0.3,0.34,0.79,1.19,1.75
0.35,-111.15,45.95,178.61,0.17,0.82,0.15,0.74,0.77,0.37,-101.81,31.73,178.89,0.04,0.68,-0.0,0.46,0.38,0.59,-169.33,6.11,8.04,0.48,-0.04,0.35,0.41,1.01,1.16,-123.41,9.6,17.31,0.4,0.44,0.31,1.0,1.35,1.6
0.36,-110.96,45.38,178.32,0.15,0.7,0.02,0.68,0.82,0.4,-101.46,30.93,179.19,0.08,0.51,0.08,0.62,0.28,0.41,-169.47,6.24,7.63,0.6,0.13,0.32,0.57,1.11,1.35,-123.15,10.23,18.07,0.64,0.24,0.59,1.01,1.36,1.77
0.37,-110.97,44.7,178.36,0.28,0.76,0.23,0.65,0.66,0.28,-101.4,30.13,179.43,-0.04,0.82,0.21,0.47,0.17,0.52,-169.45,6.03,6.91,0.64,-0.06,0.38,0.6,1.15,1.18,-122.87,10.6,18.34,0.63,0.3,0.36,1.08,1.27,1.69
0.38,-110.48,43.87,177.93,0.14,0.79,0.23,0.63,0.49,0.32,-101.2,29.51,179.64,0.07,0.6,0.11,0.57,0.44,0.51,-169.7,6.07,6.31,0.75,0.12,0.27,0.49,0.95,1.21,-122.73,11.19,19.08,0.66,0.41,0.53,0.94,1.24,1.48
0.39,-110.39,43.21,177.8,0.04,0.28,0.2,0.4,0.47,0.12,-101.08,29.05,179.75,0.09,0.63,0.14,0.33,0.24,0.67,-169.85,6.17,5.66,0.81,0.18,0.3,0.6,1.17,1.27,-122.59,11.69,19.37,0.58,0.45,0.6,1.02,1.1,1.39
0.4,-110.16,42.27,177.34,0.03,0.5,0.23,0.5,0.54,0.43,-100.61,27.53,179.61,0.13,0.66,0.14,0.42,0.25,0.48,-170.59,6.24,4.09,0.6,0.17,0.33,0.61,1.13,1.14,-122.35,12.72,20.71,0.68,0.46,0.43,1.1,0.95,1.43
0.41,-109.74,41.75,177.23,0.09,0.53,0.14,0.4,0.4,0.23,-100.21,26.91,179.5,0.05,0.53,0.32,0.36,0.59,0.71,-170.88,6.06,3.74,0.76,0.21,0.34,0.53,1.25,0.65,-122.01,13.19,21.22,0.45,0.47,0.42,1.14,0.83,1.3
0.42,-109.51,41.11,177.06,0.16,0.45,0.27,0.61,0.15,0.29,-100.13,26.6,179.55,0.16,0.46,0.1,0.28,0.38,0.54,-171.18,6.19,3.09,0.72,0.2,0.38,0.64,1.2,0.81,-121.88,13.55,21.52,0.46,0.3,0.44,1.04,0.67,1.45
0.43,-109.41,40.74,177.16,0.1,0.42,0.11,0.61,0.17,0.33,-99.81,25.95,179.45,0.2,0.51,0.12,0.4,0.46,0.84,-171.68,6.21,2.77,0.91,0.26,0.22,0.51,1.2,0.64,-121.97,14.17,22.26,0.48,0.43,0.34,1.04,0.71,1.12
0.44,-109.06,40.42,177.13,0.29,0.43,0.26,0.5,0.23,0.25,-99.81,25.39,179.2,0.13,0.58,-0.11,0.21,0.37,0.64,-171.76,6.44,2.31,0.89,0.15,0.33,0.7,1.41,0.56,-121.7,14.56,22.69,0.49,0.24,0.29,1.06,0.69,1.2
0.45,-108.96,39.9,177.1,0.3,0.21,0.05,0.7,0.02,0.18,-99.62,24.96,178.98,0.23,0.57,0.15,0.16,0.33,0.57,-171.79,6.1,2.24,0.61,0.3,0.21,0.63,1.41,0.45,-121.5,14.95,22.96,0.37,0.41,0.2,0.89,0.75,0.84
0.46,-108.78,39.72,177.12,0.29,0.19,0.07,0.47,0.17,0.17,-99.47,24.34,178.89,0.08,0.42,0.12,0.23,0.36,0.51,-172.31,6.34,1.98,0.52,0.19,0.23,0.72,1.6,0.48,-121.5,15.42,23.52,0.34,0.38,0.21,0.81,0.53,1.12
0.47,-108.52,39.4,177.15,0.3,0.37,0.28,0.55,0.24,0.19,-99.44,23.98,178.6,0.07,0.37,0.09,0.3,0.42,0.54,-172.25,6.26,1.91,0.54,0.28,0.34,0.49,1.34,0.48,-121.34,15.9,24.11,0.58,0.31,0.43,0.91,0.7,1.03
0.48,-108.62,39.03,177.21,0.3,0.35,0.28,0.63,0.19,0.22,-99.26,23.56,178.38,0.23,0.28,0.01,0.32,0.28,0.41,-172.57,6.26,1.83,0.56,0.29,0.33,0.62,1.46,0.33,-121.33,16.21,24.4,0.38,0.22,0.3,0.93,0.32,0.98
0.49,-108.63,38.85,177.18,0.19,0.05,0.28,0.47,0.31,0.21,-98.97,23.45,178.41,0.07,0.26,-0.04,0.4,0.37,0.49,-172.71,6.21,2.14,0.26,0.34,0.26,0.53,1.55,0.5,-121.03,16.57,24.87,0.26,0.18,0.3,0.74,0.5,0.88
0.5,-108.5,38.72,177.06,0.21,0.2,0.11,0.6,0.29,0.35,-99.1,23.02,178.12,0.14,0.27,-0.05,0.27,0.49,0.44,-172.89,6.18,2.42,0.18,0.3,0.25,0.85,1.27,0.31,-121.01,16.88,25.26,0.25,0.19,0.19,0.62,0.59,0.99
0.51,-108.69,38.6,177.04,0.18,0.05,0.1,0.25,0.16,0.21,-98.95,22.55,177.83,0.32,0.16,0.14,0.23,0.39,0.36,-172.71,6.35,2.56,0.4,0.11,0.38,0.63,1.24,0.39,-121.06,17.27,25.69,0.42,0.41,0.25,0.72,0.42,0.81
0.52,-108.63,38.64,177.22,0.06,-0.07,0.18,0.4,0.22,0.17,-99.08,22.7,177.86,0.02,-0.07,0.06,0.15,0.42,0.25,-172.72,6.34,2.7,0.32,0.03,0.39,0.77,1.13,0.16,-121.0,17.69,26.04,0.31,0.33,0.1,0.44,0.47,0.84
0.53,-108.9,38.5,176.8,0.14,0.17,0.08,0.39,0.56,0.32,-99.2,22.24,177.43,0.33,-0.01,-0.02,-0.0,0.64,0.12,-172.3,6.21,3.13,0.19,-0.03,0.27,0.6,0.89,0.24,-120.83,18.13,26.85,0.41,0.4,0.27,0.53,0.55,0.66
0.54,-109.05,38.4,176.74,-0.13,0.09,0.15,0.37,0.28,0.19,-99.06,22.32,177.56,0.15,0.06,0.1,0.15,0.58,0.1,-172.23,6.23,3.61,0.23,0.19,0.18,0.62,0.75,0.27,-120.67,18.25,27.32,0.25,0.15,-0.11,0.29,0.49,0.59
0.55,-109.38,38.66,176.5,0.17,0.03,0.0,0.31,0.39,0.28,-98.97,22.34,177.38,0.15,0.03,-0.11,0.05,0.46,-0.03,-172.14,6.27,3.75,0.19,0.08,0.45,0.65,0.5,0.35,-120.85,18.74,27.78,0.37,0.2,0.2,0.5,0.47,0.54
0.56,-109.32,39.02,176.19,0.08,-0.1,0.26,0.28,0.49,0.43,-98.98,22.09,177.16,0.04,0.02,0.02,0.03,0.47,0.11,-171.7,6.39,4.43,-0.05,0.15,0.33,0.64,0.59,0.15,-120.96,18.84,28.16,0.34,0.2,0.15,0.47,0.39,0.72
0.57,-109.31,38.8,176.3,0.1,0.15,0.03,0.12,0.47,0.48,-99.0,22.17,177.27,-0.04,0.13,0.08,0.19,0.44,0.12,-171.69,6.35,4.82,0.22,-0.0,0.26,0.7,0.61,-0.02,-120.92,19.03,28.7,0.54,0.09,0.05,0.4,0.5,0.6
0.58,-109.51,39.18,176.14,-0.07,0.03,-0.14,0.12,0.4,0.5,-98.91,22.12,177.34,0.14,0.11,0.05,0.1,0.67,0.11,-171.49,6.35,5.25,0.3,0.11,0.33,0.55,0.37,0.24,-121.13,19.29,29.34,0.18,0.0,0.25,0.47,0.57,0.64
0.59,-109.6,39.1,176.12,0.18,0.06,0.14,-0.07,0.49,0.27,-98.96,22.11,177.01,-0.01,0.15,-0.03,0.24,0.38,0.05,-171.35,6.52,5.5,0.46,0.22,0.28,0.58,0.53,0.26,-121.27,19.66,29.84,0.15,0.26,0.1,0.47,0.57,0.51
0.6,-109.56,39.41,175.97,-0.03,0.25,-0.1,0.33,0.59,0.37,-98.79,21.95,177.19,-0.03,0.08,-0.13,0.22,0.45,0.28,-171.38,6.69,6.09,0.38,-0.13,0.41,0.47,0.46,0.29,-121.28,19.73,30.4,0.28,0.18,0.2,0.44,0.64,0.45
0.61,-109.71,39.6,175.83,0.09,0.29,0.04,0.11,0.66,0.49,-98.77,21.97,176.95,0.07,0.12,-0.04,0.06,0.44,0.03,-171.28,6.78,6.53,0.2,0.01,0.38,0.46,0.6,0.12,-121.58,19.74,30.56,0.29,0.13,0.19,0.24,0.59,0.6
0.62,-109.88,39.87,175.88,0.08,0.25,0.15,0.07,0.53,0.44,-98.8,22.01,176.89,0.06,0.05,0.1,0.01,0.57,0.16,-171.34,6.66,6.95,0.16,0.21,0.16,0.55,0.42,0.25,-121.7,19.8,31.26,0.23,0.23,0.08,0.6,0.53,0.44
0.63,-109.8,40.0,175.73,-0.03,0.09,0.12,0.33,0.51,0.37,-98.82,22.03,176.87,-0.04,0.01,-0.05,-0.08,0.33,0.38,-171.48,6.94,7.18,0.28,0.19,0.17,0.59,0.46,0.04,-121.82,19.95,31.48,0.13,0.37,0.13,0.12,0.73,0.55
0.64,-109.99,40.3,175.75,-0.09,0.1,-0.06,0.33,0.45,0.38,-98.63,21.88,176.78,0.12,0.04,0.12,0.05,0.42,0.36,-171.46,7.05,7.55,0.17,0.31,0.21,0.54,0.57,0.34,-122.12,19.98,31.95,0.16,0.06,0.31,0.2,0.71,0.87
0.65,-109.94,40.28,175.83,-0.11,-0.04,0.02,0.23,0.32,0.51,-98.67,21.8,176.75,0.17,0.03,0.1,0.06,0.28,0.22,-171.63,7.2,7.86,0.24,0.07,0.37,0.5,0.52,0.37,-122.46,19.88,32.43,0.25,0.2,0.11,0.16,0.7,1.14
0.66,-110.03,40.78,175.74,-0.04,0.17,0.11,0.26,0.32,0.33,-98.5,21.62,176.74,0.01,0.23,-0.14,0.4,0.36,0.41,-172.02,7.35,8.56,0.26,0.16,0.13,0.29,0.75,0.77,-122.82,19.7,32.9,0.19,-0.04,0.19,0.28,0.89,1.19
0.67,-110.33,40.37,175.98,0.17,-0.02,-0.19,0.58,0.34,0.21,-98.55,21.69,176.67,0.04,-0.07,0.17,0.54,0.43,0.57,-172.25,7.51,8.59,0.33,0.14,0.14,0.53,0.79,0.81,-123.05,19.66,33.36,0.24,0.12,0.11,0.18,1.02,1.25
0.68,-110.12,41.04,175.7,0.07,0.27,-0.02,0.59,0.41,0.42,-98.67,21.53,176.35,0.13,0.06,-0.04,0.57,0.36,0.51,-172.63,7.47,9.19,0.21,0.03,0.11,0.29,0.65,0.82,-123.32,19.42,33.55,0.26,0.09,0.01,0.37,0.95,1.36
0.69,-110.18,40.8,175.77,-0.07,0.18,0.06,0.63,0.24,0.24,-98.64,21.65,176.43,-0.02,0.22,0.0,0.57,0.47,0.8,-172.6,7.51,9.2,0.1,0.05,0.24,0.47,0.84,0.79,-123.64,19.68,33.94,0.26,0.11,0.3,0.46,0.97,1.55
0.7,-110.02,41.06,175.53,0.17,0.11,0.13,0.7,0.24,0.36,-98.56,21.64,176.35,0.24,0.19,-0.01,0.72,0.43,0.74,-172.89,7.68,9.41,0.27,-0.11,0.18,0.63,0.64,1.16,-123.94,19.47,34.45,0.23,0.09,0.35,0.65,1.03,1.49
0.71,-109.91,41.23,175.56,0.09,0.11,0.04,0.88,0.15,0.32,-98.58,21.6,176.43,0.12,0.22,0.23,0.75,0.44,0.93,-173.32,7.6,9.57,0.29,0.07,0.08,0.55,0.81,1.37,-124.53,19.39,34.88,0.13,0.08,0.15,0.66,1.22,1.58
0.72,-110.06,41.29,175.68,0.14,-0.08,0.1,0.98,0.11,0.29,-98.41,21.3,176.3,-0.06,0.12,-0.11,0.73,0.47,0.89,-173.52,7.82,9.69,0.15,0.16,0.3,0.45,0.68,1.36,-124.58,19.4,35.22,0.29,0.23,0.34,0.83,1.13,1.69
0.73,-110.18,41.42,175.58,0.13,0.03,-0.0,0.8,0.35,0.48,-98.62,21.67,176.3,0.13,0.11,0.08,0.86,0.33,0.92,-173.42,7.83,10.1,0.27,0.05,0.16,0.6,0.47,1.64,-124.55,19.49,35.47,0.3,0.05,0.24,0.89,1.37,1.68
0.74,-110.16,41.58,175.42,0.13,-0.03,0.03,0.91,0.21,0.34,-98.62,21.76,176.38,-0.24,0.21,0.02,0.98,0.3,1.05,-173.74,8.21,10.19,0.09,0.16,0.42,0.54,0.56,1.93,-125.02,19.25,36.03,0.18,0.38,0.15,0.95,0.96,1.66
0.75,-109.98,41.8,175.46,0.27,0.1,-0.06,0.98,0.08,0.2,-98.59,21.55,176.36,0.26,0.16,0.04,0.79,0.48,0.91,-173.75,8.07,10.67,0.28,0.08,0.22,0.55,0.7,1.85,-125.24,19.45,36.6,0.34,0.24,0.27,1.03,1.04,1.6
0.76,-110.11,41.87,175.45,0.16,0.27,0.07,0.97,0.31,0.55,-98.59,21.91,176.52,0.05,0.16,0.14,0.79,0.71,0.98,-174.24,8.34,10.81,0.31,-0.0,0.33,0.69,0.63,1.94,-125.25,19.67,37.15,0.36,0.28,0.18,1.08,1.07,1.32
0.77,-110.1,41.87,175.33,0.05,-0.01,0.01,0.8,0.55,0.46,-98.59,22.11,176.59,0.11,0.38,0.1,0.85,0.52,1.31,-174.65,8.59,10.98,0.2,0.33,0.51,0.59,0.62,2.0,-125.4,20.01,37.75,0.49,0.35,0.25,1.02,0.92,1.3
0.78,-110.12,42.44,175.15,0.03,0.21,0.04,1.01,0.21,0.35,-98.72,22.34,176.75,0.08,0.4,-0.03,0.9,0.4,0.96,-174.58,8.65,11.48,0.14,0.12,0.18,0.61,0.58,1.94,-125.32,20.33,38.38,0.24,0.36,0.22,0.89,1.04,1.3
0.79,-110.01,43.01,175.12,0.01,0.18,-0.04,0.85,0.26,0.42,-98.62,22.67,177.06,0.1,0.06,0.0,1.1,0.69,1.12,-175.25,9.04,11.96,0.18,0.05,0.31,0.59,0.66,1.92,-125.24,21.29,39.35,0.51,0.45,0.21,0.92,0.87,0.93
0.8,-110.18,43.15,175.04,-0.01,0.19,0.01,0.92,0.47,0.47,-98.58,23.28,177.09,0.12,0.3,0.01,0.87,0.61,1.1,-175.81,8.98,12.28,0.25,0.33,0.33,0.51,0.47,1.82,-125.19,21.88,40.18,0.44,0.51,0.31,0.72,0.78,0.72
0.81,-110.16,43.2,174.98,0.18,0.2,-0.0,0.92,0.43,0.62,-98.61,23.43,177.43,0.03,0.35,0.06,0.95,0.54,0.98,-176.08,9.0,12.77,0.29,0.28,0.4,0.34,0.65,1.53,-124.96,22.57,40.75,0.41,0.6,0.2,0.72,0.81,0.78
0.82,-110.28,43.67,174.83,0.12,0.24,0.09,0.77,0.42,0.43,-98.44,23.87,177.71,0.2,0.43,-0.04,0.86,0.68,0.96,-176.37,9.1,13.1,0.26,0.22,0.4,0.74,0.6,1.44,-124.8,23.08,41.51,0.43,0.69,0.26,0.75,0.73,0.62
0.83,-110.33,44.0,174.82,0.17,0.16,0.08,0.77,0.44,0.55,-98.31,24.52,177.93,0.11,0.47,-0.06,0.87,0.49,0.97,-176.88,9.12,13.32,0.14,-0.02,0.16,0.43,0.68,1.49,-124.6,24.04,41.97,0.49,0.69,0.52,0.8,0.69,0.52
0.84,-110.34,44.42,174.99,0.13,0.33,0.06,0.63,0.41,0.41,-98.54,24.95,178.21,0.23,0.43,-0.05,0.64,0.53,0.77,-177.22,8.77,13.69,0.15,0.11,0.48,0.51,0.5,1.26,-124.27,24.84,42.69,0.39,0.63,0.42,0.56,0.77,0.33
0.85,-110.3,44.88,174.9,0.3,0.38,0.09,0.76,0.41,0.47,-98.48,25.66,178.41,0.18,0.4,0.06,0.88,0.39,0.85,-177.5,8.6,14.08,0.39,0.16,0.44,0.66,0.52,1.1,-123.98,25.82,43.4,0.32,0.75,0.27,0.51,0.88,0.41
0.86,-110.09,45.43,175.03,0.33,0.38,0.22,0.66,0.6,0.71,-98.32,26.26,178.7,0.32,0.49,-0.06,0.55,0.35,0.75,-177.82,8.57,13.91,0.06,0.45,0.28,0.42,0.55,0.98,-123.53,26.4,44.0,0.47,0.69,0.43,0.29,0.75,0.2
0.87,-109.89,45.91,174.96,0.03,0.51,0.16,0.75,0.27,0.55,-98.43,26.89,178.76,0.27,0.45,-0.08,0.57,0.39,0.6,-178.34,8.27,14.28,0.23,0.2,0.1,0.55,0.55,0.73,-123.46,27.64,44.64,0.46,0.68,0.49,0.29,0.7,0.34
0.88,-109.78,46.63,175.04,0.23,0.44,0.21,0.71,0.39,0.53,-98.49,27.77,179.05,0.25,0.61,0.2,0.58,0.56,0.75,-178.41,7.8,14.29,0.22,0.26,0.31,0.35,0.41,0.69,-123.11,28.37,45.49,0.43,0.79,0.47,0.26,0.73,0.34
0.89,-109.5,47.2,175.22,-0.07,0.38,-0.05,0.62,0.29,0.51,-98.55,28.57,179.22,0.12,0.69,0.04,0.54,0.46,0.54,-178.93,7.57,14.26,0.28,0.13,0.38,0.45,0.42,0.6,-122.78,29.58,46.06,0.45,0.74,0.27,0.22,0.74,0.43
0.9,-109.15,47.97,175.48,0.25,0.44,0.07,0.56,0.22,0.48,-98.46,29.35,179.41,0.25,0.79,0.18,0.59,0.64,0.39,-179.41,7.28,14.33,0.17,0.32,0.22,0.4,0.58,0.49,-122.49,30.24,46.93,0.3,0.72,0.4,0.17,0.52,0.54
0.91,-108.88,48.84,175.66,0.16,0.7,0.21,0.4,0.27,0.59,-98.45,30.3,179.74,0.14,0.94,0.26,0.46,0.36,0.58,-179.51,7.02,14.13,0.2,0.24,0.3,0.51,0.47,0.45,-122.04,31.26,47.46,0.74,0.69,0.41,0.23,0.82,0.77
0.92,-108.18,50.48,175.9,0.22,0.6,0.07,0.21,0.33,0.34,-98.54,32.01,179.52,0.16,0.81,0.16,0.23,0.5,0.54,-179.99,6.56,13.27,0.43,0.21,-0.1,0.55,0.61,0.59,-121.82,32.84,49.41,0.56,1.02,0.22,0.26,0.56,0.96
0.93,-107.95,51.67,176.05,0.15,0.82,0.15,0.19,0.28,0.38,-98.62,33.27,179.42,0.31,0.79,0.04,0.19,0.59,0.09,-180.27,6.24,12.62,0.39,0.17,0.12,0.49,0.54,0.55,-121.7,33.81,50.19,0.62,0.73,0.27,0.19,0.66,1.01
0.94,-107.8,52.27,176.33,0.26,0.67,0.2,0.26,0.42,0.24,-98.57,33.95,179.38,0.05,0.91,-0.07,0.26,0.45,0.27,-180.54,5.96,12.27,0.36,0.26,0.09,0.52,0.53,0.32,-121.35,34.39,51.28,0.55,0.81,0.27,0.35,0.68,1.17
0.95,-107.46,53.6,176.52,0.06,0.52,0.23,0.26,0.44,0.33,-98.79,35.06,179.08,-0.03,0.89,0.21,0.14,0.43,0.29,-180.86,5.94,11.21,0.42,0.17,0.18,0.33,0.73,0.65,-121.34,35.21,52.35,0.78,0.75,0.24,0.48,0.75,1.27
0.96,-107.11,54.15,176.85,-0.09,0.86,0.16,0.2,0.19,0.36,-98.9,36.07,178.96,0.31,0.75,0.13,0.24,0.52,0.28,-180.97,5.69,10.6,0.66,0.02,0.19,0.3,0.77,0.64,-121.32,36.09,53.54,0.54,0.87,0.26,0.49,0.91,1.45
0.97,-106.86,55.45,177.37,0.09,0.82,0.2,0.21,0.3,0.29,-99.0,36.96,178.95,0.09,0.87,0.17,0.34,0.36,0.15,-181.16,5.48,9.67,0.75,0.15,0.24,0.64,0.81,0.83,-121.23,36.75,54.99,0.7,1.08,0.16,0.61,0.55,1.51
0.98,-106.59,56.38,177.37,0.32,0.77,0.0,0.2,0.12,0.06,-99.13,37.9,178.73,0.16,0.84,0.17,0.17,0.54,0.34,-181.34,5.28,8.63,0.62,0.02,0.22,0.36,1.15,0.71,-121.11,37.42,56.1,0.56,0.81,0.21,0.82,0.47,1.59
0.99,-106.23,57.29,177.72,-0.0,0.78,0.32,0.31,0.15,0.14,-99.16,38.91,178.29,0.2,0.89,0.17,0.31,0.4,0.11,-181.25,5.23,7.69,0.94,0.1,0.33,0.59,1.22,0.89,-120.85,38.39,57.78,0.65,0.85,0.23,0.93,0.57,1.57
1.0,-106.12,57.85,178.03,-0.01,0.78,0.08,0.45,0.04,0.25,-99.23,39.92,177.84,0.21,0.97,0.23,0.21,0.53,0.3,-181.5,5.22,6.65,0.8,0.1,0.24,0.52,1.27,0.97,-120.9,39.07,59.18,0.76,1.15,0.19,0.83,0.65,1.66
1.01,-105.94,59.04,178.07,0.28,0.78,0.36,0.24,0.3,0.11,-99.38,40.89,177.54,0.11,0.7,-0.02,0.25,0.47,0.35,-181.52,4.73,5.53,1.0,0.21,0.12,0.47,1.42,1.1,-120.69,39.95,60.69,0.78,1.25,0.22,0.98,0.61,1.59
1.02,-105.39,59.73,178.32,0.13,0.82,0.15,0.23,0.24,0.28,-99.38,42.06,177.24,0.24,0.88,0.05,0.38,0.44,0.46,-181.64,4.75,4.52,1.17,0.2,0.22,0.41,1.54,1.11,-120.45,40.6,62.41,0.75,1.25,0.27,0.94,0.81,1.31
1.03,-105.47,60.8,178.66,-0.03,0.79,0.12,0.32,0.18,0.37,-99.31,42.89,177.02,0.08,0.81,0.09,0.41,0.27,0.6,-181.99,4.36,4.04,1.15,0.19,0.17,0.45,1.52,1.02,-120.47,41.49,64.08,0.87,1.19,0.15,0.9,0.62,1.35
1.04,-105.27,61.81,178.86,0.13,0.67,0.23,0.21,0.17,0.17,-99.45,43.88,176.7,0.24,1.09,0.07,0.52,0.19,0.52,-181.96,4.26,3.36,1.31,0.25,0.32,0.45,1.29,0.94,-119.9,42.36,65.83,0.72,1.13,0.33,0.92,0.6,1.69
1.05,-104.65,63.41,178.89,0.03,0.78,0.39,0.48,0.14,0.22,-99.18,45.74,176.25,0.19,0.95,0.2,0.5,0.37,0.83,-182.08,3.54,2.93,1.23,0.34,0.12,0.43,1.28,0.99,-119.36,44.58,69.32,0.92,1.01,0.64,0.73,0.85,1.23
1.06,-104.27,64.11,178.85,0.11,0.77,0.07,0.51,0.28,0.23,-99.15,46.82,175.84,0.11,0.8,0.11,0.42,0.4,0.83,-182.32,3.05,3.28,1.38,0.19,0.22,0.66,1.21,1.23,-118.77,45.59,71.1,0.78,1.18,0.72,1.07,1.19,1.2
1.07,-104.14,65.02,178.84,0.12,0.77,0.03,0.45,0.25,0.33,-98.89,47.74,175.67,0.07,0.82,0.1,0.64,0.42,0.72,-182.39,2.96,3.52,1.33,0.2,0.18,0.54,1.17,1.03,-118.02,46.79,73.24,0.8,1.11,0.67,0.84,0.94,1.02
1.08,-103.92,65.69,178.58,0.2,0.61,0.22,0.47,0.35,0.39,-98.93,48.72,175.42,0.16,0.96,0.08,0.72,0.54,0.71,-182.35,2.58,4.02,1.32,0.19,0.29,0.49,1.02,0.84,-117.36,47.57,75.09,1.02,1.22,0.81,0.79,1.15,0.97
1.09,-103.67,66.65,178.58,0.2,0.58,0.07,0.69,0.36,0.43,-98.74,49.63,174.94,-0.11,0.8,0.05,0.47,0.55,0.78,-182.34,2.19,5.26,1.17,0.51,0.33,0.4,0.98,0.94,-116.36,49.05,77.09,0.91,0.99,0.86,0.82,1.2,0.94
1.1,-103.64,67.09,178.24,0.12,0.64,0.13,0.62,0.18,0.38,-98.86,50.56,174.61,0.17,0.98,0.06,0.78,0.41,0.78,-182.65,2.0,6.08,1.27,0.46,0.21,0.39,0.87,0.96,-115.31,50.33,79.23,0.96,0.94,0.77,0.71,1.27,0.95
1.11,-103.36,67.99,177.73,0.15,0.81,0.27,0.37,0.22,0.22,-98.76,51.59,174.31,0.19,0.76,0.2,0.5,0.44,0.65,-182.51,1.75,7.36,1.22,0.35,0.01,0.41,0.96,1.04,-114.3,51.52,81.03,0.89,1.17,1.13,0.85,1.33,0.94
1.12,-103.02,68.86,177.27,0.15,0.68,0.15,0.41,0.13,0.33,-98.77,52.44,174.08,0.2,0.87,0.19,0.5,0.55,0.68,-182.67,1.76,9.06,1.25,0.47,0.28,0.55,0.68,0.82,-113.23,52.55,83.25,0.7,0.98,0.94,0.96,1.49,0.95
1.13,-102.97,69.67,176.95,0.13,0.66,-0.07,0.32,0.1,0.19,-98.73,53.24,173.77,0.2,0.92,0.29,0.53,0.51,0.51,-182.64,1.71,10.63,1.04,0.51,0.27,0.5,0.62,0.73,-111.94,53.67,85.54,0.9,0.92,0.97,0.81,1.47,1.05
1.14,-102.96,70.1,176.47,0.1,0.53,0.12,0.33,0.21,0.22,-98.86,54.4,173.78,0.14,0.77,0.12,0.57,0.42,0.54,-182.74,2.04,12.28,0.98,0.54,0.36,0.58,0.81,0.95,-110.75,54.57,87.74,0.93,0.87,1.04,0.77,1.71,0.77
1.15,-102.88,70.89,176.03,0.15,0.52,0.16,0.4,0.59,0.18,-98.99,55.06,173.41,0.16,0.73,0.17,0.48,0.46,0.69,-182.45,2.24,13.77,1.05,0.84,0.32,0.75,0.94,0.98,-109.62,55.52,89.79,1.03,0.7,1.04,0.88,1.64,0.9
1.16,-102.94,71.75,175.77,0.11,0.57,0.13,0.55,0.33,0.1,-99.13,56.09,173.27,0.1,0.9,0.25,0.55,0.65,0.58,-182.26,2.55,15.22,1.18,0.69,0.23,0.58,0.93,0.77,-108.18,56.53,92.08,0.68,0.75,0.99,1.04,1.53,1.11
1.17,-102.9,72.41,175.05,0.24,0.48,-0.04,0.56,0.02,0.37,-99.31,56.63,173.16,0.27,0.92,0.22,0.55,0.41,0.47,-182.39,3.09,16.89,0.99,0.57,0.29,0.51,0.82,0.93,-107.2,57.45,94.15,0.91,0.84,0.81,0.9,1.39,0.87
1.18,-103.04,73.67,174.53,0.08,0.43,0.24,0.47,0.31,0.37,-99.95,58.1,172.72,0.14,0.84,0.24,0.55,0.29,0.45,-182.16,4.33,19.76,1.1,0.46,0.23,0.72,0.73,1.03,-104.94,59.14,98.92,0.89,0.67,0.56,1.02,1.4,1.08
1.19,-102.99,74.14,174.12,0.07,0.45,0.28,0.53,0.43,0.13,-99.92,59.09,172.42,-0.13,0.82,-0.01,0.31,0.28,0.37,-182.11,5.1,21.0,1.32,0.51,0.23,0.71,0.81,0.99,-103.69,59.69,101.0,0.53,0.74,0.7,1.05,1.13,0.85
1.2,-103.01,74.69,173.52,0.03,0.41,-0.08,0.56,0.73,0.19,-100.04,59.85,172.39,0.15,0.64,-0.12,0.24,0.46,0.28,-182.01,5.65,22.31,1.05,0.68,0.03,0.53,0.77,1.07,-102.77,60.65,103.33,0.78,0.94,0.7,0.98,1.11,1.01
1.21,-103.04,75.23,173.46,-0.07,0.47,-0.02,0.42,0.28,0.31,-100.58,60.45,172.13,-0.04,0.73,0.09,0.49,0.31,0.44,-181.82,6.65,23.7,1.21,0.76,0.14,0.58,0.96,0.86,-101.59,61.12,105.49,0.51,0.87,0.58,0.82,0.9,0.6
1.22,-102.77,75.87,173.18,0.06,0.25,-0.12,0.6,0.31,0.35,-100.66,61.23,171.98,-0.05,0.68,0.03,0.19,0.3,0.37,-181.7,7.56,24.76,1.09,0.82,0.11,0.76,0.79,0.85,-100.48,61.69,107.79,0.76,0.76,0.81,0.85,0.66,0.69
1.23,-102.86,76.31,173.17,-0.13,0.27,-0.06,0.71,0.51,0.27,-100.6,61.93,171.57,0.25,0.61,0.12,0.16,0.37,0.35,-181.49,8.22,26.12,1.02,0.66,0.22,0.58,0.88,1.06,-99.62,61.95,110.03,0.44,0.69,0.55,0.62,0.71,0.48
1.24,-102.93,76.51,172.68,-0.02,0.43,0.03,0.58,0.46,0.47,-100.91,62.72,171.65,0.07,0.71,0.22,0.48,0.19,0.37,-181.62,8.85,27.51,1.25,0.66,0.21,0.58,1.06,1.02,-98.58,62.45,112.21,0.73,0.63,0.85,0.59,0.35,0.61
1.25,-103.08,76.83,172.62,-0.0,0.32,0.01,0.5,0.36,0.65,-101.01,63.6,171.24,-0.1,0.57,0.05,0.3,0.06,0.45,-181.52,9.76,28.68,1.2,0.58,0.16,0.47,1.01,1.14,-97.31,62.89,114.41,0.63,0.39,0.68,0.59,0.41,0.6
1.26,-103.0,77.29,172.43,0.05,0.19,0.11,0.58,0.29,0.35,-101.02,64.29,170.86,0.08,0.86,0.15,0.27,0.24,0.38,-181.43,10.29,29.96,1.43,0.6,0.27,0.39,0.7,0.86,-96.39,63.26,116.91,0.37,0.61,0.81,0.47,0.53,0.6
1.27,-102.73,77.64,172.26,-0.02,0.23,0.01,0.61,0.16,0.29,-100.83,65.25,170.67,0.06,0.52,0.05,0.38,0.21,0.41,-181.41,10.91,31.51,1.48,0.52,0.26,0.45,0.86,0.71,-95.04,63.32,119.12,0.5,0.68,0.8,0.48,0.45,0.41
1.28,-102.6,77.87,172.17,0.32,0.3,-0.01,0.54,0.2,0.36,-100.75,66.04,170.16,0.28,0.57,-0.24,0.22,0.19,0.42,-181.54,11.6,32.87,1.27,0.59,0.2,0.52,0.87,0.73,-94.06,63.76,121.76,0.48,0.65,0.81,0.43,0.4,0.44
1.29,-102.59,78.23,171.71,-0.01,0.2,-0.08,0.33,0.41,0.41,-100.91,66.84,169.87,-0.03,0.49,0.05,0.4,0.41,0.43,-181.34,12.27,34.31,1.42,0.74,0.02,0.37,0.94,0.76,-92.92,63.95,124.04,0.5,0.65,0.77,0.34,0.32,0.37
1.3,-102.06,78.6,171.3,0.2,0.12,-0.06,0.66,0.26,0.49,-100.98,67.48,169.23,0.16,0.64,0.05,0.3,0.35,0.55,-181.49,13.03,35.9,1.51,0.66,-0.02,0.63,0.95,0.6,-91.54,64.05,126.84,0.43,0.52,0.88,0.5,0.23,0.61
1.31,-101.81,79.29,170.61,0.14,0.44,-0.05,0.47,0.24,0.38,-100.58,69.49,168.56,0.02,0.43,0.06,0.31,0.54,0.49,-181.35,14.35,39.02,1.25,0.64,0.34,0.53,1.02,0.39,-89.05,64.21,132.14,0.44,0.5,0.82,0.34,0.47,0.46
1.32,-101.63,79.63,170.5,0.24,0.24,0.27,0.56,0.36,0.45,-100.57,70.21,168.33,0.18,0.43,0.2,0.4,0.62,0.4,-181.14,15.16,40.7,1.46,0.69,0.36,0.61,1.15,0.36,-87.99,64.2,134.88,0.48,0.7,0.94,0.36,0.44,0.43
1.33,-101.24,79.8,170.02,0.19,0.18,-0.11,0.45,0.24,0.43,-100.5,70.83,168.03,0.29,0.65,0.05,0.48,0.77,0.51,-181.0,15.66,42.25,1.38,0.62,0.17,0.52,0.9,0.44,-86.37,64.33,137.63,0.46,0.49,0.62,0.48,0.64,0.57
1.34,-101.17,80.14,169.95,0.16,0.07,0.02,0.58,0.48,0.45,-100.25,71.61,167.8,0.12,0.59,0.18,0.37,0.69,0.26,-180.81,16.47,43.93,1.45,0.5,0.5,0.37,0.84,0.27,-85.43,64.42,140.41,0.3,0.69,0.81,0.46,0.59,0.41
1.35,-100.88,80.24,169.55,0.17,0.24,0.15,0.43,0.26,0.51,-100.09,72.43,167.29,0.07,0.52,0.23,0.34,0.65,0.45,-180.39,17.35,45.46,1.46,0.79,0.45,0.41,0.73,0.24,-84.1,64.34,142.95,0.5,0.5,0.92,0.6,0.58,0.59
1.36,-100.57,80.54,169.75,0.18,0.01,0.14,0.42,0.34,0.48,-100.03,73.24,167.03,0.23,0.59,0.15,0.55,1.0,0.36,-180.02,18.45,47.32,1.37,0.61,0.4,0.58,0.61,0.26,-82.88,64.3,145.33,0.25,0.63,0.61,0.52,0.79,0.66
1.37,-100.32,80.94,169.61,0.09,0.14,-0.11,0.41,0.43,0.53,-100.01,74.15,166.79,0.17,0.53,0.04,0.43,0.84,0.49,-179.55,19.07,49.29,1.35,0.77,0.5,0.49,0.57,0.23,-81.78,64.13,147.76,0.23,0.49,0.66,0.69,0.55,0.77
1.38,-100.17,81.19,169.9,0.11,0.05,0.09,0.43,0.44,0.22,-99.67,74.54,166.41,0.23,0.39,0.03,0.67,0.76,0.53,-179.23,19.88,50.93,1.31,0.76,0.72,0.66,0.75,0.4,-80.9,64.04,149.92,0.34,0.34,0.73,0.87,0.53,0.76
1.39,-100.1,81.32,170.07,0.18,0.13,0.07,0.42,0.48,0.48,-99.62,75.48,166.03,0.11,0.57,0.08,0.4,0.79,0.64,-178.6,21.15,52.66,1.46,0.55,0.49,0.69,0.6,0.21,-80.15,63.95,151.6,0.05,0.52,0.52,0.86,0.51,0.98
1.4,-99.95,81.54,170.52,0.24,0.2,0.07,0.45,0.4,0.54,-99.61,76.22,165.64,0.23,0.55,0.21,0.5,0.79,0.74,-178.0,21.89,54.52,1.37,0.62,0.59,0.74,0.45,0.3,-79.4,63.57,153.46,0.09,0.44,0.56,0.65,0.66,0.97
1.41,-100.08,81.55,170.98,0.37,-0.03,0.17,0.49,0.77,0.36,-99.45,76.66,165.49,0.2,0.4,0.07,0.71,0.69,0.82,-177.46,22.7,56.35,1.28,0.49,0.56,0.69,0.46,0.37,-78.67,63.53,154.97,-0.11,0.38,0.58,0.9,0.51,0.85
1.42,-99.93,81.65,171.62,0.23,0.19,0.25,-0.0,0.18,0.25,-99.5,77.31,165.0,0.01,0.57,-0.01,0.81,0.81,0.68,-177.09,23.6,58.03,1.32,0.77,0.41,0.76,0.59,0.29,-78.33,63.11,156.33,0.3,0.34,0.67,0.53,0.42,0.92
1.43,-100.22,81.71,172.53,0.09,0.26,0.14,0.47,0.77,0.53,-99.68,77.91,164.75,0.29,0.24,-0.07,0.77,0.64,0.81,-176.23,24.6,60.04,1.46,0.6,0.51,0.66,0.62,0.61,-77.82,62.97,157.45,-0.11,0.47,0.45,0.79,0.41,1.04
1.44,-100.48,81.74,174.03,0.17,0.28,0.08,0.57,0.48,0.61,-99.6,78.78,163.8,0.07,0.53,0.09,0.95,0.73,0.93,-175.23,26.17,63.94,1.54,0.53,0.3,0.64,0.64,0.54,-77.55,62.33,159.23,0.14,0.39,0.54,0.79,0.38,0.7
1.45,-100.83,81.65,174.97,0.05,0.12,0.36,0.39,0.53,0.62,-99.6,79.48,163.47,0.04,0.22,0.1,1.24,0.53,0.72,-174.35,27.13,65.84,1.43,0.43,0.4,0.54,0.75,0.68,-77.55,61.93,159.8,0.26,0.29,0.34,0.74,0.76,0.75
1.46,-101.04,81.5,175.33,0.39,0.15,0.2,0.47,0.63,0.63,-99.57,79.7,163.24,0.17,0.33,-0.0,1.1,0.76,0.92,-173.86,27.82,67.92,1.61,0.63,0.46,0.53,0.94,0.81,-77.66,61.69,160.24,0.29,0.11,0.13,0.76,0.63,0.59
1.47,-101.27,81.44,176.06,0.01,0.11,0.23,0.51,0.59,0.66,-99.6,80.15,162.86,0.28,0.27,0.16,1.07,0.5,0.9,-172.94,28.48,69.84,1.4,0.6,0.43,0.57,0.65,0.78,-77.92,61.31,160.81,0.08,0.17,0.13,0.86,0.7,0.5
1.48,-101.46,81.46,176.61,0.22,0.2,0.05,0.54,0.5,0.8,-99.76,80.45,162.86,0.13,0.24,0.15,1.14,0.76,0.9,-172.1,29.28,71.8,1.56,0.43,0.39,0.65,0.75,0.88,-78.34,61.09,161.08,0.17,0.22,0.04,0.89,0.61,0.49
1.49,-101.76,81.27,177.13,-0.02,0.02,-0.02,0.66,0.65,0.76,-99.83,80.63,162.57,-0.01,0.26,0.24,1.15,0.68,0.87,-171.31,30.09,74.09,1.56,0.44,0.49,0.51,0.75,0.81,-78.43,60.9,161.32,0.36,0.32,0.08,0.69,0.37,0.63
1.5,-102.03,81.13,177.46,-0.02,-0.0,0.33,0.54,0.72,0.87,-99.97,80.82,162.53,0.18,0.1,-0.0,1.2,0.56,1.01,-170.31,30.83,75.99,1.63,0.43,0.49,0.57,1.04,1.01,-78.99,60.65,161.38,0.19,0.08,0.16,0.89,0.54,0.53
1.51,-101.78,81.02,177.63,-0.11,0.04,0.16,0.54,0.56,0.9,-99.95,80.97,162.56,0.05,0.28,-0.01,1.0,0.76,0.94,-169.4,31.33,78.06,1.42,0.59,0.26,0.37,0.9,0.97,-79.41,60.55,161.38,0.24,0.11,0.22,1.07,0.45,0.38
1.52,-101.98,80.81,177.83,0.11,0.02,0.31,0.66,0.5,0.95,-100.13,81.39,162.57,0.11,0.23,0.18,0.88,0.65,0.93,-168.73,31.97,80.28,1.48,0.21,0.59,0.56,0.85,0.87,-79.88,60.39,161.28,-0.02,0.38,0.13,1.19,0.56,0.45
1.53,-101.84,80.78,177.76,0.04,0.15,0.17,0.39,0.31,0.89,-99.97,81.4,162.57,0.1,-0.02,0.13,1.03,0.71,0.98,-168.02,32.56,82.29,1.27,0.28,0.41,0.62,0.84,1.04,-80.44,60.32,161.25,0.16,0.24,0.23,1.35,0.6,0.75
1.54,-101.49,81.06,177.76,0.23,0.21,0.1,0.61,0.47,0.78,-100.07,81.83,162.85,0.11,0.11,0.1,0.78,0.71,1.04,-166.9,33.15,84.23,1.52,0.23,0.61,0.65,0.79,1.0,-80.83,60.25,161.19,0.41,0.23,0.22,1.4,0.4,0.35
1.55,-101.29,80.76,177.87,0.25,0.11,0.21,0.43,0.45,1.08,-100.36,81.88,163.04,-0.05,0.07,0.1,0.86,0.54,0.95,-166.02,33.68,86.39,1.08,0.44,0.64,0.59,0.88,0.85,-81.51,60.43,161.19,0.39,0.21,0.18,1.43,0.55,0.42
1.56,-100.85,80.65,177.72,0.44,0.06,0.06,0.29,0.69,1.2,-99.98,82.11,163.51,0.14,-0.06,0.17,0.66,0.8,0.85,-164.87,34.44,88.32,1.05,0.23,0.41,0.66,0.75,1.05,-82.1,60.28,160.88,0.41,0.27,0.12,1.43,0.5,0.49
1.57,-100.2,80.64,177.61,0.45,-0.07,0.1,0.59,0.32,0.81,-100.15,82.39,164.13,0.11,0.21,0.08,0.43,0.66,0.81,-162.94,35.66,91.88,1.06,0.32,0.36,0.55,0.75,0.69,-82.92,61.06,160.23,0.38,0.18,0.41,1.84,0.52,0.66
1.58,-99.65,80.81,177.49,0.16,0.07,0.06,0.24,0.49,0.81,-99.93,82.3,164.54,0.33,0.0,0.15,0.56,0.66,0.62,-162.08,36.21,93.68,0.88,0.28,0.36,0.65,0.48,0.77,-83.25,61.1,159.88,0.49,0.27,0.27,1.59,0.45,0.57
1.59,-99.07,80.76,177.66,0.34,0.17,0.04,0.18,0.33,0.75,-99.87,82.81,164.92,0.12,0.17,0.15,0.47,0.78,0.78,-160.81,36.8,95.03,0.91,0.25,0.24,0.71,0.53,0.75,-83.82,61.59,159.24,0.14,0.33,0.16,1.6,0.36,0.8
1.6,-98.62,80.71,177.62,0.21,-0.02,-0.15,0.2,0.51,0.56,-99.73,82.83,165.35,0.04,0.3,0.15,0.49,0.46,0.78,-159.89,37.5,96.2,0.64,0.26,0.54,0.81,0.7,0.69,-84.27,62.21,158.84,0.29,0.55,0.18,1.46,0.47,0.87
1.61,-98.2,80.68,177.84,0.21,-0.06,-0.01,0.18,0.28,0.61,-99.59,82.7,165.81,-0.01,0.13,0.21,0.5,0.66,0.57,-158.83,37.79,97.25,0.61,-0.03,0.39,0.61,0.8,0.63,-84.34,62.67,158.01,0.47,0.22,0.21,1.89,0.42,0.99
1.62,-97.6,80.73,178.04,0.34,0.03,0.05,0.23,0.32,0.54,-99.43,83.02,166.17,0.31,0.2,0.22,0.54,0.62,0.64,-158.03,38.64,98.26,0.54,0.02,0.45,0.79,0.77,0.6,-84.73,63.35,157.9,0.33,0.45,0.07,1.66,0.53,1.11
1.63,-97.15,80.67,178.21,0.47,0.19,-0.11,0.24,0.37,0.61,-99.11,82.98,166.38,0.38,-0.02,0.16,0.5,0.69,0.6,-157.17,39.2,98.93,0.31,-0.14,0.43,0.7,0.93,0.74,-85.12,63.98,157.33,0.13,0.29,0.08,1.77,0.57,0.84
1.64,-96.67,80.68,178.23,0.37,0.06,0.03,0.07,0.48,0.59,-99.01,82.94,166.71,0.16,0.25,0.09,0.52,0.57,0.44,-156.36,39.65,99.55,0.4,-0.05,0.31,1.01,0.92,0.85,-85.27,64.5,156.77,-0.1,0.44,0.08,1.62,0.77,1.06
1.65,-96.34,80.62,178.61,0.38,0.07,-0.15,0.29,0.5,0.6,-99.03,83.24,166.81,0.05,0.09,-0.0,0.43,0.66,0.55,-155.84,40.04,100.26,0.44,0.12,0.41,0.86,1.16,0.71,-85.41,64.84,156.31,0.17,0.47,0.16,1.67,0.85,1.11
1.66,-95.77,80.58,178.63,0.17,-0.13,0.02,0.21,0.35,0.42,-98.82,82.92,166.99,0.05,0.16,-0.03,0.46,0.6,0.55,-155.33,40.47,100.35,0.34,-0.03,0.39,0.93,1.31,0.55,-85.49,65.19,155.99,0.24,0.67,0.21,1.83,0.96,1.39
1.67,-95.55,80.39,179.03,0.44,0.08,0.03,0.34,0.36,0.7,-98.38,82.96,167.2,0.22,0.2,0.08,0.46,0.6,0.75,-154.65,40.64,100.6,0.46,0.11,0.33,1.08,1.55,0.62,-85.47,65.67,155.62,0.1,0.56,0.07,1.87,1.12,1.44
1.68,-95.24,80.33,179.02,0.4,0.1,0.08,0.47,0.23,0.64,-97.94,82.68,167.24,0.18,0.05,0.17,0.3,0.66,0.69,-154.24,40.96,100.72,0.29,0.06,0.38,1.36,1.57,0.73,-85.32,65.99,155.71,0.05,0.53,0.41,2.21,1.15,1.68
1.69,-94.98,80.2,179.03,0.01,-0.02,0.05,0.31,0.27,0.53,-97.83,82.7,167.22,0.07,0.3,0.01,0.33,0.57,0.58,-154.02,41.05,100.74,0.24,0.03,0.32,1.49,2.09,0.94,-85.3,66.03,155.77,0.08,0.16,0.28,2.34,1.16,1.87
1.7,-94.97,79.82,178.92,0.23,0.0,-0.05,0.54,0.49,0.78,-97.21,82.14,166.58,0.06,0.43,0.15,0.6,0.75,0.72,-153.98,41.13,100.28,0.26,0.17,0.29,1.7,2.55,1.08,-84.63,66.15,156.52,0.35,0.41,0.18,2.58,1.53,2.09
1.71,-94.8,79.69,178.75,0.14,0.15,0.24,0.68,0.47,0.79,-97.0,82.21,166.27,0.09,0.21,0.19,0.55,0.7,0.76,-153.94,41.11,100.04,0.39,0.15,0.35,1.91,2.79,0.9,-84.34,66.03,157.03,0.25,0.36,0.34,2.91,1.6,2.39
1.72,-95.03,79.42,178.38,0.19,0.42,0.09,0.9,0.48,0.89,-96.64,81.67,165.66,0.19,0.27,0.22,0.9,0.61,0.87,-154.08,40.89,99.58,0.4,0.26,0.46,2.05,2.81,1.28,-83.63,65.59,158.09,0.42,0.43,0.39,2.85,1.73,2.49
1.73,-95.07,79.06,178.01,0.31,-0.02,0.14,0.6,0.38,0.68,-96.38,81.41,165.03,0.21,0.07,0.47,0.97,0.73,0.96,-154.14,40.87,99.06,0.47,0.46,0.36,1.86,2.96,1.09,-83.06,65.27,159.18,0.25,0.35,0.43,2.96,1.75,2.6
1.74,-95.2,79.18,177.55,0.25,0.34,0.17,0.73,0.3,0.82,-96.11,81.3,164.5,0.14,0.16,0.14,1.1,0.86,0.76,-154.7,40.41,98.54,0.44,0.25,0.47,1.8,3.13,1.15,-82.18,65.21,160.56,0.18,0.47,0.43,3.08,1.82,2.73
1.75,-95.26,78.62,176.83,0.06,0.22,0.15,0.98,0.61,0.81,-95.87,81.11,163.7,0.05,0.39,-0.03,0.93,0.8,0.92,-154.88,40.18,98.14,0.29,0.43,0.37,1.95,2.98,1.19,-81.2,64.8,161.97,0.14,0.57,0.51,3.1,1.96,2.92
1.76,-95.46,78.42,176.22,0.32,0.17,0.2,0.91,0.53,0.71,-95.53,80.89,163.01,0.15,0.45,0.04,1.08,0.87,0.75,-155.5,39.89,97.63,0.24,0.32,0.43,1.69,2.69,0.91,-79.86,64.59,163.39,0.55,0.43,0.7,3.14,2.0,2.75
1.77,-95.85,78.19,175.51,0.23,0.34,0.16,1.0,0.43,0.97,-95.67,80.57,162.66,0.11,0.34,0.28,1.17,0.81,1.07,-155.85,39.57,96.76,0.37,0.34,0.4,1.7,2.84,1.07,-78.77,63.97,164.64,0.23,0.3,0.76,2.69,1.79,2.99
1.78,-96.05,77.91,174.96,0.1,0.33,0.25,0.89,0.58,0.8,-95.35,80.62,162.11,0.2,0.37,0.25,1.19,0.66,0.83,-155.98,39.23,96.38,0.21,0.23,0.3,1.56,2.73,0.9,-77.39,63.63,166.1,0.3,0.3,0.79,2.68,1.83,2.91
1.79,-96.46,77.61,174.47,0.26,0.31,0.28,0.82,0.44,1.04,-95.31,80.3,161.59,0.09,0.29,0.28,1.38,0.53,1.13,-156.51,39.17,96.01,0.31,0.28,0.11,1.52,2.35,0.89,-76.13,63.29,167.57,0.38,0.42,0.86,2.38,1.87,2.72
1.8,-96.51,77.45,173.81,0.24,0.29,0.09,0.6,0.37,0.91,-95.21,79.84,161.39,-0.1,0.22,0.05,1.18,0.58,1.16,-156.82,38.88,95.69,0.21,0.17,0.31,1.22,2.32,0.93,-75.06,62.89,168.56,0.21,0.27,0.87,2.4,1.87,2.8
1.81,-96.83,77.28,173.15,0.09,0.21,0.14,0.64,0.67,0.58,-95.27,79.84,161.33,0.04,0.19,-0.1,1.28,0.86,1.0,-156.99,38.58,95.47,0.25,0.31,0.24,0.96,1.81,0.91,-73.68,62.54,169.62,0.35,0.34,0.99,2.22,1.94,2.32
1.82,-96.88,76.78,172.72,-0.02,0.03,0.23,0.65,0.42,0.55,-95.26,79.54,161.2,0.08,0.2,-0.0,1.1,0.57,1.03,-157.34,38.32,95.49,0.2,0.13,0.08,0.7,1.64,0.96,-72.64,62.21,170.2,0.22,0.06,0.75,1.86,1.69,2.15
1.83,-97.34,76.48,172.4,0.26,0.05,0.06,0.47,0.37,0.36,-95.2,79.09,161.46,0.1,0.22,0.19,0.87,0.66,0.59,-157.56,38.2,95.46,0.18,0.24,-0.04,0.47,1.06,0.93,-70.82,61.65,170.55,0.27,0.24,0.8,1.62,1.79,1.73
1.84,-97.33,76.39,171.96,0.05,0.12,0.06,0.35,0.4,0.42,-95.38,78.91,161.88,0.0,0.23,-0.14,0.8,0.53,0.62,-157.6,38.25,95.86,0.2,0.42,0.12,0.36,1.11,0.99,-69.96,61.29,170.28,0.09,0.01,0.9,1.54,1.76,1.86
1.85,-97.41,76.02,171.8,0.12,0.27,-0.08,0.17,0.48,0.29,-95.43,78.61,162.04,0.18,0.22,0.11,0.75,0.58,0.7,-157.81,38.16,95.97,0.04,0.17,-0.02,0.51,1.02,0.72,-69.57,61.15,170.24,0.19,0.02,0.77,1.29,1.84,1.44
1.86,-97.51,76.12,171.75,0.06,0.13,0.01,0.25,0.61,0.3,-95.61,78.49,162.52,-0.08,0.21,0.11,0.42,0.47,0.65,-157.93,38.49,96.34,0.19,0.34,0.15,0.46,0.88,0.84,-69.19,61.35,169.66,0.1,0.21,0.74,1.14,1.71,1.32
1.87,-97.48,76.05,171.83,0.09,0.08,0.12,0.41,0.45,0.25,-95.76,78.28,162.77,0.15,0.26,0.11,0.34,0.32,0.54,-157.63,38.68,96.92,0.17,0.45,0.04,0.57,0.79,0.87,-69.19,61.41,168.78,0.14,0.15,0.39,1.28,2.03,1.05
1.88,-97.63,75.99,171.8,0.09,0.11,-0.05,0.11,0.32,0.38,-95.92,78.08,163.11,0.13,0.19,0.01,0.48,0.29,0.28,-157.49,38.72,97.3,0.09,0.14,0.3,0.5,1.01,0.69,-69.36,61.54,168.16,0.25,0.3,0.57,0.96,2.01,1.01
1.89,-97.85,76.02,171.72,0.16,0.02,0.08,0.2,0.37,0.14,-96.13,77.99,163.38,0.03,0.07,-0.01,0.38,0.25,0.33,-157.14,38.99,97.6,0.24,0.33,0.25,0.5,0.99,0.81,-69.5,62.11,167.41,0.24,0.29,0.49,1.08,1.94,0.82
1.9,-97.73,75.95,171.74,0.18,-0.04,-0.08,0.39,0.33,0.2,-96.31,77.89,163.86,0.17,0.1,0.06,0.31,0.11,0.17,-156.9,39.37,98.16,0.38,0.18,0.23,0.77,0.9,1.01,-70.15,62.32,166.9,0.2,0.38,0.43,1.09,2.08,0.75
1.91,-97.89,75.92,171.6,0.27,0.17,-0.17,0.22,0.17,0.26,-96.48,77.81,164.07,0.15,0.17,-0.09,0.18,0.23,0.33,-156.25,39.77,98.65,0.12,0.21,0.29,0.76,1.03,0.86,-70.69,62.79,166.38,0.33,0.26,0.69,1.0,2.08,0.61
1.92,-98.05,75.77,171.52,0.15,0.1,-0.1,0.33,0.33,0.26,-96.82,77.82,164.41,0.16,-0.03,0.13,0.21,0.24,0.43,-155.65,40.24,99.37,0.35,0.09,0.3,0.67,0.91,0.68,-71.44,63.54,165.83,0.42,0.53,0.57,0.89,1.83,0.71
1.93,-98.03,75.79,171.35,0.07,0.05,-0.04,0.33,0.37,0.12,-96.92,77.64,164.42,0.14,-0.07,0.03,0.24,0.33,0.27,-154.95,40.83,99.52,0.45,0.22,0.35,0.67,0.73,0.7,-72.34,64.39,165.68,0.48,0.59,0.48,0.6,1.74,0.55
1.94,-98.2,75.66,171.38,0.14,0.11,-0.04,0.23,0.28,0.26,-97.09,77.64,164.63,0.28,0.24,0.1,0.19,0.12,0.1,-154.29,41.42,99.97,0.4,0.17,0.6,0.89,0.93,0.81,-73.27,65.08,165.35,0.33,0.69,0.56,0.61,1.66,0.6
1.95,-98.52,75.35,171.36,0.17,-0.02,0.06,0.22,0.39,0.03,-97.42,77.5,165.04,0.16,0.14,-0.14,0.09,-0.05,0.14,-153.09,41.92,100.46,0.36,0.29,0.51,0.83,0.63,0.84,-74.11,65.97,165.41,0.5,0.73,0.3,0.68,1.49,0.58
1.96,-98.63,75.51,171.38,0.24,0.11,-0.02,0.11,0.3,0.02,-97.67,77.54,165.14,0.22,-0.06,-0.02,-0.01,0.14,0.15,-151.04,43.28,101.19,0.45,0.13,0.59,0.94,0.78,0.58,-76.23,68.05,166.12,0.46,0.66,0.47,0.36,1.16,0.49
1.97,-98.84,75.48,171.08,0.02,-0.04,0.16,0.42,0.17,0.17,-98.04,77.29,165.41,0.19,0.1,-0.01,0.18,0.32,0.18,-150.16,43.7,101.82,0.57,0.15,0.58,0.8,0.64,0.48,-77.54,69.16,166.46,0.56,0.78,0.13,0.42,0.97,0.69
1.98,-98.76,75.3,171.23,0.1,0.14,-0.01,0.22,0.1,0.14,-98.22,77.17,165.56,0.06,0.05,0.05,0.17,0.36,0.13,-149.04,44.5,102.29,0.44,-0.03,0.43,0.73,0.68,0.62,-78.26,70.21,167.13,0.37,0.95,0.17,0.51,0.79,0.77
1.99,-98.79,75.13,171.14,0.1,-0.06,-0.03,0.16,0.23,0.14,-98.38,77.07,165.67,0.16,-0.01,-0.14,0.2,0.1,0.22,-147.89,45.17,102.46,0.54,0.06,0.65,0.83,0.71,0.45,-79.33,71.26,167.97,0.38,0.69,0.25,0.31,0.53,0.76
2.0,-99.09,74.93,171.24,0.07,0.01,-0.14,-0.01,0.25,0.1,-98.6,77.11,165.8,0.29,0.05,0.1,0.14,-0.03,-0.02,-146.82,45.53,103.04,0.38,0.21,0.45,0.74,0.85,0.45,-80.57,72.38,168.42,0.49,0.8,0.24,0.27,0.53,0.83
2.01,-98.92,74.85,171.23,0.11,-0.03,0.05,0.07,0.04,0.3,-98.62,77.04,165.93,0.16,0.2,-0.14,0.2,0.17,0.14,-145.94,45.91,103.48,0.49,0.22,0.49,0.6,0.88,0.42,-81.41,73.3,169.28,0.43,0.63,0.18,0.36,0.42,0.42
2.02,-99.09,75.05,171.32,0.21,0.09,-0.03,-0.03,0.07,0.2,-98.73,76.89,166.23,0.14,0.36,-0.18,0.36,0.07,0.12,-144.94,46.26,103.96,0.66,0.09,0.38,0.67,0.91,0.38,-82.38,73.98,169.85,0.46,0.74,0.27,0.46,0.42,0.73
2.03,-99.07,74.99,171.45,0.03,0.02,0.05,-0.04,0.2,0.29,-99.01,76.79,166.18,-0.05,0.11,-0.07,0.2,0.13,0.07,-144.07,46.78,104.39,0.41,0.16,0.46,0.49,0.85,0.56,-83.11,74.69,170.47,0.35,0.74,0.21,0.44,0.27,0.89
2.04,-99.0,74.97,171.52,0.24,0.02,0.17,0.24,0.05,0.34,-98.94,76.75,166.47,0.24,0.11,0.04,0.37,0.17,0.09,-143.18,47.25,104.8,0.34,0.05,0.38,0.51,0.75,0.34,-83.64,75.33,170.97,0.26,0.36,0.2,0.29,0.34,0.88
2.05,-99.37,74.77,171.79,0.26,0.03,0.12,0.19,0.12,0.33,-99.02,76.74,166.6,0.08,-0.2,0.1,0.2,0.12,0.38,-142.38,47.77,105.16,0.52,0.02,0.13,0.52,0.89,0.45,-83.95,75.95,171.06,0.24,0.49,0.15,0.29,0.34,0.81
2.06,-99.24,74.88,171.91,0.11,-0.0,0.31,0.08,0.26,0.22,-99.19,76.54,166.66,0.04,-0.07,0.24,0.21,0.14,0.11,-141.75,47.94,105.46,0.42,0.07,0.13,0.35,0.73,0.34,-84.38,76.3,171.34,0.25,0.37,0.38,0.35,0.41,0.99
2.07,-99.2,74.75,172.05,0.1,0.03,0.09,0.23,0.27,0.39,-99.45,76.56,166.66,-0.03,0.1,0.01,0.34,-0.13,0.26,-141.52,48.17,105.88,0.29,0.2,0.28,0.38,0.83,0.46,-84.55,76.68,171.02,0.19,0.28,0.04,0.33,0.72,0.95
2.08,-99.22,74.65,172.5,0.16,0.06,0.06,-0.05,0.16,0.43,-99.01,76.52,166.6,0.12,0.1,0.07,0.06,0.03,0.29,-140.73,48.5,106.17,0.39,0.08,0.24,0.44,0.86,0.57,-84.73,76.85,170.99,0.14,0.37,0.07,0.42,0.64,1.03
2.09,-99.06,74.83,172.99,0.01,0.15,0.25,0.02,0.5,0.38,-99.24,76.36,166.74,0.11,0.11,-0.1,0.07,0.14,0.72,-140.05,48.85,106.6,0.09,-0.03,0.08,0.49,0.64,0.59,-84.5,77.21,169.96,-0.05,0.11,0.11,0.54,0.88,1.28
2.1,-99.18,74.86,173.13,0.08,0.03,0.05,0.13,0.51,0.52,-99.0,76.41,166.78,0.08,0.2,0.17,0.14,0.42,0.45,-139.81,49.23,107.02,0.0,0.23,0.09,0.32,0.52,0.72,-84.38,77.12,169.29,0.05,0.21,-0.08,0.17,0.8,1.22
2.11,-99.33,74.89,173.58,0.08,0.09,0.14,0.06,0.6,0.54,-98.97,76.39,166.57,0.07,-0.05,0.07,0.32,0.34,0.68,-139.59,49.32,106.92,0.16,0.16,0.01,0.13,0.35,0.78,-84.37,77.36,168.7,0.16,-0.01,0.08,0.16,1.1,1.21
2.12,-99.11,75.18,173.67,0.06,0.24,0.01,0.1,0.71,0.4,-98.98,76.49,166.49,0.08,0.17,0.07,0.02,0.29,0.7,-139.29,49.57,107.24,-0.06,0.15,0.03,0.47,0.45,1.01,-83.91,77.37,168.1,0.16,0.15,0.16,0.22,1.21,1.21
