0.02,-35.481847007537745,82.20529562508423,22.84890739412244,0.0675096379037042,0.0625912682031567,0.0654194902139559,0.0142539307188461,0.0809642016185671,0.1127800277545547,-4.503397338829915,86.23119662402378,1.3922724828821058,0.1403074407278048,0.4699706385138681,-0.0007181056794972,0.9602371546810816,0.029995776311264,0.0670986564665823,-176.11800170744996,1.2438909020036577,14.049435924164303,-0.208955405765961,0.2327343744678879,0.2694335064239745,0.0704119251654435,0.9197791233806822,-0.0496376881627963,-357.6716098817954,15.654658603625451,9.608218645673556,0.0313263709545912,-0.1662190571809335,0.0317547362850851,-0.0272857664385368,0.1285751233955533,0.0252512160633983
0.03,-35.289971598134564,82.55497573853027,22.879666965001725,0.0569042957485306,0.1257945342504224,-0.0539128207068748,0.2019542140735253,0.0900777106279494,0.1466075457313515,-4.375415814730777,87.31886971973807,1.274614791519312,0.1263393809087752,0.8073056498742004,0.2836201425534522,0.7068941372970295,0.1854600810294185,0.0898397605422652,-176.508068370114,1.4155988885813162,13.766048762309165,-0.0107448680496988,-0.0858812994823403,0.1184881963131522,0.2111703181493842,0.9666898814478024,0.1835452126594072,-357.74291975227146,15.72354379029434,9.621500541095749,0.0813024884251718,-0.0665359100403778,-0.0235724800503295,0.3135533347838001,0.3642874731212893,-0.0933877053821495
0.04,-35.439454596972645,82.64035463452605,22.968801485943352,-0.0191440993957475,-0.0044318733844092,0.1599023904606188,0.0076937362788268,-0.0718119753681774,0.0087912512734947,-4.342352101365172,88.13268787077591,1.1331017128186749,0.1612240242401021,0.6237031045028109,0.1704865248270534,0.1735819096125506,0.1825526124213924,-0.1005291440786591,-176.35373102844423,1.3177561100052235,13.649335188800832,0.157246436586397,-0.1089147304028197,0.2494809904702323,0.0917124635543805,0.4886993254424857,0.2520037359322284,-357.6629178248572,15.406278477158905,9.78338453652466,0.0311151346621826,0.1305937879017403,-0.0133648477375209,0.3283696201348824,0.5800181681738193,0.1413355038675671
0.05,-35.68518685681098,82.5972270302702,23.219824102445013,0.1377879483810349,-0.0983274669521083,-0.1091309160836498,0.1999725048353085,0.0964011046350108,0.1247191782066729,-4.324530493708365,88.63170250572439,0.9988925415100112,0.1861060179767101,0.711834736482707,0.1147912410592476,-0.165817654462916,0.1233312908875861,0.3128603681516797,-175.89042173419372,1.438313616691317,13.721442690085976,0.062409411882702,0.1137384199182351,0.594899284728887,0.1673485113484138,0.4936493421087481,0.1226977190518891,-357.8125865191073,15.44063152638578,9.620769943897017,-0.1089798101509249,0.0496284226602309,0.0241545286165132,0.2379326092405393,0.436915377727396,-0.0414552669504561
0.06,-35.68279232079693,82.60413130715524,23.23879571539312,0.2825888243951334,0.0814802861954938,0.1290420601939735,0.0767577642569045,0.0577853172914554,0.0501972853947776,-4.476095856251938,89.05533118980014,0.795170580544503,0.0663908345807521,0.5613661154254583,-0.0434130538756574,0.105715211438068,0.1503015011464369,0.1998238668688725,-175.41997881943624,1.7348350845907845,13.642528268501692,-0.034744732193678,0.1031083955801178,0.4437471920896875,-0.0822259393897027,0.2436840457667724,0.0171969955415921,-357.7697316622863,15.650568771513113,9.767241754565513,0.226838146990615,0.0682131020588585,0.2134664775725279,0.1744441978344645,0.5675516020005923,-0.1169484233257094
0.07,-35.805303655076045,82.63030347800628,23.48575942203755,0.0646665630085137,-0.0017869110953141,0.1561725497208206,0.1758409488610383,0.1572343812446278,0.0208661926930703,-4.391261730920703,88.90244726170839,0.8221158368372725,0.0027779235017166,0.2330028028641876,0.1378440808006423,0.2363616654600051,0.1917437910509922,0.0012972604880947,-174.64488885784652,1.6132922046947151,13.612181188223104,0.0684565272993276,0.0193650188326949,0.3544489963953504,0.2236634800422904,0.0453321085432599,0.1195212881893306,-357.3775077802591,15.6315089346875,10.01605470416387,0.0486566998624231,-0.2105578230430787,0.2025312269559981,0.3676587085333244,0.5568835318432561,0.1755720399452929
0.08,-35.919943526746735,82.59276665143153,23.119710009273916,-0.0374879118204202,-0.1592107179808745,0.0291411547152891,0.0403403846107787,0.0308176556409426,0.2243836892139247,-4.574753353401852,88.88447884147193,0.9948426470942752,0.0321541414097226,0.2037644956065397,-0.1282943178604841,-0.2228621242749432,0.2042389139528045,-0.0736843271778528,-174.59770421453942,1.6619205584839645,13.661862759546578,0.1526262569486108,0.0595591867153441,0.0183785761756659,0.1458165312801062,-0.0757543682385618,0.2046362746469349,-356.99304040381065,15.76726023442645,9.951884258428151,0.3283873151236079,-0.0182494668136988,0.1413636759661778,0.1211870764936079,0.5810822379270889,0.1928042530849449
0.09,-35.905914903344986,82.44610671123942,23.24945405308809,-0.007722071622975,0.0351590883549785,0.0875932184150231,0.0270684840452697,0.0322044670319478,0.4301754606153384,-4.375852887929828,89.08536789232663,0.6591359683472954,-0.0355286266054146,0.1473947217596645,0.1515996400022212,0.2065654137113862,-0.0552688750402406,0.2853435185773887,-174.79658502540303,1.7486397762264665,13.528368466920172,0.2201880491866166,0.1003375041262857,0.0341950910963362,-0.0571291098984235,0.2438801159436393,0.381071269126446,-356.61057164254663,15.983341617192982,10.19267710216811,0.0626010585434094,-0.0557317099625678,0.362716914136395,0.1844290019184467,0.4226334210385678,-0.0211872533006697
0.1,-36.09321069422316,82.50471450317424,23.442056236720447,-0.0764120303893561,-0.0835083234645341,0.1273991664491538,0.1581570317283508,0.0254421902124079,0.282489817423486,-4.202807546358978,88.94540018347418,0.8601189708429164,-0.1650578795597615,-0.0571390171119956,0.0323579644318233,0.1724866268947711,0.0910367832276754,0.1235448802088181,-174.6318016377915,1.8369191398642963,13.403015039981572,0.0986571700492081,0.0118732083211767,-0.022840634166759,0.0020872310439787,0.58441209925867,0.4494195557993067,-356.30853464133907,16.170828116020356,10.193982883028772,0.138402458313479,-0.024857993093269,0.1752197071845547,0.0901930336505923,0.4159615302495256,0.0668327379511715
0.11,-36.10793139697413,82.6389322671903,23.645170249565915,0.0534271284968579,0.1138192297288839,0.1159409243536142,0.1172299568852274,0.1618815353844739,0.4927486267897061,-4.424376129487744,89.00061333276196,0.6884183345245407,-0.0294648691268719,-0.0525627609218798,0.0473817834168401,0.2924650165081169,-0.0066494226347583,0.0793125332978897,-174.41077510049166,1.836458672644622,13.29292937948986,0.1537726582205983,-0.1837033638734528,0.072679066625292,0.2011909866580682,0.3489300215615164,0.5601192232579908,-355.8641593050501,16.214924990935955,10.19499244866156,0.280883191645667,0.1152851980242959,0.3671765736816627,0.0321572438856609,0.1114543015922491,0.1555492668901363
0.12,-35.93283427204355,82.81912757112929,23.84044157975809,-0.0740975914137933,0.0838527615125359,-0.0305708637161341,0.0291601152234229,0.1168255223593075,0.241935931472112,-4.507940374825035,88.9218301586246,0.6831646309819683,0.0660604113135512,0.0191438293695859,-0.1014883478481856,0.3591067408490621,0.0821703971455172,0.1690483765618188,-174.19446963846949,1.9884409010884228,12.976776282818358,-0.0460398101536648,-0.0378902308350952,0.3431793308209794,0.1545935783038189,0.5694950363791521,0.4371684382314319,-355.5362328701236,16.357773701400205,10.42468207063468,0.2362201411805292,0.0359784955501293,0.1549962178271634,0.0504517322284587,0.1373835053475844,0.1680090298344312
0.13,-36.01181834518534,82.84398196625591,24.193037300951385,-0.1527616128495235,-0.0136666780607888,0.1758505248270525,0.0747591528211675,0.0013146880990922,0.0776424547105189,-4.514905631214422,89.081375026938,0.8676820464805772,0.0370049640570488,0.1390929083411155,0.0010804128717477,0.4369080999096978,-0.0140116293112411,0.0831578345889123,-173.6673148673303,2.071649743323536,12.958787536934176,-0.0005613079649486,-0.0900809011900657,0.3537709667980648,0.0443919089221406,0.3591492386626626,0.1793482146817456,-355.3835374609043,16.530193824529565,10.403627343492795,0.0935553401301752,-0.0863544184668668,0.3011233173885419,0.0589140312246529,0.1270501933190889,0.0624977574878664
0.14,-36.08720183482317,83.10417134812973,24.32485435655715,-0.0115994015493486,0.0808247934578018,0.0150846192631765,0.0609363269673978,0.1503399405715021,-0.030569257940108,-4.326407221789664,88.88241120312695,0.7022203695742277,-0.0195070527595291,0.4037690679463112,0.0304361959742641,0.4126817588140108,0.0780612970282949,-0.0459173145072883,-173.4549906832742,2.119800863283713,12.848455086699204,0.2783046419231729,0.128993867418933,0.3624783715973562,0.1907476494717256,0.3714556112450089,0.2860411360758215,-355.0147520720498,16.567901893607928,10.701780518708958,0.3060377524578563,0.0318991128090503,0.2255770945414956,0.2160161469942702,0.2443218310535506,0.2805140345435442
0.15,-36.19244532968375,82.79949301492314,25.022362770078686,0.0395353753821589,-0.0266477874461517,0.0160916097734725,0.1077159036321346,0.2005334633688256,0.2809829677783276,-4.426960970391636,89.04634013306897,0.8248361351528514,0.129271734595661,-0.0223394192665824,0.1267683776105194,0.4889021049359889,-0.0460132014579648,-0.0814256392511617,-172.94263783889713,2.1261305736613973,12.577433795337466,0.3322641850386751,0.2214438602868829,0.249052099756134,0.0760872544907244,0.1638161930921612,0.39009157593495,-354.96927414732494,16.38824983778604,10.937759287707168,0.2243830390837443,-0.1972411478509433,0.3746169482347505,-0.1492872641475059,0.2509560942735771,0.3215363106030723
0.16,-36.11204279318763,82.94984145490274,24.80717215170235,-0.0471365545914329,0.0514987217117364,-0.1349670760526145,0.1819517423258972,-0.0634501817766707,0.076525947374333,-4.426110773816585,88.91860185851641,0.7004957178957829,0.1587331944416938,-0.0047829352022756,-0.1431539209382032,0.3538887830178306,0.0924370936093657,0.1869317516915038,-172.79845777792332,1.9419165202417563,12.626156705916424,0.3400584293448366,0.0736519463922665,0.2783698397893139,0.2117678697367274,0.2623303860550442,0.3521249812071467,-354.67898012860974,16.591985699280766,10.782099721442574,-0.0350647095156443,0.0436043856391057,0.2907391318794083,0.1397170475077066,0.0483291808014395,0.3339792022633585
0.17,-36.11518178600055,83.06648278649111,25.06256265758692,0.0661427050878187,0.2459969780700596,0.1066509491020074,0.0415140657215592,-0.0409342193401743,0.1965124220983527,-4.406464112505208,88.96133176573254,0.7322819221280046,-0.0379626122718527,-0.0799924741808989,0.0525429221500628,0.3546804047705713,-0.0240249389335914,0.023559502658598,-172.58770013390148,1.9600182484764697,12.489986783455333,0.3876517707784804,-0.1909343196102666,0.2421094639669497,0.220487407605949,0.2447570818269374,0.4760278397338908,-354.474378066788,16.556949294405253,11.011425473632992,0.2846491105857878,-0.0375341065899922,0.3537120052800496,0.0903317827294159,0.3254044494236713,0.0596787314168051
0.18,-36.205431865000776,82.84193530274585,25.17810180396528,0.0188040061665728,0.1704013780486937,0.0872481993161805,0.0272076647975563,0.2629878933980758,0.1283587490005518,-4.426682830276066,88.97397641214228,0.7148165391398731,-0.0310617019601946,-0.02908194140835,-0.1652425103014594,0.3487319093050358,0.1065205226552672,0.0686267943127937,-172.48413977799274,2.0594679379408087,12.520875733964962,0.2689744574986084,0.1921884243143918,0.1603153748332038,0.0783544703097241,0.374495590763919,0.2299423790759003,-354.0866942577491,16.586142083488337,11.160929493615813,0.2198607648941279,-0.0009328238319743,0.3998584470406595,0.0642730764046524,0.0319334687918974,0.1931488022183546
0.19,-36.16072168333943,83.08631684717837,25.23907535020239,-0.1546393288948842,0.0642159287693043,0.2355502261164883,-0.0707926476007129,-0.0968656396604572,0.1183382535194794,-4.480845817789256,88.92757130682118,0.6473813818608527,0.0559646084282364,0.0325661687610499,-0.0207865088860147,0.3149444400056268,0.0706882174361266,0.2561190689998782,-172.2100726675121,2.1116349612810468,12.315994284578943,0.2529481895129188,0.1449330122817698,0.276806038748474,-0.0143002584313018,0.4355898321619009,0.2448685771459527,-353.60610431394093,16.628526890136918,11.1651290383182,0.18702430442658,0.194351029617964,0.2626480405991645,0.3269306637351815,0.0118858712391093,0.2555011362809937
0.2,-36.22700253729467,82.88313476971608,25.57379638430013,-0.0508719531071009,0.0387799443754325,-0.0245865890656643,-0.0336902493905498,-0.0520064418585596,0.1588568281547407,-4.537961015157157,88.97207217951598,0.6439157105872116,-0.0750730003035777,0.1232383784225643,0.0369554727438817,0.2692640684484191,-0.0589952575210042,0.3771842818479851,-171.87546948373017,1.853123182184693,12.15273610040576,0.1482552045447974,0.1119186812610725,-0.0350102679792985,0.1317493352562945,0.2110347883635457,0.5541353484323739,-353.265521775129,16.72712976624268,11.110763304690334,0.1991895561244012,0.1080600314946697,0.29475259317891,0.1636075688364952,0.1074690219462168,0.0528716037233382
0.21,-36.14836676017188,83.00308477149431,25.478398554895257,0.0617366673268002,0.0048340254415423,-0.0711749271788503,0.0688878082799215,-0.1346453605214144,0.2572908545950039,-4.551249513336597,88.88242030646285,0.68125076209484,0.1160166013669849,0.0056037836371487,0.1438043155052802,0.3610662934250949,-0.0983509782967,0.1736437967279657,-171.7458977863696,1.927161832062372,11.974120319824427,0.289280052195851,0.0927738773664532,0.1236785217704726,-0.126434355006636,0.431581886090346,0.8516952462999308,-353.0643629110802,16.63514684794943,11.130418224547151,0.1042219052478401,-0.1381441055082831,0.1268193192160988,0.0960044677914374,0.3105553614600748,0.4051398051201299
0.22,-36.2268592265035,83.15595791435287,25.32219556556525,-0.0553149239476355,-0.0507222287850625,0.0183473571868409,0.0223948168033961,0.2159635036967528,0.1008114425691302,-4.619420998785429,88.78132113129823,0.7611722477931326,0.1393784852995034,-0.013093402447192,0.116288802288953,0.237274363333009,-0.0294517081691896,0.0169213187089161,-171.50925251679644,1.728308579812416,11.86561110948024,0.0311850014684698,0.083505005979102,0.2908014591606459,-0.187329047532272,0.1664500235547093,0.5832237781483716,-352.6972375453354,16.52663774279446,11.035046736099732,0.1081187599911526,0.2202313869848234,0.3284767565258063,-0.0232767633478665,0.2616716503809058,0.3276783809644831
0.23,-36.200769241164224,82.9681845312525,25.529618756199547,-0.0120973292465603,0.0237267463442139,-0.0460736363647897,-0.0923344909937801,0.0272529063082335,0.2755543562351627,-4.439648385518213,88.82402402270138,0.5170718377368537,0.1050548152032941,-0.0295787258394565,0.0359176955979035,0.1244109537771906,-0.0634768697441919,0.0953667088703618,-171.06871752022172,1.776951903590492,11.35821952853018,0.3067533280281473,0.0522264187000922,0.3253917403338414,-0.1434975672462338,0.271718924916573,0.5089911695458499,-352.60952953479506,16.474148790061296,11.149694753907642,-0.0392933897171319,0.0150505781262779,0.1071089304638357,0.214904419157039,0.2703484964716549,0.5205461723111177
0.24,-36.32898368194952,83.08460591508955,25.456192947588768,0.0626332035497555,-0.0568555481889614,-0.0724399190221615,0.0943331920470364,0.052231064191516,0.1371856486927629,-4.556920054957054,88.72237531730762,0.5589667536399453,0.0773093788269464,0.1345773279927167,0.0436804923484476,0.194586796040132,-0.0083993020462349,0.0381666466935041,-170.74936566217866,1.5531193101809229,11.251873305180837,-0.0532872382456263,0.3215345027580991,0.6016924704642634,0.1344320448483101,0.0281955169220665,0.631178249664742,-351.72014024963414,16.487718312073294,10.653992622362738,0.3001779413417787,-0.0064546478308416,-0.0049458901608994,0.1031476289249146,0.2731195759683815,0.5898162340694169
0.25,-36.33576921380818,82.9273418968313,25.538746642801584,-0.0723383734698388,0.0228076031072726,-0.0174078304081848,0.1106156299309242,0.3116440949613748,0.1798027332662731,-4.57338323701789,88.93243112683132,0.5538711465583022,0.0800105464576614,-0.1079518021546771,-0.1516824607196623,0.1719613069856168,0.0383166262414336,0.028364522951111,-170.22143572758577,1.1878357821739078,11.168113083788644,0.3056424199064309,0.3077230020339078,0.3756105265563353,0.0796948850255453,0.1723208605425762,0.6661520746791303,-351.9385789667211,16.45698389423835,10.696646408505336,0.41383918636451,0.1341016678480935,-0.0141671789167127,-0.0630728743179654,0.2354258470261233,0.2877048721599555
0.26,-36.45974448195213,83.13065025082899,25.5308195774405,-0.1239727363682355,0.0249977781616993,-0.1231962277306216,-0.0896008882813905,0.2431397966174827,0.1594686082680234,-4.521886614459292,88.61366043384203,0.5892750339533189,0.0820383870234408,0.0280744241483297,0.1383346557585185,0.235312850882053,0.1413775271728215,0.127342099410169,-169.79114773057316,1.284158522292815,10.740476722808392,0.256314701551162,0.1435058436210411,0.3562476599143669,0.1222035089189219,0.3915011603900354,0.580509145474561,-351.4322129040513,16.153972334620832,10.38388638312794,0.044119717688804,0.0778840986711544,0.0378836136501281,0.0116083714609188,0.0954481770358579,0.4236403893195436
0.27,-36.532054623231566,83.00488185742603,25.84002093478456,0.1185676133822606,0.0725074452033191,-0.0381700072114126,0.0735871053684889,0.297524745910844,0.0207296034346285,-4.733339866574372,88.78780141969183,0.7835191829947187,0.0556248465692317,0.0311286650019314,-0.0290276688356408,0.2927834123303554,-0.0093573040687494,0.0455591105353023,-169.4566311196858,1.0909181984021168,10.49769891490126,0.3152875188614812,0.1115568483366948,0.2002949907181956,0.4785935280309388,0.5805074385664786,0.192799191404161,-351.16599631417193,16.139892853050185,10.214538608433816,0.0970450483218047,-0.0727995430723663,0.2613204955541001,0.1119528781760396,0.0332238854102758,0.4128402955171143
0.28,-36.5275890686404,83.17920311839558,25.555924654631603,0.0436619886047616,-0.0385094399593602,0.1021354348278404,0.0571498559797878,0.1889482331663045,0.0068368387871993,-4.560670519426051,88.86967452925457,0.7713615655834813,-0.0469327501051402,-0.1217876474699061,0.0510054844651257,0.2491440902468626,0.0602862096209329,-0.0583001757330414,-169.23798380774716,1.1188612297448255,10.56376527429448,0.0413918435555368,0.1480582189091292,0.3697499685256193,0.3197415031375724,0.2881533306810074,0.1980681435023799,-350.8993266324099,16.031899705442,9.93094993624659,0.1637723649829218,0.0432503220747817,0.2804478461761704,0.0258910586369087,-0.0872892838227238,0.5939261003375339
0.29,-36.65012175119186,82.93024613032706,25.664336866160664,0.0348615936526663,0.0866532038715817,-0.1930715706411878,0.0681406076498569,0.1760094638945523,0.0107412913179142,-4.710305186340145,88.8876192635076,0.4644506166107188,0.1305559158340017,0.1277801588934085,0.11058731239925,0.1683964585149471,0.1359898072152106,0.2599287245400353,-168.9384347844095,0.8406677638006548,10.511943152300637,-0.1054404625829086,0.2551382897792477,0.0140965422206246,0.2477870784971483,0.1112787696178767,0.0708432633554937,-350.82652613076345,15.88309152588959,9.288299354209462,0.2951712705914622,0.1164246432809635,0.2320547255915903,-0.0300346680407221,0.1721159159342765,-0.009145488755713
0.3,-36.41434988604976,83.21916778086322,25.91562940634076,0.0639629847936303,-0.1549060362760028,-0.1239392932126292,-0.0423754045129952,-0.135810831472586,0.0685753340969341,-4.796315741438874,88.78749361672268,0.5259610607833903,-0.0735096582533435,0.0500712832297367,-0.0601498849798632,0.4421195694914974,0.0034298378809074,0.2569795222672261,-168.721257813712,0.4596589754648129,10.4497405078397,-0.081120120654805,0.0716564505326386,0.1755250549582146,0.265923447687766,0.6751851755446173,-0.1693290255838044,-350.71034827327065,16.01160806459042,9.264656766184094,0.1684382626423205,0.0742107189392228,-0.0231886448568719,0.432020909688158,0.3377467436303818,0.1388349348813586
0.31,-36.63301815644056,83.12321855534913,25.965997803120903,-0.0481788618236634,-0.0421571712634477,0.1190751839074456,0.033259695575151,0.184353275500694,-0.0432797186087191,-4.925265998203762,88.75734040316712,0.6091686523538216,-0.1114384185481237,0.0454151973330901,0.0636070452221333,0.3921454685474249,-0.1203760814848792,0.1243886575191295,-168.7640800410368,0.343774465330611,10.387139294214274,0.0775766953389326,0.14116125640585,0.0333127350443063,0.1309326700321357,0.7088109018584787,0.6133512480454639,-350.8762758658676,15.798029614046923,8.99947612994745,0.1938341330990821,0.0451167742199326,0.0624992921597587,0.3094279737889842,0.2101790242976485,0.160231265576137
0.32,-36.74042318605145,82.99889758954772,25.85912830175805,-0.1374913209841646,-0.0475391818366467,-0.2295346866613583,0.0991187229610756,-0.1173557399926847,0.1707505290263995,-4.911758473515555,88.77151137214395,0.4366812264074081,-0.0429688562132829,-0.003197794129683,0.0271176513730391,0.4308193894188039,-0.1296875077596648,0.1550720015757428,-168.60880306555956,0.5664623162121121,10.430016368526374,0.0791862066941531,0.2430791888145638,-0.0667837943219013,0.1202148351021116,0.4692988005871757,0.5227677936385516,-350.8940669054962,15.459814924285372,9.279798068072854,0.0193161373387364,0.1382802066845304,0.0521291340440218,0.1675595164457155,0.0337119599971487,0.2240811348535493
0.33,-36.81854652834813,83.07547868859443,25.74358421404984,0.0415729131118386,0.0098293698844674,0.0557355175967913,-0.0479744593793844,0.0762772887832372,0.3111720236078446,-4.715190881617683,88.93664553826012,0.5420254630579857,-0.0188651523671245,0.038141883202621,-0.1195154591526763,0.1922470815644023,-0.0057993721233196,0.0302743721279841,-168.75996486732723,0.3288564005074717,10.355502726530188,0.0559169276965964,0.1727388444960291,-0.0765405306202772,0.0564970511680226,0.4236355604021098,0.6953555236199922,-350.7852390993403,15.481722815995116,8.885901958721895,0.1007441200952377,0.0093031089875446,0.1030771629228405,-0.0374555327355328,0.0741074793683372,0.155127741725359
0.34,-36.743997077248245,82.9593049018376,25.721701226782205,0.1032135373617203,0.1746190023372676,0.0092193064424882,0.1833775414635425,-0.2510432285862576,0.3782802216756892,-4.839277037821299,88.66226043931897,0.6851943331125164,-0.0043442894756911,0.0194858645793072,0.0969628121397921,0.3987121936020374,0.0287388532856078,0.0670326201320875,-168.65712751352586,0.0224754639715083,10.40067717381331,0.1800428012212085,0.0874549700045011,-0.0884925125594813,0.03698539300489,0.4049225376120342,0.6248917764470074,-350.9589016948244,15.485605839340902,8.684106008643147,-0.0830367134167275,0.1448114702567322,-0.0119438496502294,0.034397095740963,0.1262170391887859,0.4290591922237275
0.35,-36.59649673917307,82.99943098324042,25.8345038649152,-0.1105696325199239,-0.0511229658443086,0.0383733556582188,-0.0321903664593324,-0.0872399025255305,0.2415662686522593,-4.837060021547817,88.76182002992412,0.2008160644357538,0.0986180072364153,0.0241085299193368,-0.1019704029947518,0.4357959558833454,-0.0399194060939294,0.0828862287285719,-168.74276119765602,-0.0616478264394428,10.110137840603526,0.1234720373751616,0.0972914519448776,0.0671694559220369,-0.028213107468997,0.0716820273928476,0.2230194560131056,-351.0141038650871,15.39608830092362,8.891380367881442,-0.072048832970626,0.1997445746935298,0.2205925010238812,0.3208850745784761,0.3810457273003079,0.5948182264802129
0.36,-36.62892192067324,83.07170120579407,25.82276783626835,0.056492906532909,0.0041098894786605,-0.073153744005042,-0.0178980477922111,0.0086605560933102,0.1034088561620604,-4.968594887024505,88.42154589542021,0.5061357979512632,0.1637091174715481,-0.1487444515212128,0.0187126389253805,0.2873433031665388,-0.1141315721806679,0.0339827762323627,-168.6162192434521,0.0731031787829928,10.092052970475253,0.3060161044225561,0.1788823495242296,0.2225408431851838,0.1043546672235188,0.1194235367952578,0.3229015799771071,-350.9263824926791,15.24662053117177,8.837636993204088,-0.0028498915031823,0.0524196969273066,-0.0536668663052298,0.424609992795277,0.0321801171117594,0.3203417813639562
0.37,-36.72639994597851,83.04369062835934,25.90669514953704,0.0453083773994026,0.1554558645011823,0.0515581065112707,0.0340307346921185,0.027754901250284,0.2207718283466625,-4.647568769310519,88.7666265938128,0.4983751523175319,0.1193948110749252,-0.0434299339054343,-0.004110785551086,0.3450472711593165,0.2524557658001307,0.0477499922743627,-168.35297364228532,0.0564171298466472,9.689249315748752,0.3609889584723511,0.2084835304206934,0.2366367506267389,0.2214914368653332,0.4829503953429553,0.5236374450754673,-350.80407117499664,15.011631375374431,8.867062669602214,0.1896697392337098,0.1564221284885705,-0.0297330966069615,0.3577647467194878,0.3947499994393998,0.0460392913777763
0.38,-36.62049548912465,83.15122721215485,25.915578644685752,-0.1269156128612853,0.0574286784579196,0.0251574292799704,-0.0265914557904763,0.1311719829977,0.0405336055597403,-4.7790196818335415,88.74838584209782,0.3448355827998602,0.1209298931175455,-0.0756412141660604,0.0377208319217144,0.4501125718170489,-0.0470279793378193,0.0768457711055424,-168.03983606679355,0.3337307915628436,9.627648529744668,0.315817080151195,0.0463489199702433,0.0873950338380408,0.0203385948732846,0.6771449606312038,0.811585021788237,-351.0401595256808,14.916831324033838,8.835471654647417,0.0230039579909678,0.0558108702787898,0.0123155244399635,0.3832243203357627,0.1056302327872284,0.1981424807239134
0.39,-36.74212300204492,82.96483366281606,25.872456172231104,-0.0711380985321138,-0.1595025641731955,-0.0191524630038713,0.0658656006775009,-0.037341431478331,0.086958515284372,-4.798439175719419,88.59773787619649,0.6175251123294915,0.0934499502199588,-0.1520784958243359,0.0135938896587169,0.3962713377530885,-0.1392963270956611,-0.0249882675928216,-167.9222093658391,0.5685711745304028,9.18538826463597,0.1749412723774059,0.297668983601717,0.0546560604051249,0.1098527119849408,0.2642111003987785,0.377807245569502,-350.9322244628167,14.955472870624725,9.207640532154429,0.0093920597789712,0.0692808625184486,0.0435965768104948,0.353820606609193,0.2732210983475915,0.6929260412055722
0.4,-36.7117344769075,83.12511194375274,26.0423221750922,-0.0536466312200027,0.1577336628371016,0.1919836941846922,0.1303850341434903,0.0271552316394121,0.168213559873153,-4.770277397739038,88.76081695409844,0.6317029434744239,0.0233987089201186,0.0209421159434192,0.0937158927890064,0.0844163544169883,0.0812062017304824,0.014594493985636,-167.3503210143107,0.6172124471258392,9.02093121009548,0.1338099683600306,0.1890295588773212,0.2158103239285634,0.5572748745857902,0.0801217030536742,-0.0364628520904836,-350.64047632921427,14.959679902748572,9.00439690950363,0.1592039127503819,0.301662976602864,-0.0032095979724795,0.3732966361022515,0.2677189035510586,0.800545115310582
0.41,-36.63173885028742,82.86338465118706,26.02750924894405,0.0819779933707164,0.1863964245375412,-0.019365986540637,-0.0208335395614075,0.1691977589078383,0.3816428428684037,-4.843485557860412,88.57691132166232,0.4395803369138412,0.0768319752741636,-0.1916915878860058,0.0081946923146314,0.2470423323141631,0.196486516340999,0.1549628576719157,-167.52851594622726,0.9411642813567804,8.848806102719204,0.2152349868778004,0.147137062807914,0.1858411294981892,0.3316411251361835,0.183259487334799,-0.155970779424707,-350.65920216993504,14.575788048678898,9.097854289234345,0.1746893219862836,0.3448212669842621,-0.0258351967657985,0.4382423310819505,0.4555654567815256,0.4447500509636397
0.42,-36.86113931369678,83.11477738085262,25.90485881029323,0.0518001429385641,-0.0584619367759453,0.0551568876378083,-0.021336365126766,0.0556956442349961,0.1175568460726335,-4.739867418795008,88.72711145568842,0.2318534030298777,-0.1732324090977219,0.1142516361860771,0.0829156446990305,0.1791654116936017,0.1339434014980567,0.1193367524936123,-167.27060827614983,1.1768601977645443,8.54744641888984,1.3817754853984177e-05,0.3439951512174816,0.0543581855245075,0.2219365768894752,0.2876118323334317,0.2912096171421548,-350.3057887079559,14.413580791475466,9.316569539491253,0.248172702555849,0.3263699620376947,0.1047040884544251,0.5289254844286334,0.2636381575182397,0.114086448818474
0.43,-36.79198299404687,83.14016543194977,26.00833676954438,-0.1151764530818312,-0.2369555449946871,0.169902793601842,-0.1021687772645151,0.1253754310333021,0.3086178122260902,-4.819876668038597,88.50451634104166,0.2948505507992173,0.0218229343718766,0.1927391931058684,-0.0796440534376469,0.2225273567695006,0.1079577782455165,0.1244861062966328,-167.30205480826086,1.0787165595381794,8.532541737939383,-0.0436254482351638,0.2770828795332263,0.1747449285381611,0.0365699933169179,0.4342527191515351,0.4933379012663006,-350.2813718279063,14.39376847306408,9.357947855034434,7.670827663215467e-05,0.2828515267579904,0.0328669621794903,0.323192581340894,0.0127614873778847,-0.0310842849170949
0.44,-36.696248718922725,82.95823912266731,25.904122844436543,-0.0790665355792877,0.013651293478514,-0.1607407400506197,0.0390308344166337,0.3073380712133701,0.0215713622212178,-4.875468575536441,88.55851422372015,0.4199118662027769,-0.0318333639503061,0.1487518173878098,0.0694001053618877,0.1682515052416658,0.2157422913068807,0.1268894237628196,-167.0758192520395,1.5088676055690502,8.585760783778374,0.0334269915268987,0.2544832896532519,0.1704629836359327,0.3382334332140654,0.2241295828646972,0.6981534798625486,-350.14162779121574,14.26421542711201,9.05574712867484,-0.0062221957596757,0.0985823748937024,0.3953279110725182,0.1815914899014959,0.2872719455203182,0.3024972723085533
0.45,-36.79387055298765,83.08298962704971,26.00412053129916,-0.0201033235906338,-0.0050817605560278,-0.2140384767316398,-0.0736356600760285,0.0992131468928095,0.0697533678091928,-4.966840712044763,88.4021072966713,0.4345392881988675,0.1144764589321484,-0.0673706971495858,0.1433569143211087,0.1694728374338974,0.1663547233953901,0.051381020302207,-167.08154024881568,1.7843595414987508,8.290135837739177,-0.0475747124345091,0.1835066338526848,0.0722398493113209,0.2020603023614759,0.2417784781202162,0.3351473107775202,-349.97503928056545,13.758452927194018,9.108226038223131,0.1131339241781285,0.1322322838923759,0.201803209740114,0.3259860886415366,0.611193120142692,0.7825881228542644
0.46,-36.82097757402067,83.12234261499675,26.13900202636708,-0.0251056644026096,0.041036168643691,0.0225548731279876,0.1101151280411559,0.0052685683632147,0.0918945709419853,-4.832775916879744,88.61413937704891,0.5661036060779592,0.1403669657771282,0.0285108415797159,0.0246158902967917,0.3416946723807537,0.3552709995894487,0.0750489752352432,-166.9575616293207,1.8762745429744163,8.42443395905022,0.0154623493894881,0.262067447273181,0.2773776599800519,0.3809074128647239,0.3963635650393924,0.6553292261300945,-349.91364971710675,13.678252319885532,9.167093688106869,0.0046721554937888,0.3159526349853712,0.0488121065567433,0.376936208936025,0.6865863139716071,0.4881043264998489
0.47,-36.90787224567061,83.01723215453688,26.13031947648086,0.031380380876852,-0.0564641811625832,0.0422928545915839,0.0987730708835925,0.0534801498193885,0.176481898119345,-4.791950810475399,88.64079069200076,0.4768099648636268,-0.0529513080917033,0.0584658736225636,-0.0719738246055077,0.3756067846918715,-0.0747621169265614,0.0724634468173125,-166.49021386556805,2.2585857553338182,8.42326253645575,0.0962064736463496,0.284687033482932,0.3171077275552015,1.0133740157297886,0.5996935658247561,0.9142966258566874,-350.06083094391283,13.533344209014246,9.040694746136632,0.1632235164283123,0.3038041860271465,0.0948633568888484,0.6584892419378845,0.6674115191772092,0.0554843939958806
0.48,-36.84803402907208,83.05245708807279,25.890858422975292,-0.0335568290677511,0.1892111408755258,-0.1269010789119257,0.1571453409231584,0.0029359880999569,0.230931707165209,-4.757400145325993,88.47780117359954,0.4031126772086092,0.0704967251715758,0.1199377471547721,0.0436560510372275,0.4600560838284784,0.0011852231320904,0.1521314966631395,-166.6201246019047,2.3683801656990457,8.281296337756219,-0.0671057631700851,0.1496146927546042,-0.0025240432917198,0.4013342191521621,0.605060415748322,0.5489203467772868,-349.8913090654163,13.637549384738222,8.95611700815764,0.0041897114868531,0.3528770583665711,0.0759894757711679,0.2214680912533621,0.5378399629054516,0.6818083003344545
0.49,-36.73231511592683,82.94576740374525,25.90968929458578,0.1627672145711282,0.1446268845024509,0.0317150381854334,0.0601004146196152,0.0467486699449411,0.202321574093749,-4.686558332684276,88.67627907650015,0.4619673533182368,-0.0112998128064941,0.0247155335092911,0.0149920773514035,0.3461690878157042,0.0313015453410245,0.2091055572752752,-166.4090298192736,2.5621800386283238,8.3833254170756,-0.0123326563057771,0.3611471929605426,0.2509152077789098,0.2834983695897746,0.7676163809840495,0.1486205182983907,-349.89001071838584,13.090446167524288,8.955265471655226,0.134888484158545,0.3583277644500179,0.0147262543334537,-0.0504565338861322,0.0290064765042633,1.4121774639669518
0.5,-36.91740392053133,82.84952696990531,25.71406248649984,-0.0208106174308364,0.3127699789395436,-0.1083419001245365,-0.035534752693691,0.0196863166873701,0.0544757054628416,-5.153584200152129,88.51804118688416,0.311192042870012,-0.0715424773025181,0.1167278596642742,0.0488038470483499,0.3181584678716778,0.0116817918454229,0.3634844808504778,-166.30205457385227,2.7093532621034213,8.429995300158085,-0.0815595312579757,0.1133339198216868,0.1250919981006855,0.2790492783305196,1.1040170565201706,0.2175629812549943,-349.9063835555755,12.948481053984942,8.739412720023838,-0.0305091978102688,0.3453875781113307,0.1391494292332066,0.5301207022708033,0.9138860308802912,0.1970388805645418
0.51,-36.79670834673661,83.05027769906829,25.86668104105977,0.0149809140642028,0.0457412576880553,0.0537031869023145,0.0258928279631187,0.0914434646254425,0.2275709497626062,-4.737179477526426,88.54837101882566,0.3204592503305843,-0.122690784716385,-0.0774429933283883,0.1017336475893308,0.3525601458612633,0.2640137228947685,0.1945773130912706,-166.160413197843,2.948431585077521,8.368020626485027,0.1774323151245641,0.2155284708698853,0.0392831462194668,0.1452036210208431,0.6025306831042435,0.6232584119808838,-350.1819076399185,12.59531037780252,8.797313865801408,-0.0100222408982219,0.1078857601892347,0.1474200230208706,0.7764455219460901,0.9765361857659418,0.1264908210021766
0.52,-36.86832688444069,83.07219155432783,25.896496224351253,0.1286685738813262,-0.020762476557188,0.1220916970621406,0.0927341883743275,0.004791930128136,0.082669720403762,-4.867043633683667,88.43453308461349,0.3096045061447241,0.097226682809674,0.2271794029091762,0.1542733765936382,0.2576573603079795,-0.0277242762011736,-0.1647047809238514,-166.27702617663564,2.8318730411455504,8.328245511115547,0.1940538731206595,0.0024196067007937,0.0021742606206626,0.1853648368293715,0.5439436006059012,1.041977605346195,-350.32165213292313,12.491837492705889,8.90170873303861,0.0937299137118795,0.1443120452405441,0.0400608144118112,0.5238864070309761,0.5904006302848303,0.7349558648185932
0.53,-36.86818179454001,82.88213234573382,25.874199360549756,0.0007914766279255,-0.1054876732116131,0.0792521597744881,0.0110994193247449,0.0004526026534542,0.1053390762803834,-4.843973080918846,88.7324349422055,0.2938973898588096,-0.0142150292537453,0.1378387630730397,0.0232511106817515,0.4473849565933108,0.0036903358151109,0.0421770285477669,-165.99349365083512,3.002693105106851,8.260678967181137,-0.0613613673236067,-0.0584226062336293,0.2864465845350388,0.7574775543770972,0.7892893853553111,1.2581566989100597,-350.1894379230004,12.507079192399967,8.725370586467223,0.1145904718816413,0.1464538347771248,0.2869764757289774,0.6486418998375109,0.0805252171795086,1.830752269605388
0.54,-36.71229982819282,82.88635317504392,25.73523336555524,0.0433290987395582,0.0752613542858944,0.2117490716133534,-0.0308237347199583,0.0240203916089586,0.1312594614921853,-4.709202537267049,88.40252226849,0.3318382618573422,-0.0133851679965905,0.0587509938011735,0.1298028159162614,0.0836981798315823,-0.0084759351680601,-0.085250436648827,-165.53216494013373,3.3373228195727256,8.035065994229377,-0.0598612788197807,0.2640259715518895,0.4890793626888222,0.3788125574354477,0.8949216100720134,0.7401373008725559,-349.85353123433475,12.449473019321802,9.06832001303266,0.0519011856127823,-0.0756838402816499,0.4568097744971363,0.3340577129796066,0.3465185053753029,1.1576552669689388
0.55,-36.91683194323549,82.91959038140126,25.80610441136692,0.0467734492570264,-0.0334529374359289,-0.1577454484685715,-0.1098638520196347,0.0951523517129852,-0.0311445591315808,-4.913220343825771,88.689691436536,0.4492565045029079,0.0496445671404921,-0.0311836571857932,0.1007248681337029,0.1717886940461489,0.1059151705439254,0.3510542559866793,-164.6984458263667,3.2042160085570184,8.09163077509289,0.1090278006427596,0.0711754420284764,0.9927683664604962,0.1150967137118379,0.7194482685953034,0.1169924220165143,-348.7936504718488,12.288289570200032,8.793054075815288,0.0297023385434354,0.2338791073638627,0.537540697039037,0.3367454476734772,0.8431255425392433,0.9393821506395632
0.56,-37.12917108964316,83.09938168496069,25.847071990672067,0.0269092755180657,0.0026504875672988,-0.1058355189448571,-0.0186555822149803,-0.0448193449755328,0.1486114418813792,-4.8238547316387015,88.62991607964213,0.2536454501343557,-0.0487180525339452,-0.0785239258853185,0.0060323322811491,0.2347415947951137,0.1364042231365681,0.1215169175920337,-164.05357799159185,3.3938029213559133,7.743480663426402,0.3442257331061681,0.1696388207551785,0.5319953925925082,-0.1044241257801489,1.2365258280344245,0.4361265018714055,-348.2439971879539,12.34670635837564,8.693122004758923,0.2690620870059164,0.079318211583144,0.8145633931986406,0.5175679125822762,1.4748103575343907,0.7910512460922924
0.57,-37.04509574892903,82.97885296591367,25.677138030228093,0.0080294007730278,-0.0071624383427339,0.036556603452918,0.1387748729566452,0.0575922997916877,0.0247367742918518,-4.680958064812633,88.69501740242511,0.5502617395812623,0.1091154292678419,0.0171294330404894,-0.0462821872736871,0.3114527964045058,-0.0321014178955906,0.0659608063207889,-163.7488479185144,3.2444566862265867,7.432685714999184,0.2229726617492881,0.2375719220467131,0.1459513827282524,-0.0893668185740852,1.3682348975642196,0.458701504458246,-347.57642335815314,12.291956224315635,8.606466676685455,0.1362057317109363,-0.0087159599085115,0.2723773010453318,0.2801962049349878,1.4845541807018576,0.179587849699006
0.58,-36.9999383476032,82.94897788239291,25.65770637255626,0.0248315650075186,-0.0288015633840769,-0.0825890027991497,-0.0027700336512124,0.1110404517109414,0.0443585886223754,-4.753295013425647,88.5818267616781,0.4535179975118489,0.0462127305942048,0.1066279792664177,0.1533637968443412,0.3237404757212728,0.049280214467371,-0.0362347999696489,-163.61219052730775,3.4461061913891613,7.148760998833087,0.1421879914468656,-0.0276113825498862,0.288551859164665,0.1626148273720359,0.9915627324803692,-0.1014105400222429,-347.1563405820835,12.117978188873426,8.081754631013661,0.2637134202214067,-0.0119794533115863,-0.0390192398468905,0.2165464147377865,0.9474121655874804,0.4578309029257534
0.59,-36.92054252795742,82.91911757001475,25.67583116869506,0.1669751504934939,0.4227547451808113,-0.0446832879515977,0.1497212173977582,-0.0504758128840366,-0.0057208939395733,-4.814257507258259,88.34654190162618,0.4613457873759471,-0.0022538156837847,-0.0625724523668568,-0.0858633704709274,0.2931353935717262,0.0367071698609049,0.0700030450106715,-164.4458877833306,3.45446195960036,7.047414703692406,0.3001319571437179,0.0790072866605789,0.5093110282707818,0.3132761298512249,-0.0968333391259736,0.537430077145357,-347.19441184905565,12.12056742224593,8.038989944163927,0.0027069212088903,0.1122883608347683,0.1656752381347062,0.1631483689418774,0.3791886918201235,0.1931363588397172
0.6,-37.1196581436965,82.84991696003353,25.343922389567613,-0.1026740611769625,0.0718917481691641,0.0317404087990131,-0.0303175467803475,-0.0851180446415551,0.119126547066271,-4.878731031765923,88.62016185422274,0.4869171441199837,0.1525963590322774,-0.040560511368112,-0.0186033905224008,0.2826002982376721,0.0347548794272893,-0.0529240671987492,-164.9680677505295,3.358677060198671,6.761123593281758,0.2510641629866058,0.1346795558814378,0.6592172940420049,0.3115007608465101,0.1545346783523652,0.1287053272074332,-347.32335758316736,11.763910681413291,8.092204087025978,0.0696582655817066,0.0583793113127055,-0.0177948543342882,0.274886128389095,0.2170951020667043,0.7981272302587563
0.61,-36.92291150029814,82.9414025743436,25.25067291472317,0.0388883482308624,0.0657407555524985,-0.0689808392094139,0.0599395871901656,0.1307113381668673,0.0520907047143209,-4.608005695537033,88.62264193321538,0.4418524562070536,0.0836609038802084,-0.0033422981647299,0.0070439055655127,0.2046478038300221,-0.014487742476736,0.1617101576728835,-165.52959055608096,3.498181243360172,6.230824315616271,0.1984767627807468,0.1356686254091291,0.6139962863661655,0.0829025397204871,0.4727483021625926,0.5200705483889678,-347.398210526834,12.00413499579702,8.102826784043948,0.2415939506478156,-0.1991639994533234,-0.0777768931489454,0.3619337052774806,0.5230906506763845,0.1485493003329371
0.62,-36.925816504100105,82.76344281315684,25.01556707699181,0.0333468765542429,0.0049397684165701,0.0224164376750689,0.0775332387624682,0.0933306879645537,0.0798140798071208,-4.700665542624534,88.35135794075592,0.3543931097419596,0.091754626725509,-0.1847473117293794,0.0887652384859379,0.3196964799794139,0.0859388582804873,-0.0473229980537859,-165.98284731676324,3.512795982767541,6.07524612985998,0.1548574363393265,0.0708460287209455,0.6217171127255099,0.3737753260861202,0.4352971432976245,0.3576628395317361,-347.4562201278956,11.777494486758671,7.867389171265521,0.1429755821824871,-0.0928121991349107,0.0245550380869458,0.2708149125846029,-0.0059288514024099,-0.1332507023739264
0.63,-37.0302746300949,82.70902033292603,24.84733194701941,-0.1246049703934975,-0.1184043496533378,0.0038712249343002,-0.2792776732636801,-0.1280573814050489,0.0803958931424517,-4.749956425534441,88.44893965768922,0.409607009209957,0.0438502722255335,-0.0957932306007385,-0.0530419801841117,0.3083025934964298,0.1203075845653042,-0.0154651128293477,-166.08581071058433,3.581136104631164,5.911168159523466,0.1625578142998127,-0.0582837805243166,0.5019352613300114,0.6855564653731051,0.2403330679692649,0.5279727039716415,-347.5091946631344,11.879403813117142,7.976497233223599,-0.0702129471703361,0.1245699107127482,-0.0954705223553831,0.1659578410693529,0.481891809140394,0.1238462984489202
0.64,-36.89381563589012,82.87680761291489,24.664502456460767,0.0607486902166054,0.0271896502286331,-0.1950001166357953,0.1263349627595367,0.05782545432373,0.0914208783061161,-4.778871523403362,88.50800328985954,0.405935249489571,-0.1374731444399958,0.2516050158214096,-0.0478351874780413,0.4128655123367563,0.2384004513528306,-0.0750919258310261,-166.26294422438417,3.611719369270373,5.863575063410513,0.2201318391999761,-0.1034211633435968,0.2316168720754374,0.6531011221108738,0.4626884117934524,0.5691276732370579,-347.4885278565425,11.548504569051854,7.712829021625936,0.0558922224957292,0.0932375144368789,-0.0191086610821936,0.2856239199054083,0.5353988952083439,0.2680449710830713
0.65,-37.04072404063589,82.80813755056843,24.520034539705577,0.0021394639461183,0.2239737519470984,0.0183691164290632,0.0588791054028347,0.1307520287615085,-0.0878396296613449,-4.975018638054324,88.55926199759831,0.3207305758515161,0.0572098519712004,-0.0125176911992399,-0.0660658470711168,0.4816972059650745,-0.0850095580229563,-0.0833692414604714,-166.40447844121786,3.3269196163695463,5.699064488587309,0.0846131338846836,-0.0040294895646937,0.0286186481555745,0.801251588992568,0.9692946757430032,0.3351390432830907,-347.35074031941207,11.558214221105596,7.563585569866709,0.1664977873923587,0.103579462155255,-0.0817684712976394,0.1627567915775416,0.4470717402460281,0.4513324326328327
0.66,-36.90269258139065,82.93770137491894,24.554882982003548,0.0797082771090141,0.0120480326172009,0.0634939869880255,0.1757775125343911,0.1905637715923523,0.0408538939998977,-4.692354456090115,88.41176592086602,0.5518704276519689,0.09137023349917,0.0204541683175115,0.0856399498413653,0.394175946070738,0.1019205558311367,0.2472412734554587,-165.9920089830103,3.6310342060834375,5.559646429808037,-0.0117630977690817,-0.0257401129217027,0.4513276219075104,0.7252856636474336,0.8056805728787617,0.4357592309758052,-347.3230797995405,11.388351389354414,7.599661247277206,-0.0225031251937034,0.1278661794416748,0.1621055613550306,-0.0082345214662925,0.2006557268828969,1.2251640122088194
0.67,-36.70015519863319,82.80793250952337,24.429132060744603,0.0469397584696295,-0.0688677297365943,-0.0180575741078942,0.0463347881626823,0.1265901012374836,-0.0726090702356858,-4.776729261417629,88.16361081703968,0.4009848104761171,0.0740545773411933,0.2372536362257142,-0.0496989552450158,0.2829832196714602,-0.071928865211059,0.0602500341556636,-165.26733341005868,3.635448629987857,5.2796974536920525,0.3385736757687688,0.0250263960818683,0.5141585015885985,0.0619880747260873,0.1294120576017911,0.4298152948796863,-347.08788250533195,11.351996145879768,7.379901223019026,0.0381130786326044,0.1110292649926389,0.3777945355097568,0.5045545175477295,0.233853547636457,0.5555675795545438
0.68,-36.68082061734844,82.83676385214504,24.337187124231463,-0.02831720008859,0.1473557953603856,0.0380013217595465,0.1530495586415209,0.0458899530748007,0.0005826574372748,-4.841974339469986,88.0891755239023,0.3479542179609535,0.0179260010159002,0.1894590979886864,-0.0571842528882611,0.2455977154130247,0.1311033449233962,0.1951823713845352,-164.50540863984813,3.8862603081582967,5.11316096197316,0.3013431961104673,0.311950129524669,0.734163308308206,0.1742837122462716,0.6956288493195791,0.6274641301036717,-346.5755038806354,11.32193312207504,7.257621968877108,0.0622051060584644,-0.0747170737579769,0.44242593505801,0.0770433912486227,0.2583190942859632,0.6363825092552835
0.69,-36.54059307058206,82.98040693377524,24.441802828856424,-0.0717337211121615,-0.0703699631710717,0.2205725517128185,0.336841953486308,0.1852104650321055,-0.117716649635754,-4.985846437635625,87.9999600992612,0.4360008776828584,-0.0593155651262928,0.1620257553445305,-0.0109576111339235,0.3357266473723717,0.0187550314855916,0.1387803954998628,-164.1109347150272,4.011160920638422,4.896059468863233,0.0997411677499834,0.2242750840156607,0.3815594972836454,0.0299245211468023,0.611171597675664,0.0639749018891563,-345.55625655681297,11.305775156186074,6.85372776323822,0.002586200051802,-0.0487836947474668,0.7306982181341747,0.5177432589437385,0.4083902238433909,0.6299668552236359
0.7,-36.605788021000286,82.8371501283898,24.45554992740523,-0.1417287090599688,0.1030456951185214,-0.0569934307375476,0.137307256768546,0.3237874617759107,-0.0840365145602288,-4.7826799517466485,87.81344231113233,0.4542828250368627,0.1600787516424597,0.1581412882925381,0.0020570796785912,0.2799559473579463,0.0854556055096405,-0.1445240498961343,-163.76048115300657,3.723616707572421,4.800312395722785,0.0758182833313694,0.0698621776929549,0.3113778096135059,0.3964280107805164,0.2931638391486547,0.5220360489365312,-344.3987308961919,11.525670968401984,6.564242691285926,0.0290492307555289,0.1265563466559852,0.9220489442481687,0.4122756711947675,0.0117885595212364,0.3745172830950188
0.71,-36.67349002865987,83.08072527990674,24.4735794468857,0.0304048286744478,-0.0837353694924405,-0.1101665986382961,-0.0056908713058303,0.2394402138294572,-0.0836591474584557,-4.99460645161674,87.70793370915437,0.671965153992346,-0.0471154085899698,0.1613036079875566,-0.1776830365401882,0.5980784551661931,0.1509388542069256,0.3113890443826588,-163.34455185003617,3.9260339955319377,4.602641281898962,-0.0149461251827067,-0.0151105386958233,0.4105766499710361,0.2582132075013124,0.7302654874705048,1.0193134946011662,-343.20974338162875,11.38771931717691,6.300210650622157,0.0984819699532637,0.2113688387179571,1.4176918506740492,0.366197978371765,0.4418695396071748,0.6528480345720271
0.72,-36.61065364872972,83.2753394006678,24.424933356081382,0.0013698257289736,0.1684989249344595,0.0532044729952742,0.1439699473320607,0.2963193788928677,0.1165269352809506,-5.160863842760977,87.34748621202839,0.3708750925979961,-0.0280249827088965,0.2925291568978932,0.1363414845444956,0.3361042748666153,-0.129181495714171,0.1916689226582778,-162.88420852372312,3.834455873653844,4.888880782568337,-0.076241375009301,0.1466792132439976,0.0294321655043992,0.4991008222985846,0.6271486601423516,0.5904172464454134,-342.07859358053094,11.382687077360291,6.043960327707455,-0.0090075915359423,0.1177804251618949,0.7881714438080604,0.2503874635047155,0.52441287495912,1.0099358851205116
0.73,-36.635853654470495,83.28517306694131,24.57856160152142,0.1203916086340611,0.1419807990489756,-0.0180184646316259,0.0261797552548494,0.1645410296366714,0.1578512849495482,-5.164869899411278,87.24861102823294,0.514433371444038,-0.0712378686448886,0.1861341525050685,-0.0740498008720791,0.1798933774076935,-0.1256360979558159,0.2470146244137713,-162.86289119344477,4.161880425722582,4.628085392124372,-0.0124785583757133,0.134880706096198,0.2209045748506319,0.2991299649455057,0.5384315064344247,0.6404663344170347,-341.2274904482174,11.52572484597598,5.973583774713361,-0.1002499771163549,0.009281152026014,0.6115004189396496,0.3875428239835816,0.7761212356998254,0.4545637698729472
0.74,-36.78682142109313,83.34849513420876,24.45736612231651,0.0098161567754527,0.1286238043286503,0.1267613781862707,0.0482354976067363,0.1110919304506631,0.2609245126033011,-5.295639439132076,87.08611850026948,0.6457945632867244,-0.0922859027574735,0.2842410005429013,-0.1361545611771769,0.3333818238341043,0.1031636218209155,0.2950926868533672,-163.11650461364724,4.214499359787948,4.635815636429133,0.0753888678861196,-0.0111500714587585,0.3674541864635215,0.070445857747643,0.6575697839829254,0.2847944859559309,-341.09597672431687,11.270075011541712,6.086047198444862,0.1421872349503979,0.1994060670961113,0.3605880469148821,0.4448720277699368,0.6620725267189371,0.392391620688995
0.75,-36.64633125885232,83.15756508414336,24.461575821461395,0.2307676448205315,-0.1735579027236689,-0.0342773590507645,-0.0992411519571218,0.2710748348285969,0.1485596305451595,-5.269316514570926,86.86073121326461,0.4172126480663162,0.1523862790166181,0.3653945046741963,-0.105323156304932,0.0424179995314347,-0.0831988955677061,0.0796728499677187,-163.59407187982063,4.119263945861209,4.570717322444213,-0.1001286205885143,0.1062121993385059,0.5351194074493504,0.3000425859326812,0.2783094252187803,0.4737408088324393,-340.8850871384614,11.230893455060915,5.865559099898131,-0.0555716137361795,0.167795737823036,0.2571175716223935,-0.0271111879170812,0.4201868701111628,0.3700293995052004
0.76,-36.76157067675003,83.15086909182773,24.5137730773514,-0.2006680583105109,0.1544284387967218,-0.0146168002359958,-0.1232291593656729,-0.0290423254776527,0.0266446867497837,-5.578548374429669,86.5724106256619,0.3928562363745719,0.196494825429976,0.2799506447229834,-0.0090772982619699,0.268630156583498,-0.0964480750152186,0.023582006405894,-164.1716139310661,4.110992682241717,4.58150065617312,-0.0340040499102539,0.1715184545222839,0.5516051478322499,0.5014016513329097,0.1350756974930909,0.2312249153961352,-340.51523281167084,11.245012029781126,5.855872741963043,0.1097675454255827,0.288213938656202,0.1481604357940164,0.0753448644002403,0.190494000609017,0.4438248200813602
0.77,-36.98531276288318,83.29612971991705,24.45415472847716,0.0347992576515871,0.084815581094655,0.158394576416118,0.0062717687943378,0.0500157194004877,-0.0719223272970666,-5.465395081479804,86.2715961634271,0.462627748180835,0.0963791642987289,0.3754249263537856,0.0339776235456858,0.6282588062369413,0.2677143752846264,-0.0055841796991288,-164.7545042084681,4.139224487217243,4.781598600961528,0.2187428194784934,0.0023043005343348,0.5161968448261323,0.6811321772155126,0.2797727933127615,0.1657401466144137,-340.0917053591688,10.70575726265405,6.06200234093537,0.1137617061580103,0.1462329445952596,0.1668372257644521,0.1664319430256843,0.1213748466498461,0.2031266508247686
0.78,-37.02844675221803,83.17906519415483,24.730609335408737,-0.0224034058326738,-0.0325109700135408,-0.0286086609588338,0.4192824106207055,0.0729258985343081,0.3670156448896318,-5.472093849267016,86.05157925689763,0.3915759727941449,-0.1042491455551608,0.2243670292949788,0.0392664928912773,1.0144882761579863,0.0374813711469112,0.3569248062659094,-165.14608982367227,4.15197376417821,4.929955930029406,-0.0060180641410712,-0.0336985434846358,0.0603164729365511,0.5934743141156031,0.1560223225718683,0.001605866475894,-340.0233551296822,10.28423841454015,6.542881985072098,0.2117644600711075,0.1939430429948856,0.2779082383003074,0.3726375832065079,-0.0761046237650271,0.0726009544836451
0.79,-37.19393820751932,83.14213954176344,24.726384404494507,0.0672984638302152,0.14017088606645,0.0612519873413385,0.3298756586890439,0.1573452847589228,0.3822939218672522,-5.487223576347655,85.46189284304788,0.4898605621289742,0.1916295325511711,0.4103873322870038,0.0642443156961903,0.9883940235053358,0.067686708213814,0.3629941194212913,-165.38343606200198,4.101561074120118,5.017036642930068,0.094227090440863,0.0145356018832879,0.1426196193914007,0.363646780023603,0.1411928327384043,0.0026037614041607,-339.792787880267,10.051080202421522,6.628078026635637,0.166953470539837,0.2285608558302839,0.0916499056970385,0.2638868451658535,0.5086309785075052,0.5195845525499171
0.8,-37.229394831748486,83.25020975151381,24.760948872106148,-0.0118431065308591,0.2347187270551352,0.0063659915124456,0.3668866856508238,0.1483766534444877,0.4272063107202058,-5.896904700395416,85.5111050122743,0.5329533114744368,0.0303591469290342,0.5481778576961539,0.0236389978726001,1.2023914409187348,0.0380059898462304,0.2571965250911679,-165.29025544267668,4.1685563077117935,4.839821728196541,0.022032755337561,0.1152125325280517,-0.0085759466986028,-0.0911917823327597,0.5831451705148424,0.1669307031305573,-339.5977273547939,10.062647077351285,6.867111345825047,0.0106081922647346,0.0923175290201843,0.1983095026344165,0.5874921797252104,0.2890200280247769,0.1523382347825608
0.81,-37.37274615073522,83.25900592062547,24.879095685888277,0.1654752528526915,0.1042323931355273,0.0416074396418301,0.4811329136284351,0.0379819314584483,0.4741082935730035,-5.88071549024516,84.92584670393265,0.4516795668153949,0.1622297234011543,0.5650457909193802,0.056021032204354,1.1299037080274117,0.087430268890824,0.2250867493554836,-165.28246179648224,4.182193645560378,4.958439872332489,-0.201836971923613,-0.040702902889228,0.0007245259065962,0.1030646223221568,0.6677733890696846,-0.0205189203718222,-339.9621779122129,10.022773813392012,6.814485030593443,0.1746895377805977,0.2048604545003569,0.1198293378153315,0.4554829656886836,0.0917270147511611,0.0471659988555607
0.82,-37.50840076059275,83.43241857008528,24.82561503412026,0.1480654017103891,0.2842440272748076,0.0272248415006757,0.158145722676955,0.1181891648283304,0.6444968650385892,-5.831805405095063,84.36346873478537,0.567471815897109,0.2232558423013068,0.48400109278662,0.0541725899870316,1.0261340786678086,0.2245193057683196,0.0029513921979916,-165.192111698755,4.038398971878211,4.930414951912164,0.0414572380729863,-0.0046579112192246,0.2508702891118202,0.1920312670881172,1.3056499212675543,0.1376942255053967,-339.92440505646886,9.642276479724233,6.89140058894505,0.1725051271819365,0.0768957340632089,-0.0408503474772631,0.2305540557849479,0.049188290495506,0.1882497059792691
0.83,-37.69913284328686,83.78977568861583,25.057595844934564,0.0355298345452462,0.3527213856525617,0.1127084873520226,0.375821335536479,0.2853130995461666,0.5167595107560602,-6.021687299121436,83.77888233816535,0.4184738649517037,0.0024835411200564,0.6100836338068311,-0.0142737674697237,1.1315966427636202,-0.0115232860370756,0.3243096481820278,-164.75186834421493,4.405306160784956,4.862380501977073,0.1941990291014797,0.1835283452173189,0.138455118832496,0.3979643441419795,1.9959434671478211,0.8900882674478564,-340.0057681599374,9.533072407517482,7.037832755778079,0.404973730782562,-0.1963364661716985,0.0318788525043504,-0.0249490323921983,0.4957588079724693,0.8134700519142051
0.84,-37.86392161406214,83.68034091583387,25.08586733278893,0.12161896026707,0.1265024887654205,0.048288528966694,0.4441109577027546,0.0852078459044927,0.4225304814034992,-6.097037719494602,82.97720554187907,0.4434041033651482,0.2053048065095069,0.6296425239859704,0.1216918946840647,1.2377648887140744,0.1187832138607677,-0.0303789723127538,-164.82876263685176,4.426386090039815,4.478272699593838,0.3834073236570002,0.2010403652570086,0.4904488395687194,0.2860457863592989,1.3040434147573967,0.9175367365835756,-339.9150268857165,9.735808817504225,7.501827206177504,0.3494407590367644,0.3698931624887304,-0.0334174515540899,-0.1032373857407478,0.8146113858630416,1.0054538991418855
0.85,-38.338560092396975,84.06079999340183,25.35577294343449,0.1687030780975465,0.4593963432511073,0.200693107654466,0.7886368999325747,0.1783386346012807,0.662694322440294,-6.563640463921391,81.85343437901554,1.850543144729568,0.2541968108844571,0.969645393608588,0.0085263826672603,1.430036973451726,0.2227663141428693,0.0068384784312352,-164.96736033381427,4.235200906950975,4.3848195507341785,0.3680463583602261,0.1146127240836372,0.486532052202006,0.0492194469288867,0.5818717478335951,0.9466100329518622,-339.8007599256969,9.918645647842323,7.603933116500519,0.2568364460243616,0.0878570320703487,0.1999659417042865,0.3187824863275894,0.7162939531980229,1.101771872781283
0.86,-38.84788820343878,84.29080468213446,25.360379685553937,0.0474426384961519,0.4017490326648057,0.0891424730938956,0.8409943765578518,0.0823416980528021,0.4276331052145939,-6.746941785298384,80.8611183359387,2.937661748659604,0.2102450847361267,1.138870044786676,-0.115348801207101,1.3893957397052237,0.1251519450685292,0.0880350868813668,-165.5915130721117,4.214227155747567,4.057951908190203,0.3064609226014229,0.1441437849931772,0.4941008180323659,0.7444419521271703,0.6478028507202122,0.6520425268967297,-339.7232714053657,10.138848988729546,8.55293940085526,0.3587608392437976,0.3190179802796102,0.3713528013995192,0.0462020712515804,1.10341721703661,1.3316875816177645
0.87,-39.07934985787711,84.36732717579851,25.566438565623702,0.2586601903847801,0.4989512086152086,0.0757020288643785,1.1507696309244044,0.2968389194880221,0.3322228613410072,-6.922100046176228,79.50717644721313,3.60978719010162,0.2505738326399153,0.7735138448350595,-0.02876393510642,1.425637597986258,0.0333786209046668,0.2260189827851824,-166.4386206687048,4.10717048570265,3.8616660316782863,-0.0121258117829345,0.1038608874459302,0.9127510404475314,0.6476182049062754,0.4188798994090249,0.8671535308034362,-339.8676764008487,10.666856567258977,8.925487204572432,0.4215152499934828,0.3546675266817911,0.6032058121748514,0.0925789604033086,1.0811644180980131,1.3860200947897892
0.88,-39.31187853404028,84.4871643219024,25.71058840317116,0.1402315995611306,0.722882317473878,0.0235404938210127,1.1230056957088237,0.2659805490256752,0.4504597228491539,-7.150888424384571,78.61100862516048,4.166409951166595,0.1698876819633576,1.1036393325889788,0.1940313182614106,1.2379293607299873,0.0142305950489127,0.190220212963218,-167.54173022711132,3.832082023859749,3.9447118639852334,-0.020096445402957,0.2993276615133403,0.7625422731250087,0.6664719894903058,0.0629169713118523,1.393426410884901,-340.51376928403835,10.789751963809112,9.800350821886209,0.5590171952493362,0.63301452209145,0.7044100680676175,0.6976287185633666,1.2723126904661035,0.7210244696109525
0.89,-39.53878523971585,84.99691949724094,25.87572223913606,0.1188679716840459,0.6933286748155623,0.0398815656573035,0.5857538808674643,0.0604930485239066,0.1286012382682466,-7.40838461912917,77.29417550785288,4.530344856578258,0.2288198711079225,1.082767374002671,-0.0290005950931068,1.0739389635959296,-0.0999477579008866,0.1157134040212489,-168.4122095774525,3.5810654534984283,3.7270965520258073,0.004017335691279,0.4349038885195633,0.9922479101508414,0.2691147218514839,1.0080801771782355,0.8935618660548803,-341.7176649542424,11.25270035688406,10.629186638530063,0.4918807644289013,0.5089046655296192,0.7762509519370155,0.7802584278310503,2.662226520706928,0.5959055260132166
0.9,-39.57530292834916,85.3193631992241,25.717549590247422,0.2463071765808265,0.6822892943566995,0.0123454812911075,0.924483667454341,0.2822944556434401,0.5862389191259803,-7.657402671292963,75.97457985856607,4.813710484456022,0.2416445007749484,1.098319588194092,0.0185489858601536,1.399708665295514,0.0702546739384748,-0.0095066443363682,-168.84658571198,3.1226692187609597,3.681718765664309,-0.0135193287583071,0.248330782969213,0.3403295762853884,0.4187462431534705,1.6149746828544058,0.4279885799392,-342.3671640220614,11.629812133900735,11.353086352683508,0.5473165492232587,0.361703450510481,0.334913828065851,0.3227343105192556,0.6172503141015022,0.9536563945281512
0.91,-39.86682714440614,85.59599467277093,25.80746071437323,0.1782678834279633,0.7121744662152668,0.1155304997830569,1.0230729696200902,0.2768363754490325,0.4353833011279229,-7.887481902888268,74.44266758991311,5.426880787096742,0.0952001244140088,1.1935594252608148,0.0774003025459519,1.6590380206976063,0.1481083202057294,0.18031317126311,-168.67644745368625,2.7759759269812734,3.435273088779814,0.2346393883849301,0.1373628123153329,0.2341416116513668,0.2444078775454802,1.0455001966380078,0.6012880604198925,-342.26913467746743,11.940599945125385,11.829751110912596,0.4730639627479953,0.425245821950544,0.6338900586813381,0.6373421375085789,1.9349846458186424,0.7197832168788685
0.92,-40.238911376298034,85.77679852216221,25.902740307641025,0.1780197949256657,0.9520583224384284,0.1758212640687543,0.5803400812834739,-0.0125339274201646,0.4210759122791883,-7.80465317295629,74.08712927535072,5.440506535224791,0.03330462190383,1.241060078046746,-0.0121292544840327,1.5813385371651567,0.5258495569146101,0.4120492433024151,-167.66045388524662,2.65137971599049,3.166391106648613,0.3116191354737768,0.064113692330967,0.937240349948246,0.0592773573506761,1.5878398780214094,0.7524993387484269,-341.4697676888547,12.580225124508356,12.282556001963478,0.3008596524384508,0.2713519973722053,0.0972418129502625,0.0379579370294161,1.772719036557136,1.0187403351859832
0.93,-40.4126713275081,85.82270846529119,25.732350425217167,0.1333188277822244,0.6555828729304488,0.0484273986611732,0.2637328056032944,0.0766412772411785,0.1322494146084226,-8.125177993349613,72.63661945463039,5.971881510573144,0.1951096488392468,1.1758440968800363,-0.0177024318773221,1.5415548433957855,0.3328792341424046,0.7706657677673625,-166.69919202071426,2.454301779929037,2.4214841801238154,0.4143436656059709,0.2507492273212846,0.7561193940975858,0.3201551001566334,2.834780704694139,0.6972079015924482,-341.21917609034807,12.719743020461584,12.505053481985538,0.2910289289373253,0.1449852687319543,0.0452085866000934,-0.1761861663792973,-0.0457296821583536,0.933611579126928
0.94,-40.57170641491562,85.49811893525018,25.861131450052014,0.0105267649263177,0.9268217946529088,0.069384837817966,0.9551125953928424,0.2096068504182537,0.2040854392301642,-8.241217654613525,71.35496839931123,6.265910243349906,0.2869042251449425,1.1483680654926125,0.1694512215562382,1.197494052244647,0.5493799197162541,1.0501397845780789,-166.13567260066657,2.0403038339485247,1.8638122245206576,0.6574941466784491,0.3545418641915528,0.3168016715318129,0.2829510256783946,2.939913517197414,0.528742735966996,-341.134781777266,12.992362747321204,12.61173938673674,0.4589894626706808,0.2771428335192062,0.4452093065250055,0.3290894851694612,0.902044237187668,1.3802815329758664
0.95,-40.882685340059965,85.25228325835056,25.879030808750688,0.2307562457871458,0.7102767557609873,-0.0338198423661077,0.2928209235271229,0.2530093935158806,0.0674173993028119,-8.658843853025092,70.19934379063699,6.381014919577664,0.2891614177392937,1.249875284175558,0.0242123339152869,1.0171332223349856,0.4216802589694919,1.07110692418031,-166.08954180014328,1.8434400566391436,1.5821237340037515,0.6567281362735637,0.2470472774111398,-0.0424779336265037,0.6895660450002712,2.201939586825023,0.4721701051622958,-340.1922599973103,13.412949544471806,13.229213575290885,0.4877741209010522,0.1511834120834487,0.6805415304304755,0.3405080896991039,0.7543228558718442,1.3890512111952005
0.96,-41.11951118435443,85.00496107999241,26.05832667134201,0.1776843017838108,0.7781175112208191,0.1068395751955227,0.2719349903660653,0.1256237332625686,0.0090343588505527,-8.673872748800363,69.48556695979944,6.398231423888603,0.1797136562235498,1.2217434263363411,0.0345276987649246,0.9419742030801992,0.0218986601165176,0.9615340677286538,-166.1755322187995,1.4259987815531137,1.1909835090956655,0.78744989286025,0.5026955562156851,0.1318952801338139,0.4444495881397214,1.6960291232124654,0.4527930320974865,-340.043500406863,13.701126572334596,13.491078183969597,0.520404225207981,0.1771043427735002,0.6403756861033728,0.4830658643169212,0.5901987097374585,1.4764296588613428
0.97,-41.21726885257986,84.94651946421347,25.81849344315241,0.2120369866672639,0.732939079550305,0.0581177384973846,0.2039423859081503,0.2576652447692419,-0.1407111717239556,-8.815797334595047,68.7154242957492,6.5381592802585,0.3102100562497016,1.2927675854984495,0.0474908059668425,1.189994285493599,-0.0054138899547746,0.7082384930259964,-165.8854519900855,1.308668511312315,0.6666204374666895,0.8442132761612161,0.6506623555186097,0.0922248827079734,0.1751719643375457,1.2279350921692496,0.6878230231979154,-339.34454218161244,13.81887065238767,13.687059884954513,0.6815241816818621,0.1575599648604862,0.5935978794978558,0.3793999492040344,0.5285823667919308,1.4210183623450192
0.98,-41.44175308790511,84.6275748842152,25.925229913984808,0.2219502061087241,0.2942793630649422,0.0458698474644714,0.6831708654007284,0.2331249995496858,0.2991239008905302,-9.268498831486037,66.98536898320194,6.920782251982176,0.0622756736660351,1.4107675248178395,0.3935524463905254,0.595625504733498,0.122524217100117,1.098777299485174,-166.22051385613034,0.6602143708041537,0.3387899371880357,0.8168206559635756,0.4012354767677687,0.1377505252169209,0.2730451902385421,0.9933137820706216,0.7060444489581894,-338.29481067994027,14.344977204555915,14.387406362367097,0.6932893442847993,0.3005944206046303,0.999523068121,-0.1441328717879618,0.217471565519294,1.073347758372138
0.99,-41.64434159855413,84.62669908752338,25.76978956924062,0.1528692026098052,0.3842097504413273,-0.0622488863154881,1.057964971567254,0.2650589018948151,0.6255587042063526,-9.84954486939594,65.39294901713903,6.936027942452082,0.3965292416276689,1.3041722892734606,0.0306882660765406,0.2450644334428582,-0.0792404953321303,0.1751821136369954,-166.31891887241875,0.7000582133730259,1.1254484426814269,0.7983162225034459,0.6309443088519561,0.3852530576139414,0.2081797239842485,0.843390353614769,0.5438636960477878,-337.4116786555037,15.15904274603106,15.008474866805344,0.935991584009535,0.3901240032880247,0.8608359837848361,0.168315652416146,0.2936857219031541,1.3719925181180934
1.0,-42.07337583517295,84.1172393879984,25.92195413260863,0.3039218062560396,0.5223599508804871,0.158480017025554,0.3696498666161397,0.6055401684488954,1.280445886348479,-10.256283412413753,64.01304517044144,7.004829749883028,0.4223304950950649,1.1841419444738304,0.0569141285081753,0.2856342687255498,0.3313711340372784,0.1975442978687088,-166.39698335234243,0.5664087576872422,1.7301858591578505,0.6564496124349691,0.607351726573732,0.1074836609283103,0.3014569112554193,0.2776450845574194,0.7812520437047011,-336.13497228313247,15.803824079896712,15.671368413141437,0.9282461303468528,0.585107058422256,1.2012218158862162,1.4819199884190986,0.6522329041597191,1.4104189407391907
1.01,-42.255172058802685,83.73805254497948,25.79473586152413,0.1758420933236375,0.8154555393358689,0.0720008152445852,0.3522878157656841,0.6738675309282627,0.684747948185854,-10.749991202908951,62.68270172087771,7.11791061135696,0.2696640625141055,1.2940571474879763,0.3565665978615687,0.7806037721150507,0.4233900981412414,0.32060655608748,-166.49514372965513,1.32856628698281,2.7706312144852245,0.8761699994355323,0.5733204529680653,0.1475068920128827,0.362718139072935,0.7135529683110516,0.6507393017613847,-334.8393412113593,16.387978575399025,16.53199528425064,1.14859459296696,0.3892784073768448,1.1361116119098424,1.472419249253823,1.1097046371849246,1.6697733082934323
1.02,-42.57011187780591,82.84825229095053,25.923018635563427,-0.0299685325657464,0.96999892175423,-0.109143531855478,1.053137472369459,0.2305507694743962,0.5451255238493151,-11.04644871086578,61.189378454995854,7.458727889067952,0.1829931135217711,1.2661982168826913,0.2021998096824518,0.6975316868528174,0.1353620793963313,0.2028353081983407,-166.3360642195084,2.268262605780805,3.312772403773057,0.7772397460499654,0.8087445171032707,0.0117900834828103,0.2579900779429696,0.6118913241103419,0.5925217095825682,-333.5247874350171,17.601304692106478,17.559613929633024,1.160787046084816,0.7467406239033255,1.1186541912197565,0.4665573992920245,0.221801167971114,0.4192119179660916
1.03,-42.77821942848811,82.06357060238773,25.76904855243603,0.1774185340449976,0.7788625190335743,-0.0227300214420039,1.1269480654013382,0.3258325875527786,0.7491276116864691,-11.047218254202646,59.86070770528712,7.578597038873257,0.145413310829058,1.2253264997401012,0.08252195995104,1.0560383132437432,0.161760595114717,0.3903964606410131,-166.3421018104024,3.096847744969773,4.224359479869863,0.4900777471029324,0.7156222244144752,0.0648505228346313,0.5576718876379219,1.1467226142539684,1.054442274277524,-332.46694115421093,18.666086836862668,18.84622393570601,1.3753618331011088,0.7483048932399117,0.7752959843002082,0.1298231208289276,0.8638885775244775,0.903573661306653
1.04,-43.1522220425953,81.09825293153072,25.830664144501583,0.3069486419392643,1.004030472605019,0.0738632784564719,1.0372685865877274,0.5718429330477677,1.1982135082748664,-11.38845238963169,58.41306599754653,7.786584328968279,0.1297106939076423,0.9932839470269146,0.0826221730629042,1.2013298872394582,0.0934433240190755,0.1867209094201061,-166.30039772231396,4.083679401694171,4.84955525513513,0.8228761551466874,0.8673713373969643,0.0517369268322529,-0.0595914687525709,0.1957711052779641,0.4531744233852532,-331.3564886008962,19.768974257940563,19.911706177786403,1.1240842747800055,0.6391900284712771,0.7071886577409969,0.8262299823797794,1.258260586294772,1.6664804507604662
1.05,-43.3745403470993,80.38723066178443,27.89076876312656,0.0163336372704,0.9015353176048376,0.0879653820865253,0.505111296131374,0.3123963600238345,1.5153237472262566,-11.147238348413923,57.24414910890555,7.918232242078887,0.0311923477597125,0.8732917979378475,-0.0017042872667462,1.573758673391147,0.366930749816513,-0.0282906596064261,-166.0949271009357,5.356105512146878,5.516167609855593,0.4273381256542445,1.1407931819149324,0.1343453227302061,0.4351147040725037,0.214791615621734,0.3397274986846685,-330.1968473594312,20.53037541085229,21.20776920775626,1.4215473356868988,0.7503322781473724,0.9867359375944874,0.7155831453498421,0.7152619028681679,1.0720695787015992
1.06,-43.6350006708853,79.82068258478162,29.53179270247445,-0.1027939372899607,0.6118114193102038,0.1031876027109489,0.6518125810272306,0.1177080209489403,1.1251873093894178,-11.05861554038298,56.042997404377054,8.229705425295485,0.1661778117171019,0.9926013975205,0.0624932136826087,1.2024838999364225,-0.0014674395003996,0.1979579842602464,-166.103439088401,6.180379175841335,6.454125420754701,0.4856475320353556,0.8272346844621797,0.0296540627378761,0.2833528188479576,0.5232834345628203,0.2984471601866357,-329.10187253082023,21.768789231298044,22.458295938344516,1.488921818844826,0.6693125268251666,1.1665492080283022,0.1109114261634964,0.8127671305756098,1.3616019678248992
1.07,-43.673721512131074,79.10059058651305,31.084519162843712,-0.0336355875124805,0.7720898232426634,0.1981652646829618,0.6113650395650212,-0.0373422547907801,0.7513923847401808,-11.026713649395454,55.45407546407989,8.248878754024261,-0.0509784856132806,0.7154127697478818,0.1868943769839201,0.7274864186621951,0.1743561570247984,0.184164300812874,-166.09778373762578,7.283370277960732,7.062440276031976,0.5540148990258664,1.2238134498384243,0.107640385014234,0.3086596618214483,0.903668977623494,0.1451647636096788,-327.65725238164964,23.03339168884032,23.73725855862495,1.1702016673615392,1.0324208919425726,0.9294130230745328,0.9423691750383656,0.5611443294704153,1.0359133727785537
1.08,-43.890295455585424,78.27697832555012,32.326466462465866,0.0566045367840627,0.9032209106499312,0.027179176179376,0.9652826467507746,0.4801052747195099,0.7608697495048466,-11.135016120466574,54.52518716599781,8.441414038549235,-0.0793897885089644,0.706925452682249,0.1304134019224349,0.4492623782195939,0.2977874005042389,0.2727012332525106,-165.98258926602608,8.34290986371633,7.5143215470823534,0.3873469119017905,0.9519095900027448,0.2040731327870244,0.4768429406736175,0.7781788793416191,0.2998094769291056,-326.8857447610087,24.23084987276381,24.92348119508854,1.4089279621606496,0.8728297660377545,0.9174181453886956,0.9273229810954632,0.8553416047053601,0.758785358241751
1.09,-44.4150794936399,77.49942346982732,33.49184074579007,-0.0056839042771818,0.6272463951348766,0.099385433011287,1.1451397634403553,0.2844786831676498,0.9578217640833112,-11.19009898327008,53.84730212300679,8.314370344509586,0.0913875834629216,0.7666863108334253,0.047021231751198,0.9258267551865498,0.3653734623126549,0.5836303282046399,-165.75700943252608,9.305973823166736,7.899529525148012,0.3533804629737195,1.0177072052623952,0.1686512430997664,0.5411929788145691,0.083762726687456,0.4053214237596431,-325.75223131942266,25.343403154365948,26.513643564468907,1.4009690152092025,0.8509747689100668,0.6460945087568917,0.543887572336135,0.6640796532682985,0.9968185410178528
1.1,-44.26866454633801,76.69894756593767,34.46134357224502,0.0220922356379054,0.8859531920937114,0.0172073708497759,1.1813337616376836,0.1349992551951907,0.7793223127245438,-11.140509378570798,52.9624680158321,8.64358211076685,-0.028660328171252,0.5226976801388437,0.2707677753118935,0.7307744777792198,0.3012786011577629,0.6323583100205412,-165.75294016584604,10.830637224998997,8.249852098881101,0.2886506788135069,1.1100272983157924,0.2265281435647206,0.7882279750078695,0.1807175266734047,0.4620899860167459,-324.8529009222938,26.31452918975595,27.975825495920454,1.6923670681556393,0.8162323828607445,0.6922357473095024,0.2535651877196092,0.3628322594241622,0.827115136544435
1.11,-44.340064865796,76.18186864794528,35.46577158411046,0.0536093043670402,0.647720941569613,0.0140106182108201,1.082684702359848,-0.1085146236217465,0.8732459028948742,-11.16040778453326,52.404880568170334,8.593846481434294,0.022256043804657,0.4973418912981188,0.0822006915126298,0.6459356850920711,0.2158207531956729,0.5632472141667946,-166.0300445948288,11.786988957477076,8.460299521195774,0.2821121710779977,0.8216261366775739,0.2357106861386268,0.6859683098719561,0.2374666960605435,0.448763313711259,-323.76469296511203,27.688154739511702,29.430787092606995,1.4404194701204722,0.7687831598030224,0.9680375006792558,0.460432237482535,0.0059638336151216,0.2432424802206708
1.12,-44.404791884681806,75.88931417656752,35.970747332027294,0.1272922441596622,0.664301855456612,0.086252449212792,0.871086126013774,0.1086614778168102,0.6641367937362564,-10.991551959157928,52.40629176010594,8.503587189310682,-0.1255856752802627,0.6503242271397698,-0.0248589881169182,0.6409759152056043,-0.0041179903512725,0.3729081933728823,-166.1918021553616,12.44289165056405,8.39339458014556,0.0764714050104861,0.8212368787524746,0.2833982720876915,0.5409985919977212,-0.0204599457790158,0.3148911653053987,-323.15069602632377,28.257521688854435,30.351687218724223,1.5861005504265162,1.1320648041461052,0.6463018581354385,0.3772388270555434,0.7090478642682698,0.4451235288607679
1.13,-44.468391181188856,75.38385291499671,36.42532194609986,0.0246072488027865,0.4699204379333379,-0.0539661986488886,1.106475413028534,0.1367502594924022,0.6203084519580753,-10.938214551094593,51.94636605756472,8.81967536455852,0.1802074322738178,0.4576743289440115,0.0803497347455414,0.6288233700289115,0.0498109367455534,0.351441617639969,-166.28633133087038,12.85389845379788,8.489148128811179,-0.0967253207389853,1.0593548051565147,0.3031074625131225,0.1189036116925842,-0.0075857869690472,-0.0435291255960753,-322.9127976153456,28.876825230494248,30.978363885830767,1.3765475477569105,0.6731830420836975,0.6379629206626216,0.2544107464030574,1.371166647212129,0.2857644668062009
1.14,-44.6121415215517,74.8079401107205,37.01384953554961,0.1545859021922115,0.4743314902629203,0.1099108453761846,0.6628822456159739,0.199275112860787,0.9001817477049192,-10.775529423464045,51.52969119047943,8.704735291374533,0.0669412844492803,0.5719504854503994,0.1522612459086643,1.0593189678527009,-0.0849631750498298,0.2228954410514998,-166.54428678289764,14.216795882476946,8.592528207349977,0.0664174009940282,1.0955897646086423,0.6221725724432687,-0.1960754626301774,0.1292063997313753,0.0889241309169319,-322.3835785797666,29.849509783473916,32.6221738821963,1.5806287804358377,0.856495377398155,0.4884722667709549,0.0516337908441325,1.7139677915936724,0.2094067806073575
1.15,-44.756635572552966,74.6599202587028,37.54880495570045,-0.0950676867679573,0.3435582069548658,-0.0816408748750654,0.0161282722406355,0.1231165528863049,1.1628641808927471,-11.07777638462579,50.81657103425192,8.755248613760477,0.1588151572578526,0.4788976367262554,-0.0461658820648603,1.2498054417640818,0.0608578473696705,0.1371344312642169,-167.20892635691834,15.276631779991858,8.357021300045602,0.1413265637440099,1.1906298262736883,0.6060995095766991,0.6016701471012201,0.8112872680350552,0.5927325606259876,-321.6173853607173,30.714640641596,33.287436993631054,1.4491912985352051,1.1181107062035287,0.811998668731355,0.6874617010261472,0.2994882034746349,0.0845822340321702
1.16,-44.47446086659958,74.16062436811664,37.62894572844184,0.061296051162873,0.3689874334420078,0.0056951046997307,0.3218056121723446,0.2377045012569935,1.281985751336441,-11.182385499838636,50.56172858456939,8.628051179342975,0.0514299965484035,0.1530633358325557,0.0535171834197896,0.7297945506691079,0.1889975737852119,0.4440412992675477,-167.69620260416536,16.63682344869677,8.03941539606021,0.3043363373197048,0.992252580064468,0.7274564270665191,0.8648017168043923,0.852432326040557,0.6610392960392408,-320.16746552376713,32.848373762512146,36.23932970972445,1.695822403812486,1.1057009735741552,0.7946303651742876,0.5646524827392455,0.7529890770540155,0.1062619791966682
1.17,-44.6800075779382,73.519976107501,38.219236300650174,0.1109770092568206,0.3040808649219594,-0.1100208568590968,0.6723321968475333,0.3525126104004151,0.8967214498721431,-11.386996224432252,50.38958631796358,8.623905436993734,-0.0677720713254757,0.1488478767097349,-0.0087579479268117,0.2572485682670021,-0.043983275719916,0.8195827123454356,-168.2324414145102,17.488877399324483,7.283768854496077,0.4647641629382003,1.0163657932050734,0.763974476055549,0.7005422667398485,0.7081594953780749,0.64647977037326,-319.4933140623764,34.27594912196426,37.87954867251894,1.5376797386323164,1.1533794552965644,0.3971747343170181,0.4510120757010434,1.1091603436472466,0.1423526042791306
1.18,-44.79920584051709,73.04979838334512,38.60995799999825,-0.0148696508885819,0.6449489937559579,0.1546993275958522,1.3969141355594683,0.4593263430686262,0.5219378421546425,-11.429323322488326,50.49563430303584,8.664462589940081,0.1127467261144511,0.1732179656064728,-0.0203026409029451,0.2662117156875883,0.2477543068708557,0.6916729341089789,-168.68732197860513,19.06047203267889,6.473017085504368,0.4403878162555407,0.9838919138095672,0.5769289668097691,0.2274302223315181,0.6089791134174933,0.3470846954705737,-319.136488614565,35.59002963215695,40.15801212724041,1.5348407102314592,1.5100266355176075,0.3530484212024288,-0.0328456394607805,1.08055563348411,0.5622354892736456
1.19,-45.11660509441597,72.43422826882777,39.04656715646278,0.1330369663398811,0.1929286737627119,-0.0520468173749364,0.5581398148736385,0.2783149478410106,0.4671175682724368,-11.585054014633736,50.24652781424789,8.74630308752461,0.0087505721615624,0.0318360186115292,-0.0602782905174729,0.4091105241672368,0.1594458296684023,0.3860488331377646,-169.15285813800338,20.024751187777845,5.225349244127102,0.8602417872303447,1.027685010555338,0.6484554378175326,0.0913671317316659,1.4994582953260882,0.491212663553075,-318.8185638360838,36.85020534056719,42.11615437061272,1.3645394252429752,1.643618836805651,0.4821937388669926,0.6153712095759878,1.527576395430475,0.8434582879876642
1.2,-45.04848640217601,72.33079524356685,39.40811070803506,0.1066488295562486,-0.0170477539158474,0.1492189540166376,0.6269497704389948,0.3480490958722602,0.7681108359208828,-11.272512616809273,50.020410140627,8.810544440348268,0.1453206108061736,0.0067531936521693,0.2048623612739113,0.5361912418322041,0.1222140251309452,0.1804919546274014,-169.89679742212698,21.377680410067757,3.857018373069233,1.0685018085300615,1.1977159854457868,0.5082080211175187,0.0334121105549126,1.512133234571992,0.4113298423037134,-317.63889228709763,38.51304760245792,44.25828408025033,1.4419261169760147,1.4293520492778986,0.5965173364162728,0.1521796912214893,0.9739979838862796,0.5512124142152915
1.21,-45.11492476240928,72.23712518901904,39.753956966435695,0.1103776392696994,0.1859652304295044,0.0034188715886581,0.6517174374946924,0.0225638025340379,0.51242381273945,-11.134539448484931,49.85368796963889,9.007418174110922,0.1697691898962119,0.0513890512173938,0.0865353695937388,0.5670173709297619,0.231363212884757,0.2388113377076138,-170.08620151677528,22.49145952611473,2.352283567823364,1.192330871296981,1.084449859449268,0.3581008035608893,-0.009909121834014,0.9067110560064916,0.2443527697423199,-316.5457502783081,40.08678408291686,46.251425132077614,1.598247323880746,1.317377094238129,0.8379091498111133,0.0892562727396556,0.4378368436349174,0.0609511191820962
1.22,-45.301377130062086,72.2178008895463,39.92865727034088,0.0343281536449914,-0.0211556152037356,0.156385574238303,0.6917440651117234,-0.1144886542404701,0.533048797535538,-10.553148468546851,50.20412471225247,9.016625525863532,0.1538113136560187,-0.0049562401661485,0.0578444449848239,0.1658969182734273,0.1562966843400643,0.0975121758538147,-170.1631059182993,23.922909968792865,0.8337506654951681,1.1932553263347632,1.0098215332441411,0.2231970273441669,-0.0473057638553485,0.892960734914921,0.2940754840749289,-315.7672340364179,41.65192037527074,48.119478803168754,1.5379035295732886,1.4499811284950292,0.8899828570008471,0.203924414458904,0.278827936136794,0.049808502675485
1.23,-45.34705411183912,72.38518679494804,39.72431203399442,0.1364786038232383,-0.016294478769832,-0.0567833281514411,0.369707581240655,0.2398114973377834,0.7266392787437397,-10.34202899201052,50.13771321553519,9.19328523149274,0.184203807753753,-0.0132010273233661,0.0644900518140867,0.0798236484433394,0.1474439760966942,0.049106657752719,-170.51316501763975,25.134151853997466,0.4540848379615507,1.093597643008252,1.3380963184842063,0.2272026759967292,-0.1418253273594518,0.5809240218372066,0.2688585860075169,-314.9795542874754,43.32818677669113,50.51142333221196,1.3271422906285946,1.1462031951969265,0.5944632734482147,0.3604001277528372,0.4303810243921373,0.219001199095646
1.24,-45.6104963676892,72.24402418806876,39.73209486323052,0.0234764098639522,0.1859684044874261,0.1297337976823809,0.3528849495895644,0.2490424766846092,0.5954564686658477,-9.91576865217944,50.01525866757782,9.271034601838066,0.0414187806508019,0.005455271001263,-0.1144552875014894,-0.0667836490510913,0.0727945113041294,0.3424170688582513,-170.4901920018205,26.11402218872399,2.344072293544654,1.2248292507329863,1.2103482312099425,0.2836557450828936,0.0697986184754209,0.6442279209129269,0.1333940711614477,-314.3452703545205,44.477491486941794,53.08276976745229,1.569850935800602,1.3251590817804002,0.2431541567391391,0.3093880591670733,0.397618988327546,0.3750278832314795
1.25,-45.59658594643801,72.38915424746202,39.71797567393256,-0.033606721235231,-0.0051912517808356,0.0813674935132617,0.5855699766092909,0.0757883421851234,0.6342950338765705,-9.816364489764709,50.3172930287008,9.394547337330527,0.0572935579322944,0.0402294864932591,-0.1003920774688982,0.1222216031881897,-0.0417952389597748,0.5492381619955022,-170.64583316284177,27.320703628495394,3.928503985187211,1.4501089190911245,1.1400549413767478,0.1837701468172612,0.4759059465329137,0.2526230823557581,0.4733904861960913,-313.78763291821247,45.398650700485874,55.47873075156812,1.5063725663947527,1.3211591214047247,0.4007038190230718,0.2063629370597594,0.667569363508837,0.4870515121810426
1.26,-45.54032747357032,72.51855582596485,39.9039729048163,0.1321824331444431,0.1675307484105439,0.058877703230306,0.7241263917428087,0.2308125816036613,0.3853469516888573,-9.568684292013282,50.26319301868956,9.444094604190116,0.0800492492731169,-0.1327191693429046,0.0946336541629715,-0.0522399062089031,-0.0578285444226369,0.1365503165515978,-170.53163062480337,28.34569072328973,5.72920889376842,1.3100576506625654,0.8638790639559636,0.4111166479348903,0.5078249464437606,0.7778638739291821,0.0222940288215829,-312.73770276248405,46.57110626622015,57.82598064586328,1.3939896734229111,1.2472772153203582,0.5348067540084093,-0.1650791405672143,1.342058668487717,0.4686563074914124
1.27,-45.43620183371496,72.49133110208771,39.52641853493191,0.0278843989130633,0.0042977113055667,-0.0376054245345039,0.5994943739745769,0.1547558991309204,0.3897815486740622,-9.830357269035778,50.67149093306769,9.081051477774569,0.1802356422961654,0.389431969753337,0.1178791282749277,0.3545814703187992,0.3392076511525469,0.2474064772726871,-170.655895247135,29.145074089809118,7.259538208573209,1.4445000096184677,1.16609306026696,0.3669062898237238,0.1679851155585745,0.5614066167173897,0.0435356735805945,-311.8769973880988,47.92247615937154,60.48763928680135,1.3356771403433023,1.3004294075080136,0.7631596663172633,0.3371597832281238,0.9417290401075772,0.0528785019422398
1.28,-45.011135139020304,72.41083729105951,39.90703310756805,0.1751210042198648,0.0998716274708651,0.2155411314482754,0.5534178725661947,0.2976231762520395,0.3771194684520101,-9.960693670998316,50.50458430559157,9.23098227978176,-0.0451649521189675,0.1971740036651659,0.0786773154736607,0.418620896314412,0.3803916166040569,0.5225338169643963,-170.83259300386226,29.527169087874228,7.9891701237221024,1.496401583491754,1.0809638988975494,0.6064331544519524,0.3244312584498393,0.5890885492626086,0.0645690871105575,-311.2635716147242,48.75027462858896,60.44738856395576,1.4735717444463283,1.403752749476531,0.5619538382304888,0.2414508363796972,0.572721684244571,0.3132756133787303
1.29,-45.31359814791308,72.45230450590856,39.90681700440838,0.0073643322725736,0.0563615125551432,0.0537681323944742,0.6726355652032592,0.2531231992751109,0.3170676423934612,-9.902537209286535,50.59263615683626,9.151565317357855,-0.0378339246771863,0.255589206978608,0.1930817767010024,0.3212662858117164,0.4898235245862232,0.6580670334996275,-170.85113268336062,29.90685514608119,8.604244034075277,1.572857760667841,1.0535216025044631,0.5236982190743458,0.1761490732545121,0.3878608141574208,0.0786336542195065,-310.8871410889982,49.19687506766698,60.32449995648921,1.603478543618924,1.329369435016102,0.6759053314669836,0.228882495709131,0.7029463136912819,0.6808839361783416
1.3,-44.90900094063888,72.45309090046,40.063350174713854,0.0514626788581251,-0.1175974324154591,-0.0523411736123818,1.073114154588995,0.152228976040172,0.1063321285192633,-9.781553660075817,50.94996320070435,9.08884918369444,0.0064308661290404,0.1592168461867021,0.0291752327891198,0.637205208870351,0.3328477509868122,0.7132034203823151,-171.0790745444402,30.98230017207947,11.046542555234634,1.262015141083752,1.0158215767466277,0.6862039126504782,0.1800650398094389,0.2471660217665654,0.2527975447498168,-309.8818937057974,50.451059312561895,60.38441905641525,1.466659663194067,1.4048728295605035,0.5600948608185411,0.036844409990249,0.448191292174824,1.0066626657028923
1.31,-44.80385229369745,72.71414243607407,39.95709087147844,0.2707530238763132,0.0290458709154044,-0.1154896035319097,1.0332962569170636,0.244898483139404,0.2598016539593314,-9.980386687807524,50.98101939406296,8.895377022374797,0.2500631071850143,0.2266548699667935,0.0778785424484716,0.9416648252718084,0.2491222892054281,0.7971240026481311,-171.2947134506283,32.0075226947789,13.077512460639856,1.443816387307192,1.019126438804872,0.3801720873965927,0.4064704709348334,0.1982463240232681,0.8806275954641891,-309.2116353847648,51.41942250301863,63.37714915831788,1.331603271271384,1.4827101314183992,0.4061375034405292,0.266801323427644,0.1620473634691622,0.9094001172393152
1.32,-44.76133069222103,72.78206813113108,39.892358139121576,0.1629427756015836,0.0956198570886201,0.0823424676968752,1.181500597214818,-0.0514010689720601,0.3811561240653567,-10.14119142639632,51.18274362162697,8.750724278249804,0.0698037251129055,0.1188912996397658,0.2111036918537567,0.9699881799386916,0.3161779038502063,0.8434158483679729,-171.30306805880275,32.91355141230625,15.25295197823951,1.4901315023756998,0.9870200308399136,0.4585566643204405,0.4570282587790123,0.1153832518607491,1.5049702475128712,-308.68267466706146,52.21318477837759,65.70372935285829,1.2520497513106892,1.4496438566953649,0.6274252665021091,0.3350641984178975,0.7575381484299987,0.8638661866549422
1.33,-44.80880736050924,72.69523825782301,39.862634691220265,0.042723150325619,0.1696820097629474,-0.0087665848058192,1.369819312824585,0.3743282734937679,0.5495364333982007,-10.54616838169969,51.48941537846595,8.46228578843536,0.1137029343308016,0.0495570994619994,-0.0480474783430227,1.0865926685296292,0.0806563931676001,0.684473365127781,-171.82902650009035,33.84662885631241,17.329102011763048,1.6482629341522694,1.2687060608262692,0.7441633343491032,0.594554173452313,0.1863218664504024,1.6075329138405865,-308.19040388958234,52.77096845201356,68.31923074733876,1.3735659643197888,1.330344242259545,0.5554386973041442,0.5092092000019056,1.496616022171393,0.6942715888909219
1.34,-44.6686623516147,72.75321483677969,39.73096509036605,-0.0208195476621352,0.049561909297851,0.1998370654957276,1.3251033676489536,0.1574252680525906,0.6301803810827482,-10.88752281665747,51.75110871841349,8.236133897103262,0.1628644122331409,0.4753158790768189,0.1160913069092154,0.9260700089101412,0.1672227456253719,0.6831217190169145,-172.2058062320539,34.705734144512306,20.198108242369624,1.6251358659255022,1.2858244203249538,0.7046948815755528,0.979223436700136,0.6063924409810584,0.8231401979351066,-306.8495628299967,53.68230983176372,71.03632981582983,1.1678899290179072,1.3270382241592027,0.8101058359966322,0.5079296667462382,1.616892721311148,1.078899412608596
1.35,-44.85149673400554,72.92072779004653,39.65285127362759,0.0061310158203576,0.1021090172034043,0.1024702606282356,1.2307597487061603,0.2060747627460821,0.378231757480282,-11.309237049528935,52.14857340713476,7.903045080884292,0.0106505500873701,0.2969744229358013,0.1357938439784249,1.181673987392919,0.0321290446125929,0.9106242377971884,-172.69978653451068,35.74586342255241,22.399970685032297,1.5302975277346231,1.485787215851733,0.3165145495751826,0.9471264281039709,0.9794576959258174,0.5406072525007106,-305.73734538934985,55.308914115719695,73.79467006197049,1.2725038519559857,1.1608090365580557,0.8391831197339286,0.5626233798229234,0.4667012257658167,1.4672030632733273
1.36,-44.6059118384024,73.19162357419584,39.4668432916628,-0.0477231063680161,0.2585774137517998,0.1705536269534306,1.3400147908783078,0.1873296331217517,0.478499394358776,-11.314405124379851,52.67932131835008,7.54023800592187,0.0573161572440884,0.4552489393077156,-0.0833762919853715,0.9720016677757224,0.0685152398096867,1.3041511521573814,-172.70093123712644,37.28655699655252,24.608583002568327,1.394892511472227,1.4063512079101852,0.1236908613170321,1.020668853493913,0.6026027134498394,0.5514959595411406,-304.0669599659501,56.10469110401165,76.66702057964177,1.1077090064162738,1.026714219957918,0.6946459299924502,1.0309024871824803,0.8406548299100082,1.308575478496507
1.37,-44.620664393089854,73.17209275568418,39.36205013056082,0.0626418194044887,0.2217810255957951,0.0675200719851666,1.5221707813516083,-0.0602203525515899,0.5197203281565195,-11.502289177325068,53.22362530923424,7.617945369386709,0.1575180678611807,0.6116837866483005,0.0792851239376194,0.7770808029488531,0.0366012930288619,0.5952619489069026,-172.11065671922313,38.56991548045799,26.17683988158198,1.4426632890735644,1.3760307404947267,0.17394402470693,0.5254578643551844,0.2764927484115546,0.7694933365485079,-302.9956183588665,57.01428263546629,79.46336933399793,1.2910064914072374,0.91358698812156,0.8636916738508291,1.1390632432213228,1.309162686472631,1.1273895039568815
1.38,-44.825308054858326,73.9382313858887,38.89636713724618,-0.0696901469305625,0.3699766957098747,0.0413668992603262,1.2049672350112384,0.0547382687686603,0.6921757638108922,-11.484017460095306,53.921689866009785,7.5128601455617074,-0.0226365967723441,0.8167645728730455,0.326252086125488,0.9003033888388401,0.1854274666185952,0.7236519066237104,-171.57850205927753,40.22530384179661,28.430274076303107,1.155786643685337,1.5802144410787238,0.3435234774289049,0.2251181991717783,0.4061844968248819,1.0015521414069892,-301.3072102653027,58.107394820544506,82.43013351344653,1.199743090259359,0.9305667910130824,0.8977324796890478,0.2847979120803561,1.9222577335959368,1.0709139385355806
1.39,-44.73712460373485,74.25514633993252,38.1761648528794,0.0771168497388665,0.4000099603146911,0.113639071283408,0.935561393766403,0.3128208660298937,0.680601079531669,-11.76074335234402,54.72507089651344,7.099688363180877,-0.1305170334341664,0.7262465932112339,-0.0333047680541643,0.8752826669125026,-0.0874899542790862,0.413629426876275,-171.1242986836903,41.829301724911616,30.44133256334128,1.2533585632676352,1.7845839799721237,0.177194361047879,-0.0713537116748889,0.5499592442876706,0.6953097099785839,-299.5927954989983,59.27512891443876,85.28596207635209,1.0574115205327017,0.9096985485328952,1.1840692075155923,0.0085161100489705,1.7775652895903384,0.4706129909738568
1.4,-44.625324994788095,75.0618034991458,38.04626394669364,0.1130269387706578,0.498283593681243,0.0501015204410427,0.5486967045580025,-0.0071836615906636,0.831921762968303,-11.9065524748026,55.74316850819584,6.908625659354835,-0.0478923883494199,0.9414939568580896,0.0166568497536083,0.2783688131925494,0.1705327974112006,0.3506413413451354,-170.5851516379012,43.36633576669227,32.55765515002569,1.4812201841366763,1.5776950530439944,0.5713508792523276,0.3745326275452261,0.1982031827696079,0.6849410309314785,-297.5089484697272,60.593340863551056,88.78007461217786,1.2879520761077434,0.8863335205805322,0.9995195012412768,-0.0335249581247433,0.8472841423260277,0.947226590511828
1.41,-44.56867798860708,75.1766038492669,37.43022120325838,-0.0243093789913991,0.3975916770951787,0.0097550579975269,0.6573089968795135,0.0092271489765191,0.8620825786608757,-12.131194829733923,56.61588229107339,6.537450307779366,0.1045885422528331,0.7767584958509473,0.0831220256048418,0.3841772010538612,0.4436922974756249,0.4440127485620495,-169.89883141247032,45.05940874109685,34.56043024927159,1.3033433206037062,1.6789752731910208,0.5078301046678049,0.2956198707726138,0.2136559567759191,0.743231258164938,-295.533314342968,61.93318810783878,92.14477609204066,1.1950543893432832,0.8335606827176631,1.0183840562695237,0.295630408748043,0.3603036101220495,0.9707705463121388
1.42,-44.38525586638861,75.84348068393719,36.728097472664935,0.0598028828867761,0.4979629567896455,0.0527272660761737,0.7452605713068954,0.1082843179982671,0.6384596625858645,-12.394385808240791,58.01048715545826,6.299127100086528,0.275937016137421,1.1067602069113125,-0.0390799193161135,0.2840384472764191,0.4112362741759423,0.3099367549918607,-169.64315286217254,46.88655466364949,36.923278756636336,1.3491688988906545,1.6187520186117248,0.3512827253312056,0.5644109023740712,0.3271246783091861,0.895822974612072,-293.7503370859087,62.99614410727437,95.18987344465364,1.2460471843410263,0.8699557408740572,0.9168607764406173,-0.003426209400174,1.853623239583796,1.945249992844202
1.43,-44.51455598006547,76.54606097552507,35.55582297911405,0.1143153630804803,0.4153320369660757,-0.1291058457431182,0.5730787385192152,0.0886167380903266,0.6440249541991788,-12.439334075927258,59.03354473416575,5.745726276740527,0.1993273292816452,0.9754528205707144,0.0952525736894726,0.3499597786895905,0.4213453763227088,0.3668744784432896,-168.8077136429384,48.6322229176341,39.08400787340749,1.328013612220843,1.496435015938824,0.4480159247806511,0.1773920013708533,0.4425029881581337,0.8026584596949249,-291.9712637747341,63.84716486323671,98.60153883174068,0.9273444827609076,0.8233812738391203,1.3077265099519293,0.9096771868884636,0.6844628756857613,1.1281811104157635
1.44,-44.59417078690667,76.8771813528064,35.183942589547875,0.1514286571064869,0.5404699608105408,0.0202907165920353,0.2837380353128726,0.0504326185484685,0.4172764035567982,-12.629205406717348,59.76764701063485,5.783398393345002,-0.0140034349883777,0.99688058129614,-0.0339052178469379,0.2906371836910367,0.2227824159519897,0.2271305864100951,-168.26709311107675,49.48698174608301,40.326846038935365,1.3922865017072017,1.894978638515144,0.659068900304419,0.2207983155605984,0.3666425904642837,0.4733363207244543,-290.9827830272524,64.31212505707191,100.0659002011648,0.811801752630622,0.6603061942172141,1.2464682263617426,1.1293244043403898,1.0241678557796994,0.8917232610552377
1.45,-44.59487305962218,77.1538500908105,34.83433545933104,0.204415948348487,0.4741273031781283,0.1694874785855878,0.3642843296273233,0.1461631539817784,0.388476610174003,-12.50614919504739,60.08270756658937,5.576449444671343,0.0882634006595056,0.8661893150851487,0.1264736015063097,0.1686858461416293,0.1147279541892115,0.4912671870216197,-167.94731652276263,50.08173515164606,41.42635338790226,1.428932717662261,1.5871942607567402,0.6682914752338988,0.0105898795477889,0.1223270484265382,0.4712104829321513,-290.02348687108247,64.89265348870381,102.0050066565962,0.739503975108707,0.7027645364710638,1.248494483944987,1.431121138592087,0.793568498228205,0.6841661636243006
1.46,-44.65098093193621,77.65629185742816,34.07129751628536,0.1516499474055174,0.4820548548074197,0.0674668322050748,0.250910467267173,0.4652307966573262,0.7508584805310843,-12.526029333580867,61.23529932858191,5.34398990642549,-0.0576222534737364,0.8047455421632846,-0.0213960554428012,0.2621695007181615,0.2700307694389637,0.2591502509940397,-166.91079549875295,52.20180616763234,43.38010596510654,1.14770995295562,1.6136233627589105,0.5939168510233604,1.7518107172731745,1.0818005778802555,0.4754992251688438,-288.0957807034946,65.98853253460645,105.29253924691992,0.8093907222151793,0.6985735811130185,1.044540133852726,1.2001781113209753,0.0977900534210892,1.2276812182436858
1.47,-44.591319412966655,78.3618645021923,33.02432718374017,-0.0252930446288217,0.4711089524438537,0.0660301349131985,0.3721628935872881,-0.0150211200436674,0.681153626345948,-12.826580342874031,62.210716489486096,5.202985128966615,0.1876169372514222,0.9342290446745266,-0.0419869800973009,-0.0848802164641141,0.2335093490971134,0.2603021352376646,-165.60604301583757,54.05197874185103,45.394884596199255,1.1039055389676131,1.2200103684290071,0.8687864881731098,2.118123757362894,0.6269399168246743,0.6041831847044158,-286.41426090339644,66.3948213218916,108.84707626684327,0.5474680951282284,0.6932590501916196,0.8679347300175988,1.638330727032536,0.2737020777999296,0.8192512455733804
1.48,-44.75053576026254,78.51296665440891,32.578473616575,0.1611355898478201,0.3999572649678539,-0.0459701050780902,0.3572137330827362,-0.0275285793948029,0.539567315069661,-12.606656773750306,63.12503643879212,5.035388166958538,0.1751563985632719,0.8427417766289962,0.1882872431510827,0.184112143557018,0.2247897549658362,0.2553293098502021,-164.3201627141087,55.926733659625626,46.676241455604384,0.861909587420261,1.3828116022292536,0.8445915085294393,1.1369082739184524,1.2582771777946584,0.6932077447763964,-285.5133482340605,66.73002352988524,111.48121760501913,0.6287814263022509,0.6096266584829624,0.3366153180584459,0.3497171255556826,1.834821131184292,2.254302398781086
1.49,-44.69864715311652,78.98242932490743,31.21207556518136,0.0227005040332958,0.4075064653335277,0.119347459240567,0.3462372523263904,0.072021498614775,0.176198375301104,-12.504222306925849,64.08061163681471,4.869750512534294,-0.0882865964115772,0.877551108519047,0.0212719382007773,0.2584694206976256,0.1274247166177031,0.2036531419244762,-162.7940890077447,57.6164346528903,48.13766487495244,0.654015182281379,1.6296120213272631,0.4727062733447658,0.3322724516450865,2.116378129635646,0.7258043943773157,-284.1769895853395,67.21885301183318,114.22804123214952,0.4261477997894632,0.6399842917292059,0.7510535189533813,1.7537670706011206,0.152330608159752,1.4430866158067537
1.5,-44.699159697048735,79.77464897760443,30.418022068821944,0.2842700256845716,0.6678008764351733,0.0280729138543809,0.1559200131130443,0.259464060925818,0.2985117948013428,-12.039380885735602,65.22198442533279,4.572025354870101,0.0683377524209006,1.0128061143131293,-0.043345597486483,0.0128516504497954,0.0796169027047343,0.2594740155448669,-162.8107895146317,58.579717096923325,49.58333623365393,0.8325647030652804,1.6293741403755115,0.1001685369259039,1.6172041610794587,0.1994225954624583,0.1820029995285539,-282.4703229532882,67.81690505835586,117.73425056458068,0.630421737291856,0.5117025907069557,1.1435624914624047,1.589022779686734,0.3975400426472937,1.4200846136415488
1.51,-44.431232727246496,80.44043659993068,29.036184448284384,-0.0214370746448888,0.5650910363360249,-0.0064228709654642,0.0299368498504018,0.3324451554621503,0.2531263142382236,-11.79853578998225,66.09727617497364,4.910149516071419,0.0374835584078108,0.9405661687806356,0.0306481455468075,0.4611053883052292,0.0486290257448638,0.3845820638312593,-162.26729750496236,59.92409675901705,49.481992122735726,0.8731727960578711,1.6635733336966394,0.3336460670545613,1.2969733251017177,0.4707907750360615,0.2073606580638268,-281.3526593382716,68.28209029358908,120.58229835933209,0.4670886159442412,0.4642267113308293,0.8459793155202575,1.1449831136465036,0.1161490848897793,0.9250522953485208
1.52,-44.211482473633815,81.01899118805719,27.836864846118434,0.2253433637197934,0.6722009489662045,0.0379602254191037,-0.0252229963839572,0.1443007000221578,0.2794840505011097,-11.72965336358236,67.39924071024879,4.250982395699168,0.1735941968670721,1.103970944039761,0.011712144075933,0.2908710706166301,0.0514934864317044,0.0738719483115894,-162.0153167001924,61.43581877088603,49.7220266196809,0.7252912779787688,1.08831765254309,0.693645304016548,1.092513811110264,0.4891467133508592,0.2219625874517969,-280.64475642606226,68.04768122585988,122.9765985757587,0.3057684130585887,0.7029515138940472,0.5973093953626594,0.8938805257640801,1.0084536937198807,1.1413830012551314
1.53,-43.87079249780428,81.87049996828493,26.572723851925065,0.1598111093846706,0.6313420039744345,0.1115923123430912,0.0931788449384975,0.0628298367607558,0.5266087162675841,-11.628041636521234,68.61683002167652,3.9147395706719,-0.0250757276468878,0.9860369347588624,0.1407587600461725,0.3377468815998783,0.0045470053718037,0.0397157317939037,-161.80307870003512,62.00430093671329,50.79797784413996,0.666292111779003,1.2232533728056147,0.3479703746255956,1.005968114900098,0.7741165946614308,0.0904185147406211,-280.133824286472,68.13023246350072,126.03106846251264,0.0019995990852048,0.8837249169092788,0.6168010671975802,1.175064352171318,1.8288394558228112,0.7764397718890097
1.54,-43.54448492881729,82.23238514882021,24.80134532063178,0.0456833501357907,0.6602258112036424,0.0315460773893832,0.1912623158692596,0.2444687606886717,0.1344217053440768,-11.50447065902562,69.60646204415289,3.611814267999826,-0.0303094688492069,1.072582011968691,-0.0392030847932115,0.666318689976334,0.1290671322627507,0.5008774886809886,-161.45209160775366,62.599953026484336,53.552555328777,0.9976393144653638,0.7943248939700782,0.0883200505837255,1.6882817604357188,0.17466822296719,0.0796135232864595,-279.0733443441867,68.24783968267477,129.27538006325702,0.3235926854176767,0.7032442587366505,0.9150828122977268,0.4522883686270817,0.776287075748431,1.0707310081389148
1.55,-42.9194266302853,83.04978726006767,23.137709756380108,0.3610480383192846,0.6335109442060542,0.1094101780795819,0.1572166739369143,0.1588127566546116,0.2546626783147754,-11.53779044928787,70.14198326923287,3.682664167203072,0.1206131563402999,1.1922485396284683,0.0444967199611244,0.5064830388398732,-0.0044006690280483,0.5574173480832674,-161.174142300258,63.40921767552757,56.79927052230864,0.8466074015789508,1.3107399165763798,0.1196366248766965,0.7982491545962658,0.6408106171320996,0.4300135272597924,-278.35268822801737,68.12775482296767,132.2481684457534,0.0850272013468648,0.92831516978098,0.6911492558127027,0.7425416465916821,0.8208395977096624,0.6891157400826158
1.56,-42.58487964113283,83.5226168776698,23.48183775079017,0.1302769624815841,0.5985752312589527,0.0515562054830374,0.0366412730602453,0.0786212599896636,-0.0210625986913385,-10.995489036471971,71.28448660765169,3.412130768704288,0.1666325808384605,1.1663120968883138,-0.0615727790074147,0.524212289833591,0.2948593147978524,0.3320856762928657,-161.19371266965285,63.66098143095604,60.094866771736825,0.8765770717579389,1.0898255575221838,0.3849380752600037,0.0288223889864716,0.7067270726414021,0.1426257202899359,-277.7906507841608,67.70497759107619,135.6525284097443,0.1680300867104937,1.087825332914069,0.4249013836552202,0.707896157203173,0.569994441199215,0.619684018609118
1.57,-42.22388045112852,84.21671072233947,23.442553776116902,0.0425715067385592,0.5891129021761347,0.0642184162916241,0.6225685012327953,0.0320747821459419,0.2823255148341591,-10.698753162605923,72.19017981487546,3.3399067202875266,0.0689898999352353,0.8974946889220394,0.0663404329316739,0.444757724677561,0.1895098623459329,0.213046382397642,-161.3032850119125,63.52583538779141,63.63162868021326,0.929201836051174,1.0359079289592106,0.4931215217203995,0.4903059171990612,0.3028379290800834,0.4598463322198161,-277.8411314149723,67.05435678526159,137.9727111645691,0.2803190451281366,0.8752400514007076,0.405523045503645,0.5925982653017551,1.5783011712346593,1.3207647971652896
1.58,-41.74985265994672,85.04523458119893,23.80327699940836,0.2495002425801733,0.5792693809469202,0.1648782975907142,0.4287168306742905,0.0639455056122364,0.2314934365544065,-10.784228627324683,73.37893097231607,2.963148660731876,0.2266701148563771,0.8552052821204473,0.0117076305847029,0.83372707932117,-0.0852365376780895,0.4869093175943566,-161.65722144900516,63.475314188173584,67.38039452330207,0.9135150087447416,1.0132464994477397,0.4808798528691781,-0.1385501836562336,0.971952120535864,0.7019589333755247,-276.8822460802683,66.50417169731413,140.75093551431766,0.193827728801666,0.6783449429134553,0.4046049273729991,0.3862471258550378,0.2960778604410969,1.3496420214540468
1.59,-41.5686023549868,85.70012471366985,23.87235615682548,0.1825977207044743,0.6598584256034848,0.1331152807328783,0.0762122770084994,0.2201498940822365,0.2043145124601995,-10.229579823292722,74.12785775179994,2.8146290359328887,-0.0464490475460079,0.8924131551015467,-0.1599297724457825,0.7553745842939656,0.1693237694393453,-0.0204010377372595,-161.55188875647758,63.58770201541945,70.45087597132556,0.7042957952654375,1.0571747774763431,0.4894600512560131,0.2131532696475442,0.6767593427002425,0.9118538592583814,-276.86710206695113,65.94164252451479,142.59424535107985,0.1714644551762863,0.720756771187928,0.4645591624986228,0.1681335130214161,0.3663905759754332,0.7195846496768521
1.6,-41.192231798684325,86.0936512538688,24.00945827838863,0.0305600503744845,0.6658085675886181,0.2601497482049418,0.2029626161949061,0.3367285612388749,0.2003757340757676,-9.954334478727176,74.79040684698644,2.558658419779768,0.0881665306382841,1.063343423885288,0.2424389686813793,0.83794824658284,0.1493142643629745,0.0773219629824092,-161.51495482430155,64.05833691359712,71.90751150722623,0.7897633766908969,0.90660241615786,0.432142863418045,0.1918168656179858,0.5685641046367357,1.0609358828268216,-276.75382125238235,65.65592254929665,143.56897758368106,0.2045211868337794,0.7980789869445656,0.4550932295256156,0.3602738101574884,1.0951137612874444,0.2988607869242902
1.61,-41.21074653156235,86.34508784765531,24.093325937386357,0.2694714036882474,0.7782762694454306,0.042989091717714,0.1856638676757122,0.2210963383930081,0.0281285502424436,-9.615188826520257,75.38258513493197,2.546217625667087,0.2162610631066495,0.8213639848864982,-0.1071074852513652,0.7509483238350195,0.0861592846734466,0.3896723404225477,-161.397292064972,63.7871398097651,73.55542915542108,0.7087648684503534,0.8661609850532952,-0.0118572704293735,0.3754647459424792,0.2703141001278706,1.0652462236506866,-276.71659942806,65.183166765197,144.3767471526702,0.1044609397432112,0.944120172347837,0.4787690851930171,0.8563479468750902,2.104188918957348,-0.0448018935837928
1.62,-40.90605661561491,86.74945586677498,24.08859360955065,0.1841931502107255,0.6375483370661043,0.1667023033194585,0.2522656380450337,0.3286478941876177,0.1666685064848322,-9.550226813313522,76.47619678219841,2.0858959894586087,-0.0171071816388126,0.9443912150486354,-0.0359771580540227,0.4895234511859531,0.1650570670365792,0.1276596092327296,-161.19191532182478,64.04352306178394,76.35855416802535,0.5782956600201528,0.7892660775629932,0.2073691741765241,0.4602376352572199,0.1977891396833351,0.6907278318305589,-276.52865091412446,64.94030966824596,146.02226312299243,0.1571995216870241,0.60055618918996,0.6015267931386064,0.3247405810036554,1.0367729821264426,0.7586998606097825
1.63,-40.31371292991911,87.30581231547126,24.290766637789645,0.2178993226434969,0.5508886255262957,0.0410037289325895,0.7906767455327034,0.202818711550623,0.2565648666440311,-9.337961513411022,77.11666801391874,1.6716845768309487,-0.0447710057771085,0.8582498597180436,0.0463117859525306,0.9203490922182438,0.2839729617992448,0.1678595951160561,-160.7241972493535,64.10766591296387,79.06987394234915,0.5641804251478567,0.9034596222241412,0.080997372504904,0.6265565628450741,0.4265962818628193,0.8188901247606167,-276.0164861795941,64.83878849069521,147.21985312019706,0.0823816610795388,0.8012133844381573,0.398089522256403,0.3627424919720169,0.2107737584319912,1.6562688882435586
1.64,-40.000340058129375,87.46154848473257,24.316486134427223,0.0820791488104307,0.5769036361344333,0.0180326167991209,0.6496323025013168,0.1082684625365681,0.3838450955138134,-9.052372838961432,78.1363169127666,1.4231145339240316,0.3257663115716196,0.7598145972536849,0.2356628433343673,1.0253879973381852,0.2644190389898326,0.1017087483420569,-160.6047376021037,64.16954126331294,81.75296199506134,0.7102037378636873,0.7020707863442264,-0.0268492470005614,0.6808917850926723,0.512886421971561,0.8177705356210923,-275.8772105028333,64.28910968092944,148.8276688692649,0.0624979223888132,0.7658025418721767,0.6555034109324157,0.4590648349152029,0.4352967793317442,0.868957075264966
1.65,-39.86448687328615,87.68434971925936,24.73729749444228,-0.0264010252824173,0.4770967336314045,0.1658073732910284,0.2717181056762268,0.2656188066142305,0.2241208992000805,-8.831039356894735,78.96996789127145,0.8891122876435834,-0.0936485150391197,0.6929149546848143,0.2202205686019279,0.7594540255667284,0.3832876838237463,0.4489467335903743,-160.24431181663678,64.23615229322769,84.33733301450842,0.4608711081339108,0.8463381578362357,0.085991148350332,0.7216108821195675,0.1197558663520745,0.6289119079382484,-275.7718609642787,63.76014628120362,150.26332061067873,0.0857186460138808,0.7320040736672706,0.4841548658341153,0.5209843490610387,0.8694878654534803,0.4384877516356442
1.66,-39.692606263884606,87.68079283333718,24.29742907874299,-0.1501587698721276,0.51283969784366,0.1824456844395631,0.5593050881803895,0.4949006849850958,0.2920116804708412,-8.89109328138741,79.5168610314436,0.1768856812574537,-0.0032841238754221,0.9176393365022322,0.1032845080229745,0.9013942398447382,0.2009958551589238,0.2326071935958721,-160.0947167851583,64.50582792314482,86.80444109209836,0.6679322989679158,0.7999423636230193,0.3112999566044685,0.1885093033273283,0.6923574292377318,0.2543531525942997,-275.7916906534455,63.17765720638311,151.5034120663202,0.0600675728781713,0.5681456671959965,0.3703985816377713,1.1083252229094276,1.2998059478701167,0.1166068461211932
1.67,-39.71852739961088,87.52682877237179,24.34571793803131,-0.0336080697914015,0.332767415363058,0.2520976590746341,0.6649748863461625,0.5883624170783828,0.189500227476568,-8.842599778413486,80.36322176275465,-0.3601635429468753,0.065728239224442,0.7651308226015782,-0.1788287658918055,0.77246544325557,0.2445434356785347,0.147171294698401,-159.28530421158354,64.53700987964817,89.12467004040455,0.8043384901708164,0.4841000168994825,0.4795449659997116,0.3079141876174066,0.5611872611323172,0.1604947430055358,-275.6131447613459,62.90111409482071,152.5226201074234,0.2823441202817007,0.3535445403809721,0.5741716014267493,1.0222924823371382,0.172141273160725,-0.1202087058334878
1.68,-39.64974035486439,87.24728433649689,24.213345893147245,0.1177298130080135,0.4367057812779666,0.0385359430170258,0.3051030062076096,-0.2505323755369859,0.0219907601521974,-8.654467329370627,81.30962755893799,-0.7367464968391876,0.1596850552716849,0.7010494223537496,0.1230381158380321,0.7454981736502705,0.1628802733878522,0.1316240916824186,-158.53851476207225,64.85595622308398,91.5067247007129,0.4040144493126194,0.5893243012602766,0.3768975841872909,0.1449453368119904,0.4946031812447294,0.0472365498777705,-275.6585191604292,62.52283813001037,153.96819697887065,0.1072735076115825,0.4391114158014558,0.447832001169108,0.5365927590333293,0.3088406837390833,0.0417389220396102
1.69,-39.395838662375226,86.98031764847926,24.121473333223456,0.0176560219986009,0.1232258478785086,0.0848127911205606,0.3045646752644149,0.0021735366785398,-0.1031450703322051,-8.880380062009742,82.04059622323192,-1.7492657390601345,0.2785734429955781,0.7615526927239439,0.0881347979451593,0.9392004830504984,0.1064216832961116,0.2403345578461136,-157.31561198329538,65.46461954294644,93.35028580103544,0.5024709681489302,0.5881260685859053,0.3775801141700936,0.2875102316674027,-0.0120797911970525,-0.1797513595834802,-275.7259494033038,62.27505799115216,154.77031067600842,0.2405803250158791,0.505906422573903,0.1289374547958743,0.3625079220800083,0.2625676879772182,0.7563392248164024
1.7,-39.2835168607929,86.8216042445216,23.96804994683682,0.0131488934783487,0.4588411721045798,0.0530375409197588,0.2130025709866324,0.1357961172111823,0.2220809064782955,-8.568767072281938,82.95796396897133,-1.5089574384053763,0.2792059400470891,0.5228641497874538,0.0611956431422379,0.9601020258900568,-0.0302170396817324,0.2322742191544177,-156.42057181618787,65.82542611522045,95.39819247401104,0.514593619913164,0.4322550631230746,0.31137502731243,0.3850179738000454,0.1938612830447932,0.3753099103538027,-276.18260423675304,61.81927298525707,155.01254167419074,0.0372397322374718,0.4474266491457093,0.2537245445434753,0.9630670107378004,0.5484023426958341,0.6639184984940959
1.71,-39.29637466759212,86.43924020353796,23.87090337944164,-0.0847872293054871,0.3715099202939078,-0.023851671169605,0.0927782765901328,-0.040654788393703,0.1861103934281022,-8.533335935596762,83.6225478644585,-1.729261428199064,0.1431257495440343,0.7555415948605974,0.2410328169601314,1.000768083859905,0.0412506663549517,0.5221506172024766,-155.74104445314975,66.03574968729504,97.2813640903076,0.6930711983169198,0.500856901866938,0.5688949602593479,1.0166755084200023,0.866300245514475,0.0558687307413592,-276.6745831532576,61.47232154795488,155.16529142772197,0.3596032621551262,0.3801897713210337,0.1639332204452803,0.9370635174979912,0.330252959493799,0.2254914935791616
1.72,-39.095081407434826,86.3254334952081,23.90870932891636,0.0855681579900777,0.1948514823392585,0.0410662978819355,0.1933561673323427,0.0996730791654035,0.6404903700921338,-8.543486602973271,84.26701583429947,-1.6904250968932495,0.1639812643890446,0.4909661861793299,0.1018370480438636,0.8207185915012816,0.2019514791425241,0.2347914112800307,-154.99885871418104,66.46909785337883,98.86152649507736,0.4843714988197269,0.2826325566894367,0.3969578740651754,0.7059072594591859,0.4508649354432135,-0.0032731097838485,-276.92206693824784,61.0663803168276,155.49117184820258,0.5255909893633265,0.4244158290857039,0.186226509726437,1.37115500971323,-0.0142331820472328,0.6286105758824526
1.73,-38.97288232198698,85.71876039233584,23.84507058765149,-0.1354881501968395,0.4770145557197315,0.1146586621814292,0.1488129466497141,0.1203805397592761,0.3320066851137873,-8.676904457694246,84.38641138332099,-1.4482004024209278,0.3639906625111786,0.2085798945464019,0.1753595082190192,0.5585279146159319,0.0509906801806439,0.1913896100814831,-154.30545947648804,66.82342493896108,100.3816962270146,0.6337314553414287,0.4010057709451609,0.4593431113943327,0.4452138297123201,0.5361742781368308,0.0261258874989711,-277.7548996777456,60.7746932340778,155.40045698797405,0.4502737305400531,0.3159284287264087,0.0895349127539253,0.8096678751481682,-0.0458896043133949,0.6701314500055883
1.74,-38.98977393778893,85.65271929123818,23.784638270922212,0.0328919478452301,0.3476527104780752,0.0388490303421478,0.8391815406696914,0.0646973227488226,0.6613080742521554,-8.639215341848493,84.83218649019936,-1.1677074488673145,-0.0113391729675378,0.3134766969224388,0.1885331073678333,0.541629131685103,0.2084438666761663,0.1782830811091326,-153.24092619663767,67.13944603259218,101.98541046619832,0.3986824727309814,0.2470164634907213,0.3227028475753908,0.4665427969667463,0.2084204828167511,0.2635467954892797,-278.2081050440504,60.41225822252799,155.6356627619219,0.3328610431038103,0.3910322227611349,-0.0038112189114387,0.5380589578988306,0.1723205018838735,0.5731416442721516
1.75,-38.74995660028982,85.32331440200426,23.775725176587688,-0.0343178509299662,0.3795062263692741,0.0589013010261396,0.8246395052842312,0.0575132734717583,0.3593808325928208,-8.546940226017867,85.5318477166378,-1.2898751725279904,0.1134795266631391,0.7483808182136875,-0.3056418763390154,0.3590549276895557,0.1519100288734483,0.1867222456834562,-152.3005266972346,67.57877851226631,103.34078497985053,0.4792222650765749,0.0891473661208185,0.4395937282813879,0.3601823177458634,0.6225015680805276,0.7698330666246548,-279.07507038435494,59.98268022240208,155.16957563124515,0.7727356728875407,0.0833235946449172,0.2900064771332314,0.8120591475363921,0.822979438754267,0.1184474364427584
1.76,-39.123024848640334,85.11843060181873,23.666265636824424,0.1121974464025026,0.3222617196420949,-0.0572059779043527,0.4240087182343837,-0.0916145974387962,0.4125863253033233,-8.473253146324398,85.70803146491065,-1.1905959884426836,0.1605804817337566,0.878108253682621,0.0356961341720733,0.2360808544402552,0.3159974153860936,0.2751615125730568,-151.67669435888598,67.64503200092885,103.91691318489131,0.487776568761109,0.3054526880004486,0.3754335442965434,0.4425408940294842,0.7384536180402645,0.7677942249464142,-279.77992374398895,60.062932914590135,155.09394366776075,0.5908842486999819,0.286819703713626,0.4595978830141194,0.5298276059855798,1.2897591505344002,0.3026871186802755
