0.01,-142.87,43.13,176.25,0.12,0.01,0.05,0.16,0.75,1.22,0.28,0.88,0.09,0.36,-104.57,40.25,208.37,0.03,1.19,0.03,0.36,0.51,0.34,0.62,0.67,0.39,0.12,-151.0,4.81,3.19,0.92,0.26,0.52,0.53,0.9,0.9,-0.03,0.04,-0.97,0.25,-124.31,26.81,24.75,0.52,0.5,0.23,0.44,0.26,1.65,-0.1,0.29,-0.82,0.49
0.02,-142.75,43.38,176.5,0.24,0.26,0.01,0.55,0.72,1.97,0.29,0.88,0.09,0.36,-104.64,40.88,208.37,0.12,1.11,0.06,0.51,0.02,0.02,0.62,0.67,0.39,0.13,-151.63,4.56,4.12,0.84,0.24,0.51,0.76,1.26,0.03,-0.03,0.04,-0.97,0.25,-124.06,27.37,25.37,0.6,0.48,0.13,0.51,0.16,1.5,-0.1,0.3,-0.81,0.49
0.03,-142.69,43.69,176.44,0.05,0.3,0.09,0.85,0.16,0.88,0.29,0.88,0.09,0.36,-104.76,43.25,208.31,0.02,1.34,0.08,0.66,0.86,0.29,0.62,0.66,0.4,0.14,-152.31,4.25,5.06,0.89,0.31,0.59,0.3,0.14,0.39,-0.03,0.05,-0.97,0.24,-124.0,27.94,26.25,0.61,0.5,0.17,0.1,0.17,0.12,-0.1,0.3,-0.81,0.49
0.04,-142.62,44.13,176.37,0.11,0.46,0.11,1.42,0.3,0.33,0.29,0.88,0.09,0.37,-104.7,44.81,208.31,0.05,1.44,0.04,0.44,0.8,0.67,0.62,0.65,0.4,0.15,-153.25,4.0,5.87,0.78,0.35,0.82,0.95,0.15,0.46,-0.02,0.06,-0.97,0.23,-123.75,28.5,26.94,0.54,0.5,0.17,0.43,0.31,0.23,-0.1,0.31,-0.8,0.49
0.05,-142.62,44.94,176.81,0.35,0.75,0.13,0.06,0.44,1.05,0.29,0.88,0.1,0.37,-104.7,46.37,208.31,0.01,1.25,0.03,0.53,0.29,0.14,0.62,0.65,0.41,0.16,-154.19,3.81,6.69,0.84,0.21,0.82,0.66,0.19,0.44,-0.02,0.06,-0.97,0.22,-124.25,29.44,28.5,0.46,0.63,0.39,0.15,1.22,0.88,-0.11,0.33,-0.8,0.49
0.06,-142.19,45.31,177.0,0.01,0.57,0.05,0.71,0.15,0.92,0.29,0.88,0.1,0.37,-104.76,47.75,208.12,0.1,1.34,0.02,0.29,0.03,0.16,0.62,0.64,0.42,0.18,-155.0,3.75,7.62,0.88,0.13,0.7,0.28,0.65,0.47,-0.02,0.07,-0.97,0.22,-124.25,30.06,29.25,0.53,0.56,0.18,1.31,0.2,0.18,-0.11,0.33,-0.8,0.49
0.07,-142.25,45.88,176.94,0.06,0.6,0.03,0.56,0.24,0.18,0.29,0.87,0.1,0.38,-104.76,49.31,207.87,0.07,1.47,0.02,1.08,0.64,0.82,0.62,0.64,0.42,0.19,-155.69,3.69,8.63,0.97,0.16,0.6,0.61,1.27,1.04,-0.02,0.08,-0.97,0.21,-123.75,31.19,30.69,0.6,0.51,0.1,0.57,0.94,0.34,-0.11,0.35,-0.79,0.5
0.08,-142.13,46.63,176.87,0.27,0.9,0.08,0.08,0.7,1.18,0.29,0.87,0.1,0.38,-104.83,51.06,207.68,0.11,1.55,0.01,0.53,0.42,0.31,0.62,0.63,0.43,0.2,-156.19,3.56,9.5,0.7,0.2,0.41,0.68,0.98,0.85,-0.01,0.09,-0.97,0.21,-123.5,31.81,31.44,0.59,0.6,0.28,0.34,0.28,0.56,-0.11,0.35,-0.78,0.5
0.09,-141.06,47.62,177.31,0.25,0.78,0.15,0.01,0.56,1.36,0.3,0.87,0.11,0.39,-104.76,52.75,207.37,0.04,1.48,0.04,1.24,0.69,0.71,0.61,0.63,0.43,0.21,-156.56,3.37,10.19,0.68,0.22,0.31,0.13,1.54,0.65,-0.01,0.09,-0.97,0.2,-123.19,32.56,32.19,0.58,0.65,0.22,0.07,0.3,0.42,-0.11,0.36,-0.77,0.51
0.1,-140.56,48.5,177.56,0.03,0.73,0.1,1.17,0.49,0.73,0.3,0.86,0.12,0.39,-104.83,54.44,207.12,0.02,1.53,0.07,2.15,0.6,0.45,0.61,0.62,0.44,0.23,-156.94,3.19,11.0,0.76,0.27,0.21,0.09,1.07,0.5,-0.01,0.1,-0.97,0.2,-123.13,33.25,33.06,0.56,0.71,0.04,0.47,0.95,1.03,-0.11,0.37,-0.77,0.51
0.11,-140.69,49.5,177.5,0.01,1.15,0.13,1.16,0.4,0.13,0.3,0.86,0.12,0.4,-104.89,56.31,206.75,0.09,1.72,0.03,1.43,0.53,1.75,0.61,0.61,0.44,0.24,-157.31,2.94,11.75,0.63,0.28,0.43,1.26,1.25,2.04,-0.0,0.11,-0.97,0.2,-123.06,33.94,34.06,0.7,0.7,0.1,1.78,0.8,0.39,-0.11,0.38,-0.76,0.51
0.12,-140.31,50.81,177.69,0.25,1.18,0.28,0.58,0.16,1.37,0.3,0.85,0.13,0.41,-104.95,58.0,206.43,0.04,1.47,0.01,0.83,0.59,1.44,0.61,0.61,0.45,0.25,-157.88,3.0,12.25,0.5,0.07,0.52,1.95,0.55,1.01,-0.01,0.11,-0.97,0.19,-122.94,34.69,35.0,0.73,0.64,0.33,1.12,1.93,0.14,-0.11,0.39,-0.76,0.51
0.13,-139.37,52.06,178.31,0.08,1.03,0.31,0.2,0.21,0.18,0.31,0.84,0.14,0.42,-105.33,59.56,206.31,0.13,1.39,0.03,1.0,0.1,0.01,0.6,0.6,0.45,0.26,-158.56,3.5,12.81,0.57,0.34,0.62,0.9,0.41,0.4,-0.01,0.12,-0.98,0.19,-122.19,35.5,35.69,0.73,0.4,0.57,0.92,0.28,0.88,-0.11,0.4,-0.75,0.52
0.14,-139.0,53.25,178.69,0.17,1.14,0.2,0.74,0.37,0.14,0.31,0.84,0.15,0.42,-105.58,61.25,206.19,0.19,1.57,0.03,1.76,0.16,0.79,0.6,0.6,0.46,0.28,-158.87,3.87,13.56,0.68,0.27,0.17,1.34,0.91,1.02,-0.01,0.12,-0.97,0.19,-121.37,36.25,36.25,0.69,0.4,0.62,0.69,0.84,0.37,-0.11,0.4,-0.74,0.53
0.15,-139.06,54.56,178.75,0.13,1.23,0.18,0.19,0.14,0.62,0.31,0.83,0.15,0.43,-105.58,63.19,205.75,0.25,1.88,0.11,2.48,0.18,0.08,0.6,0.59,0.46,0.29,-158.87,4.19,14.25,0.64,0.27,0.04,0.33,1.78,0.64,-0.01,0.13,-0.97,0.19,-120.31,37.13,36.81,0.83,0.37,0.82,1.13,0.17,0.92,-0.11,0.41,-0.73,0.53
0.16,-138.62,56.0,179.19,0.3,1.16,0.29,0.98,0.9,0.86,0.31,0.83,0.16,0.44,-105.95,66.31,205.25,0.03,2.77,0.09,0.81,0.21,0.18,0.59,0.58,0.47,0.32,-158.94,4.31,14.63,0.5,0.36,0.23,0.2,0.5,0.04,-0.01,0.13,-0.97,0.19,-119.13,38.06,37.38,0.82,0.47,0.78,0.55,0.67,0.55,-0.11,0.42,-0.72,0.54
0.17,-137.69,57.19,179.94,0.17,0.99,0.3,0.34,0.78,0.03,0.32,0.82,0.17,0.45,-106.39,69.56,204.56,0.08,3.21,0.03,1.07,0.4,0.04,0.58,0.57,0.47,0.34,-158.69,4.62,15.13,0.39,0.41,0.41,0.33,0.84,0.1,-0.01,0.14,-0.97,0.19,-118.19,39.0,38.06,0.82,0.52,0.67,0.11,0.96,0.67,-0.11,0.43,-0.71,0.55
0.18,-137.06,58.31,179.25,0.12,1.07,0.29,0.62,0.08,0.1,0.32,0.81,0.17,0.46,-106.7,73.44,203.0,0.02,3.56,0.03,1.8,1.41,0.14,0.56,0.56,0.48,0.37,-158.19,5.0,15.56,0.32,0.48,0.35,0.3,0.42,0.11,-0.02,0.14,-0.97,0.19,-117.06,40.12,38.63,0.8,0.61,0.91,0.09,0.11,0.63,-0.11,0.43,-0.7,0.56
0.19,-136.19,59.81,178.31,0.45,1.48,0.33,0.5,0.38,1.12,0.32,0.81,0.17,0.47,-107.02,77.75,200.31,0.13,4.05,0.11,2.36,1.19,2.26,0.54,0.55,0.48,0.42,-158.19,5.56,15.81,0.12,0.56,0.32,0.33,0.41,0.26,-0.02,0.14,-0.97,0.19,-115.88,41.37,39.19,0.76,0.69,0.95,0.42,0.59,1.11,-0.12,0.44,-0.68,0.57
0.2,-135.06,61.44,177.06,0.43,1.41,0.31,0.42,0.21,0.35,0.32,0.8,0.17,0.48,-107.76,83.06,200.31,0.51,5.36,0.06,2.54,0.62,2.14,0.53,0.53,0.49,0.45,-158.44,6.31,15.94,0.01,0.79,0.3,0.18,0.28,0.69,-0.03,0.15,-0.97,0.19,-114.81,42.56,39.81,0.71,0.73,0.8,0.16,0.5,0.72,-0.12,0.45,-0.67,0.58
0.21,-134.5,62.88,176.19,0.11,1.33,0.18,0.51,0.66,0.02,0.31,0.79,0.18,0.49,-107.76,86.5,200.31,0.24,3.1,0.05,2.18,0.54,0.78,0.52,0.51,0.5,0.47,-158.63,7.25,15.88,0.08,0.81,0.28,2.08,0.46,1.55,-0.04,0.15,-0.97,0.19,-113.88,43.69,40.31,0.55,0.55,0.81,0.9,2.4,1.23,-0.12,0.46,-0.66,0.58
0.22,-134.12,64.44,175.38,0.28,1.43,0.22,1.13,0.45,1.29,0.31,0.79,0.18,0.5,-107.51,87.44,200.25,0.27,1.52,0.04,2.83,0.42,0.12,0.52,0.5,0.5,0.47,-158.94,8.25,15.63,0.21,0.69,0.37,0.48,1.03,0.29,-0.05,0.15,-0.97,0.19,-112.94,44.94,40.56,0.44,0.82,1.05,0.88,2.31,2.55,-0.12,0.47,-0.65,0.59
0.23,-133.56,65.94,174.31,0.22,1.37,0.2,0.46,0.15,0.49,0.31,0.78,0.18,0.52,-107.33,87.44,200.19,0.18,0.07,0.02,0.73,0.44,0.68,0.52,0.5,0.51,0.47,-159.19,9.13,15.31,0.28,0.77,0.29,0.07,0.76,0.6,-0.05,0.14,-0.97,0.19,-111.94,46.44,41.06,0.52,0.98,0.78,0.85,0.63,0.23,-0.13,0.47,-0.64,0.6
0.24,-133.37,67.44,173.5,0.04,1.38,0.12,0.27,0.5,0.09,0.3,0.78,0.18,0.53,-107.02,87.37,200.13,0.28,0.67,0.08,0.66,0.39,1.79,0.52,0.5,0.51,0.47,-159.37,10.13,14.94,0.32,0.88,0.31,0.54,0.82,0.68,-0.06,0.14,-0.97,0.19,-111.06,47.88,41.81,0.61,1.05,0.8,1.1,0.53,0.16,-0.13,0.48,-0.62,0.6
0.25,-133.37,69.0,172.69,0.03,1.46,0.12,0.71,0.57,0.13,0.29,0.77,0.18,0.54,-106.83,87.25,200.06,0.01,0.02,0.04,1.08,0.41,1.11,0.52,0.5,0.51,0.47,-159.63,11.12,14.56,0.38,0.77,0.33,1.05,0.2,0.56,-0.07,0.14,-0.97,0.19,-110.44,49.38,42.56,0.53,1.06,0.86,2.04,1.09,0.07,-0.13,0.49,-0.61,0.61
0.26,-133.0,70.62,171.25,0.15,1.51,0.22,1.05,0.38,1.18,0.28,0.76,0.17,0.55,-106.76,87.19,200.06,0.37,0.35,0.08,2.89,1.69,5.62,0.52,0.5,0.51,0.47,-159.81,12.0,14.06,0.4,0.72,0.39,1.81,1.23,2.77,-0.08,0.14,-0.97,0.19,-109.56,50.75,43.5,0.74,0.99,0.7,1.75,0.99,0.42,-0.13,0.5,-0.59,0.61
0.27,-132.69,72.37,169.56,0.15,1.6,0.13,2.35,0.2,0.57,0.27,0.76,0.17,0.57,-107.14,87.06,200.06,0.66,0.03,0.05,0.75,0.27,2.15,0.52,0.5,0.5,0.47,-160.19,12.88,13.62,0.25,0.64,0.3,1.53,1.3,2.86,-0.09,0.14,-0.97,0.18,-108.63,52.38,44.56,0.7,1.23,1.03,2.1,1.64,0.05,-0.13,0.51,-0.58,0.62
0.28,-132.44,74.0,167.94,0.13,1.37,0.09,1.72,0.26,0.42,0.26,0.75,0.16,0.58,-106.83,86.87,200.0,0.25,0.29,0.04,3.08,2.37,2.64,0.52,0.5,0.5,0.47,-160.44,13.56,13.25,0.3,0.54,0.29,2.04,0.88,1.76,-0.1,0.13,-0.97,0.18,-107.75,54.0,45.81,0.64,1.32,0.66,3.06,0.82,0.56,-0.13,0.53,-0.56,0.63
0.29,-132.25,75.37,166.19,0.09,1.2,0.15,0.22,0.13,0.28,0.25,0.75,0.16,0.59,-106.7,86.37,199.93,0.17,1.07,0.05,1.85,1.15,0.81,0.52,0.51,0.5,0.47,-160.81,14.25,12.69,0.46,0.5,0.46,2.48,0.07,2.85,-0.1,0.13,-0.97,0.18,-107.12,55.5,47.56,0.72,1.4,0.61,2.49,0.37,0.38,-0.13,0.54,-0.54,0.63
0.3,-132.19,76.69,164.13,0.05,1.31,0.1,2.25,1.04,0.09,0.24,0.74,0.15,0.61,-106.51,85.56,199.87,0.23,0.91,0.01,1.26,0.07,0.58,0.53,0.51,0.5,0.46,-161.25,14.81,12.06,0.53,0.34,0.65,2.02,0.22,3.47,-0.11,0.12,-0.97,0.17,-106.94,56.31,48.5,0.69,1.66,0.6,2.47,0.8,0.34,-0.13,0.55,-0.53,0.63
0.31,-132.31,78.25,161.81,0.01,1.54,0.02,3.5,0.11,0.22,0.22,0.74,0.14,0.62,-106.33,84.75,199.87,0.14,0.64,0.04,0.38,0.17,0.35,0.53,0.51,0.5,0.45,-161.94,15.31,11.25,0.66,0.22,0.87,1.6,0.38,2.22,-0.12,0.12,-0.97,0.17,-106.44,58.06,50.94,0.71,1.84,0.45,2.78,0.46,0.35,-0.13,0.56,-0.51,0.64
0.32,-132.12,79.56,158.56,0.09,0.97,0.16,0.73,1.25,0.38,0.2,0.74,0.12,0.63,-106.26,84.19,199.93,0.09,0.41,0.05,0.28,0.23,0.79,0.53,0.52,0.5,0.45,-162.75,15.75,10.19,0.84,0.19,0.99,2.09,0.5,1.9,-0.12,0.11,-0.97,0.16,-106.0,59.69,53.94,0.75,1.87,0.44,2.27,0.1,0.73,-0.12,0.58,-0.48,0.65
0.33,-131.94,80.5,155.25,0.02,0.93,0.14,0.33,1.13,0.82,0.18,0.74,0.11,0.64,-106.08,83.75,199.93,0.13,0.34,0.03,0.7,0.45,0.23,0.53,0.52,0.5,0.45,-163.75,16.12,8.94,0.9,0.22,1.05,0.84,2.08,2.35,-0.13,0.1,-0.98,0.15,-105.5,62.88,53.94,0.79,2.12,0.44,1.75,0.56,0.83,-0.14,0.59,-0.46,0.65
0.34,-132.0,81.56,151.19,0.01,1.22,0.04,2.27,0.2,0.73,0.15,0.74,0.09,0.65,-106.02,83.5,200.0,0.03,0.3,0.11,0.8,0.31,1.05,0.53,0.52,0.5,0.45,-164.75,16.62,7.5,1.03,0.35,1.05,0.19,1.82,2.16,-0.13,0.08,-0.98,0.14,-105.31,64.37,58.63,0.83,2.12,0.54,0.14,0.44,0.62,-0.12,0.61,-0.43,0.65
0.35,-132.06,82.69,151.19,0.04,1.13,0.03,1.69,0.18,0.45,0.15,0.73,0.09,0.66,-105.83,83.19,200.12,0.03,0.2,0.12,0.14,0.88,0.85,0.54,0.52,0.5,0.44,-165.56,17.25,6.0,1.11,0.44,0.84,0.7,1.68,1.44,-0.14,0.07,-0.98,0.13,-103.81,67.25,70.32,1.11,2.21,0.55,0.92,0.54,0.11,-0.06,0.66,-0.34,0.67
0.36,-132.25,84.37,151.19,0.02,1.15,0.01,1.57,0.66,0.13,0.14,0.72,0.09,0.67,-105.76,83.06,200.12,0.08,0.02,0.03,0.05,0.75,0.1,0.54,0.52,0.5,0.44,-166.12,17.81,4.44,1.14,0.48,0.76,0.42,1.56,1.42,-0.15,0.06,-0.98,0.13,-103.12,68.44,77.32,1.09,2.27,0.81,0.61,2.15,0.5,-0.02,0.68,-0.29,0.68
0.37,-132.19,85.12,151.19,0.15,1.12,0.03,1.91,1.34,0.06,0.14,0.72,0.1,0.67,-105.83,83.06,200.18,0.08,0.27,0.02,0.01,0.49,0.32,0.54,0.52,0.5,0.44,-166.81,18.5,2.81,1.29,0.56,0.84,0.34,1.14,0.92,-0.16,0.04,-0.98,0.12,-102.25,69.31,84.94,0.86,2.25,0.78,1.45,0.39,0.2,0.02,0.7,-0.23,0.68
0.38,-131.87,85.44,151.07,0.26,0.83,0.12,0.24,1.11,0.1,0.14,0.72,0.1,0.67,-105.89,82.62,199.05,0.09,0.47,0.02,0.81,0.2,0.41,0.53,0.53,0.49,0.44,-167.37,19.0,1.12,1.21,0.39,0.69,0.07,0.8,0.13,-0.16,0.03,-0.98,0.11,-101.5,69.94,92.82,0.91,2.2,0.81,1.46,1.14,0.45,0.07,0.71,-0.17,0.68
0.39,-131.44,85.44,150.88,0.26,0.61,0.14,0.22,0.68,0.18,0.14,0.72,0.1,0.67,-105.95,82.06,197.68,0.11,0.5,0.11,0.89,1.5,0.24,0.53,0.53,0.48,0.45,-167.81,19.44,0.37,1.24,0.47,0.59,0.68,0.33,1.46,-0.17,0.02,-0.98,0.11,-100.56,70.12,100.82,0.82,2.2,0.74,0.81,0.33,0.54,0.12,0.72,-0.12,0.67
0.4,-131.19,85.5,150.88,0.26,0.7,0.08,0.93,0.07,0.42,0.14,0.72,0.1,0.67,-106.02,81.56,197.37,0.13,0.35,0.11,0.47,1.81,0.46,0.53,0.54,0.48,0.45,-168.37,20.19,2.12,1.44,0.63,0.9,0.03,1.13,0.98,-0.17,0.04,-0.98,0.1,-99.69,69.94,108.88,0.72,2.25,0.77,0.65,0.74,0.58,0.18,0.72,-0.06,0.66
0.41,-130.94,85.38,150.94,0.3,0.69,0.03,0.95,0.77,0.18,0.14,0.72,0.1,0.67,-106.39,81.19,196.87,0.22,0.31,0.08,0.13,1.65,0.18,0.53,0.54,0.47,0.45,-169.25,20.88,4.19,1.54,0.69,1.0,0.93,1.25,0.3,-0.18,0.05,-0.98,0.1,-99.19,69.37,116.94,0.67,2.42,0.84,0.68,0.26,0.54,0.23,0.73,-0.01,0.65
0.42,-130.69,85.19,150.94,0.24,0.48,0.03,0.77,1.15,0.04,0.14,0.72,0.11,0.67,-106.76,80.87,195.62,0.27,0.36,0.09,0.26,0.74,0.11,0.52,0.55,0.47,0.45,-170.0,21.5,6.5,1.76,0.73,0.98,0.95,1.06,1.57,-0.18,0.07,-0.98,0.1,-98.12,67.06,116.94,0.44,2.4,0.73,2.24,1.72,1.57,0.25,0.73,-0.02,0.64
0.43,-130.25,84.94,151.0,0.42,0.48,0.05,0.65,0.7,0.65,0.15,0.72,0.11,0.67,-107.02,80.44,193.99,0.08,0.56,0.11,0.18,0.04,0.57,0.51,0.56,0.46,0.46,-170.75,22.19,8.94,1.76,0.75,1.0,0.7,1.52,1.96,-0.19,0.09,-0.97,0.09,-97.88,65.56,121.81,0.32,2.13,0.59,1.7,0.26,0.69,0.28,0.73,0.0,0.63
0.44,-129.81,84.69,151.0,0.38,0.52,0.01,0.44,0.3,0.86,0.15,0.72,0.11,0.67,-107.2,79.75,191.62,0.1,0.75,0.16,1.12,0.98,0.47,0.51,0.58,0.44,0.47,-171.44,22.81,11.31,1.73,0.73,0.87,0.28,0.76,0.71,-0.19,0.11,-0.97,0.09,-97.12,62.75,121.81,0.44,1.89,0.66,0.96,1.44,0.1,0.3,0.73,-0.01,0.62
0.45,-129.63,84.37,150.94,0.27,0.49,0.04,0.28,0.54,1.14,0.15,0.72,0.11,0.67,-107.26,78.81,189.12,0.14,0.82,0.17,1.76,2.1,0.01,0.5,0.59,0.42,0.47,-172.19,23.38,13.69,1.66,0.75,0.9,1.07,1.72,1.04,-0.19,0.13,-0.97,0.09,-96.31,61.13,125.31,0.64,1.93,0.47,0.05,0.04,0.45,0.34,0.73,0.01,0.6
0.46,-129.5,84.13,150.88,0.25,0.47,0.07,0.18,1.14,1.73,0.15,0.72,0.11,0.67,-107.45,78.06,186.99,0.11,0.76,0.21,0.08,2.41,0.26,0.49,0.6,0.41,0.48,-172.94,23.94,16.12,1.72,0.81,0.97,0.83,1.92,1.6,-0.2,0.15,-0.96,0.09,-95.94,59.38,128.12,0.6,1.92,0.34,0.76,0.1,0.69,0.36,0.73,0.02,0.59
0.47,-129.44,83.94,150.75,0.01,0.35,0.12,0.81,0.05,0.61,0.15,0.72,0.11,0.67,-107.64,77.44,185.56,0.04,0.59,0.14,0.74,1.51,0.78,0.48,0.61,0.4,0.48,-173.62,24.44,18.62,1.78,0.71,0.79,0.16,1.39,0.01,-0.2,0.17,-0.96,0.09,-95.44,57.62,130.37,0.34,1.69,0.79,0.08,1.26,0.28,0.39,0.72,0.02,0.57
0.48,-129.69,83.75,150.56,0.01,0.43,0.25,0.7,0.15,0.47,0.15,0.72,0.1,0.66,-107.7,77.06,185.12,0.19,0.15,0.11,1.45,4.64,0.37,0.48,0.61,0.4,0.48,-174.0,24.81,21.0,1.75,0.58,0.59,0.83,1.43,0.37,-0.2,0.19,-0.96,0.09,-94.56,56.13,132.74,0.4,1.54,0.61,0.68,1.59,1.28,0.41,0.72,0.03,0.56
0.49,-129.94,83.5,150.31,0.05,0.48,0.24,1.08,0.17,0.35,0.15,0.73,0.1,0.66,-107.39,77.44,185.06,0.34,0.21,0.08,0.99,4.56,0.86,0.48,0.61,0.4,0.48,-174.31,25.31,23.44,1.89,0.74,0.58,0.17,0.98,0.06,-0.2,0.21,-0.95,0.09,-94.06,54.81,134.56,0.52,1.2,0.43,0.51,1.63,0.69,0.43,0.72,0.04,0.54
0.5,-129.94,83.25,150.13,0.27,0.31,0.09,0.46,0.18,0.92,0.15,0.73,0.1,0.66,-107.02,77.0,184.31,0.5,0.46,0.05,0.92,1.0,0.3,0.48,0.61,0.39,0.48,-174.69,25.88,26.06,1.96,0.9,0.69,0.19,0.44,0.42,-0.21,0.23,-0.95,0.09,-93.0,53.69,136.18,0.28,1.04,0.54,0.04,0.66,1.24,0.45,0.72,0.05,0.53
0.51,-129.81,83.0,150.13,0.04,0.19,0.09,0.59,1.25,1.24,0.15,0.73,0.1,0.66,-106.64,76.44,183.74,0.33,0.58,0.02,0.71,1.83,0.08,0.49,0.62,0.39,0.48,-175.31,26.37,28.81,1.94,0.76,0.68,1.79,1.04,1.21,-0.21,0.25,-0.94,0.1,-92.44,52.75,137.74,0.2,1.01,0.87,1.07,0.06,0.38,0.46,0.71,0.05,0.52
0.52,-130.06,82.94,148.57,0.23,0.18,0.13,0.85,1.96,0.51,0.14,0.73,0.09,0.66,-106.58,75.62,182.18,0.26,0.76,0.24,0.45,0.58,0.56,0.48,0.63,0.38,0.48,-175.75,26.75,31.5,1.98,0.83,0.78,2.51,0.5,0.28,-0.21,0.27,-0.93,0.1,-91.31,51.94,139.18,0.37,0.8,0.45,0.07,0.08,1.95,0.48,0.71,0.06,0.51
0.53,-130.69,82.94,147.19,0.44,0.02,0.21,0.03,1.91,0.74,0.13,0.73,0.07,0.67,-106.83,75.06,180.55,0.13,0.5,0.28,0.49,0.39,0.28,0.48,0.64,0.37,0.49,-176.25,27.31,34.25,1.85,1.05,0.63,2.12,0.24,0.03,-0.22,0.29,-0.93,0.1,-90.19,51.25,140.31,0.47,0.68,0.26,0.15,0.29,1.53,0.49,0.7,0.07,0.5
0.54,-131.81,83.25,147.19,0.25,0.16,0.25,2.02,0.88,0.06,0.12,0.73,0.07,0.67,-106.83,74.62,179.74,0.1,0.43,0.05,0.89,0.3,0.29,0.47,0.64,0.36,0.49,-176.75,28.0,36.81,1.66,1.15,0.4,0.3,0.46,0.22,-0.22,0.31,-0.92,0.1,-89.69,50.5,140.99,0.38,0.65,0.07,1.34,0.77,1.5,0.5,0.7,0.07,0.5
0.55,-132.37,83.56,146.94,0.14,0.12,0.24,1.25,0.06,1.95,0.12,0.73,0.06,0.67,-106.76,73.94,179.68,0.07,0.72,0.06,0.3,0.05,1.12,0.48,0.64,0.36,0.48,-176.87,28.75,38.75,1.27,0.94,0.18,0.53,0.84,0.1,-0.23,0.33,-0.91,0.11,-88.69,48.87,142.25,0.3,0.84,0.42,0.12,0.31,0.14,0.52,0.7,0.07,0.48
0.56,-132.69,83.62,146.69,0.01,0.08,0.22,0.75,0.03,2.23,0.11,0.73,0.06,0.67,-106.64,73.06,179.18,0.16,0.73,0.02,0.78,1.21,0.77,0.48,0.65,0.35,0.48,-177.12,29.37,40.44,1.15,0.86,0.14,0.98,1.82,0.45,-0.23,0.34,-0.91,0.11,-87.44,47.94,143.31,0.46,0.86,0.36,0.78,1.29,0.08,0.54,0.69,0.08,0.47
0.57,-132.81,83.56,146.51,0.09,0.12,0.15,1.92,1.63,0.08,0.11,0.73,0.06,0.67,-106.64,72.69,178.99,0.01,0.33,0.04,0.03,0.84,0.31,0.48,0.65,0.35,0.48,-177.44,30.0,42.31,1.17,1.03,0.3,0.34,0.56,0.44,-0.23,0.35,-0.9,0.11,-85.69,47.13,144.37,0.74,0.75,0.09,0.32,1.93,0.2,0.56,0.68,0.09,0.46
0.58,-132.87,83.44,146.44,0.02,0.09,0.04,1.95,2.15,0.42,0.11,0.73,0.06,0.67,-106.7,72.31,178.62,0.06,0.41,0.13,0.12,0.15,0.03,0.48,0.65,0.34,0.48,-177.87,30.44,44.13,1.11,0.9,0.45,0.54,0.35,0.27,-0.24,0.37,-0.89,0.12,-84.31,46.31,145.43,0.68,0.74,0.28,0.06,0.33,1.16,0.57,0.68,0.09,0.45
0.59,-132.81,83.37,146.51,0.24,0.04,0.14,0.8,0.74,0.02,0.11,0.73,0.06,0.67,-106.76,71.87,178.05,0.05,0.49,0.12,0.16,0.15,0.13,0.47,0.66,0.34,0.48,-178.5,30.62,45.75,0.92,0.56,0.36,0.17,0.9,1.46,-0.24,0.38,-0.89,0.11,-82.69,45.5,146.43,0.51,0.7,0.24,0.22,0.52,0.83,0.59,0.67,0.1,0.44
0.6,-132.19,83.06,146.51,0.46,0.19,0.34,1.61,2.29,0.32,0.12,0.73,0.06,0.67,-106.89,71.31,177.49,0.05,0.43,0.09,0.66,0.21,0.38,0.47,0.66,0.33,0.48,-178.75,30.75,47.19,1.02,0.45,0.32,0.34,1.15,0.36,-0.24,0.39,-0.88,0.12,-77.81,44.88,147.18,0.54,0.56,0.09,0.6,1.12,0.05,0.62,0.64,0.12,0.43
0.61,-131.31,82.62,148.69,0.29,0.31,0.43,1.51,1.64,0.38,0.14,0.73,0.08,0.66,-106.95,70.87,177.05,0.12,0.25,0.12,1.14,0.3,0.32,0.47,0.66,0.33,0.48,-178.81,31.0,48.69,1.07,0.53,0.09,1.78,1.05,1.09,-0.24,0.4,-0.88,0.12,-77.69,44.25,147.93,0.56,0.6,0.12,0.6,0.13,1.03,0.63,0.64,0.12,0.43
0.62,-131.44,82.31,148.94,0.46,0.24,0.04,0.2,1.54,1.05,0.14,0.73,0.08,0.66,-107.02,70.69,176.49,0.1,0.15,0.15,1.16,0.58,0.62,0.47,0.67,0.32,0.48,-178.81,31.25,50.25,1.11,0.6,0.11,0.63,0.41,0.94,-0.24,0.41,-0.87,0.12,-77.69,43.44,148.56,0.34,0.78,0.18,0.71,1.12,0.85,0.63,0.64,0.12,0.42
0.63,-132.37,82.25,145.26,0.34,0.28,0.53,1.61,1.64,0.27,0.11,0.74,0.05,0.67,-107.14,70.56,175.99,0.05,0.09,0.14,0.34,0.59,0.29,0.47,0.67,0.32,0.48,-178.5,31.81,51.81,1.19,0.53,0.17,0.27,0.67,1.6,-0.24,0.42,-0.86,0.13,-78.12,42.94,148.75,0.19,0.86,0.02,1.77,0.5,0.39,0.63,0.64,0.12,0.42
0.64,-133.0,82.12,141.01,0.02,0.22,0.41,1.22,0.32,0.09,0.08,0.74,0.02,0.67,-107.14,70.5,175.56,0.16,0.06,0.04,0.21,0.1,0.08,0.47,0.67,0.32,0.48,-178.56,32.0,52.62,1.42,0.41,0.05,0.26,0.83,0.15,-0.24,0.43,-0.86,0.13,-78.06,42.0,148.93,0.23,0.88,0.11,1.56,0.63,0.88,0.64,0.64,0.11,0.41
0.65,-133.0,82.0,139.45,0.18,0.18,0.05,0.92,1.33,0.95,0.07,0.74,0.01,0.67,-107.08,70.56,175.3,0.1,0.04,0.02,0.27,0.11,0.62,0.47,0.67,0.32,0.48,-178.31,32.19,54.44,1.23,0.4,0.03,0.21,0.5,1.55,-0.24,0.44,-0.85,0.14,-77.87,40.94,149.06,0.12,1.08,0.04,0.48,0.58,0.45,0.64,0.64,0.11,0.41
0.66,-132.63,81.75,139.38,0.33,0.18,0.1,0.13,1.61,1.06,0.08,0.74,0.01,0.67,-107.02,70.56,175.12,0.11,0.01,0.04,0.19,0.28,0.39,0.47,0.67,0.32,0.48,-177.94,32.56,55.94,1.12,0.35,0.3,1.23,0.34,0.33,-0.24,0.45,-0.85,0.15,-78.12,39.75,149.06,0.05,1.06,0.22,0.39,0.62,0.34,0.65,0.64,0.1,0.4
0.67,-132.31,81.63,139.2,0.19,0.09,0.18,0.98,0.29,0.41,0.08,0.74,0.01,0.67,-106.95,70.62,174.81,0.14,0.11,0.05,0.2,0.1,0.08,0.46,0.67,0.31,0.49,-177.31,33.0,57.38,1.4,0.28,0.06,2.9,1.04,0.5,-0.24,0.47,-0.84,0.16,-77.75,38.63,148.99,0.14,0.96,0.25,0.03,1.02,1.72,0.65,0.64,0.09,0.4
0.68,-132.75,81.63,137.95,0.3,0.04,0.25,0.18,1.05,0.17,0.07,0.74,-0.0,0.67,-106.95,70.87,174.81,0.01,0.22,0.01,0.57,0.03,0.42,0.46,0.67,0.32,0.49,-177.0,33.13,59.19,1.5,0.51,0.52,1.53,0.03,1.03,-0.24,0.48,-0.83,0.16,-77.87,37.63,148.93,0.16,0.88,0.2,0.18,0.1,1.13,0.66,0.64,0.08,0.39
0.69,-133.31,81.63,136.07,0.21,0.02,0.26,1.13,1.17,1.0,0.05,0.74,-0.02,0.67,-106.89,71.19,174.81,0.04,0.33,0.03,0.33,1.39,0.61,0.46,0.67,0.32,0.49,-177.44,32.81,61.37,1.48,0.52,0.63,0.28,1.09,1.05,-0.23,0.49,-0.82,0.16,-77.69,36.75,148.81,0.03,0.65,0.28,0.12,1.12,0.29,0.66,0.64,0.08,0.39
0.7,-133.44,81.81,135.63,0.04,0.17,0.03,0.61,0.09,1.14,0.05,0.74,-0.02,0.67,-106.76,71.56,174.87,0.18,0.34,0.03,0.03,1.9,0.32,0.46,0.67,0.32,0.49,-177.5,32.69,63.44,1.72,0.33,0.44,0.4,0.26,0.31,-0.23,0.51,-0.81,0.17,-77.37,36.06,148.68,0.13,0.56,0.26,0.75,0.55,1.41,0.66,0.64,0.07,0.39
0.71,-133.37,81.87,135.95,0.11,0.07,0.02,0.53,0.23,0.28,0.05,0.74,-0.02,0.67,-106.39,72.12,174.93,0.13,0.21,0.1,0.1,0.29,1.41,0.46,0.66,0.32,0.49,-177.38,32.44,65.69,1.74,0.34,0.36,0.18,1.31,0.41,-0.22,0.53,-0.8,0.17,-77.5,35.5,148.75,0.11,0.52,0.06,0.63,1.66,1.39,0.66,0.64,0.07,0.38
0.72,-133.5,81.94,136.07,0.17,0.01,0.01,0.02,0.58,0.07,0.05,0.74,-0.02,0.67,-106.14,72.44,174.99,0.22,0.29,0.08,0.06,0.45,1.43,0.46,0.66,0.33,0.49,-177.25,32.5,67.81,1.69,0.33,0.04,1.04,1.56,0.08,-0.22,0.54,-0.79,0.18,-77.5,35.0,148.68,0.05,0.25,0.03,0.19,0.37,0.67,0.67,0.64,0.06,0.38
0.73,-133.56,82.0,136.38,0.03,0.11,0.03,0.63,1.05,0.96,0.05,0.74,-0.02,0.67,-105.95,72.69,175.05,0.12,0.2,0.05,1.59,0.03,0.04,0.46,0.66,0.33,0.49,-176.06,33.25,69.69,1.62,0.4,0.75,1.1,1.68,1.38,-0.22,0.56,-0.78,0.19,-78.12,34.63,148.99,0.19,0.11,0.14,0.48,0.32,0.69,0.66,0.64,0.06,0.38
0.74,-133.44,82.25,137.2,0.06,0.29,0.06,0.77,0.92,0.77,0.06,0.74,-0.01,0.67,-105.89,72.87,175.05,0.05,0.22,0.01,0.9,0.31,0.97,0.46,0.66,0.33,0.49,-175.19,34.0,72.0,2.01,0.5,0.35,0.75,0.17,0.51,-0.21,0.57,-0.77,0.2,-78.31,34.5,148.81,0.14,0.12,0.26,0.58,0.57,0.74,0.66,0.64,0.06,0.38
0.75,-133.31,82.62,138.13,0.06,0.4,0.02,0.33,0.08,0.96,0.06,0.74,-0.0,0.67,-105.76,73.25,174.99,0.17,0.36,0.03,0.6,1.01,1.41,0.46,0.66,0.33,0.5,-174.38,34.25,74.56,1.97,0.48,0.13,0.91,0.84,0.59,-0.21,0.59,-0.75,0.22,-78.87,34.31,148.62,0.07,0.14,0.07,0.24,1.63,0.71,0.66,0.65,0.06,0.38
0.76,-133.31,82.88,138.32,0.02,0.36,0.1,0.16,0.03,0.88,0.06,0.74,0.0,0.67,-105.45,73.75,174.74,0.3,0.47,0.02,0.51,0.28,1.28,0.46,0.65,0.33,0.5,-173.38,34.88,76.69,1.66,0.48,0.47,1.59,0.71,1.2,-0.2,0.6,-0.74,0.23,-79.06,34.19,148.43,0.06,0.16,0.27,0.57,0.56,0.63,0.66,0.65,0.05,0.38
0.77,-133.5,83.25,138.32,0.01,0.27,0.09,0.28,0.8,0.07,0.06,0.74,0.0,0.68,-105.39,74.0,174.8,0.2,0.34,0.01,1.06,0.16,0.69,0.46,0.65,0.34,0.5,-172.0,35.94,81.44,1.8,0.71,0.18,0.9,0.14,1.02,-0.19,0.64,-0.71,0.25,-79.69,34.06,148.31,0.06,0.05,0.26,0.89,0.89,0.37,0.65,0.65,0.05,0.38
0.78,-133.56,83.56,138.19,0.02,0.4,0.02,0.55,1.2,0.58,0.06,0.73,0.0,0.68,-105.2,74.37,174.87,0.14,0.38,0.02,0.97,0.11,0.96,0.46,0.65,0.34,0.5,-171.81,36.19,84.06,1.72,0.87,0.11,0.23,1.93,0.08,-0.18,0.65,-0.69,0.26,-80.06,34.19,148.24,0.17,0.14,0.28,0.71,0.83,0.88,0.65,0.65,0.05,0.38
0.79,-133.44,84.06,138.19,0.19,0.55,0.14,0.57,0.81,0.4,0.05,0.73,0.0,0.68,-105.08,74.81,175.05,0.12,0.53,0.01,0.57,0.89,1.35,0.46,0.65,0.34,0.5,-169.87,37.75,88.5,1.35,0.84,0.99,0.95,1.14,0.57,-0.17,0.68,-0.66,0.28,-80.44,34.38,148.37,0.32,0.22,0.18,0.93,0.86,1.15,0.65,0.66,0.05,0.38
0.8,-133.0,84.62,138.38,0.25,0.58,0.23,0.26,0.42,1.38,0.06,0.73,0.01,0.68,-105.02,75.44,175.18,0.18,0.56,0.06,0.04,0.06,1.29,0.46,0.64,0.35,0.51,-168.87,39.13,90.75,1.28,0.94,1.31,0.19,0.4,0.1,-0.17,0.69,-0.64,0.3,-80.87,34.63,148.87,0.45,0.27,0.09,2.06,1.22,0.82,0.65,0.66,0.05,0.38
0.81,-132.5,85.12,138.63,0.23,0.57,0.23,0.36,0.5,0.32,0.06,0.73,0.02,0.68,-105.14,76.0,175.15,0.11,0.35,0.07,0.32,0.99,0.14,0.46,0.64,0.35,0.51,-168.06,39.88,91.94,1.31,0.95,1.3,0.18,0.29,0.43,-0.17,0.7,-0.62,0.31,-81.12,34.94,148.87,0.51,0.2,0.25,1.4,0.07,0.87,0.65,0.66,0.05,0.38
0.82,-132.0,85.56,138.82,0.24,0.55,0.21,0.74,1.08,0.64,0.06,0.72,0.02,0.69,-105.2,76.31,175.12,0.17,0.23,0.05,0.21,0.11,0.63,0.46,0.64,0.35,0.51,-166.56,41.25,94.31,1.24,1.06,1.26,0.01,0.98,0.5,-0.16,0.71,-0.6,0.33,-82.31,35.38,147.93,0.85,0.36,0.05,1.1,0.04,0.78,0.63,0.67,0.05,0.39
0.83,-131.5,85.87,139.07,0.16,0.38,0.22,0.75,0.66,0.89,0.06,0.72,0.03,0.69,-105.39,76.81,176.24,0.15,0.16,0.02,0.12,0.65,0.08,0.46,0.64,0.36,0.51,-165.12,42.5,96.87,1.24,1.08,1.31,1.75,1.3,0.81,-0.15,0.72,-0.58,0.35,-82.69,35.75,147.12,0.89,0.4,0.25,1.74,0.76,0.94,0.63,0.67,0.04,0.4
0.84,-130.81,86.06,139.51,0.08,0.17,0.16,0.52,0.06,0.79,0.07,0.72,0.04,0.69,-105.64,76.81,176.55,0.37,0.01,0.01,0.1,0.03,0.13,0.46,0.64,0.36,0.51,-163.5,43.81,99.62,1.35,1.08,1.44,0.74,0.38,0.47,-0.14,0.74,-0.55,0.37,-83.62,36.25,146.31,0.95,0.44,0.29,1.69,0.47,2.93,0.62,0.67,0.04,0.4
0.85,-130.63,86.06,139.63,0.12,0.14,0.15,0.15,0.22,0.86,0.07,0.72,0.04,0.69,-105.95,76.87,176.93,0.19,0.12,0.06,0.9,0.63,0.27,0.46,0.64,0.36,0.51,-161.69,45.06,102.56,1.46,0.97,1.23,1.63,1.01,0.29,-0.12,0.75,-0.52,0.39,-84.31,36.81,145.37,1.06,0.47,0.34,1.05,0.16,1.43,0.61,0.68,0.03,0.41
0.86,-130.56,86.12,139.82,0.15,0.28,0.15,0.08,0.77,0.33,0.07,0.72,0.04,0.69,-106.2,77.0,176.62,0.06,0.08,0.14,0.56,0.33,1.69,0.46,0.64,0.36,0.51,-158.87,46.25,102.56,1.32,1.03,0.75,0.33,0.31,0.71,-0.11,0.75,-0.51,0.41,-85.06,37.31,144.56,0.96,0.45,0.38,1.47,0.57,0.59,0.6,0.68,0.03,0.42
0.87,-130.56,86.25,140.01,0.14,0.46,0.13,0.85,1.38,0.87,0.07,0.72,0.04,0.69,-106.45,76.87,175.99,0.18,0.1,0.02,0.19,0.4,0.26,0.45,0.64,0.35,0.51,-157.81,46.56,105.5,1.33,1.18,0.65,1.45,0.48,0.61,-0.09,0.76,-0.49,0.42,-86.25,37.88,144.24,0.8,0.45,0.71,2.11,0.28,2.81,0.59,0.69,0.03,0.42
0.88,-130.5,86.31,140.13,0.01,0.49,0.16,0.83,1.22,0.77,0.08,0.72,0.04,0.69,-106.58,76.81,176.18,0.2,0.02,0.03,0.94,1.03,0.3,0.45,0.64,0.35,0.51,-156.0,46.56,111.38,0.98,0.95,0.6,1.02,2.47,1.1,-0.06,0.79,-0.44,0.43,-87.37,38.44,144.18,0.57,0.34,0.86,2.23,0.01,4.13,0.58,0.69,0.03,0.43
0.89,-130.19,86.31,140.38,0.04,0.46,0.17,0.11,0.64,1.23,0.08,0.72,0.05,0.69,-106.76,77.0,176.24,0.04,0.14,0.08,0.89,0.8,1.93,0.45,0.64,0.35,0.51,-155.12,46.69,113.69,0.69,0.99,0.82,1.39,1.35,0.9,-0.05,0.8,-0.42,0.43,-88.94,38.81,144.31,0.46,0.25,0.86,2.71,0.2,2.09,0.57,0.7,0.02,0.43
0.9,-130.0,86.25,140.51,0.02,0.42,0.1,0.1,0.84,1.15,0.08,0.72,0.05,0.69,-106.83,77.12,175.87,0.06,0.13,0.07,0.04,0.17,0.08,0.45,0.64,0.35,0.52,-154.38,46.88,115.94,0.75,0.97,0.65,1.43,2.13,0.3,-0.03,0.81,-0.4,0.44,-89.87,39.0,144.87,0.07,0.02,0.85,2.72,0.36,2.98,0.57,0.71,0.02,0.43
0.91,-129.94,86.19,140.51,0.08,0.51,0.07,0.23,0.28,1.3,0.08,0.72,0.05,0.69,-106.89,77.31,175.49,0.04,0.17,0.06,0.64,0.3,0.31,0.45,0.64,0.35,0.52,-154.5,46.63,118.12,0.68,1.01,0.44,3.85,1.84,1.47,-0.02,0.81,-0.39,0.44,-90.56,38.88,145.49,0.06,0.16,0.5,2.95,1.31,3.24,0.56,0.71,0.02,0.42
0.92,-130.0,86.06,140.44,0.16,0.52,0.04,0.52,0.27,1.29,0.08,0.72,0.05,0.69,-106.95,77.5,175.3,0.02,0.2,0.02,1.59,0.56,2.02,0.44,0.64,0.35,0.52,-154.25,46.75,119.63,0.04,0.52,0.86,3.04,1.82,0.52,-0.02,0.82,-0.37,0.44,-91.31,38.63,145.81,0.06,0.32,0.37,1.04,1.05,0.72,0.56,0.71,0.02,0.42
0.93,-130.5,85.81,140.44,0.44,0.24,0.02,0.95,0.11,0.24,0.08,0.72,0.04,0.69,-106.89,77.75,175.49,0.08,0.19,0.05,1.09,0.13,0.29,0.44,0.64,0.35,0.52,-154.19,47.25,120.56,0.1,0.33,0.89,2.67,1.05,1.69,-0.02,0.82,-0.37,0.44,-91.75,38.31,146.12,0.04,0.29,0.44,1.01,0.64,0.64,0.56,0.72,0.02,0.42
0.94,-131.31,86.0,140.63,0.56,0.11,0.19,0.66,0.13,0.15,0.07,0.72,0.04,0.69,-106.76,77.94,175.49,0.09,0.23,0.02,0.56,0.29,0.4,0.44,0.64,0.35,0.52,-153.69,47.75,121.56,0.06,0.3,0.53,3.47,2.7,3.4,-0.01,0.82,-0.35,0.45,-93.44,37.94,146.99,0.06,0.09,0.61,0.62,0.16,1.02,0.55,0.72,0.02,0.41
0.95,-132.06,85.94,140.63,0.36,0.2,0.16,0.11,0.89,0.32,0.07,0.72,0.04,0.69,-106.64,78.31,175.43,0.21,0.28,0.03,0.3,0.6,0.62,0.44,0.64,0.35,0.52,-153.38,47.94,122.25,0.11,0.3,0.32,1.0,0.77,1.09,-0.01,0.82,-0.35,0.45,-94.06,38.0,147.31,0.22,0.08,0.57,0.89,0.18,0.75,0.55,0.73,0.02,0.41
0.96,-132.19,85.81,140.51,0.22,0.03,0.1,0.42,0.69,0.5,0.07,0.72,0.03,0.69,-106.45,78.62,175.05,0.21,0.27,0.04,0.17,0.92,0.08,0.44,0.64,0.35,0.53,-154.25,47.69,122.5,0.02,0.34,0.12,0.19,0.83,0.31,-0.01,0.83,-0.35,0.44,-95.5,38.31,147.5,0.26,0.13,0.29,1.04,0.21,0.99,0.54,0.73,0.02,0.41
0.97,-132.56,85.87,140.51,0.35,0.2,0.05,0.4,0.97,0.49,0.07,0.72,0.03,0.69,-106.39,78.81,174.81,0.08,0.11,0.03,0.6,0.89,0.77,0.44,0.64,0.35,0.53,-154.94,47.19,122.69,0.08,0.38,0.24,0.12,0.08,0.2,-0.01,0.83,-0.35,0.44,-95.87,38.5,147.31,0.22,0.19,0.1,0.53,1.03,0.83,0.54,0.73,0.01,0.41
0.98,-133.19,86.0,140.63,0.42,0.09,0.1,0.56,0.98,0.15,0.06,0.72,0.03,0.69,-106.26,79.0,174.99,0.1,0.22,0.06,0.4,0.53,1.14,0.44,0.63,0.35,0.53,-155.87,46.88,122.56,0.23,0.21,0.12,0.44,1.76,0.87,-0.02,0.83,-0.36,0.43,-96.0,38.63,147.24,0.27,0.26,0.1,0.79,0.84,2.49,0.54,0.74,0.01,0.41
0.99,-133.44,85.87,140.63,0.18,0.25,0.02,0.16,0.17,1.07,0.06,0.72,0.03,0.69,-106.08,79.37,174.81,0.2,0.36,0.02,0.38,0.39,0.55,0.44,0.63,0.36,0.53,-156.37,46.63,122.5,0.1,0.21,0.12,0.96,1.03,0.91,-0.02,0.83,-0.36,0.43,-96.25,38.88,147.06,0.03,0.22,0.09,0.54,0.16,0.7,0.53,0.74,0.01,0.42
1.0,-133.75,85.87,140.69,0.34,0.06,0.08,0.86,0.36,1.26,0.06,0.72,0.03,0.69,-105.95,79.75,174.87,0.13,0.28,0.02,0.65,0.48,0.45,0.44,0.63,0.36,0.53,-156.69,46.69,122.56,0.24,0.09,0.26,1.26,1.57,1.5,-0.02,0.83,-0.36,0.43,-96.37,39.19,147.18,0.09,0.3,0.18,0.97,0.4,0.29,0.53,0.74,0.02,0.42
1.01,-134.56,86.25,141.01,0.41,0.23,0.33,0.35,0.06,0.8,0.06,0.72,0.02,0.69,-105.83,80.06,174.81,0.12,0.26,0.04,0.51,0.43,1.68,0.44,0.63,0.36,0.53,-156.44,47.19,122.44,0.18,0.2,0.49,0.39,1.78,0.39,-0.02,0.83,-0.36,0.43,-96.56,39.5,147.43,0.06,0.21,0.12,1.16,1.49,1.58,0.53,0.74,0.02,0.42
1.02,-135.19,86.69,141.38,0.06,0.15,0.34,1.9,0.33,0.27,0.05,0.72,0.02,0.69,-105.64,80.31,175.12,0.22,0.24,0.02,0.39,0.1,0.66,0.44,0.62,0.36,0.53,-156.19,47.44,122.5,0.02,0.06,0.08,0.17,1.4,1.95,-0.02,0.83,-0.36,0.44,-96.56,39.69,147.31,0.13,0.15,0.16,0.18,1.17,0.85,0.53,0.74,0.02,0.42
1.03,-135.31,86.69,141.63,0.07,0.48,0.17,0.9,1.34,1.14,0.05,0.72,0.03,0.69,-105.51,80.62,175.05,0.06,0.32,0.05,0.31,0.59,0.06,0.44,0.62,0.36,0.53,-157.06,47.13,122.12,0.23,0.05,0.4,1.67,2.07,0.86,-0.03,0.82,-0.37,0.43,-96.31,39.88,146.87,0.15,0.18,0.14,0.3,0.05,1.23,0.53,0.74,0.02,0.42
1.04,-135.56,86.63,141.94,0.02,0.08,0.16,1.3,1.61,0.67,0.05,0.72,0.03,0.69,-105.2,81.06,175.14,0.27,0.36,0.08,0.12,0.81,0.87,0.44,0.62,0.37,0.54,-158.94,46.75,120.5,0.45,0.03,0.11,0.4,0.46,1.12,-0.05,0.82,-0.38,0.42,-96.25,40.12,146.62,0.22,0.29,0.06,0.53,0.93,0.17,0.53,0.74,0.02,0.42
1.05,-135.81,86.81,142.19,0.02,0.09,0.28,0.5,0.27,0.09,0.05,0.72,0.03,0.69,-104.83,81.25,175.24,0.45,0.16,0.04,0.31,0.08,0.57,0.44,0.62,0.37,0.53,-159.12,46.75,120.25,0.24,0.2,0.12,2.41,1.26,0.09,-0.05,0.82,-0.39,0.42,-96.44,40.44,146.37,0.25,0.33,0.01,0.04,1.17,0.17,0.52,0.74,0.02,0.43
1.06,-135.94,86.81,142.51,0.19,0.23,0.23,0.32,1.42,1.25,0.05,0.72,0.03,0.69,-104.58,81.44,176.3,0.32,0.15,0.09,0.36,0.62,0.67,0.45,0.61,0.38,0.53,-160.0,46.69,118.56,0.23,0.14,0.25,0.11,0.05,0.24,-0.06,0.81,-0.4,0.42,-96.63,40.88,146.18,0.26,0.43,0.35,0.48,0.29,0.62,0.52,0.74,0.02,0.43
1.07,-135.94,86.75,142.7,0.18,0.18,0.19,0.25,1.05,1.24,0.05,0.72,0.03,0.69,-104.39,81.56,176.99,0.21,0.14,0.04,0.26,0.68,0.93,0.45,0.61,0.38,0.53,-160.12,46.69,118.31,0.14,0.11,0.08,0.15,1.24,0.81,-0.06,0.81,-0.4,0.42,-97.19,41.37,146.24,0.23,0.43,0.43,0.46,0.55,0.53,0.52,0.74,0.02,0.43
1.08,-135.75,86.69,142.82,0.34,0.07,0.12,0.08,0.91,0.58,0.06,0.72,0.03,0.69,-104.2,81.75,177.18,0.16,0.18,0.02,0.6,0.48,0.74,0.45,0.61,0.39,0.53,-160.25,46.69,118.06,0.18,0.17,0.1,0.64,0.39,0.51,-0.07,0.81,-0.41,0.42,-97.62,41.88,146.37,0.16,0.4,0.34,0.2,0.46,0.19,0.51,0.74,0.02,0.44
1.09,-135.63,86.63,142.94,0.16,0.23,0.15,0.1,0.77,0.67,0.06,0.72,0.03,0.69,-104.08,82.06,176.74,0.02,0.32,0.08,0.42,0.23,0.02,0.45,0.61,0.39,0.53,-160.44,46.69,117.56,0.17,0.21,0.06,0.18,0.54,0.88,-0.07,0.81,-0.41,0.41,-98.0,42.31,146.56,0.09,0.36,0.27,0.18,1.38,0.1,0.51,0.74,0.02,0.44
1.1,-135.56,86.31,143.13,0.2,0.38,0.14,0.39,0.22,0.82,0.06,0.72,0.03,0.69,-103.95,82.44,176.99,0.23,0.31,0.03,0.23,0.53,0.92,0.45,0.6,0.39,0.53,-160.44,46.81,117.19,0.12,0.14,0.03,0.19,0.68,0.08,-0.07,0.81,-0.41,0.42,-98.56,42.69,146.74,0.13,0.35,0.36,0.61,1.37,0.28,0.5,0.74,0.03,0.44
1.11,-135.31,86.0,143.19,0.3,0.24,0.04,0.68,0.08,0.78,0.06,0.72,0.03,0.69,-103.76,82.75,178.12,0.27,0.25,0.09,0.91,0.08,0.82,0.45,0.6,0.4,0.53,-160.44,46.94,116.87,0.2,0.19,0.02,0.18,0.51,0.23,-0.07,0.81,-0.42,0.42,-99.06,43.06,146.99,0.13,0.31,0.38,0.42,0.75,0.44,0.5,0.75,0.03,0.44
1.12,-135.06,85.81,143.19,0.18,0.2,0.07,0.77,0.43,1.03,0.07,0.72,0.03,0.69,-103.64,83.0,178.24,0.06,0.27,0.07,0.13,0.41,0.71,0.45,0.59,0.4,0.53,-160.63,47.06,116.44,0.22,0.28,0.16,0.2,0.3,0.58,-0.08,0.8,-0.42,0.42,-99.31,43.44,147.12,0.07,0.34,0.15,2.99,0.22,1.23,0.5,0.75,0.03,0.44
1.13,-135.0,85.69,143.26,0.1,0.11,0.06,0.02,0.87,0.56,0.07,0.72,0.03,0.68,-103.39,83.44,174.93,0.06,0.38,0.18,0.38,0.46,1.22,0.44,0.6,0.39,0.54,-160.31,47.44,116.06,0.15,0.32,0.31,0.1,1.43,0.31,-0.08,0.8,-0.42,0.42,-101.0,44.19,148.12,0.15,0.37,1.03,0.69,0.52,0.7,0.49,0.75,0.03,0.44
1.14,-134.87,85.56,143.32,0.23,0.15,0.04,0.03,1.21,0.1,0.07,0.73,0.03,0.68,-103.26,83.62,174.81,0.22,0.28,0.11,0.64,0.43,0.58,0.44,0.6,0.39,0.54,-160.19,47.88,115.75,0.19,0.31,0.22,0.26,1.02,0.65,-0.08,0.8,-0.42,0.42,-102.06,44.5,148.87,0.05,0.3,0.69,1.49,1.22,0.62,0.48,0.76,0.04,0.44
1.15,-134.5,85.38,143.32,0.32,0.21,0.01,0.74,1.41,0.03,0.07,0.73,0.04,0.68,-102.89,83.87,174.74,0.19,0.13,0.1,0.74,1.05,0.88,0.44,0.6,0.39,0.54,-160.12,48.0,115.19,0.03,0.26,0.15,0.42,1.0,1.39,-0.08,0.8,-0.42,0.42,-102.69,44.88,148.99,0.24,0.31,0.51,0.29,0.34,0.36,0.48,0.76,0.04,0.44
1.16,-134.25,85.19,143.38,0.3,0.13,0.15,0.58,0.51,0.42,0.08,0.73,0.04,0.68,-102.64,84.0,174.78,0.07,0.11,0.12,0.61,1.8,0.27,0.44,0.6,0.39,0.54,-159.94,48.13,114.94,0.04,0.18,0.17,0.9,0.56,0.31,-0.08,0.8,-0.42,0.42,-102.75,45.19,148.68,0.33,0.31,0.54,0.48,0.32,0.47,0.47,0.76,0.04,0.44
1.17,-133.87,85.12,143.51,0.42,0.11,0.09,0.62,0.97,0.25,0.08,0.73,0.04,0.68,-102.51,84.31,174.81,0.13,0.43,0.11,0.17,0.65,0.72,0.44,0.6,0.39,0.54,-159.94,48.38,115.06,0.02,0.03,0.18,0.95,0.21,0.47,-0.08,0.8,-0.42,0.43,-103.25,45.63,148.56,0.4,0.38,0.51,0.86,0.3,0.31,0.47,0.76,0.04,0.45
1.18,-133.63,84.87,143.51,0.2,0.21,0.04,0.07,0.21,0.8,0.08,0.73,0.04,0.68,-102.58,84.81,174.93,0.17,0.48,0.16,0.58,0.33,0.27,0.44,0.59,0.4,0.55,-159.69,48.56,115.0,0.01,0.17,0.09,1.15,0.98,1.05,-0.08,0.8,-0.42,0.43,-103.75,46.06,148.24,0.52,0.38,0.85,0.46,0.84,0.21,0.46,0.76,0.03,0.45
1.19,-133.5,84.75,143.57,0.18,0.11,0.06,0.64,0.64,0.81,0.08,0.73,0.04,0.68,-102.58,85.25,175.12,0.2,0.39,0.15,0.27,0.25,2.03,0.44,0.59,0.4,0.55,-159.5,48.81,114.81,0.03,0.28,0.16,0.59,0.07,0.33,-0.08,0.79,-0.42,0.43,-104.06,46.5,147.81,0.42,0.4,0.78,0.05,0.05,0.08,0.46,0.76,0.03,0.46
1.2,-133.31,84.62,143.63,0.27,0.11,0.12,0.82,0.57,1.02,0.09,0.73,0.04,0.68,-102.64,85.44,175.24,0.1,0.18,0.04,0.59,0.96,1.4,0.44,0.59,0.4,0.55,-158.56,49.44,114.75,0.05,0.1,0.01,0.52,0.59,1.42,-0.08,0.79,-0.42,0.44,-104.12,46.94,147.31,0.27,0.46,0.66,0.13,0.4,0.79,0.45,0.76,0.03,0.46
1.21,-133.0,84.5,143.76,0.35,0.15,0.11,0.28,0.31,0.01,0.09,0.73,0.04,0.68,-102.7,85.69,175.3,0.13,0.26,0.04,0.07,0.54,0.96,0.44,0.59,0.4,0.55,-158.75,49.31,114.75,0.07,0.07,0.1,0.15,0.91,0.27,-0.08,0.79,-0.42,0.44,-104.19,47.5,146.74,0.35,0.53,0.77,0.93,1.49,1.17,0.45,0.76,0.03,0.47
1.22,-132.56,84.25,143.76,0.42,0.26,0.03,0.62,0.29,0.19,0.09,0.73,0.05,0.68,-102.76,86.06,175.43,0.18,0.43,0.11,1.05,0.13,0.28,0.43,0.59,0.4,0.55,-158.37,49.88,115.06,0.03,0.01,0.34,0.43,0.66,0.99,-0.08,0.79,-0.41,0.44,-104.38,48.0,146.37,0.25,0.42,0.45,0.7,0.92,1.36,0.44,0.76,0.03,0.47
1.23,-132.06,83.94,143.7,0.36,0.3,0.03,0.75,0.14,0.55,0.1,0.73,0.05,0.67,-102.89,86.5,175.56,0.17,0.28,0.13,0.16,0.22,1.97,0.43,0.59,0.4,0.55,-157.94,50.19,115.62,0.13,0.17,0.5,1.67,1.43,0.71,-0.08,0.8,-0.4,0.44,-104.63,48.38,146.31,0.16,0.33,0.16,0.31,1.07,0.12,0.44,0.76,0.03,0.47
1.24,-131.87,83.69,143.7,0.06,0.22,0.04,0.59,1.42,0.68,0.1,0.73,0.05,0.67,-102.83,86.69,175.74,0.03,0.09,0.09,0.32,0.49,1.38,0.43,0.58,0.41,0.55,-157.12,50.81,116.31,0.05,0.04,0.74,1.81,0.99,0.28,-0.07,0.8,-0.39,0.45,-104.75,48.69,146.12,0.14,0.31,0.3,0.16,0.04,1.19,0.44,0.76,0.03,0.47
1.25,-132.19,83.56,143.82,0.15,0.09,0.17,0.95,1.12,0.35,0.1,0.73,0.04,0.67,-102.83,86.75,175.8,0.11,0.16,0.11,0.1,0.27,1.54,0.43,0.58,0.41,0.55,-156.69,51.44,116.75,0.03,0.05,0.61,0.65,1.09,1.24,-0.07,0.8,-0.39,0.46,-104.44,48.94,145.62,0.04,0.24,0.45,0.57,0.1,1.2,0.44,0.76,0.03,0.48
1.26,-132.5,83.31,144.07,0.09,0.28,0.15,1.28,0.15,0.59,0.1,0.73,0.04,0.67,-102.76,86.94,175.93,0.05,0.25,0.09,0.1,0.54,0.02,0.43,0.58,0.41,0.55,-156.19,51.88,117.12,0.03,0.07,0.43,0.62,1.41,0.77,-0.06,0.8,-0.38,0.46,-104.31,49.25,145.31,0.1,0.32,0.16,0.63,0.92,1.29,0.43,0.76,0.03,0.48
1.27,-132.63,82.88,142.57,0.07,0.37,0.01,0.12,0.83,0.79,0.09,0.74,0.03,0.67,-102.76,87.19,176.05,0.09,0.29,0.09,0.27,0.2,0.83,0.43,0.58,0.41,0.55,-156.12,52.19,117.56,0.01,0.06,0.41,0.34,0.51,1.49,-0.06,0.8,-0.38,0.46,-104.81,49.63,145.49,0.24,0.31,0.03,1.4,0.19,1.39,0.43,0.76,0.03,0.48
1.28,-132.69,82.56,142.26,0.07,0.27,0.06,0.2,0.68,0.95,0.09,0.74,0.03,0.67,-102.76,87.25,176.12,0.03,0.16,0.04,0.78,0.29,1.2,0.43,0.58,0.41,0.55,-155.94,52.31,117.75,0.07,0.06,0.13,1.66,0.52,0.44,-0.06,0.8,-0.38,0.47,-105.37,50.0,145.56,0.29,0.36,0.24,0.57,0.27,0.23,0.43,0.76,0.03,0.48
1.29,-132.5,82.31,141.38,0.05,0.24,0.13,0.17,0.49,0.68,0.09,0.74,0.02,0.67,-102.76,87.19,176.18,0.02,0.03,0.03,0.42,0.37,0.52,0.43,0.58,0.41,0.55,-155.69,52.5,118.06,0.13,0.12,0.25,0.99,1.18,0.14,-0.06,0.8,-0.37,0.47,-105.94,51.06,145.12,0.28,0.56,0.18,0.38,0.15,0.54,0.42,0.77,0.03,0.49
1.3,-132.31,82.0,140.38,0.04,0.25,0.11,0.09,0.7,0.11,0.08,0.74,0.02,0.67,-102.7,87.25,176.18,0.1,0.12,0.01,0.2,0.42,0.79,0.43,0.58,0.41,0.55,-155.06,52.94,118.25,0.03,0.19,0.45,0.33,0.53,0.44,-0.06,0.8,-0.37,0.47,-106.94,51.56,145.68,0.33,0.46,0.21,0.5,2.61,0.31,0.41,0.77,0.03,0.49
1.31,-132.25,81.75,140.07,0.09,0.25,0.02,1.05,0.05,1.01,0.08,0.74,0.01,0.67,-102.83,87.37,176.18,0.14,0.11,0.01,0.21,0.09,1.16,0.43,0.58,0.41,0.55,-154.19,53.75,118.56,0.04,0.01,0.57,0.03,0.85,0.12,-0.05,0.8,-0.36,0.48,-107.56,52.25,145.56,0.32,0.4,0.54,0.01,1.94,1.94,0.4,0.77,0.03,0.5
1.32,-132.44,81.44,140.44,0.17,0.27,0.04,0.8,0.12,1.31,0.09,0.74,0.01,0.67,-102.89,87.37,176.24,0.06,0.01,0.01,0.05,0.1,0.97,0.43,0.58,0.41,0.55,-153.62,54.38,119.06,0.17,0.2,0.78,0.48,0.49,0.89,-0.05,0.8,-0.35,0.49,-107.75,52.62,145.18,0.13,0.35,0.11,0.42,0.6,1.31,0.4,0.77,0.03,0.5
1.33,-132.5,81.31,140.69,0.13,0.25,0.04,0.57,0.06,0.57,0.09,0.74,0.01,0.66,-102.95,87.37,176.24,0.05,0.04,0.01,0.05,0.04,1.13,0.43,0.58,0.41,0.55,-151.12,56.25,120.37,0.12,0.14,0.46,0.48,1.72,0.13,-0.04,0.8,-0.32,0.51,-107.75,53.0,145.18,0.02,0.33,0.01,0.4,0.1,1.5,0.4,0.77,0.03,0.5
1.34,-132.69,80.75,140.51,0.16,0.31,0.15,0.51,0.47,0.77,0.09,0.74,0.01,0.66,-103.02,87.31,176.18,0.1,0.03,0.02,0.05,0.1,0.94,0.43,0.58,0.41,0.56,-150.81,56.44,120.5,0.03,0.23,0.41,0.41,1.53,1.01,-0.03,0.8,-0.32,0.51,-107.75,53.38,145.06,0.02,0.35,0.22,0.89,0.2,0.18,0.39,0.77,0.04,0.5
1.35,-132.81,80.38,139.94,0.14,0.28,0.09,0.13,0.42,0.89,0.08,0.75,0.0,0.66,-103.2,87.56,176.18,0.13,0.1,0.02,0.02,0.45,0.74,0.43,0.58,0.41,0.56,-150.19,56.94,120.56,0.05,0.28,0.29,0.54,0.13,2.12,-0.03,0.8,-0.31,0.51,-107.31,53.81,144.56,0.01,0.46,0.49,1.47,0.2,1.55,0.39,0.77,0.04,0.51
1.36,-132.87,80.12,139.7,0.14,0.08,0.04,0.66,0.23,0.42,0.08,0.75,-0.0,0.66,-103.33,87.44,176.18,0.12,0.15,0.02,0.09,0.66,1.08,0.43,0.58,0.41,0.56,-149.81,57.38,120.44,0.11,0.24,0.38,0.71,0.48,1.17,-0.03,0.8,-0.31,0.52,-106.87,54.25,143.74,0.11,0.41,0.56,1.59,1.02,1.59,0.39,0.76,0.04,0.51
1.37,-133.06,80.06,139.82,0.22,0.04,0.01,0.26,0.4,0.39,0.08,0.75,-0.0,0.66,-103.51,87.31,176.18,0.17,0.13,0.02,0.16,0.51,0.94,0.43,0.58,0.41,0.56,-149.31,57.94,120.44,0.09,0.17,0.59,0.85,0.7,2.09,-0.03,0.8,-0.31,0.52,-106.5,54.63,142.93,0.14,0.38,0.62,1.23,0.5,1.7,0.39,0.76,0.03,0.52
1.38,-133.37,79.94,140.01,0.18,0.11,0.05,0.09,0.02,0.48,0.08,0.75,-0.0,0.66,-103.76,87.25,176.12,0.19,0.09,0.02,0.24,0.13,1.27,0.43,0.58,0.41,0.56,-148.62,58.56,120.81,0.03,0.11,0.7,0.42,0.17,1.85,-0.03,0.8,-0.3,0.53,-105.94,54.88,141.87,0.09,0.27,0.69,0.53,0.24,1.98,0.38,0.76,0.03,0.52
1.39,-133.56,79.81,139.94,0.18,0.13,0.05,0.47,0.12,0.1,0.08,0.75,-0.0,0.66,-104.02,87.12,176.12,0.2,0.12,0.02,0.21,0.29,1.24,0.43,0.59,0.4,0.56,-147.69,59.31,121.5,0.06,0.07,0.72,0.43,0.77,1.9,-0.02,0.8,-0.29,0.53,-105.56,54.94,141.12,0.05,0.07,0.29,0.19,0.18,1.43,0.38,0.76,0.03,0.53
1.4,-133.63,79.69,139.82,0.11,0.14,0.07,0.39,0.02,0.16,0.08,0.75,-0.01,0.66,-104.26,87.06,176.12,0.22,0.12,0.01,0.31,0.44,1.17,0.43,0.59,0.4,0.56,-146.87,59.94,122.31,0.03,0.02,0.71,1.03,0.7,1.15,-0.01,0.8,-0.28,0.54,-105.12,55.0,140.74,0.09,0.05,0.11,0.18,0.19,0.67,0.38,0.76,0.03,0.53
1.41,-133.63,79.56,139.44,0.02,0.07,0.07,0.26,0.08,0.58,0.08,0.75,-0.01,0.66,-104.39,86.94,176.12,0.1,0.13,0.01,0.35,0.52,1.16,0.43,0.59,0.4,0.56,-146.5,60.5,123.0,0.06,0.04,0.59,0.02,0.73,1.65,-0.01,0.8,-0.27,0.54,-105.0,55.12,140.74,0.16,0.18,0.26,0.1,0.06,0.75,0.39,0.76,0.03,0.53
1.42,-133.56,79.5,139.13,0.03,0.06,0.05,0.17,0.11,0.38,0.08,0.75,-0.01,0.66,-104.39,86.75,176.12,0.06,0.19,0.02,0.34,0.12,1.94,0.43,0.59,0.4,0.56,-145.94,60.94,123.56,0.04,0.05,0.29,0.19,0.92,1.7,-0.01,0.8,-0.26,0.55,-105.06,55.44,140.99,0.13,0.22,0.3,0.49,0.09,1.17,0.38,0.76,0.03,0.53
1.43,-133.63,79.44,139.13,0.1,0.02,0.01,0.05,0.45,0.54,0.08,0.75,-0.01,0.66,-104.39,86.56,176.12,0.02,0.2,0.02,0.04,0.28,1.69,0.43,0.59,0.4,0.56,-146.06,61.06,123.94,0.05,0.14,0.19,0.05,0.28,1.44,-0.01,0.8,-0.26,0.55,-105.44,55.75,141.56,0.06,0.25,0.52,0.07,0.62,0.4,0.38,0.76,0.04,0.53
1.44,-133.81,79.37,139.19,0.16,0.01,0.03,0.05,0.69,0.71,0.08,0.75,-0.01,0.66,-104.45,86.37,176.12,0.04,0.15,0.01,0.27,0.55,1.28,0.43,0.59,0.4,0.56,-145.87,61.19,124.56,0.03,0.18,0.33,0.09,0.97,1.2,-0.0,0.8,-0.25,0.55,-106.37,56.13,142.81,0.04,0.26,0.83,0.09,1.06,0.45,0.38,0.76,0.04,0.53
1.45,-134.12,79.44,139.19,0.3,0.05,0.03,0.18,0.33,0.71,0.08,0.75,-0.01,0.66,-104.45,86.25,176.18,0.01,0.18,0.01,0.5,0.3,2.21,0.43,0.59,0.4,0.55,-145.5,61.44,125.25,0.07,0.08,0.37,0.12,0.7,1.27,0.0,0.8,-0.24,0.55,-107.5,56.5,144.24,0.15,0.26,0.74,0.82,1.05,0.61,0.38,0.76,0.05,0.52
1.46,-134.56,79.5,139.44,0.29,0.05,0.04,0.3,0.17,0.73,0.07,0.75,-0.01,0.66,-104.33,85.94,176.18,0.11,0.3,0.03,0.67,0.12,1.59,0.43,0.59,0.4,0.55,-144.94,61.75,126.0,0.19,0.01,0.43,0.28,1.03,0.97,0.01,0.8,-0.23,0.55,-108.31,56.81,145.12,0.14,0.21,0.26,0.42,0.42,1.77,0.38,0.76,0.05,0.52
1.47,-134.81,79.56,139.32,0.2,0.04,0.07,0.25,0.19,0.82,0.07,0.75,-0.02,0.66,-104.26,85.56,176.24,0.01,0.33,0.06,1.02,0.74,2.28,0.43,0.59,0.4,0.55,-144.31,61.94,126.81,0.27,0.12,0.2,0.84,1.82,1.18,0.02,0.8,-0.22,0.56,-108.5,57.0,145.12,0.09,0.15,0.11,0.38,0.29,1.48,0.37,0.76,0.05,0.52
1.48,-134.94,79.56,139.07,0.11,0.02,0.06,0.14,0.13,0.85,0.07,0.75,-0.02,0.66,-104.26,85.31,176.37,0.12,0.18,0.13,1.38,0.27,1.49,0.43,0.59,0.4,0.55,-144.0,62.0,127.31,0.23,0.09,0.09,1.09,1.54,1.29,0.02,0.8,-0.22,0.56,-109.12,56.94,145.75,0.19,0.22,0.1,0.53,0.37,2.43,0.37,0.77,0.05,0.52
