0.01,-49.31,52.44,175.62,0.02,0.11,0.01,1.55,0.36,0.05,0.81,0.39,0.39,0.22,-27.75,29.81,176.37,0.05,0.16,0.06,1.36,0.26,1.42,0.94,0.24,0.24,0.09,-345.81,2.44,13.31,0.13,0.1,0.2,0.48,0.64,1.03,-0.12,-0.01,-0.13,-0.99,-149.87,10.94,24.12,0.4,0.14,0.22,1.18,0.85,2.6,-0.04,0.23,-0.93,0.27
0.02,-49.06,52.56,175.81,0.02,0.07,0.01,1.46,0.34,0.17,0.81,0.39,0.39,0.21,-27.69,29.69,176.44,0.04,0.07,0.08,1.32,0.42,1.58,0.94,0.24,0.24,0.09,-345.5,2.62,13.0,0.18,0.1,0.06,0.47,0.93,1.93,-0.12,-0.01,-0.13,-0.99,-150.25,11.0,24.81,0.54,0.25,0.43,1.18,0.96,2.27,-0.04,0.23,-0.93,0.27
0.03,-48.87,52.69,175.94,0.01,0.06,0.02,1.6,0.13,0.33,0.81,0.38,0.39,0.21,-27.63,29.63,176.44,0.02,0.01,0.07,1.3,0.39,1.83,0.94,0.24,0.24,0.09,-345.5,2.75,12.75,0.31,0.11,0.09,0.16,1.45,2.33,-0.11,-0.01,-0.13,-0.99,-150.94,10.94,25.56,0.56,0.2,0.61,0.56,0.11,1.68,-0.03,0.24,-0.93,0.26
0.04,-48.75,52.81,176.06,0.03,0.02,0.01,1.58,0.09,0.42,0.81,0.38,0.39,0.21,-27.5,29.69,176.5,0.04,0.07,0.07,1.06,0.22,1.52,0.94,0.24,0.24,0.09,-345.63,2.87,12.37,0.37,0.02,0.29,0.18,1.89,2.11,-0.11,-0.01,-0.13,-0.99,-151.44,10.69,26.25,0.52,0.03,0.43,0.54,0.52,1.81,-0.03,0.24,-0.93,0.26
0.05,-48.56,52.94,176.12,0.06,0.03,0.01,1.43,0.2,0.34,0.81,0.38,0.39,0.21,-27.44,29.75,176.44,0.03,0.08,0.07,1.22,0.35,1.6,0.94,0.24,0.24,0.09,-346.0,2.94,11.94,0.38,0.05,0.4,0.84,1.41,2.64,-0.11,-0.01,-0.12,-0.99,-151.56,10.63,26.75,0.29,0.01,0.09,0.6,0.3,1.91,-0.03,0.25,-0.93,0.26
0.06,-48.19,53.25,176.37,0.04,0.06,0.01,1.17,0.08,0.26,0.81,0.38,0.4,0.21,-27.38,29.87,176.44,0.02,0.12,0.07,0.95,0.28,1.22,0.94,0.24,0.24,0.09,-346.62,2.94,11.5,0.3,0.22,0.8,1.01,0.32,2.26,-0.1,-0.01,-0.12,-0.99,-151.0,10.81,27.0,0.04,0.07,0.26,0.19,0.5,1.62,-0.03,0.25,-0.93,0.26
0.07,-48.0,53.44,176.44,0.04,0.09,0.02,0.97,0.11,0.2,0.81,0.38,0.4,0.21,-27.32,30.0,176.44,0.02,0.18,0.06,0.83,0.08,1.18,0.94,0.24,0.24,0.09,-347.56,2.81,11.12,0.27,0.25,0.86,0.81,0.11,2.09,-0.1,-0.01,-0.11,-0.99,-150.75,10.81,27.0,0.05,0.11,0.2,0.2,0.81,1.72,-0.03,0.25,-0.93,0.27
0.08,-48.0,53.69,176.44,0.04,0.14,0.02,0.75,0.03,0.04,0.81,0.38,0.4,0.21,-27.25,30.25,176.44,0.04,0.21,0.06,0.78,0.12,0.87,0.94,0.24,0.25,0.09,-348.56,2.75,10.81,0.23,0.22,0.84,0.07,1.34,2.1,-0.1,-0.01,-0.1,-0.99,-150.19,10.88,27.31,0.29,0.06,0.2,0.43,0.73,1.55,-0.03,0.25,-0.93,0.27
0.09,-47.94,53.87,176.44,0.03,0.16,0.02,0.87,0.17,0.04,0.81,0.37,0.4,0.21,-27.13,30.56,176.44,0.08,0.29,0.07,0.76,0.17,0.59,0.94,0.23,0.25,0.09,-349.25,2.69,10.5,0.29,0.17,0.37,0.16,1.29,2.28,-0.09,-0.01,-0.1,-0.99,-149.87,10.94,27.75,0.43,0.03,0.2,0.91,0.19,1.49,-0.03,0.25,-0.93,0.27
0.1,-47.81,54.06,176.5,0.03,0.22,0.03,0.83,0.18,0.02,0.81,0.37,0.4,0.21,-27.0,30.94,176.37,0.1,0.4,0.09,0.61,0.11,0.56,0.93,0.23,0.25,0.09,-349.56,2.56,10.13,0.34,0.16,0.18,0.06,0.22,1.73,-0.09,-0.01,-0.09,-0.99,-149.75,11.19,28.31,0.53,0.18,0.08,0.86,0.36,0.94,-0.03,0.26,-0.93,0.27
0.11,-47.62,54.38,176.63,0.04,0.25,0.03,0.64,0.21,0.17,0.81,0.37,0.41,0.21,-26.88,31.44,176.25,0.1,0.44,0.09,0.4,0.2,0.69,0.93,0.23,0.26,0.09,-349.56,2.31,9.25,0.38,0.09,0.02,0.11,0.75,1.33,-0.08,-0.01,-0.09,-0.99,-149.87,11.31,29.0,0.59,0.25,0.2,0.62,0.54,0.74,-0.03,0.27,-0.92,0.27
0.12,-47.38,54.81,176.75,0.06,0.32,0.02,0.6,0.19,0.06,0.81,0.37,0.41,0.21,-26.82,31.94,176.19,0.09,0.51,0.1,0.33,0.13,0.67,0.93,0.23,0.26,0.09,-349.56,2.25,8.81,0.38,0.06,0.04,0.27,0.86,1.05,-0.08,-0.01,-0.09,-0.99,-150.19,11.44,29.75,0.67,0.29,0.24,0.64,1.07,0.77,-0.03,0.27,-0.92,0.27
0.13,-47.13,55.31,176.81,0.08,0.41,0.01,0.51,0.13,0.12,0.81,0.37,0.42,0.21,-26.69,32.56,176.19,0.07,0.55,0.09,0.29,0.03,0.67,0.93,0.23,0.27,0.1,-349.62,2.25,8.44,0.37,0.07,0.09,0.21,0.64,0.94,-0.08,-0.01,-0.09,-0.99,-150.25,11.75,30.56,0.71,0.29,0.01,0.61,0.79,0.86,-0.03,0.28,-0.92,0.27
0.14,-46.94,55.81,176.87,0.08,0.42,0.01,0.45,0.07,0.09,0.81,0.36,0.42,0.21,-26.57,33.19,176.12,0.04,0.58,0.09,0.25,0.08,0.54,0.93,0.23,0.27,0.1,-349.75,2.12,8.0,0.34,0.08,0.12,0.22,0.45,0.89,-0.07,-0.01,-0.09,-0.99,-150.19,11.88,31.0,0.79,0.27,0.21,0.66,0.32,0.82,-0.03,0.28,-0.92,0.27
0.15,-46.75,56.31,176.87,0.07,0.45,0.01,0.31,0.01,0.11,0.8,0.36,0.42,0.21,-26.5,33.88,176.12,0.05,0.58,0.08,0.31,0.16,0.14,0.93,0.23,0.28,0.1,-349.94,2.06,7.69,0.26,0.17,0.24,0.26,0.4,0.86,-0.07,-0.01,-0.09,-0.99,-149.87,12.25,31.87,0.85,0.25,0.31,0.73,0.11,0.86,-0.03,0.29,-0.92,0.28
0.16,-46.63,56.81,176.87,0.07,0.46,0.02,0.22,0.06,0.1,0.8,0.36,0.43,0.21,-26.38,34.5,176.12,0.05,0.61,0.11,0.36,0.15,0.29,0.93,0.23,0.28,0.1,-350.25,1.87,7.44,0.22,0.19,0.32,0.54,0.37,0.79,-0.07,-0.01,-0.09,-0.99,-149.5,12.69,32.81,0.84,0.3,0.28,0.67,0.24,0.86,-0.03,0.3,-0.91,0.28
0.17,-46.44,57.38,176.94,0.07,0.46,0.01,0.21,0.1,0.15,0.8,0.36,0.43,0.21,-26.25,35.25,176.12,0.05,0.68,0.13,0.24,0.18,0.07,0.93,0.23,0.29,0.1,-350.75,1.69,7.19,0.16,0.22,0.45,0.58,0.12,0.68,-0.06,-0.01,-0.08,-0.99,-149.19,13.19,33.69,0.79,0.36,0.29,0.4,0.01,0.79,-0.03,0.31,-0.91,0.28
0.18,-46.31,57.88,176.94,0.05,0.46,0.01,0.26,0.08,0.13,0.8,0.36,0.44,0.21,-26.13,36.06,176.19,0.01,0.71,0.12,0.24,0.01,0.05,0.92,0.22,0.29,0.1,-351.25,1.5,7.0,0.15,0.22,0.38,0.55,0.16,0.58,-0.06,-0.01,-0.08,-1.0,-148.87,13.69,34.56,0.8,0.39,0.21,0.43,0.45,0.63,-0.03,0.31,-0.9,0.29
0.19,-46.19,58.44,176.87,0.03,0.51,0.01,0.19,0.02,0.23,0.8,0.35,0.44,0.21,-26.07,36.44,176.19,0.01,0.76,0.11,0.15,0.14,0.26,0.92,0.22,0.3,0.1,-351.62,1.31,6.81,0.16,0.22,0.29,0.18,0.35,0.52,-0.06,-0.01,-0.07,-1.0,-148.62,14.19,35.5,0.86,0.42,0.24,0.09,0.7,0.44,-0.03,0.32,-0.9,0.29
0.2,-46.19,59.06,176.81,0.01,0.55,0.01,0.26,0.03,0.29,0.79,0.35,0.44,0.22,-25.75,38.63,176.31,0.04,0.78,0.15,0.11,0.07,0.08,0.92,0.22,0.32,0.1,-351.88,0.94,6.5,0.15,0.16,0.01,0.05,0.18,0.68,-0.06,-0.0,-0.07,-1.0,-148.44,14.69,36.5,0.85,0.43,0.12,0.08,0.35,0.1,-0.03,0.33,-0.9,0.29
0.21,-46.13,59.69,176.75,0.01,0.57,0.01,0.21,0.06,0.21,0.79,0.35,0.45,0.22,-25.69,39.06,176.31,0.06,0.8,0.15,0.17,0.18,0.11,0.92,0.22,0.32,0.1,-351.88,0.75,6.31,0.17,0.18,0.04,0.11,0.43,0.06,-0.06,-0.0,-0.07,-1.0,-148.31,15.13,37.44,0.86,0.39,0.11,0.13,0.16,0.09,-0.03,0.34,-0.89,0.3
0.22,-46.06,60.31,176.69,0.01,0.6,0.01,0.34,0.08,0.06,0.79,0.35,0.45,0.22,-25.5,40.0,176.37,0.05,0.86,0.15,0.15,0.16,0.04,0.91,0.22,0.33,0.1,-351.81,0.56,6.12,0.15,0.17,0.01,0.16,0.34,0.13,-0.05,-0.0,-0.07,-1.0,-147.94,15.75,38.44,0.82,0.44,0.49,0.18,0.32,0.15,-0.03,0.35,-0.89,0.3
0.23,-46.0,61.06,176.63,0.02,0.64,0.01,0.18,0.12,0.19,0.79,0.35,0.46,0.22,-25.38,40.94,176.44,0.01,0.89,0.15,0.04,0.06,0.01,0.91,0.22,0.33,0.11,-351.81,0.31,6.0,0.1,0.19,0.05,0.09,0.33,0.15,-0.05,0.0,-0.07,-1.0,-147.44,16.44,39.25,0.76,0.48,0.43,0.49,0.46,0.14,-0.04,0.36,-0.88,0.31
0.24,-45.88,61.81,176.63,0.03,0.68,0.01,0.12,0.14,0.23,0.78,0.35,0.46,0.22,-25.19,41.94,176.5,0.02,0.86,0.14,0.15,0.04,0.04,0.91,0.21,0.34,0.11,-351.88,0.06,5.94,0.02,0.28,0.09,0.1,0.04,0.21,-0.05,0.0,-0.07,-1.0,-147.13,17.12,40.12,0.76,0.5,0.31,0.49,0.63,0.26,-0.04,0.36,-0.88,0.31
0.25,-45.75,62.56,176.63,0.06,0.68,0.02,0.09,0.23,0.19,0.78,0.35,0.47,0.22,-25.07,42.88,176.63,0.02,0.84,0.14,0.02,0.11,0.11,0.91,0.21,0.35,0.11,-352.0,0.13,5.94,0.03,0.28,0.11,0.46,0.13,0.34,-0.05,0.0,-0.07,-1.0,-146.94,17.69,41.0,0.67,0.46,0.12,0.57,0.15,0.29,-0.04,0.37,-0.87,0.31
0.26,-45.56,63.31,176.63,0.07,0.66,0.02,0.06,0.3,0.19,0.78,0.34,0.47,0.23,-24.94,43.81,176.69,0.01,0.82,0.13,0.23,0.2,0.18,0.9,0.21,0.36,0.11,-352.19,0.44,6.0,0.11,0.23,0.14,0.46,0.09,0.32,-0.05,-0.0,-0.07,-1.0,-146.62,18.69,42.56,0.65,0.42,0.35,0.23,0.53,0.08,-0.04,0.39,-0.86,0.32
0.27,-45.38,64.06,176.69,0.08,0.66,0.02,0.09,0.22,0.19,0.78,0.34,0.48,0.23,-24.82,44.75,176.75,0.05,0.88,0.14,0.19,0.21,0.17,0.9,0.21,0.37,0.11,-352.38,0.62,6.19,0.16,0.26,0.11,0.4,0.14,0.46,-0.05,-0.0,-0.07,-1.0,-146.19,19.37,43.31,0.66,0.47,0.41,0.19,0.51,0.07,-0.04,0.39,-0.86,0.33
0.28,-45.19,64.75,176.75,0.06,0.66,0.02,0.38,0.12,0.29,0.77,0.34,0.48,0.23,-24.82,45.75,176.81,0.06,0.91,0.14,0.19,0.04,0.12,0.9,0.21,0.37,0.11,-352.5,0.88,6.37,0.16,0.25,0.08,0.22,0.03,0.46,-0.06,-0.0,-0.07,-1.0,-146.13,20.5,45.0,0.73,0.71,0.04,0.27,0.56,0.46,-0.05,0.41,-0.85,0.33
0.29,-45.06,65.5,176.69,0.07,0.66,0.02,0.34,0.11,0.25,0.77,0.34,0.49,0.23,-25.13,47.94,176.87,0.01,0.99,0.13,0.03,0.24,0.04,0.89,0.21,0.39,0.11,-352.56,1.44,6.69,0.16,0.26,0.12,0.15,0.18,0.67,-0.06,-0.01,-0.07,-1.0,-146.37,21.0,46.06,0.76,0.74,0.13,0.03,0.73,0.41,-0.05,0.42,-0.85,0.33
0.3,-45.0,65.87,176.69,0.08,0.66,0.01,0.05,0.15,0.34,0.77,0.34,0.49,0.23,-25.38,49.0,177.0,0.02,0.95,0.11,0.03,0.19,0.06,0.89,0.21,0.4,0.11,-352.56,1.69,6.94,0.2,0.24,0.17,0.21,0.22,0.34,-0.06,-0.01,-0.07,-1.0,-146.69,21.44,47.25,0.79,0.76,0.15,0.55,0.96,0.23,-0.05,0.43,-0.84,0.33
0.31,-44.88,66.56,176.69,0.01,0.64,0.01,0.2,0.13,0.3,0.77,0.33,0.5,0.23,-25.63,50.0,177.06,0.04,0.91,0.09,0.14,0.05,0.19,0.88,0.21,0.41,0.12,-352.87,2.12,7.56,0.31,0.26,0.21,0.09,0.15,0.28,-0.07,-0.01,-0.06,-1.0,-146.81,22.0,48.38,0.87,0.72,0.07,0.69,0.84,0.05,-0.05,0.44,-0.84,0.33
0.32,-44.81,67.31,176.63,0.02,0.67,0.01,0.09,0.1,0.41,0.76,0.33,0.5,0.23,-25.95,51.06,177.19,0.04,0.91,0.09,0.22,0.02,0.09,0.88,0.21,0.41,0.12,-353.19,2.37,7.94,0.44,0.23,0.36,0.01,0.2,0.27,-0.07,-0.02,-0.06,-1.0,-146.62,22.62,49.63,1.0,0.58,0.28,0.26,0.53,0.24,-0.05,0.45,-0.83,0.33
0.33,-44.75,68.06,176.56,0.03,0.68,0.02,0.16,0.13,0.41,0.76,0.33,0.51,0.24,-26.26,52.13,177.31,0.04,0.99,0.09,0.06,0.01,0.1,0.87,0.21,0.42,0.12,-353.62,2.56,8.5,0.47,0.23,0.41,0.17,0.18,0.1,-0.08,-0.02,-0.06,-1.0,-146.13,23.31,50.88,1.08,0.48,0.44,0.37,0.2,0.42,-0.05,0.46,-0.82,0.34
0.34,-44.63,68.81,176.5,0.01,0.67,0.02,0.22,0.17,0.3,0.76,0.33,0.51,0.24,-26.57,53.25,177.44,0.06,1.06,0.1,0.01,0.01,0.1,0.87,0.22,0.43,0.12,-354.06,2.81,9.06,0.48,0.26,0.33,0.37,0.32,0.3,-0.08,-0.02,-0.05,-1.0,-145.56,24.19,52.13,1.1,0.6,0.55,0.77,0.85,0.5,-0.05,0.47,-0.81,0.35
0.35,-44.63,69.5,176.44,0.02,0.67,0.02,0.07,0.16,0.29,0.75,0.33,0.52,0.24,-26.88,54.44,177.62,0.07,1.04,0.1,0.19,0.09,0.24,0.86,0.22,0.44,0.12,-354.38,3.0,9.63,0.48,0.21,0.14,0.07,0.18,0.49,-0.09,-0.02,-0.05,-0.99,-145.31,25.44,55.06,1.08,0.74,0.19,0.02,0.78,0.44,-0.05,0.49,-0.8,0.36
0.36,-44.56,70.31,176.44,0.02,0.68,0.03,0.13,0.14,0.22,0.75,0.33,0.52,0.24,-27.26,55.56,177.81,0.08,1.02,0.1,0.19,0.12,0.33,0.86,0.22,0.45,0.13,-354.5,3.19,10.13,0.48,0.19,0.07,0.63,0.16,0.81,-0.09,-0.02,-0.05,-0.99,-145.44,25.81,56.75,1.24,0.72,0.02,0.06,0.83,1.25,-0.05,0.5,-0.79,0.36
0.37,-44.5,71.06,176.37,0.05,0.68,0.03,0.19,0.16,0.41,0.75,0.33,0.53,0.24,-27.95,58.06,178.19,0.07,1.18,0.1,0.59,0.14,0.07,0.85,0.22,0.47,0.13,-354.44,3.37,10.69,0.47,0.11,0.03,0.55,0.27,0.63,-0.09,-0.02,-0.05,-0.99,-145.06,26.62,58.5,1.39,0.82,0.46,0.95,0.8,0.97,-0.05,0.51,-0.78,0.36
0.38,-44.63,72.5,176.12,0.1,0.65,0.02,0.15,0.19,0.19,0.74,0.32,0.54,0.25,-28.2,59.31,178.44,0.09,1.05,0.1,0.82,0.12,0.54,0.84,0.22,0.48,0.13,-354.38,3.69,11.69,0.49,0.19,0.02,0.37,1.04,0.42,-0.1,-0.03,-0.05,-0.99,-144.62,27.5,60.44,1.47,0.99,0.31,0.57,0.8,0.45,-0.05,0.53,-0.76,0.37
0.39,-44.75,73.25,175.87,0.1,0.68,0.01,0.11,0.26,0.01,0.73,0.33,0.54,0.25,-28.57,60.38,178.69,0.12,0.96,0.09,0.55,0.18,0.07,0.84,0.22,0.48,0.13,-354.38,3.87,12.25,0.47,0.22,0.07,0.29,0.94,0.57,-0.11,-0.03,-0.05,-0.99,-144.69,28.06,62.62,1.49,1.0,0.07,0.08,0.87,0.15,-0.04,0.54,-0.75,0.37
0.4,-44.81,74.0,175.62,0.05,0.68,0.01,0.38,0.3,0.03,0.73,0.33,0.54,0.26,-28.89,61.44,178.94,0.07,1.01,0.08,0.5,0.21,0.11,0.83,0.22,0.49,0.14,-354.5,4.06,12.75,0.48,0.22,0.08,0.27,0.73,0.85,-0.11,-0.03,-0.05,-0.99,-144.87,28.44,64.75,1.41,1.01,0.07,0.28,0.54,0.31,-0.04,0.56,-0.74,0.37
0.41,-44.81,74.75,175.56,0.04,0.65,0.01,0.38,0.5,0.03,0.73,0.32,0.55,0.26,-29.07,62.56,179.06,0.06,1.0,0.06,0.41,0.02,0.13,0.83,0.22,0.5,0.14,-354.63,4.31,13.38,0.56,0.25,0.17,0.19,0.57,0.49,-0.12,-0.03,-0.05,-0.99,-144.94,29.0,66.81,1.3,1.05,0.15,0.5,0.06,0.39,-0.04,0.57,-0.73,0.37
0.42,-44.75,75.44,175.62,0.03,0.61,0.01,0.19,0.4,0.04,0.72,0.32,0.55,0.26,-29.14,63.13,179.12,0.07,0.99,0.06,0.28,0.09,0.07,0.82,0.22,0.5,0.14,-354.87,4.5,14.0,0.59,0.29,0.22,0.22,0.41,0.58,-0.12,-0.03,-0.05,-0.99,-144.87,29.63,68.75,1.3,0.95,0.19,0.36,0.11,0.13,-0.04,0.58,-0.72,0.38
0.43,-44.69,76.06,175.69,0.03,0.6,0.02,0.01,0.17,0.08,0.72,0.32,0.56,0.26,-29.39,64.25,179.31,0.12,1.09,0.07,0.19,0.05,0.1,0.82,0.22,0.51,0.14,-355.19,4.81,14.75,0.63,0.34,0.27,0.08,0.55,0.46,-0.13,-0.04,-0.05,-0.99,-144.19,30.94,71.62,1.23,1.1,0.78,0.33,1.07,0.19,-0.03,0.6,-0.7,0.39
0.44,-44.69,76.75,175.5,0.05,0.59,0.02,0.07,0.1,0.16,0.72,0.32,0.56,0.26,-29.7,65.5,179.63,0.18,1.09,0.06,0.68,0.24,0.07,0.81,0.22,0.52,0.14,-355.44,5.12,15.5,0.65,0.35,0.2,0.15,0.21,0.73,-0.14,-0.04,-0.05,-0.99,-143.62,32.13,73.56,1.16,1.22,0.57,0.33,1.0,0.29,-0.03,0.62,-0.68,0.4
0.45,-44.75,77.37,175.38,0.05,0.59,0.03,0.28,0.11,0.11,0.71,0.32,0.57,0.27,-30.45,67.75,179.63,0.19,0.99,0.05,0.89,0.02,0.16,0.8,0.22,0.54,0.15,-355.69,5.44,16.25,0.67,0.35,0.21,0.21,0.02,0.96,-0.14,-0.04,-0.04,-0.99,-143.62,33.44,77.69,1.21,1.13,0.04,1.0,0.66,0.31,-0.03,0.64,-0.65,0.4
0.46,-44.81,78.69,175.06,0.08,0.56,0.02,0.45,0.08,0.26,0.7,0.32,0.57,0.27,-30.82,68.81,179.25,0.21,0.92,0.04,0.73,0.05,0.23,0.79,0.22,0.54,0.16,-356.38,5.94,18.06,0.84,0.3,0.31,0.57,0.03,1.05,-0.16,-0.05,-0.04,-0.99,-143.75,33.88,80.94,1.3,0.91,0.27,1.29,0.39,0.17,-0.02,0.66,-0.63,0.41
0.47,-44.88,79.31,174.75,0.09,0.58,0.02,0.61,0.06,0.09,0.7,0.32,0.58,0.28,-31.45,70.81,178.56,0.19,0.85,0.03,0.44,0.08,0.02,0.78,0.23,0.55,0.17,-356.69,6.19,19.06,0.9,0.36,0.32,0.1,0.28,0.67,-0.17,-0.05,-0.04,-0.98,-143.37,34.38,83.0,1.29,0.8,0.46,0.71,0.25,0.04,-0.01,0.67,-0.62,0.41
0.48,-45.0,79.94,174.31,0.09,0.55,0.02,0.25,0.08,0.09,0.69,0.32,0.58,0.28,-31.76,71.75,178.12,0.2,0.89,0.03,0.53,0.1,0.24,0.78,0.23,0.56,0.17,-357.44,6.75,21.19,0.91,0.37,0.25,0.2,0.2,0.36,-0.18,-0.05,-0.03,-0.98,-142.75,35.0,84.94,1.26,0.78,0.51,0.5,0.42,0.14,-0.0,0.68,-0.6,0.42
0.49,-45.12,80.44,173.87,0.16,0.47,0.02,0.12,0.11,0.27,0.69,0.32,0.58,0.29,-32.07,72.75,177.69,0.19,0.88,0.03,0.5,0.15,0.17,0.77,0.23,0.57,0.18,-357.75,7.0,22.25,0.95,0.32,0.27,0.05,0.26,0.23,-0.19,-0.06,-0.03,-0.98,-142.13,35.63,86.87,1.14,0.85,0.44,0.19,0.62,0.5,0.0,0.69,-0.59,0.42
0.5,-45.31,81.0,173.5,0.17,0.45,0.02,0.18,0.01,0.38,0.69,0.33,0.58,0.29,-32.32,73.62,177.38,0.16,0.8,0.02,0.48,0.15,0.1,0.76,0.24,0.57,0.18,-358.0,7.25,23.38,0.95,0.34,0.2,0.42,0.63,0.6,-0.2,-0.06,-0.03,-0.98,-141.69,36.13,88.81,1.07,0.93,0.3,0.3,0.66,0.46,0.01,0.7,-0.57,0.43
0.51,-45.5,81.5,173.13,0.13,0.43,0.02,0.25,0.2,0.46,0.68,0.33,0.58,0.29,-32.51,74.44,177.0,0.1,0.72,0.04,0.69,0.11,0.09,0.76,0.24,0.57,0.19,-358.13,7.5,24.44,0.93,0.29,0.08,0.61,0.22,0.6,-0.21,-0.06,-0.03,-0.97,-141.56,36.38,90.75,1.06,0.95,0.2,0.76,0.11,0.28,0.02,0.71,-0.56,0.43
0.52,-45.63,81.87,172.94,0.11,0.41,0.03,0.19,0.22,0.29,0.68,0.33,0.58,0.3,-32.7,75.19,176.5,0.1,0.7,0.05,0.72,0.04,0.06,0.75,0.24,0.58,0.19,-358.13,7.75,25.44,0.88,0.2,0.03,0.6,0.29,0.45,-0.22,-0.06,-0.03,-0.97,-141.5,36.38,94.62,1.19,0.74,0.01,0.53,0.23,0.62,0.03,0.73,-0.53,0.43
0.53,-45.69,82.25,172.81,0.1,0.36,0.02,0.1,0.03,0.39,0.68,0.33,0.59,0.3,-32.89,75.94,176.0,0.13,0.64,0.04,0.51,0.02,0.05,0.75,0.24,0.58,0.2,-358.19,7.87,26.44,0.88,0.18,0.06,0.34,0.42,0.46,-0.23,-0.06,-0.03,-0.97,-141.12,36.5,96.56,1.16,0.74,0.26,0.14,0.81,0.72,0.04,0.74,-0.52,0.43
0.54,-45.81,82.56,172.37,0.13,0.37,0.01,0.32,0.01,0.36,0.67,0.33,0.59,0.3,-33.14,76.62,175.5,0.16,0.65,0.03,0.5,0.08,0.11,0.74,0.25,0.58,0.21,-358.25,8.06,27.44,0.9,0.19,0.07,0.2,0.33,0.35,-0.24,-0.06,-0.03,-0.97,-140.75,36.69,98.44,1.03,0.81,0.18,0.49,1.12,0.83,0.05,0.75,-0.5,0.43
0.55,-46.0,82.88,171.81,0.14,0.34,0.01,0.29,0.02,0.31,0.67,0.34,0.59,0.31,-33.32,77.37,175.0,0.14,0.65,0.02,0.67,0.08,0.2,0.74,0.25,0.59,0.21,-358.5,8.31,29.56,0.92,0.2,0.18,0.32,0.28,0.27,-0.26,-0.07,-0.03,-0.96,-140.69,36.69,100.25,0.96,0.87,0.15,0.68,0.3,0.04,0.05,0.75,-0.49,0.43
0.56,-46.19,83.12,171.81,0.12,0.28,0.01,0.38,0.01,0.28,0.67,0.34,0.59,0.31,-33.45,78.0,174.56,0.11,0.6,0.01,0.63,0.01,0.21,0.73,0.25,0.59,0.22,-358.63,8.38,30.56,0.88,0.13,0.15,0.4,0.25,0.19,-0.26,-0.07,-0.03,-0.96,-140.88,36.44,101.94,0.96,0.79,0.23,0.24,0.16,0.13,0.06,0.76,-0.48,0.43
0.57,-46.25,83.37,171.81,0.08,0.22,0.01,0.29,0.07,0.26,0.67,0.34,0.59,0.31,-33.57,78.56,174.19,0.07,0.55,0.01,0.64,0.05,0.15,0.73,0.25,0.59,0.22,-358.94,8.31,32.94,0.83,0.13,0.19,0.2,0.07,0.09,-0.28,-0.07,-0.03,-0.96,-141.12,36.06,103.5,0.9,0.7,0.06,0.62,0.34,0.27,0.07,0.77,-0.47,0.43
0.58,-46.37,83.5,171.81,0.06,0.19,0.01,0.26,0.09,0.37,0.67,0.34,0.59,0.31,-33.64,79.06,173.75,0.06,0.53,0.03,0.62,0.09,0.13,0.73,0.26,0.6,0.22,-359.12,8.38,33.94,0.85,0.15,0.21,0.56,0.05,0.33,-0.29,-0.07,-0.03,-0.95,-140.94,35.94,105.0,0.93,0.56,0.06,0.5,0.17,0.14,0.08,0.77,-0.46,0.42
0.59,-46.44,83.62,171.81,0.06,0.17,0.01,0.2,0.08,0.32,0.66,0.34,0.59,0.31,-33.7,79.69,173.13,0.01,0.53,0.04,0.63,0.08,0.1,0.72,0.26,0.6,0.23,-359.25,8.44,34.88,0.81,0.13,0.1,0.52,0.1,0.25,-0.3,-0.07,-0.03,-0.95,-140.56,36.0,106.5,0.96,0.51,0.21,0.32,0.04,0.34,0.08,0.78,-0.45,0.43
0.6,-46.44,83.69,171.81,0.05,0.17,0.01,0.3,0.03,0.3,0.66,0.34,0.59,0.31,-33.76,80.19,172.37,0.02,0.5,0.06,0.59,0.06,0.06,0.72,0.26,0.6,0.24,-359.31,8.44,35.81,0.83,0.09,0.16,0.08,0.46,0.19,-0.31,-0.07,-0.03,-0.95,-140.0,36.06,108.0,0.97,0.46,0.18,0.5,0.07,0.37,0.09,0.79,-0.44,0.43
0.61,-46.5,83.87,171.81,0.02,0.15,0.01,0.39,0.09,0.13,0.66,0.34,0.59,0.31,-33.76,80.75,171.56,0.02,0.47,0.06,0.46,0.08,0.06,0.71,0.27,0.6,0.24,-359.37,8.44,36.75,0.88,0.07,0.02,0.21,0.77,0.07,-0.31,-0.07,-0.03,-0.95,-139.69,35.81,109.31,0.96,0.34,0.17,0.7,0.29,0.2,0.1,0.79,-0.43,0.43
0.62,-46.5,84.0,171.81,0.02,0.11,0.01,0.15,0.08,0.02,0.66,0.34,0.59,0.31,-33.82,81.0,171.19,0.02,0.48,0.06,0.4,0.26,0.27,0.71,0.27,0.6,0.24,-359.25,8.5,37.75,0.87,0.02,0.12,0.05,0.26,0.27,-0.32,-0.07,-0.03,-0.94,-139.31,35.56,110.5,0.96,0.23,0.12,0.52,0.55,0.06,0.11,0.79,-0.42,0.42
0.63,-46.5,84.06,171.81,0.01,0.08,0.01,0.01,0.05,0.06,0.66,0.34,0.59,0.31,-33.82,81.44,170.38,0.01,0.5,0.05,0.32,0.05,0.28,0.71,0.27,0.6,0.25,-359.0,8.56,38.69,0.85,0.06,0.17,0.29,0.21,0.26,-0.33,-0.07,-0.03,-0.94,-138.69,35.5,111.75,0.92,0.24,0.1,0.33,0.01,0.18,0.12,0.8,-0.41,0.42
0.64,-46.5,84.19,171.81,0.01,0.08,0.01,0.11,0.09,0.11,0.66,0.34,0.59,0.31,-33.82,82.44,168.75,0.01,0.38,0.01,0.3,0.22,0.28,0.7,0.28,0.61,0.26,-358.69,8.63,39.63,0.92,0.09,0.16,0.4,0.09,0.27,-0.34,-0.07,-0.04,-0.94,-138.06,35.5,113.0,0.87,0.31,0.11,0.5,0.43,0.22,0.13,0.8,-0.4,0.43
0.65,-46.5,84.25,171.81,0.01,0.09,0.01,0.1,0.06,0.01,0.66,0.34,0.59,0.31,-33.82,82.81,168.0,0.01,0.39,0.02,0.29,0.22,0.2,0.69,0.28,0.61,0.27,-358.38,8.63,40.63,0.92,0.09,0.17,0.36,0.15,0.26,-0.35,-0.07,-0.04,-0.93,-137.75,35.25,114.12,0.87,0.26,0.24,0.37,1.3,0.2,0.13,0.81,-0.39,0.42
0.66,-46.5,84.56,171.81,0.01,0.14,0.01,0.2,0.04,0.1,0.66,0.34,0.6,0.31,-33.89,83.69,168.0,0.01,0.42,0.04,0.28,0.09,0.07,0.69,0.28,0.61,0.27,-358.06,8.69,41.63,0.91,0.12,0.2,0.08,0.17,0.06,-0.36,-0.06,-0.04,-0.93,-137.37,34.88,115.19,1.01,0.18,0.27,0.46,0.73,0.04,0.14,0.81,-0.38,0.42
0.67,-46.5,84.69,171.81,0.02,0.13,0.01,0.19,0.05,0.1,0.66,0.34,0.6,0.31,-33.89,84.13,167.94,0.03,0.41,0.04,0.3,0.01,0.14,0.69,0.28,0.61,0.27,-357.75,8.69,42.56,0.91,0.09,0.12,0.03,0.33,0.12,-0.36,-0.06,-0.05,-0.93,-136.69,34.69,116.44,1.04,0.17,0.07,0.16,0.79,0.06,0.15,0.81,-0.37,0.42
0.68,-46.5,84.94,171.81,0.02,0.09,0.01,0.22,0.02,0.21,0.66,0.33,0.6,0.31,-33.89,84.56,167.87,0.01,0.43,0.04,0.38,0.09,0.22,0.68,0.28,0.62,0.27,-357.06,8.69,44.63,0.93,0.22,0.22,0.4,0.22,0.08,-0.38,-0.06,-0.05,-0.92,-136.31,34.56,117.06,0.99,0.14,0.21,0.63,0.84,0.76,0.16,0.81,-0.37,0.42
0.69,-46.5,85.0,171.81,0.02,0.08,0.01,0.09,0.03,0.2,0.66,0.33,0.6,0.31,-33.95,85.0,167.87,0.02,0.41,0.03,0.46,0.02,0.27,0.68,0.28,0.62,0.27,-356.69,8.63,45.56,0.9,0.23,0.19,0.44,0.11,0.03,-0.39,-0.06,-0.06,-0.92,-135.81,34.31,118.13,0.82,0.27,0.04,1.36,0.47,0.51,0.17,0.82,-0.36,0.42
0.7,-46.5,85.12,171.74,0.02,0.06,0.01,0.1,0.06,0.18,0.66,0.33,0.6,0.32,-33.95,85.5,167.81,0.06,0.48,0.03,0.53,0.12,0.21,0.68,0.28,0.62,0.27,-356.19,8.56,47.56,1.02,0.09,0.05,0.4,0.06,0.22,-0.4,-0.05,-0.06,-0.91,-135.44,34.13,119.25,0.8,0.37,0.03,0.91,0.03,0.26,0.18,0.82,-0.35,0.42
0.71,-46.5,85.19,171.74,0.01,0.07,0.01,0.13,0.09,0.26,0.66,0.33,0.6,0.32,-33.89,85.81,167.81,0.01,0.3,0.01,0.23,0.01,0.01,0.68,0.28,0.62,0.27,-356.13,8.44,48.75,1.02,0.02,0.06,0.57,0.14,0.24,-0.41,-0.05,-0.06,-0.91,-135.19,33.81,120.37,0.77,0.39,0.03,0.08,0.6,0.02,0.18,0.82,-0.34,0.41
0.72,-46.44,85.31,171.74,0.01,0.07,0.01,0.12,0.07,0.16,0.65,0.33,0.6,0.32,-33.95,86.12,167.81,0.01,0.34,0.03,0.65,0.07,0.2,0.67,0.28,0.63,0.27,-356.13,8.38,49.88,1.01,0.02,0.12,0.24,0.12,0.4,-0.42,-0.05,-0.06,-0.9,-134.94,33.56,121.44,0.76,0.29,0.07,0.06,0.91,0.51,0.19,0.83,-0.34,0.41
0.73,-46.44,85.38,171.81,0.03,0.05,0.01,0.06,0.08,0.1,0.65,0.33,0.6,0.31,-33.76,86.81,167.75,0.08,0.3,0.02,0.28,0.24,0.27,0.67,0.28,0.63,0.27,-356.13,8.31,50.94,0.96,0.05,0.05,0.34,0.11,0.29,-0.43,-0.05,-0.06,-0.9,-134.25,33.56,122.5,0.8,0.25,0.22,0.14,0.62,0.33,0.2,0.83,-0.33,0.41
0.74,-46.37,85.5,171.74,0.05,0.08,0.03,0.15,0.18,0.21,0.65,0.33,0.6,0.32,-33.64,87.06,167.75,0.1,0.3,0.01,0.03,0.16,0.27,0.67,0.28,0.63,0.27,-356.06,8.19,52.0,0.94,0.09,0.05,0.07,0.02,0.11,-0.44,-0.05,-0.06,-0.89,-133.12,33.88,123.69,0.73,0.18,0.5,0.45,0.04,0.66,0.21,0.83,-0.31,0.42
0.75,-46.31,85.56,171.74,0.08,0.03,0.02,0.15,0.16,0.26,0.65,0.33,0.6,0.31,-33.57,87.31,167.75,0.06,0.36,0.01,0.08,0.05,0.19,0.67,0.28,0.63,0.27,-355.94,8.13,53.0,0.94,0.1,0.01,0.32,0.14,0.18,-0.45,-0.05,-0.06,-0.89,-132.06,34.13,124.81,0.72,0.2,0.37,0.81,0.36,0.62,0.22,0.83,-0.3,0.42
0.76,-46.19,85.5,171.74,0.04,0.03,0.01,0.01,0.04,0.03,0.65,0.33,0.6,0.31,-33.45,87.62,167.75,0.1,0.35,0.01,0.56,0.04,0.11,0.67,0.28,0.64,0.27,-355.75,8.06,54.06,0.95,0.08,0.02,0.37,0.26,0.31,-0.46,-0.05,-0.06,-0.89,-131.37,34.19,125.81,0.69,0.24,0.1,0.66,0.02,0.19,0.23,0.83,-0.29,0.42
0.77,-46.19,85.5,171.68,0.05,0.02,0.04,0.13,0.03,0.08,0.65,0.33,0.6,0.31,-33.32,87.81,167.81,0.11,0.26,0.02,0.56,0.02,0.11,0.67,0.28,0.64,0.27,-355.62,8.06,55.12,0.96,0.04,0.02,0.02,0.02,0.17,-0.46,-0.04,-0.07,-0.88,-131.06,33.88,126.62,0.63,0.19,0.29,0.28,0.14,0.2,0.23,0.83,-0.28,0.41
0.78,-46.13,85.5,171.68,0.09,0.01,0.04,0.19,0.02,0.12,0.65,0.33,0.6,0.31,-33.2,88.0,167.81,0.09,0.24,0.01,0.36,0.01,0.04,0.66,0.28,0.64,0.27,-355.5,8.0,56.13,0.92,0.1,0.01,0.07,0.1,0.16,-0.47,-0.04,-0.07,-0.88,-130.87,33.56,127.31,0.54,0.18,0.15,0.56,0.69,0.33,0.24,0.83,-0.28,0.41
0.79,-46.06,85.5,171.62,0.1,0.01,0.03,0.1,0.04,0.1,0.65,0.33,0.6,0.31,-33.07,88.12,167.81,0.1,0.26,0.01,0.24,0.05,0.07,0.66,0.27,0.64,0.27,-355.31,7.94,57.13,0.93,0.11,0.01,0.14,0.05,0.17,-0.48,-0.04,-0.07,-0.87,-130.44,33.56,128.06,0.47,0.24,0.25,0.49,0.16,0.47,0.25,0.83,-0.27,0.41
0.8,-45.94,85.5,171.62,0.1,0.02,0.03,0.01,0.07,0.06,0.65,0.33,0.6,0.31,-33.01,88.12,167.81,0.13,0.23,0.02,0.32,0.11,0.22,0.66,0.27,0.64,0.27,-355.19,7.81,58.13,0.93,0.13,0.04,0.01,0.19,0.22,-0.49,-0.04,-0.07,-0.87,-129.94,33.63,128.87,0.45,0.29,0.3,0.51,0.22,0.42,0.25,0.84,-0.26,0.41
0.81,-45.88,85.44,171.62,0.08,0.02,0.02,0.04,0.02,0.08,0.66,0.33,0.6,0.31,-32.82,88.19,167.81,0.13,0.16,0.03,0.29,0.14,0.02,0.66,0.27,0.64,0.27,-355.19,7.62,59.19,0.96,0.12,0.18,0.04,0.3,0.23,-0.49,-0.04,-0.07,-0.87,-129.75,33.5,129.56,0.4,0.33,0.03,0.05,1.04,0.14,0.26,0.84,-0.26,0.41
0.82,-45.81,85.44,171.56,0.07,0.02,0.02,0.07,0.08,0.06,0.66,0.33,0.6,0.31,-32.51,88.25,167.81,0.12,0.21,0.03,0.59,0.17,0.24,0.66,0.27,0.64,0.27,-355.37,7.12,61.25,0.93,0.06,0.21,0.03,0.07,0.5,-0.51,-0.03,-0.07,-0.86,-130.69,32.44,130.06,0.2,0.22,0.48,0.06,0.09,0.51,0.26,0.84,-0.26,0.4
0.83,-45.75,85.44,171.56,0.07,0.01,0.02,0.1,0.12,0.12,0.66,0.33,0.6,0.31,-32.39,88.19,167.81,0.11,0.14,0.02,0.45,0.23,0.19,0.67,0.27,0.64,0.27,-355.37,6.94,62.25,0.88,0.12,0.14,0.22,0.37,0.36,-0.52,-0.03,-0.07,-0.85,-131.06,32.13,130.19,0.11,0.14,0.19,0.16,1.15,0.86,0.25,0.84,-0.26,0.4
0.84,-45.75,85.38,171.49,0.07,0.01,0.03,0.12,0.15,0.11,0.66,0.33,0.6,0.31,-32.26,88.12,167.87,0.07,0.12,0.02,0.27,0.05,0.19,0.67,0.27,0.64,0.27,-355.25,6.75,63.19,0.86,0.19,0.04,0.12,0.32,0.66,-0.52,-0.03,-0.07,-0.85,-131.0,32.13,130.44,0.12,0.11,0.22,0.07,0.72,1.0,0.26,0.84,-0.26,0.4
0.85,-45.69,85.38,171.49,0.04,0.01,0.03,0.06,0.13,0.26,0.66,0.33,0.6,0.31,-32.14,88.06,167.81,0.14,0.14,0.02,0.34,0.12,0.31,0.67,0.27,0.64,0.26,-355.0,6.69,64.06,0.82,0.21,0.07,0.09,0.3,0.52,-0.53,-0.03,-0.07,-0.84,-130.56,32.38,130.81,0.11,0.11,0.39,0.2,0.32,0.9,0.26,0.84,-0.26,0.4
0.86,-45.69,85.31,171.43,0.05,0.01,0.01,0.04,0.02,0.29,0.66,0.33,0.6,0.31,-31.95,88.06,167.81,0.15,0.12,0.01,0.37,0.1,0.22,0.67,0.27,0.64,0.26,-354.75,6.69,64.94,0.8,0.16,0.05,0.3,0.06,0.46,-0.54,-0.02,-0.07,-0.84,-130.37,32.5,131.0,0.09,0.1,0.2,0.62,0.14,0.52,0.26,0.84,-0.25,0.4
0.87,-45.63,85.31,171.43,0.06,0.02,0.01,0.09,0.04,0.17,0.66,0.33,0.6,0.31,-31.76,88.0,167.81,0.12,0.08,0.01,0.39,0.21,0.22,0.67,0.27,0.64,0.26,-354.63,6.56,65.81,0.82,0.14,0.06,0.37,0.4,0.45,-0.54,-0.02,-0.07,-0.84,-130.5,32.5,131.06,0.07,0.09,0.04,0.32,0.18,0.36,0.26,0.84,-0.25,0.4
0.88,-45.56,85.25,171.43,0.08,0.03,0.01,0.05,0.06,0.19,0.66,0.33,0.6,0.31,-31.64,87.94,167.81,0.11,0.08,0.01,0.49,0.05,0.12,0.67,0.27,0.64,0.26,-354.44,6.44,66.69,0.78,0.2,0.04,0.53,0.31,0.74,-0.55,-0.02,-0.07,-0.83,-130.81,32.44,130.94,0.15,0.04,0.05,0.06,0.13,0.39,0.26,0.84,-0.26,0.4
0.89,-45.5,85.19,171.49,0.09,0.03,0.01,0.01,0.08,0.27,0.66,0.33,0.6,0.31,-31.51,87.94,167.81,0.09,0.04,0.04,0.28,0.11,0.13,0.67,0.27,0.64,0.26,-354.31,6.37,67.5,0.74,0.16,0.01,0.19,0.23,0.67,-0.56,-0.02,-0.07,-0.83,-131.06,32.44,130.63,0.23,0.06,0.01,0.03,0.17,0.93,0.26,0.84,-0.26,0.4
0.9,-45.38,85.19,171.49,0.1,0.03,0.01,0.03,0.05,0.31,0.66,0.33,0.6,0.31,-31.39,87.94,167.74,0.08,0.06,0.04,0.21,0.01,0.03,0.67,0.26,0.64,0.26,-354.13,6.37,67.75,0.72,0.13,0.02,0.01,0.28,0.67,-0.56,-0.02,-0.07,-0.83,-131.12,32.63,130.31,0.31,0.12,0.21,0.09,0.01,0.83,0.25,0.84,-0.26,0.4
0.91,-45.19,85.12,171.49,0.11,0.01,0.01,0.05,0.04,0.24,0.66,0.33,0.6,0.31,-31.26,87.94,167.74,0.11,0.07,0.03,0.18,0.07,0.08,0.67,0.26,0.64,0.26,-354.0,6.31,68.5,0.63,0.21,0.08,0.16,0.43,0.4,-0.56,-0.02,-0.07,-0.82,-131.37,33.13,129.25,0.51,0.26,0.09,0.1,0.32,0.97,0.25,0.84,-0.27,0.4
0.92,-45.06,85.06,171.49,0.12,0.02,0.02,0.15,0.04,0.06,0.66,0.33,0.6,0.31,-31.07,87.88,167.68,0.1,0.07,0.04,0.24,0.17,0.12,0.67,0.26,0.64,0.26,-353.69,6.31,69.12,0.57,0.22,0.14,0.19,0.33,0.73,-0.57,-0.01,-0.08,-0.82,-131.56,33.13,128.81,0.57,0.25,0.14,0.31,1.02,1.08,0.24,0.84,-0.27,0.4
0.93,-44.88,85.06,171.56,0.15,0.03,0.02,0.05,0.02,0.06,0.66,0.33,0.6,0.31,-30.95,87.88,167.68,0.1,0.07,0.03,0.31,0.15,0.06,0.67,0.26,0.64,0.26,-353.31,6.44,69.75,0.54,0.17,0.18,0.09,0.67,0.27,-0.57,-0.01,-0.08,-0.82,-132.63,33.38,127.19,0.4,0.06,0.04,0.66,0.71,1.14,0.23,0.84,-0.29,0.41
0.94,-44.69,85.0,171.56,0.15,0.05,0.02,0.02,0.06,0.04,0.66,0.33,0.6,0.31,-30.82,87.81,167.68,0.1,0.08,0.03,0.44,0.17,0.01,0.67,0.26,0.64,0.26,-352.94,6.5,70.31,0.51,0.18,0.16,0.28,0.58,0.23,-0.58,-0.01,-0.08,-0.81,-133.0,33.38,126.81,0.34,0.03,0.06,0.33,0.47,0.58,0.22,0.84,-0.29,0.41
0.95,-44.5,85.0,171.56,0.14,0.05,0.01,0.1,0.08,0.06,0.66,0.32,0.6,0.31,-30.7,87.75,167.68,0.08,0.07,0.03,0.41,0.16,0.06,0.67,0.26,0.64,0.26,-352.5,6.62,70.87,0.53,0.19,0.18,0.05,0.41,0.75,-0.58,-0.01,-0.09,-0.81,-133.37,33.38,126.38,0.33,0.07,0.08,0.22,0.63,0.38,0.22,0.84,-0.3,0.41
0.96,-44.38,84.94,171.56,0.1,0.06,0.01,0.13,0.23,0.04,0.66,0.32,0.6,0.3,-30.64,87.75,167.68,0.08,0.06,0.02,0.21,0.21,0.04,0.67,0.26,0.64,0.26,-352.13,6.75,71.44,0.58,0.14,0.1,0.43,0.03,0.7,-0.58,-0.01,-0.09,-0.81,-133.69,33.38,125.87,0.36,0.14,0.05,0.35,0.97,0.19,0.22,0.84,-0.3,0.41
0.97,-44.31,84.81,171.56,0.07,0.07,0.01,0.04,0.25,0.01,0.66,0.32,0.6,0.3,-30.57,87.69,167.68,0.06,0.05,0.02,0.25,0.09,0.04,0.67,0.26,0.64,0.26,-351.88,6.81,72.06,0.64,0.07,0.05,0.2,0.1,0.62,-0.59,-0.01,-0.09,-0.8,-133.81,33.56,125.38,0.4,0.18,0.17,0.55,0.8,0.18,0.21,0.83,-0.3,0.41
0.98,-44.25,84.75,171.56,0.08,0.07,0.01,0.03,0.21,0.03,0.66,0.32,0.6,0.3,-30.51,87.69,167.62,0.07,0.05,0.02,0.19,0.23,0.02,0.67,0.26,0.64,0.26,-351.69,6.81,72.75,0.67,0.08,0.07,0.1,0.65,0.6,-0.59,-0.0,-0.09,-0.8,-133.69,34.0,124.87,0.47,0.19,0.37,0.28,0.4,0.4,0.21,0.83,-0.3,0.41
0.99,-44.19,84.69,171.56,0.08,0.06,0.02,0.04,0.18,0.05,0.66,0.32,0.6,0.3,-30.45,87.62,167.62,0.05,0.06,0.01,0.17,0.23,0.1,0.67,0.26,0.64,0.26,-351.5,6.87,73.5,0.65,0.1,0.2,0.39,0.63,0.3,-0.6,-0.0,-0.1,-0.79,-133.63,34.44,124.31,0.47,0.27,0.21,0.02,0.56,0.63,0.21,0.83,-0.31,0.42
1.0,-44.06,84.62,171.56,0.08,0.05,0.02,0.05,0.07,0.03,0.67,0.32,0.6,0.3,-30.39,87.56,167.68,0.03,0.08,0.02,0.36,0.1,0.25,0.67,0.26,0.64,0.26,-351.06,7.06,74.19,0.65,0.13,0.2,0.3,0.11,0.1,-0.6,-0.0,-0.1,-0.79,-133.56,34.69,123.62,0.46,0.39,0.06,0.18,0.87,0.82,0.2,0.83,-0.31,0.42
1.01,-44.0,84.56,171.56,0.06,0.06,0.02,0.06,0.08,0.03,0.67,0.32,0.6,0.3,-30.32,87.5,167.62,0.01,0.07,0.01,0.27,0.06,0.22,0.67,0.26,0.64,0.25,-350.0,7.56,75.44,0.57,0.26,0.49,0.47,0.1,0.66,-0.61,0.0,-0.11,-0.78,-133.31,35.13,122.94,0.48,0.38,0.26,0.53,0.9,1.08,0.2,0.83,-0.31,0.42
1.02,-43.94,84.5,171.56,0.03,0.07,0.02,0.09,0.19,0.04,0.67,0.32,0.6,0.3,-30.32,87.44,167.62,0.03,0.06,0.01,0.29,0.05,0.66,0.67,0.26,0.64,0.25,-349.12,8.0,76.06,0.6,0.27,0.53,0.26,0.17,0.61,-0.62,0.0,-0.12,-0.78,-132.94,35.75,122.44,0.48,0.27,0.52,0.4,0.58,0.88,0.2,0.82,-0.31,0.43
1.03,-43.94,84.44,171.56,0.01,0.08,0.01,0.01,0.21,0.04,0.67,0.32,0.6,0.3,-30.39,87.37,167.68,0.01,0.11,0.01,0.1,0.03,0.22,0.67,0.26,0.64,0.25,-348.19,8.56,76.69,0.62,0.24,0.52,0.2,0.2,0.37,-0.62,0.01,-0.13,-0.77,-132.69,36.31,121.87,0.48,0.26,0.39,0.13,0.07,0.6,0.19,0.82,-0.31,0.43
1.04,-44.0,84.31,171.56,0.02,0.05,0.01,0.02,0.15,0.02,0.67,0.32,0.6,0.3,-30.39,87.37,167.68,0.02,0.01,0.02,0.32,0.11,0.03,0.67,0.26,0.64,0.25,-347.31,9.06,77.31,0.62,0.22,0.52,0.11,0.14,0.63,-0.63,0.01,-0.14,-0.77,-132.63,36.69,121.25,0.5,0.32,0.11,0.11,0.58,0.79,0.19,0.82,-0.32,0.44
1.05,-44.06,84.25,171.56,0.02,0.04,0.01,0.01,0.08,0.01,0.67,0.32,0.6,0.3,-30.39,87.31,167.74,0.02,0.05,0.02,0.36,0.07,0.14,0.67,0.26,0.64,0.25,-346.56,9.56,78.0,0.66,0.15,0.47,0.34,0.22,0.24,-0.63,0.01,-0.14,-0.76,-132.69,36.94,120.44,0.52,0.34,0.07,0.17,0.62,0.86,0.19,0.82,-0.32,0.44
1.06,-44.06,84.13,171.49,0.01,0.05,0.01,0.01,0.13,0.02,0.67,0.32,0.6,0.3,-30.39,87.31,167.68,0.02,0.01,0.01,0.35,0.03,0.21,0.67,0.26,0.64,0.25,-345.88,9.94,78.69,0.68,0.21,0.31,0.32,0.45,0.68,-0.64,0.01,-0.15,-0.76,-132.75,37.25,119.69,0.57,0.29,0.22,0.1,0.46,0.98,0.18,0.82,-0.33,0.44
1.07,-44.06,84.06,171.56,0.02,0.06,0.01,0.05,0.15,0.04,0.67,0.32,0.6,0.3,-30.32,87.25,167.68,0.06,0.03,0.01,0.25,0.06,0.19,0.68,0.26,0.64,0.25,-345.25,10.19,79.37,0.63,0.21,0.29,0.34,0.28,0.62,-0.64,0.01,-0.15,-0.75,-132.81,37.69,118.94,0.63,0.23,0.31,0.08,0.22,1.06,0.18,0.81,-0.33,0.45
1.08,-44.0,84.0,171.56,0.01,0.06,0.01,0.01,0.14,0.05,0.67,0.32,0.6,0.3,-30.26,87.19,167.68,0.03,0.09,0.01,0.45,0.05,0.2,0.68,0.26,0.64,0.25,-344.69,10.44,80.0,0.63,0.18,0.24,0.3,0.15,0.65,-0.64,0.02,-0.16,-0.75,-132.87,38.06,118.19,0.59,0.24,0.22,0.18,0.06,0.84,0.17,0.81,-0.33,0.45
1.09,-44.0,83.94,171.56,0.01,0.05,0.01,0.01,0.1,0.04,0.67,0.32,0.6,0.3,-30.26,87.12,167.74,0.02,0.06,0.01,0.43,0.01,0.19,0.68,0.26,0.64,0.25,-344.13,10.63,80.56,0.65,0.18,0.25,0.3,0.27,0.56,-0.65,0.02,-0.16,-0.74,-133.12,38.25,117.37,0.61,0.28,0.01,0.02,0.08,0.85,0.16,0.81,-0.34,0.45
1.1,-44.0,83.87,171.62,0.01,0.05,0.02,0.02,0.06,0.04,0.67,0.32,0.6,0.3,-30.26,87.19,167.74,0.01,0.02,0.01,0.35,0.04,0.16,0.68,0.26,0.64,0.25,-343.63,10.88,81.19,0.58,0.16,0.23,0.43,0.25,0.19,-0.65,0.02,-0.17,-0.74,-133.63,38.31,116.31,0.68,0.25,0.08,0.11,0.1,0.86,0.16,0.81,-0.35,0.45
1.11,-43.94,83.87,171.62,0.01,0.04,0.02,0.04,0.02,0.03,0.67,0.32,0.6,0.3,-30.26,87.19,167.74,0.02,0.02,0.01,0.37,0.09,0.05,0.68,0.26,0.64,0.25,-343.12,11.06,81.75,0.54,0.2,0.15,0.16,0.58,0.4,-0.66,0.02,-0.17,-0.74,-133.87,38.38,115.69,0.71,0.24,0.01,0.19,0.2,0.68,0.15,0.8,-0.35,0.45
1.12,-43.94,83.81,171.62,0.01,0.03,0.01,0.04,0.02,0.03,0.67,0.32,0.6,0.3,-30.26,87.19,167.74,0.02,0.01,0.01,0.37,0.11,0.06,0.68,0.26,0.64,0.25,-342.62,11.19,82.31,0.53,0.18,0.16,0.28,0.29,0.68,-0.66,0.03,-0.18,-0.73,-134.69,38.63,113.62,0.7,0.33,0.06,0.22,0.34,1.06,0.14,0.8,-0.37,0.45
1.13,-43.87,83.81,171.62,0.01,0.02,0.01,0.04,0.02,0.15,0.67,0.32,0.6,0.3,-30.2,87.19,167.74,0.04,0.02,0.01,0.4,0.13,0.05,0.68,0.26,0.64,0.25,-342.0,11.38,83.5,0.54,0.13,0.06,0.09,0.46,0.54,-0.67,0.03,-0.18,-0.72,-134.94,38.88,112.56,0.71,0.34,0.12,0.13,0.4,0.98,0.13,0.8,-0.38,0.46
1.14,-43.87,83.75,171.62,0.01,0.02,0.01,0.08,0.03,0.08,0.67,0.32,0.6,0.3,-30.14,87.25,167.74,0.05,0.06,0.01,0.21,0.21,0.19,0.68,0.26,0.64,0.25,-341.69,11.38,84.0,0.51,0.14,0.03,0.01,0.01,1.12,-0.67,0.03,-0.18,-0.72,-135.12,39.13,111.56,0.71,0.35,0.13,0.12,0.43,1.06,0.12,0.79,-0.38,0.46
1.15,-43.87,83.75,171.68,0.01,0.03,0.01,0.05,0.06,0.02,0.67,0.32,0.6,0.3,-30.07,87.25,167.74,0.06,0.04,0.01,0.37,0.05,0.17,0.68,0.26,0.64,0.25,-341.38,11.44,84.56,0.41,0.15,0.12,0.42,0.4,0.34,-0.67,0.04,-0.19,-0.72,-135.25,39.38,110.5,0.66,0.35,0.14,0.03,0.34,1.15,0.12,0.79,-0.39,0.46
1.16,-43.87,83.69,171.68,0.01,0.03,0.01,0.01,0.05,0.01,0.67,0.32,0.6,0.3,-30.07,87.25,167.74,0.04,0.02,0.01,0.39,0.11,0.02,0.68,0.26,0.64,0.25,-341.0,11.56,84.94,0.44,0.2,0.09,0.44,0.18,1.03,-0.67,0.04,-0.19,-0.71,-135.37,39.69,109.56,0.6,0.3,0.14,0.1,0.36,1.37,0.11,0.79,-0.4,0.46
1.17,-43.87,83.69,171.68,0.01,0.03,0.01,0.04,0.08,0.06,0.67,0.32,0.6,0.3,-30.01,87.31,167.74,0.03,0.05,0.01,0.41,0.05,0.02,0.68,0.26,0.64,0.25,-340.37,11.81,85.38,0.35,0.27,0.33,0.09,0.64,0.67,-0.68,0.04,-0.19,-0.71,-135.44,39.94,108.69,0.59,0.27,0.14,0.04,0.41,0.97,0.11,0.78,-0.4,0.46
1.18,-43.87,83.62,171.68,0.01,0.04,0.01,0.07,0.06,0.11,0.67,0.32,0.6,0.3,-30.01,87.31,167.74,0.05,0.03,0.01,0.37,0.07,0.09,0.68,0.26,0.64,0.25,-339.69,12.19,85.62,0.31,0.23,0.35,0.31,0.38,0.67,-0.68,0.04,-0.2,-0.71,-135.56,40.12,107.81,0.56,0.28,0.14,0.15,0.52,0.7,0.1,0.78,-0.41,0.47
1.19,-43.87,83.62,171.68,0.01,0.04,0.01,0.07,0.04,0.03,0.67,0.32,0.6,0.3,-29.95,87.31,167.74,0.01,0.03,0.02,0.35,0.08,0.01,0.68,0.26,0.64,0.25,-339.06,12.5,85.94,0.32,0.18,0.32,0.21,0.6,0.44,-0.68,0.04,-0.21,-0.7,-135.5,40.44,106.87,0.48,0.35,0.23,0.46,0.45,1.18,0.09,0.78,-0.41,0.47
1.2,-43.87,83.56,171.68,0.01,0.05,0.01,0.09,0.04,0.01,0.67,0.32,0.6,0.3,-30.01,87.37,167.74,0.03,0.08,0.01,0.33,0.06,0.01,0.68,0.26,0.64,0.25,-338.44,12.88,86.25,0.25,0.22,0.39,0.04,0.79,0.64,-0.68,0.05,-0.21,-0.7,-135.31,40.88,106.19,0.41,0.24,0.29,0.14,0.14,1.04,0.09,0.77,-0.41,0.47
1.21,-43.87,83.5,171.68,0.02,0.05,0.02,0.11,0.01,0.04,0.67,0.32,0.6,0.3,-30.01,87.5,167.74,0.01,0.11,0.01,0.31,0.01,0.03,0.67,0.26,0.64,0.25,-337.75,13.25,86.44,0.24,0.19,0.35,0.02,0.49,0.63,-0.68,0.05,-0.22,-0.7,-135.19,41.19,105.63,0.41,0.23,0.25,0.18,0.13,0.83,0.09,0.77,-0.42,0.47
1.22,-43.87,83.44,171.74,0.02,0.02,0.01,0.11,0.17,0.01,0.67,0.32,0.6,0.3,-30.01,87.62,167.74,0.02,0.1,0.01,0.38,0.02,0.07,0.67,0.26,0.64,0.25,-337.25,13.5,86.69,0.26,0.13,0.23,0.45,0.34,0.5,-0.69,0.05,-0.22,-0.69,-135.19,41.44,105.0,0.4,0.21,0.09,0.22,0.23,0.86,0.08,0.77,-0.42,0.48
1.23,-43.87,83.44,171.74,0.02,0.02,0.01,0.1,0.16,0.06,0.67,0.32,0.6,0.3,-29.95,87.81,167.74,0.01,0.12,0.01,0.35,0.03,0.01,0.67,0.26,0.65,0.25,-336.81,13.75,86.94,0.23,0.15,0.26,0.29,0.38,0.6,-0.69,0.05,-0.23,-0.69,-135.25,41.56,104.38,0.37,0.18,0.11,0.15,0.75,0.63,0.08,0.77,-0.42,0.48
1.24,-43.81,83.37,171.74,0.02,0.04,0.01,0.03,0.08,0.04,0.67,0.32,0.6,0.3,-29.95,87.88,167.74,0.01,0.11,0.02,0.27,0.13,0.08,0.67,0.26,0.65,0.25,-336.25,14.06,87.06,0.17,0.21,0.28,0.13,0.34,0.53,-0.69,0.05,-0.23,-0.69,-135.25,41.75,103.87,0.33,0.19,0.19,0.17,0.48,0.75,0.08,0.76,-0.43,0.48
1.25,-43.81,83.31,171.74,0.01,0.04,0.01,0.01,0.09,0.05,0.67,0.32,0.59,0.3,-29.95,88.0,167.68,0.01,0.11,0.02,0.27,0.07,0.03,0.67,0.26,0.65,0.25,-335.56,14.44,87.12,0.13,0.22,0.41,0.15,0.09,0.43,-0.69,0.06,-0.24,-0.68,-135.0,42.06,103.5,0.23,0.17,0.29,0.33,0.19,0.65,0.08,0.76,-0.43,0.48
1.26,-43.75,83.25,171.74,0.02,0.03,0.01,0.05,0.14,0.1,0.67,0.32,0.59,0.3,-29.89,88.06,167.68,0.02,0.1,0.02,0.38,0.07,0.09,0.67,0.26,0.65,0.25,-334.87,14.94,87.25,0.16,0.2,0.42,0.04,0.19,0.48,-0.69,0.06,-0.24,-0.68,-134.63,42.5,103.12,0.22,0.14,0.36,0.69,0.29,0.86,0.07,0.76,-0.43,0.49
1.27,-43.75,83.25,171.81,0.02,0.03,0.01,0.05,0.12,0.1,0.67,0.32,0.59,0.3,-29.82,88.12,167.68,0.05,0.11,0.03,0.32,0.07,0.01,0.67,0.26,0.65,0.25,-334.12,15.44,87.31,0.14,0.19,0.48,0.03,0.7,0.66,-0.69,0.06,-0.25,-0.68,-134.31,42.94,102.87,0.2,0.1,0.35,0.53,0.34,1.07,0.07,0.76,-0.42,0.49
1.28,-43.69,83.25,171.81,0.02,0.03,0.01,0.03,0.09,0.17,0.67,0.32,0.6,0.3,-29.76,88.25,167.62,0.06,0.09,0.02,0.33,0.05,0.07,0.67,0.26,0.65,0.25,-333.44,15.88,87.37,0.1,0.15,0.41,0.14,0.91,0.78,-0.69,0.06,-0.26,-0.68,-134.12,43.19,102.75,0.13,0.02,0.19,0.41,0.3,0.92,0.07,0.76,-0.42,0.49
1.29,-43.69,83.19,171.81,0.02,0.03,0.01,0.04,0.13,0.21,0.67,0.32,0.59,0.3,-29.64,88.31,167.62,0.04,0.09,0.04,0.39,0.02,0.07,0.67,0.26,0.65,0.25,-333.0,16.12,87.5,0.12,0.08,0.18,0.15,0.12,0.57,-0.69,0.06,-0.26,-0.67,-134.19,43.25,102.62,0.11,0.01,0.02,0.18,0.22,0.59,0.07,0.76,-0.42,0.49
1.3,-43.63,83.19,171.81,0.03,0.01,0.01,0.04,0.1,0.04,0.67,0.32,0.59,0.3,-29.57,88.37,167.56,0.03,0.11,0.04,0.25,0.18,0.04,0.67,0.25,0.65,0.25,-332.19,16.62,87.69,0.1,0.16,0.25,0.04,0.17,0.45,-0.69,0.06,-0.27,-0.67,-134.63,43.13,102.06,0.22,0.03,0.06,0.05,0.35,0.28,0.07,0.76,-0.43,0.49
