0.02,-89.79943005934895,80.75422484655358,135.19977176120614,-137.73958366036817,86.9527486678279,3.0689608225408764,-168.96651984384857,1.535558522373204,4.29868686334844,-155.23109872788885,14.4394000116524,6.774466599133505
0.03,-90.22937588214614,80.5918390708484,135.38810396627804,-137.2226264707747,86.87527547233387,3.306522401609433,-168.89858058391613,1.6094767476852676,4.123158130835174,-154.91352559919304,14.06845171647686,6.465452733253152
0.04,-90.42793653004244,80.68531604671882,136.26240371385504,-137.3462831529208,86.51871302151302,3.258725101426082,-168.89701487656103,1.9910254315388656,4.235147397071513,-155.02140322031795,14.02558475013304,6.661789958172646
0.05,-90.63879797253632,80.51310664840364,136.82308564028892,-137.55934606426635,86.01062559246766,3.368589494467668,-168.6742264591855,1.9757971490752368,4.261446381209901,-155.14433214130534,13.903561617803184,6.547244900773338
0.06,-90.9875657334003,80.22481579208193,138.12622977449328,-137.67492172457028,85.54547083978503,3.718920090882841,-168.84302950917368,1.9004283090440404,4.044966967912033,-155.0702835638513,14.03663668665438,6.521719029838689
0.07,-91.08077049850142,79.94810866191817,138.98115604909032,-138.001294515814,84.87816401510773,3.609349060807731,-168.850347633149,1.885388017159589,4.156900993140729,-155.1141916921017,13.780535128648612,6.708023021948453
0.08,-91.537896740945,79.50885272135599,140.1150426270689,-137.9767341848567,84.42838408578878,3.752681518845596,-168.66903753136108,1.8371076268350088,4.137027843541135,-155.09788268096636,13.83867760600774,6.329949511234231
0.09,-91.87468886855756,79.54139097324065,140.935039815546,-138.2764582962894,83.50010512885113,3.737626388660885,-168.50442063792192,1.89099507662179,3.790776906892242,-155.57166630021308,13.945765983068831,6.692738640776536
0.1,-92.09564031687216,79.1381630215007,141.24274571727508,-138.3676625592962,82.44505978450442,3.979539569233147,-168.72376538353583,1.967295072290398,3.985713417349944,-155.60369486649233,13.634802377158769,6.469363156831616
0.11,-92.66148186900652,78.60050146565558,142.05766768201934,-138.49084058887755,81.23840243030297,3.9348602448167,-168.4145213418749,2.3061245235751784,4.1920643194715845,-155.67465934533556,13.774347007442971,6.750121053418818
0.12,-93.161802571371,78.50015527092762,142.63116253685286,-139.04026708772486,79.67744275172723,4.264935150371997,-168.31149791553062,2.206009593123542,3.941833765535395,-155.88624088814777,13.95482734814461,6.633560459333163
0.13,-93.36822207267345,78.14440704538627,143.57428932631393,-139.16363104469622,78.13552828040966,5.984367227230116,-168.11557374208368,2.595017901151521,3.7083117634507374,-155.9091927174597,13.757770500011448,6.324599657632136
0.14,-94.07448853844072,77.76743981065346,144.18106588312492,-139.26262220241966,76.3138659518398,7.946976929485772,-167.7210024877058,2.668917743089657,3.512855107668719,-156.16156008208674,13.9080812390695,6.402004367058775
0.15,-94.60898294896298,76.93049531152396,144.8433830075654,-139.79843063094134,73.71080159015565,9.540792628771392,-168.0920864418689,2.862681620853204,3.6640164046272097,-156.1597519466071,13.840616557998226,6.243508832195311
0.16,-94.99771329289564,76.08819905596131,146.11726910275448,-139.90833077706864,71.79974480470597,10.153686792990923,-167.74614099002923,2.864959337719396,3.908802690853328,-156.15181340310968,14.08830554915173,6.26777232502686
0.17,-95.64641747184056,75.03773358162371,147.55269707988376,-140.23048644283332,71.27412165761098,10.462142475079728,-167.3477203753957,3.0936427331875835,3.762206841612884,-156.01354093272536,13.710732246287144,6.255841367760763
0.18,-96.38826914152784,74.54222808315492,148.34604451404869,-140.27480247012224,69.7065402588611,11.14825577767328,-167.30415173305187,3.262281721751268,3.774390459680404,-155.9174088628226,14.103743638658427,6.064930741348836
0.19,-98.45401216501892,72.03330949303049,151.48257395254535,-139.87870997761965,66.77713142860846,12.543117614317142,-166.5444471388167,3.408698576718129,3.7371855113807686,-155.78914350487292,14.268204688835466,6.166852183010479
0.2,-98.22843063092428,71.77375313458917,151.89968603787972,-139.77952091751692,65.67557366182344,12.915170912152748,-166.24807235991491,3.4081818920595186,3.445678309325817,-155.48560566818497,14.45902379090548,6.069415516996405
0.21,-98.72552302438784,70.9771369759783,152.48270298999913,-139.87492878685768,64.99252121596375,12.999931665747784,-166.34134671306177,3.4206394495760404,3.493355272946685,-155.1340943390418,14.335840245068889,5.797764652209053
0.22,-98.84598511753968,70.51203014475738,153.00677501720912,-140.04405122304385,64.37870523993924,13.06622569873536,-166.13868848258858,3.462036791300865,3.500593972505858,-155.18286295830748,14.713709645748567,5.538277484376815
0.23,-99.12364871556332,69.81264129429154,154.47119095596034,-139.87650394463603,63.00142418787429,13.52407348235504,-165.90794467084862,3.639217595666643,3.52751053103906,-155.04572078263476,14.643431818132225,5.93818247753679
0.24,-98.56615817013292,69.28570490316852,155.6392352452212,-139.89129675552766,62.00360418006162,13.70311928671038,-165.64245792973105,3.698545253807292,3.2393634419920945,-154.71365584336385,14.167142519413352,5.711278500955216
0.25,-98.403944346345,68.72750450782938,156.61376953866383,-139.1465907130806,60.434572012001006,13.246522473465864,-165.24082760428493,3.644444386267824,2.9763328834719576,-154.4265034503901,14.532028260622628,6.009702480095108
0.26,-98.67039373900263,67.94660660357883,157.45375474388874,-139.6190541347218,59.82896973029798,13.18113702553429,-165.15118330339487,3.7798784532117633,2.629655683501213,-154.184845381637,14.577781699715125,5.919266910481378
0.27,-98.6294626225709,67.2914607482488,158.45773789321,-139.83269248377172,58.84103950622376,13.496742929122782,-164.83876648659816,3.795298027893873,2.46471804285824,-154.10543195674822,14.673049468606951,5.612121029323346
0.28,-98.6570196205636,66.63697605779936,158.67265233402588,-140.4573229015091,58.13415806057734,13.939901734351713,-164.52621293056706,3.636639929405354,2.197622606190458,-153.6594503080274,14.73638504398848,5.639457970555564
0.29,-98.71762500013732,66.41829547598618,159.72721435041515,-140.49686337990946,56.704116908043794,13.74423209071906,-164.05297767105262,4.002704304346536,2.107925740550325,-153.51053631919137,14.587587134446643,5.873904980958116
0.3,-98.69305875079378,65.66846109098849,160.6188111259903,-140.8701028284854,55.70800474523461,13.597818416585794,-165.02926278423988,4.232310620436522,1.8050845806756053,-153.2359336640492,14.7615853140098,5.857107068718969
0.31,-98.67778004053616,65.23979499035362,161.8837859977725,-141.09211691374503,54.91539024855264,13.45088535624898,-165.04152082065244,4.149181626903703,1.4874589722552616,-152.8464023090278,14.618568772139916,5.890698594530894
0.32,-99.18321865275986,64.49073233233594,162.2700322961542,-141.20625273168454,54.09955232647597,13.380303280427096,-165.26690798673076,4.119097979710897,2.189685068309384,-152.68604155638045,14.87173824108596,5.9043175410682265
0.33,-99.93597091883736,63.53029450191136,162.16947986945408,-141.17071064212186,52.961825624909416,13.434536308544647,-165.01449198057506,4.289171698389828,2.350962281244913,-152.8041343052585,14.824328227772718,5.687266791782717
0.34,-100.5642862579272,63.16360052301302,162.63171324918267,-141.32469645662184,51.67109391332808,13.441275091931372,-164.8051448076125,4.26328865702687,2.3472109029579933,-152.51101903189686,14.825266772523657,5.889063978262326
0.35,-100.9140309399487,62.591683032685125,162.02142415745973,-141.08188881934768,50.843893802585576,13.444990330540636,-164.93971387670967,4.4086375871773305,2.370214206403133,-152.45788661315817,14.74419551045874,5.687329452899038
0.36,-101.57474821650904,61.90351776727543,162.46607501018758,-141.59414727146105,49.40160846100353,13.321749969756326,-164.84173972070374,4.474130264762072,2.5833089991232434,-152.374528428502,14.89573730274673,5.723906245508202
0.37,-101.76250845774057,61.681099936999736,162.80167708415496,-141.25054578843347,48.11812247535818,13.269229722962391,-164.67328454663638,4.5061544802482825,2.9253370524690627,-152.19072045317097,14.561000512759229,5.878847825252295
0.38,-101.66199455953854,60.41937059205925,163.1246089945442,-141.22072568152913,46.66400984376359,13.512684429045578,-164.0817232103831,4.803599204231495,2.8478974684979224,-152.071649780169,14.432453233230484,5.665648298016649
0.39,-101.78518570162234,60.09951665553519,163.56584861170768,-140.94400294595917,46.115545693792406,13.23030773197047,-163.75616302865672,4.907358012518496,2.9564468812835583,-151.9275117669778,14.728547691931649,5.534136191147108
0.4,-101.78098016812908,60.29036818902889,163.39129266015286,-140.02676266326355,44.4434504442597,13.779229656575035,-163.53920098579346,5.017606451071635,3.003775300611887,-152.17738131921598,14.43697279790501,5.579227742675293
0.41,-100.97100605635626,60.02192614904267,164.25100901808256,-139.58783315496893,42.580985381704686,13.570152451469587,-163.147153527782,5.050221114000519,3.328218424724895,-151.72966557565505,14.561828008424149,5.369453521356891
0.42,-100.88501866444598,59.75792686572113,164.42977474540854,-139.8382109353809,42.205955681667454,13.532076580900124,-162.97969416164943,4.8869672177496986,3.3522596616186644,-151.89808123694053,14.436740198040972,5.240609702815219
0.43,-100.88368379056196,59.32014808776723,164.5770346795623,-139.7519991830419,41.98230632488624,13.47855134176585,-162.74598523189965,4.738784972542264,3.144210077484497,-151.80583866743797,14.459120136535203,5.265853917937158
0.44,-101.26953165325926,58.33695464950815,164.89444145016418,-139.59062895465695,41.41883671591212,13.353253470466804,-162.8636856197466,5.0141251935516,3.2743300263057904,-151.85125257565977,14.60032089870546,5.295989309262914
0.45,-100.01813949949396,58.54182584171764,165.5864709845371,-139.07828463353863,40.57004257958972,13.32603663522395,-162.89180890210744,4.88112591133079,3.5605481729367203,-152.0823960947685,14.291807573209008,5.54190463992991
0.46,-98.53615200115873,59.17012372003287,166.65568129324828,-138.84331368735394,39.44597748737527,12.967937376926155,-162.52778831495124,4.946576047547546,3.667782929249493,-151.92894963502513,14.275004854011582,5.330263370106229
0.47,-97.27620820071606,58.70723821028398,168.03048154214733,-139.05005113962252,38.94687490232689,13.322724759638897,-162.78978483652924,4.704145944578337,3.8491343162933513,-152.02959285088014,14.378207950811294,5.319312262254105
0.48,-97.2016273581697,57.754678633833,168.77641603627475,-138.93000137278588,38.70146097196174,13.500822584379764,-162.27339568528578,4.7951787195509965,4.1109660174557,-151.92969902726267,14.322842917885533,5.301094592037003
0.49,-96.2368032037872,57.98734741256896,169.7463670611172,-138.93386110630746,37.7423232034754,13.753577786377065,-162.09144002827742,4.694283520487009,3.837565181474824,-151.51215502988086,14.669657642126744,5.352656296834772
0.5,-95.39765320363172,58.30435648639536,170.25586902891894,-138.8159360707848,37.23495685939123,13.853488137834738,-161.35790960056227,4.6708295992843,3.771917629301313,-151.5269859880386,14.533838208906644,5.095868344109356
0.51,-95.33764137264308,58.30251818975894,170.94362584323565,-138.84181332136745,37.14448063055142,13.539843973423851,-161.0258698950582,4.383796779614484,3.7119259689182407,-151.34915094287135,14.503114286080464,5.2621419766812245
0.52,-94.43572482781568,58.10216028782504,171.06510232456884,-138.36801056982645,36.207718151990754,13.729741199445414,-160.6791588511098,4.607762429177579,3.686413979100732,-151.58947442540273,14.52048402409982,4.823149315774489
0.53,-94.00392998608902,58.10619062374944,171.44497229223774,-138.83979812626862,35.79488622033739,13.829101024997732,-160.41248918792076,4.673724950082622,3.736558524417811,-151.60201180793177,14.303405405198744,5.037389452065515
0.54,-93.18763491782472,58.5207455999011,172.35330097934377,-138.73923834976395,35.01185619687875,13.593787453550828,-160.256003505966,4.405520176376918,3.8332660302567207,-151.24758619833287,14.810227985510544,4.797705623182212
0.55,-92.3263243283761,58.794680049023206,173.00004122061748,-138.6631606821398,34.63989871099831,13.6534685872206,-159.6965317178149,4.266270522418911,4.092196214609167,-151.00660536823645,14.472653671578934,4.8444607127637065
0.56,-92.10318630677172,59.1200381548062,173.57707441494017,-138.7369254011844,33.37674431473959,13.631131098998232,-159.59779346083334,4.311776370912727,4.140188630382497,-150.98006522423134,14.58091514875934,5.183690320835257
0.57,-91.08749929523545,59.45460246553064,174.0173537435909,-138.8862459411861,32.93591595186166,13.84319488543927,-159.1701754324849,4.554545363795565,4.322195433097203,-150.93293728279673,15.145292224790968,5.355564504096856
0.58,-90.75504277569216,59.2369788656486,174.3793276887319,-139.2932924296553,32.19432133584388,13.408413295364303,-158.85052473345647,4.692878304011503,3.909781466560648,-150.64707390248228,15.152052900643405,5.558665019043245
0.59,-90.73898928799576,59.765863009453454,174.26951377392953,-139.65511481279506,31.485258496684143,13.362003374181016,-158.52418060596852,4.716694828245076,4.164135118084895,-150.6306600894925,15.2703040827561,5.743947471286035
0.6,-90.00781533131965,59.37594146230703,174.62042514317963,-139.59817418319182,31.05526975956968,13.22405402890397,-157.83597481842284,5.200352340614763,4.103481944071609,-150.12105742871984,15.43934825536131,5.909326398622172
0.61,-89.48476567031969,59.39882703842444,175.27733774754765,-139.52646207319304,30.49436347914073,13.354266617105742,-157.11082424199364,5.21659225831278,3.88298057297504,-149.7465211340169,15.493247047732313,6.160977572168053
0.62,-89.48370330683538,58.69676061501773,175.19379591134847,-139.53385696147566,31.0887391827178,13.073984960282983,-156.47690616311374,4.993461826498228,3.705355135167684,-149.64087558010834,15.774073303549857,6.033036349713795
0.63,-89.5223895769887,58.72456769834957,175.26717459626107,-139.1845308867206,31.242521010856443,13.179866521905696,-156.22571074591357,5.108674211237367,3.6161136554548334,-149.7451677509307,15.886946041162316,6.15186706897374
0.64,-89.37718880568384,58.55889052681042,175.10777617758106,-138.80153736379572,31.10352331522441,13.199496610926667,-156.0015599655215,5.092193964668607,3.269345333081328,-149.52546987430256,16.348782687662915,6.446297846604528
0.65,-89.01378187193669,58.850918817407226,175.3703686661415,-139.00872266240273,32.42766515237927,13.782926972465749,-155.75681984498155,5.259817304532311,2.744286640830897,-149.14507826093936,16.2496461598285,6.369966772011044
0.66,-88.48500418934319,59.37662412525679,175.38433225103546,-138.7987837185823,32.88485593669825,13.854763020517357,-155.82739198289198,5.3142512401514415,2.7076313737334807,-149.14494575933827,16.584650198651747,6.740323233253361
0.67,-87.69793045463167,61.02608258434304,175.95483931362284,-138.87842929294473,34.452994849455024,13.553554591546536,-155.8372194005222,5.337163106379978,2.516911288212435,-149.33320975349935,16.52987672582845,7.004383485324053
0.68,-87.2651526691626,62.07975636555502,177.2830438965415,-138.70684295023938,34.46697976348729,13.542880846630958,-155.16450386915787,5.323393611779838,1.9833360036049383,-149.00008865941777,16.7569306824092,7.138838905598182
0.69,-86.53866382697636,62.75440664031101,177.81675710609017,-138.92061621753345,34.99428172129586,12.931777913456449,-154.42102306501442,5.035734282353848,1.5853285448272252,-149.15121660097716,16.749119036313918,7.516443600151721
0.7,-86.39832484166384,63.9603309028137,178.62067666475969,-138.84327953868606,35.71917722132895,12.744456935927936,-153.2216162941912,5.293177238002872,0.9130078600153276,-148.84347217473172,16.842462794314777,7.518255750846973
0.71,-86.11355250234323,64.4592822746447,178.9761971241652,-138.97023603155938,36.72868494175341,12.590697009309814,-152.87346593953538,5.32017453090313,0.7799225183024796,-148.49018558184812,17.066190791319915,8.08904061189148
0.72,-85.74856393397212,65.43582130486497,179.56608842641592,-139.0907462195315,37.336442074927504,12.538118383103733,-152.7976066657152,5.470481288109535,0.643941336807034,-148.59767365824467,17.086502728768053,8.24221337822558
0.73,-85.93801961990738,65.78061546276015,179.6622650444476,-139.01166855055902,38.10503999675866,12.309469260792415,-152.5349630521283,5.555508920836904,0.7729971211491992,-148.66609617483545,17.207476710409555,8.635773408437563
0.74,-86.43483619201004,66.19780598413575,179.44223501015225,-139.30368698546408,38.592701928206736,12.782833150211545,-153.3005993260558,6.052545418210268,0.0992322912331079,-148.53795582676017,17.29597962695988,9.126876309163537
0.75,-86.7851159218052,67.12152856258363,179.25919278184193,-138.979054530642,38.64461733722048,13.154427981676,-153.86446389917936,6.243025514943281,0.2634548247666035,-147.93110417523917,17.42335293118253,9.025631887312777
0.76,-86.92452105584083,68.27230070143499,178.850266391448,-139.06060726892616,38.69360385384854,13.51825698988124,-155.2509449127579,6.917404676403394,0.2069749324939529,-147.69377948852946,17.57066714144902,10.323622730499292
0.77,-87.54075287108,68.6761215907916,178.85288065716392,-139.07394699803356,39.910012526822726,13.554266914373358,-155.36244909421217,7.069997073107478,0.1182310798666096,-147.71000125960043,17.86060377466343,10.492999978451964
0.78,-87.35968371504505,69.20856921269765,178.6128019503617,-139.22213065307477,39.97974622775195,13.021737870935889,-154.67088421420988,7.051927360644177,0.1089843454282284,-147.7635125169935,17.993010389622572,10.617849224085246
0.79,-87.71441235434388,69.32213610868173,178.46698402639834,-139.18060198316812,39.88128205242922,12.835431986208835,-154.40551726350077,7.238221310790673,0.1090959909868199,-147.8747831859388,18.262847390200324,11.16230184602474
0.8,-87.93150102055391,69.59100643596587,177.9416107699696,-139.59135086869009,40.26157781889832,13.027364858938132,-153.68908728499656,7.2568724033914,0.2262998715151636,-147.87113070889615,18.00991119201755,11.501688640466568
0.81,-88.38518034018794,69.89527980321321,177.499473382349,-139.1724151317379,41.19607805209715,12.526575007880323,-153.1027506608486,7.268204029993233,0.1372118666324177,-148.08707401645813,18.200906871164914,12.074429890249393
0.82,-88.39346124548028,70.46012199056486,177.33398711770917,-139.29303887739388,41.5276966497622,12.072704921838088,-152.28817656259935,7.344428628716747,0.1292182289656189,-147.31985937298066,18.36821056439562,12.362113659017638
0.83,-88.3738448539357,70.778856079244,177.14807202875588,-139.2269060410506,41.87887951431493,11.637688474649234,-152.12673680786804,7.316714291784217,0.5667771800706879,-147.06692677392138,18.60011134133863,12.39270777783483
0.84,-88.45738329663207,71.0519035645697,177.1869667270631,-139.0809447223231,42.51110563465781,11.631954884194364,-152.14559055989,7.3819272159739056,0.2759128614057379,-146.6769276279602,18.45577350939147,12.720274117236212
0.85,-88.46751161905145,71.16594218049714,177.1044417858206,-139.18299297141095,42.93447862883469,11.367744935289512,-152.20458661836537,7.399060515489406,0.4299356363097249,-146.41342914931465,18.40372960906276,12.72617226281651
0.86,-88.71810537483964,71.96922241389431,176.90125984427758,-139.0239894155584,44.11204626480929,10.467916458263332,-151.70672397304548,7.441912096273464,0.7624606501729361,-146.10825489005964,18.907675238853397,13.142978059022862
0.87,-88.70980750973769,72.67639260466852,176.77172048762583,-138.93640715190895,45.099671421141394,10.146848668608763,-151.42868374731083,7.020158649434048,0.994357856782835,-145.9839774086615,18.61220160822339,13.256728986038254
0.88,-88.99358293184385,72.62415434499529,176.48876107506402,-137.51790963530195,45.971613649214525,9.37331978217115,-150.49025104330414,6.8960291226678665,1.4046340169213667,-145.5451611642047,18.897152665876423,13.859519472431002
0.89,-88.92454038996078,73.4505980705565,176.0574868341527,-135.27664815184184,46.82680766594317,8.103371476279309,-150.92121728709796,7.127163602171871,2.1606492314531764,-145.14544799533343,19.077068943848182,14.008139477476956
0.9,-89.12840298411143,73.94405184086011,175.81465005121348,-133.20017595898125,48.31152940008296,7.076736923952401,-150.7063161500775,6.828352795024165,2.549019704326236,-145.34058058805587,19.33897710984025,14.79486989522334
0.91,-89.36212765436159,74.77898060517968,176.06779387506148,-131.86270447839271,49.39151245454095,5.808444026747575,-150.95631666339193,7.089401554169354,3.1039745416393894,-144.8784962407058,19.076375812460054,14.97920637650983
0.92,-88.7946473458095,75.75431534605391,176.17238777463984,-129.9987431370546,50.48606591875179,4.461806320527644,-151.15441895717237,6.98036846545299,3.2580035069837825,-145.17049653061437,19.20385946149901,15.480706834377353
0.93,-88.91533850243506,75.66216154892255,176.39032048537186,-128.89561387554858,51.3438861823968,3.526500601422766,-151.5961893951983,6.564991011904255,4.017745981074874,-144.96161498630246,18.99119236461688,15.926941296696054
0.94,-88.56822936038672,76.29101501679683,176.72248502556354,-128.0135109503664,52.31138665533064,2.89990599013384,-151.9623175317211,6.594698349906299,4.376698386374641,-144.6537555560014,18.89719861836914,16.311505538283786
0.95,-87.95639146765717,77.3826900401249,177.69266013552962,-126.73843582879172,53.930802262103626,1.156534868243377,-151.17672766199215,6.988966943895029,4.784527634006769,-144.04989970012804,18.85070517088049,16.562571471170465
0.96,-87.8119745312591,77.6021176671123,178.538552837129,-126.18287770651985,54.56845130213562,0.0225372323708566,-150.52447346147088,6.948288921918321,4.927838484234393,-143.73348258526647,18.970328288420436,16.534231873658428
0.97,-87.30492674106901,78.05372394289866,179.0751971916484,-125.48630099124254,54.93115510733852,-0.5329793928836059,-150.91421476417764,6.797061095045196,5.666467023435278,-143.6861233379381,18.85344800478744,16.91819355302601
0.98,-87.16926237071787,78.62248036886065,179.14026156324334,-125.18483407799916,55.59982666428302,-1.1791378112135444,-151.49885418583878,6.357744836564379,6.086224878096462,-143.65613966835727,18.253764438079987,16.649362773549015
0.99,-87.05216149843471,79.12529631843738,179.4533420746619,-125.1028083586992,55.963572616701,-1.1859795418987311,-152.29588576843608,6.485874708652066,6.404843204718303,-143.38616616484384,18.464607236404525,16.753353167877222
1.0,-86.77251179812347,79.5028258593191,178.80193472514344,-125.04871000458036,55.71904560483771,-1.6416132423271597,-153.0212904977397,6.1464048402446725,6.844911663008171,-143.5324856132548,18.316706929175066,16.960817015176442
1.01,-87.11911653178645,79.45106431152125,178.92236032964615,-124.7681599959944,56.15440407757968,-1.7546420348574616,-153.5602862830755,5.919158725983991,6.882018413688154,-144.0680401101748,18.296441554107247,17.26692681630963
1.02,-87.32301796560786,79.7191110015978,177.974439973917,-124.64898757303617,56.32029275598994,-2.283932984210606,-153.90455906902417,6.044770091796356,6.989254473728311,-144.2355090053611,18.0124515570726,17.56590224600737
1.03,-87.46430227588995,79.84093215018142,178.06214592443163,-124.28978459010632,56.21759994204286,-2.278340971747403,-153.84332452767458,5.261231928123416,7.062174053107845,-144.29517966894224,17.794837823306207,18.175153518294625
1.04,-87.64252519701027,79.57327385469803,178.16284363513452,-123.96915225295773,56.66776761582367,-2.6220214187557893,-153.60791518950322,5.217987505844669,7.401414626188673,-144.4591403526403,17.770749445310422,18.80492052004381
1.05,-87.61419576931753,79.61231711867698,178.411089341615,-123.76866792166568,56.59012454208791,-2.7786255513231297,-153.72710712070014,5.2492821727735,7.494127370257029,-144.22274387332226,17.762845526378516,18.54883781589122
1.06,-87.74969771681891,79.29963892322874,178.74447947913427,-123.59244554357672,56.71730873139949,-3.04405052566165,-153.7179836063809,5.057819911767342,7.29726467195198,-144.00595596910264,17.644881653556993,18.668571642673
1.07,-87.8788228622073,79.19532929179653,178.91165164406388,-123.41290615375247,56.555426212692254,-3.2360865708507265,-153.43423559369376,4.909121915400703,7.461470869766944,-143.50184518722813,17.894194945232744,19.18346151541817
1.08,-87.9777151942961,78.80576066421997,179.1697086447724,-123.05738837945636,56.64368941532561,-3.6381678587486905,-153.5978082400472,4.658623229554046,7.684378139531792,-143.31368382096437,17.707490164591725,19.485626029442
1.09,-88.01635866154055,78.32692757777237,179.5071575222989,-122.81522345772784,56.56296439077023,-3.7914456748516407,-154.0258950978767,4.80318395721531,7.381962977065281,-143.98439426193954,17.622813835877228,20.69144601035749
1.1,-88.15830268497133,77.73291765844894,179.42343178147206,-121.95700551985506,56.34785000802366,-3.886439186629328,-154.53354116861044,4.246918171851508,7.828022618511036,-144.4068196921366,17.245228335702834,21.43916029670668
1.11,-88.20272545607234,77.47188127194727,179.71114766005005,-121.7979393650816,56.018881084708994,-4.340438433888667,-154.3719815181062,4.0328776386364895,7.508620960295393,-145.06866730069254,17.10417899655055,22.38380015116695
1.12,-88.23774456786434,76.81909716995666,179.8345859371055,-121.494702476786,56.12462034671538,-4.371206014078389,-154.15265657403955,3.4162223733647727,6.898373831779518,-145.00484221160383,16.74801318669115,23.10080434320936
1.13,-88.68845025942946,76.09978131327347,179.87154944171968,-121.44554374017711,55.79753271590692,-4.606826210786203,-153.9620171095843,2.668517320902567,6.207852010351139,-144.86392025928868,16.883795107340646,24.150647814262253
1.14,-88.83751090752146,74.74721808368092,179.17358447032657,-120.74295103836955,55.74503917826208,-4.63400964534496,-155.407958832329,2.002284329666185,5.569110416967699,-143.84240517845498,16.916832559047116,25.62394946312304
1.15,-88.77550065398549,74.27673152400993,178.90161457308864,-120.85770726062576,55.24180869386494,-4.586928346854922,-156.66184308134316,1.8036498867701327,5.352237458920537,-142.96077038284488,17.05071872661023,26.1259872431783
1.16,-88.92038995624216,73.84150211338557,178.53723814396506,-120.77340496626464,55.04743338292206,-4.196531752872781,-157.17944610179532,1.9072231384125984,5.252040157393857,-142.0932234893334,17.37631700901402,26.35353883546655
1.17,-89.0567302151451,73.24054253268012,178.8622017155629,-120.761686509697,55.088981822418205,-3.917375949981328,-157.1920454986229,1.7714744845983814,4.876116969043448,-141.49656936091554,17.65869598728647,27.44448107916871
1.18,-88.93115726722661,72.80168711361387,178.461320000882,-121.1171856850593,54.98649855817074,-3.876583419371249,-157.2072479111716,1.4264434534516446,4.302038010910031,-141.73788897629703,17.741183438636313,27.95609005265724
1.19,-89.20994545424354,72.13241643874404,178.1823213024646,-121.32858480644572,54.96813680034492,-3.8143507602155378,-156.82934130349392,1.6981052938293844,3.648561135738881,-142.15118074898422,17.924902406239294,28.788252136205774
1.2,-89.0955042729497,71.53103110674682,177.89790339944258,-121.4932597048044,54.93960704020182,-3.344163753861105,-156.44639362023997,1.8617877475806783,3.5663035518161674,-142.25124044875315,17.905569700537118,29.696327928236315
1.21,-89.43816205157543,71.1779593984488,178.03608083576242,-121.66168595174555,54.84318376058084,-3.185010529746131,-156.1092462300646,1.9874544364822893,3.577482652460291,-141.5842479182353,17.65803469386877,30.33742235010871
1.22,-89.14150436730422,71.05158734560393,177.8400374424771,-122.07713153989508,54.89555614540423,-2.965079743505551,-155.9946299774333,1.738955652504663,2.791280801747759,-141.82039101641757,17.626384613637462,30.753587917239344
1.23,-89.50314043438193,70.9491766517066,177.34317777437414,-122.2660965547826,54.87069382281772,-2.7110357462399293,-155.67923724432683,2.093636537807433,2.3680780398639847,-141.71816778148985,17.652626287209923,31.075447373475782
1.24,-89.48585051963254,70.31778556448667,177.52330968895717,-122.70071071925378,54.49944904266355,-2.170488408876616,-155.82410620432677,1.5600064211571951,1.9974147454074835,-141.87841311520836,17.15492307151224,31.454156321941632
1.25,-89.45168268210726,70.35155135843397,177.6137329409526,-122.51880905921875,54.44319442933397,-2.204774575789055,-155.73652338043053,1.573510291917255,2.1611114492173984,-141.70689418027874,17.256352690741736,31.90515440996567
1.26,-89.54840100272835,70.22933016422942,177.6649179737046,-122.70160958223516,54.406232545714566,-2.084350651665848,-155.77155074216182,1.275028437238167,2.107922988784666,-141.41686254988204,17.305221140731422,31.917566692511357
1.27,-89.31364919452454,70.18890703688244,177.57352266413687,-122.74281167452452,54.38919108941017,-1.9106973037622144,-155.49422741412812,1.1788998765638687,2.210886192603696,-141.15440096853143,17.166454347603757,32.05143500417497
1.28,-88.98534915589563,69.85784568399494,177.8474645344095,-122.2470558972046,54.17563499312526,-1.845310126127864,-155.77883025347845,0.9672999152309444,2.0064142002557355,-140.76929739478084,17.305330368333735,32.55366724160543
1.29,-89.0609368581671,69.92404665004753,177.825496466796,-122.01117732396904,53.10102582884562,-1.6079054878955552,-155.81611157932196,0.3831107044247999,1.5433734377560218,-140.88885413621105,16.713460704026083,33.060242557604255
1.3,-88.96750897832199,69.62014987314747,177.5787086327657,-122.11260665733488,53.10115501697898,-1.5290541318290156,-156.46563879359437,0.6818813743194678,1.486262208734355,-140.76863686147735,16.340233560494802,33.08424929924219
1.31,-89.06919487001123,69.38392353620898,178.00841189876854,-121.808660581679,51.86074446555386,-1.257986367752255,-156.44061815489073,0.11022511049836,0.901205161082726,-140.95921726687135,15.958430089270053,33.26006904941979
1.32,-88.91266871532954,68.9584767720145,177.88960138222075,-121.22217694082516,50.57415792051995,-0.8196895569548246,-156.37078609487716,0.4855063192526638,0.6866926965007105,-140.95968070217296,15.924899832766478,33.66629854213348
1.33,-88.40342072887566,67.8888291733065,178.2343988802648,-121.25015092442068,47.43974792019291,0.7347286634325186,-156.3511257315259,0.2556565432724764,0.1789940699832155,-141.8095205409249,15.336561655396263,34.60295563561753
1.34,-88.16986788400727,66.82105399564685,178.27300328590377,-121.94882724731012,45.531182828909614,1.846231035165511,-157.20718006838746,0.9071838902072932,0.1730423597624889,-141.81818551815476,14.673140963043272,35.455734212684085
1.35,-87.76918940726274,65.97876226641418,179.00895252071314,-121.97770396357464,43.75467890826567,3.150432656984089,-158.12938242207002,1.5592536136279544,0.3210013054771544,-141.96318405750367,14.370577319380232,36.09144298429348
1.36,-87.2524763208542,64.96526686210339,179.18501680464826,-122.20315274754928,41.97457329305813,4.535570746687635,-158.51263832430914,1.6863432730669403,0.62877252750636,-141.8501578726323,14.280392245437254,36.72763976988956
1.37,-86.74928824465508,64.25913528441586,179.4647041484549,-122.3261850813473,39.94204945406945,5.7470990611811485,-160.23584749366196,2.0248070907826023,0.7199505225284051,-142.23323089970927,13.817349309692158,37.435965171450114
1.38,-86.40039604612201,63.25034292281498,179.7371781022558,-122.08974364694392,37.92477786195614,6.989592232355842,-161.2161864541252,2.218281727642437,0.8622485087740471,-142.46844360914986,13.40537272749274,37.8817916605447
1.39,-86.07063624633099,62.426923038108846,179.73863685742532,-122.3110901590799,36.12881101963696,7.617283089771014,-161.91839844916225,2.39282322969006,1.181607731646301,-142.32622861424215,12.961348498276214,38.56517158361327
1.4,-85.49356225602483,62.14920274748345,179.29160079450287,-122.1724297412133,33.6413166884397,8.8323962638257,-161.28356979996042,2.591731505658352,1.4788871956280212,-142.6435810675292,12.678552617201143,38.86576959408999
1.41,-84.09683946253107,61.2982130151574,178.90973683646263,-122.1073657823725,32.89928434597592,9.179402308507909,-161.4375131796473,2.880142916288984,1.533834062514143,-142.8681150168476,12.60992539571526,39.88808115697969
1.42,-83.3309695172908,60.8845458881794,178.36483757637146,-122.29791400966876,32.67455405065109,9.374304987918189,-161.25042133906217,3.309517570338224,1.519776279214645,-143.489556509828,12.21318888321482,40.10035917477232
1.43,-82.19670849609025,60.13097695201476,177.71643890878397,-121.90167283630356,32.1412894491154,9.805889135847238,-161.50990210351495,2.9519504764672826,2.4045959003423683,-143.80951041951786,12.106694837419813,40.74306181164676
1.44,-82.39610872082227,60.60441530205542,178.39830295163532,-122.1146437496432,32.46264238582209,9.897505325528034,-161.64672425205725,3.071427941471536,2.0385818381914147,-144.2567069736667,11.819016987702522,41.678432111437175
1.45,-82.41970871649059,61.31383864577015,178.6334921415397,-121.86472997945192,32.5764941476432,10.195420172627264,-161.57263516095406,2.641026125134517,2.0496350899517464,-145.1385938057393,11.433877584254873,42.24903903181427
1.46,-83.2660366448684,61.7738673625271,179.6598057031371,-121.8182300150626,32.54516302396874,9.932618568585042,-161.11525641679182,2.285038157264108,2.0339045595791303,-145.76138518505687,11.017722091810672,42.99356332695724
1.47,-83.65177505279108,61.51172283053664,179.58997683251835,-121.75465334519376,32.4025173037757,10.100871760245782,-161.05941311626196,2.248797818514316,2.109990071023794,-145.82460996820475,10.697252687838974,43.56882530304324
1.48,-83.82621350538899,61.076485981909286,179.69775235785116,-121.68628798938585,32.67953090707693,9.967202256333003,-160.94378617061642,2.253567577165616,2.1285340668538044,-145.7843863572943,10.673359601310842,43.940836572416885
1.49,-84.38530629374362,60.72977975494529,179.20193315366373,-121.93625387835128,32.601771316454,10.297570583461932,-160.98670688743175,2.0513640010948127,1.7725887258171706,-146.0024452260431,10.268590513546348,44.75913654467642
1.5,-85.26797307295129,59.81293753948477,177.95359000829546,-121.76771695889076,33.60092960758473,10.016916596108889,-160.85920982415547,1.660271955670035,1.673824784347283,-146.265096526445,9.786703896355505,45.27465161299942
1.51,-88.3713243833062,57.36556289593647,175.93212648216596,-121.52977692365616,34.00087065637588,9.651339277152765,-160.82842490587197,1.7038678145209327,1.531171958197007,-146.76318076228722,9.63782001282022,46.02888922925935
1.52,-92.47596168418522,50.29835907970606,174.44227649115027,-121.46050182261745,35.63860406020032,9.915660703917736,-160.26156920650624,1.0662109966327713,1.728902337338076,-147.14292135322754,9.092439121973843,46.833934890035685
1.53,-93.84504695608577,50.22908374116431,173.29786462478475,-121.60777932370242,36.37410083553705,9.661409523978074,-159.93086678367516,0.5855240101079477,1.5392704547980691,-147.23133338264202,8.590918554443777,47.22377141380838
1.54,-94.60535730224515,50.98960384159862,172.4477649616155,-121.68557126227785,37.16191907677036,10.175369799373302,-159.82024126992053,0.4348844570220894,1.4472561935047592,-148.17847882468013,7.886760187313649,47.73828057938884
1.55,-95.03281642892192,51.866313560997774,172.0067254648696,-121.81835056024217,37.78762934115826,10.269880690181449,-159.27176399489232,0.1848334419392317,1.6718596045498957,-148.70907755983703,7.233852420968254,48.35076662246748
1.56,-95.3893202764894,53.12954088697637,171.40601232243404,-121.5481378503313,38.63309976402036,10.74566657683494,-158.80312367339323,0.3130677060159809,1.6760646625374862,-149.76190840582157,6.2988209592074185,49.577865925966606
1.57,-95.49963757424182,54.0280667568924,170.4111012561534,-121.45846359522136,39.88682675192237,11.08271285992449,-158.67680920878578,0.4409307675118787,1.367942634730946,-150.06532738715666,5.383825369818272,50.45823432596698
1.58,-95.80501449497513,54.97531522570888,170.05679472571984,-121.95127015363408,41.27611518181849,11.195160130687045,-158.51679720480212,0.6009405259910426,1.823617330153212,-151.03450968030927,5.207771805544794,51.33880377794034
1.59,-96.59392888435568,56.5146880922379,168.9103928259622,-121.95366419042236,42.31391953443605,11.40600877914679,-158.2439490410029,0.8346043286039344,1.9935233160469927,-150.9264460311663,5.551818623853384,51.83003907966346
1.6,-96.6035939108769,57.87791579301594,167.6315403216165,-121.86478761374964,43.59197987821549,11.522092467660478,-158.4303679093338,1.0066214644768694,2.041044604924378,-150.9984464111159,5.655653529812216,52.46289677341191
1.61,-96.92165064063234,59.40774608498052,166.5302817952766,-117.53594243601316,45.30235037568487,11.914572176312127,-158.50897791935697,1.1275288671969377,2.1824749434400608,-150.53176447831956,5.854545517086358,52.85939560001907
1.62,-96.625327601488,61.06672513421672,165.39259580762217,-118.4937981194126,46.756023590327615,11.92368735125202,-158.92032321692656,1.276548216025979,2.282469288838788,-149.9587952004079,6.285008949505109,53.42742338994872
1.63,-96.19180683668868,62.6208650194797,164.6626320859915,-119.15462523251942,48.33681844916696,12.096925921269928,-158.61826728423168,1.189784303393104,2.6668753973410486,-149.86997934910104,6.123051801462057,53.87368623921185
1.64,-95.9368137024541,64.34370041916777,163.74578125470717,-119.34689223875236,49.600827706146895,12.429179767132691,-158.4476795694878,1.2680101715858747,2.6193930562973256,-149.55066678600306,6.353853266794351,53.62817114776303
1.65,-95.99538605299368,65.96710447669226,162.55688567995043,-119.4053354130496,51.36807653755219,12.461437680922703,-159.0916959172372,1.2743511789819466,2.643508184655597,-148.49504988325464,6.673464014025132,54.26110502797042
1.66,-95.78147882671466,67.10363432180986,161.0144279511463,-119.96641913273837,52.98164153224752,12.87299111929565,-159.0249309813292,1.0759961565736116,2.694117642234358,-149.18428752332156,6.886335461303714,54.5121611732973
1.67,-95.48340322168228,68.61645109209564,159.48177807229658,-120.67746347835158,54.37499731365544,13.269338365421964,-159.2965554599066,1.4100495239787834,2.8672827847333715,-148.79048670735395,7.048381822539959,54.56794832193137
1.68,-95.5791482646549,69.44614561960647,158.66628943266602,-120.92138295169838,55.5187048817886,13.532191349869896,-159.54749647766374,1.2780441047567217,2.9917700287884745,-148.5696511265828,7.122134665177888,54.7589076801665
1.69,-95.20877971638318,70.52952015576831,157.93059200888067,-121.14436689733714,56.6426052955449,13.527584994661431,-159.4135068765735,1.389480423819211,2.894444728059957,-148.50331551680276,7.024197447433707,54.86768622101496
1.7,-94.98108740095655,71.5339959349074,156.03207876512582,-121.6877225200668,58.55213333058183,13.439213671623214,-159.75025699491758,1.6934850503737713,3.609534957095584,-148.57280025030215,7.102755883185809,54.87270796408173
1.71,-94.7509080117168,74.15251334575251,152.5042687182776,-122.46537737089112,61.597911673264456,12.51375202755112,-159.94403286374182,1.8925198779235064,3.970550678368989,-149.03176224486444,6.694109843356605,55.07613636161471
1.72,-94.6566509551721,75.27948078953276,149.62877506366897,-123.57925546101028,63.89053783614917,11.67093221258853,-160.01743963571568,1.8063189707780016,4.285370071757031,-148.92357511498946,6.713142536913102,55.536121055199416
1.73,-94.10243315443914,76.55481776158952,146.8208829860497,-123.86717182144892,65.96356318676278,10.884198740369738,-160.49094842190317,2.2038388151502923,4.291883247404874,-149.4393632696454,6.637378604952138,55.69931208716038
1.74,-94.45990019359095,77.5951110229314,144.34597553378026,-124.03042415119356,67.71204672591716,10.11754899800438,-160.9743958384439,2.1781990479525857,4.507466458538008,-149.58947781500393,6.345286901806191,55.77869661717893
1.75,-94.54804234144508,78.11329458469012,141.48848271911476,-124.2831846079604,69.14269328233665,9.630553408299244,-161.37358277702523,4.778651412993002,4.424271782006826,-149.8292325035429,6.306192900996998,56.02352396970726
1.76,-94.9256787981183,78.80253752832478,137.74622523666582,-124.4362535151772,71.59071430286482,8.804193171189915,-161.51161754425112,5.450679220081666,3.701947055799088,-150.00674499201085,6.314970054548599,56.33030988596029
1.77,-94.80128132413844,79.61938320582273,133.3543631441833,-124.4580953386882,73.31290610512899,7.935147722960052,-161.4480064555071,5.5638883760215485,3.279244263854586,-149.92247722875453,6.328987965998928,56.62264936710777
1.78,-94.6776612465134,80.26590318289168,133.38840366065904,-125.06151851289788,74.70577967990732,6.375809739973967,-161.80063636097546,6.177144095406601,2.474318018594872,-150.07063749193247,6.295798330646398,57.095006258911575
1.79,-94.87578949216672,80.98723734652981,133.34387305633072,-125.33292450651469,76.54877407085556,4.743465637203248,-162.5027512409548,7.332729539612599,1.2948152598966474,-150.43749905898576,6.202729046134561,57.72479907423224
1.8,-94.89921420569964,81.2377011551742,128.82592058732527,-125.40026517012936,77.92450513437011,2.9070496531685373,-163.10386487972428,8.14552533760872,-0.0711036104568867,-150.85413236714416,5.832051232690175,58.66485946534684
1.81,-94.47662640247847,81.40099914964996,124.88648731685976,-125.52631416982972,79.65118863260636,0.5077927086989491,-162.97089280008527,9.031394694169908,0.6772127036356201,-151.87096506050878,5.888777251205046,59.7996608655548
1.82,-94.23039588201112,81.74995235527601,121.16474551978536,-125.32225086705246,81.17553257558923,-3.5985507238552272,-163.668925472032,10.620288111694853,2.186497699336761,-152.873388106529,5.679140298785822,60.81744714453096
1.83,-95.13138185017804,82.15405576615848,117.5193868592902,-125.52966474911835,82.84881503455941,-7.312686222770326,-163.93616947928416,11.946878943759708,3.607444102484767,-153.0378098121059,5.604880636852494,61.55978179329915
1.84,-94.7401601915801,82.35464361815892,113.61779731248726,-126.02464495899224,83.56677459379611,-7.396333581534864,-163.50791982082586,13.454353739452394,5.176308626926047,-153.1845871781509,5.824830136745777,62.579429992374585
1.85,-94.5433450432171,82.3260535372339,110.00300765165548,-126.1206535591148,84.88692733141188,-7.450252201965551,-164.1943587283582,15.263860807195194,6.907621424732444,-153.45971287832813,6.093144645115477,63.72621500139725
1.86,-95.00479618860518,82.62612060399323,108.56913697680534,-126.40271558249854,85.94804175965857,-7.558370432223548,-164.56375382941795,16.644128229382876,8.984570302120398,-153.59929950441744,6.27459312104265,64.40435793438779
1.87,-95.20880188147092,82.66411386207812,106.66712662337096,-126.38182224671046,86.06057140282594,-7.736890997130655,-164.29412215270784,18.703007183733675,10.418501751914391,-153.18292437575244,6.503598288624451,65.29948656972785
1.88,-95.56223010698994,82.93323407375627,103.76482970896816,-126.22403397793656,87.01479649173515,-7.667543375981733,-163.66099694311183,20.34009362405438,11.927758197991928,-152.57932560064825,7.081410786199085,66.72276504974973
1.89,-95.47601941561022,82.87220081134436,102.97504497934676,-126.36892053837568,86.87785929347694,-7.54058688880706,-164.08909892564498,21.71999140945033,14.56329431131527,-152.3303163149534,7.485865066687233,67.60639323330038
1.9,-95.46879987652,83.04427524416849,102.05602669504236,-126.33439975719952,86.84814362595209,-7.53367141377821,-164.60346434622394,23.220707865676157,17.001309708746575,-151.83552899527365,7.972956742071814,68.69464099968874
1.91,-95.41569654273016,83.13286945406136,102.13501055535536,-126.38369402358916,86.36132535600628,-7.393265804598422,-164.63950697658467,24.456259584886364,19.33572589453745,-151.3360958336487,8.698554100989393,69.10613042527449
1.92,-95.35294556297328,83.1005006826212,102.2730608171167,-126.34263799093868,85.45425938934035,-7.500281318857095,-164.64671922336856,25.47514619965587,21.57573592683905,-151.38394060119592,8.776326648541602,69.39379265955796
1.93,-95.42254002939164,83.22428222719927,102.55284096677369,-126.2516096961294,84.2353804713986,-7.498514781108477,-165.3509562134578,27.00039850830423,24.53758462457185,-150.75979635103602,9.033095974857092,70.54610998736248
1.94,-95.90150497310174,83.23184422179372,102.37341247902576,-125.95054142318624,83.92282136655687,-7.489490292576877,-165.87934595812695,28.42096370277952,28.446115592360226,-150.12948807879553,9.629067752069908,71.11900525758843
1.95,-95.79513719334398,83.44067497079674,102.4551760245716,-125.96343541270367,83.49698515556965,-7.776417782302598,-165.44163302523106,30.61888782457512,31.23994865211195,-149.9683840464845,9.931005334467583,72.16683622238676
1.96,-95.80563994129994,83.17389251272236,102.64286584890256,-126.11653400919911,82.84086253998066,-7.862562930973485,-164.32937531621494,32.31136036857032,33.18945699339604,-149.07720031574908,10.463181233895837,72.5210947705288
1.97,-95.45373968862184,83.13273212739206,102.35045972781124,-126.16287118757074,81.67465491706972,-9.521982555269387,-163.55428173801704,34.03519747407563,35.862039729776455,-148.52954235331018,10.659255495502252,73.43462495695194
1.98,-95.7966891548228,83.62708714159913,102.61462315358384,-126.41595301410976,81.5316676388187,-10.400519777363392,-163.19140400152136,35.51863400143796,39.4673022040851,-148.0867133134095,11.251862933607828,73.82654425940328
1.99,-95.82404011639429,83.27300194484228,102.2421469952462,-126.37543548630912,81.30521453123444,-11.418106616455502,-164.42139331102075,36.46869411810167,43.13952828966161,-147.64561634352697,11.24633706810171,74.44462623197052
2.0,-95.84242595848823,83.28382474377378,102.45911485601349,-126.71505739604883,80.40067927680929,-12.459690320695566,-165.26807123496445,36.70235023315168,47.700293062419256,-147.07076331026138,11.771438951432389,75.02591787030238
2.01,-95.44957514132236,83.00025756496407,102.63259179392692,-126.96387797193614,80.17700831586984,-13.591017102774188,-165.89424782183514,37.54025139188365,51.994464902785865,-146.3698364454385,11.8625885725269,75.43706354896717
2.02,-95.62819661949308,82.91491972127314,102.46440497859234,-126.91416895015917,80.35078321836468,-13.91654105861443,-165.91198862936486,38.518066876410494,56.45151852588033,-145.81803428332864,12.34757609915787,76.0394154239561
2.03,-96.134453588689,82.95894760972881,105.90671359194552,-127.08659684854857,79.9945778389915,-14.967534859967309,-165.84355804223006,39.361066051373584,56.16212870475712,-145.45571902623806,12.442459444628769,77.03243848350743
2.04,-96.49187512515356,83.1265133815437,105.7604293480063,-127.60130374667584,79.34760577383383,-15.123442602734665,-165.5406559214714,40.2858275998869,56.35661224940274,-145.08635275163934,12.35704728231794,77.39840922402077
2.05,-96.23603147271608,83.09803751442175,105.52494794034214,-127.55138870791806,79.1338603246459,-16.266068326983522,-165.42196025087205,41.21415637183385,60.03771106366167,-144.6197656602025,12.557506724796353,78.17166792546146
2.06,-96.29394640433148,82.90704337680826,108.2661254454074,-127.71230900728092,78.65472494999952,-16.876139376590498,-165.39705122486208,42.11464832180884,64.70294378972581,-144.3410607529112,12.771898676167384,78.90447797572295
2.07,-96.26028238907377,82.53737238631325,110.11440388368813,-127.73477368681198,78.18279170991288,-16.961916213700306,-165.26974152779735,42.90281294083429,69.65059922997888,-144.54474408273762,12.508782089449266,79.71520288250096
2.08,-96.71732481154258,82.77506532149721,111.37693448870566,-127.91383196359638,77.51048725504803,-18.37560116629373,-163.1676003563477,45.23492513886799,75.33201093006755,-144.22973428565163,12.72508870819151,81.2224998391292
2.09,-96.50980039507516,82.34723888442161,112.75822933545608,-127.48006324102823,76.8467930316734,-19.25111769678133,-163.79796579540192,45.20958236722397,77.15593667182259,-144.13603597588988,12.627716372955453,81.87801004109421
2.1,-96.8803847812808,82.36344948850423,113.41365651972563,-127.66323799005526,76.9114531504574,-19.33574051262452,-163.9462040324168,45.23768208530871,79.13824301012339,-144.31232333479718,12.462783909590792,82.43131166180366
2.11,-97.03996729785452,82.402648418011,113.79408206282206,-127.54339801435128,76.5411405977438,-19.532671055274427,-163.8287876431469,45.067721634344,81.07351312970818,-144.3621938685011,12.272092934351512,82.80038284244594
2.12,-96.82090571010446,82.40499830942396,115.80323223275798,-127.32721221199924,76.75690857503807,-19.45432551597845,-163.28136050384265,45.65081975202847,84.26450452573692,-144.18637102016538,12.480202635315626,83.3495907408306
2.13,-96.78587670614873,81.9661789565938,117.21358920555234,-127.28093197645016,76.57398722496706,-19.835392687407943,-161.30164175858403,46.91552832284881,85.9630218559924,-144.14524228094433,12.242600954829587,84.03703152017408
2.14,-96.4667449825022,82.07634446687317,121.3705031108514,-127.07220207377334,75.87767223444648,-20.1753971905617,-161.0774367583455,46.81516768057809,88.53277628892275,-144.25867703090327,11.960449937236524,84.60203555656389
2.15,-96.41342721402737,81.76697087231884,125.00806025367169,-127.12111649261792,76.05731653438177,-20.8564438819402,-160.5208145233561,47.16642479492447,90.64576940673729,-144.3455956420814,11.520770924885904,85.24133808599655
2.16,-96.2075787277986,81.95861618967437,125.21119370091183,-126.90721882679324,76.28476560578129,-21.049617483347035,-160.5909543105524,46.26961601806078,92.87567080995716,-144.08618716252073,11.174260616022467,86.20673356350517
2.17,-95.91907681124611,82.61014851999673,124.92932130292247,-127.20957539805214,75.8667533251151,-21.81995290306877,-159.5231799774895,45.04942769787898,100.35266894012682,-145.04493867040338,11.0437000168168,86.78517500831754
2.18,-95.7490601495062,82.28157594275577,128.30908866611557,-127.25997526366326,75.4973912597762,-22.304778568324487,-158.26427147195457,45.742212616733774,102.03654685386238,-144.67692813255678,10.655110010695129,87.67802374227031
2.19,-95.79891606164622,82.29456205780271,131.71785265845887,-126.75625511185775,75.82229816592223,-22.377718754647592,-157.9385311481403,44.85388176940318,103.2925577438756,-144.80630931591372,10.647095495049951,88.38197877300794
2.2,-95.5181451018973,82.27927746328506,132.3636536855709,-126.77750443983037,76.21176118590444,-22.457185862215592,-158.19237646961656,44.7090637374523,103.9742759440464,-144.34695583622764,10.501042653752457,89.13028128927064
2.21,-95.5950437450675,82.38372375980205,132.6551024697823,-126.66505317839244,76.27054045188362,-22.606099161204053,-157.9117210548265,45.03284660623528,105.04328737184404,-143.93223874538336,10.647132670457015,89.78160703447266
2.22,-95.5885372285438,82.4890955071749,133.0457015146766,-126.77289593012424,76.86872833128157,-22.905840602695346,-156.83412809009394,45.15049695211288,105.67569620350716,-143.99678709521066,10.748349755613944,90.26022707133302
2.23,-95.51963397426282,82.29043195779565,133.95573210338517,-126.24608105508337,77.54344492079987,-23.38714809684941,-156.88904616461255,45.298658652613824,107.04861088383414,-143.33422796160244,11.031678566159682,91.18659509647831
2.24,-95.18040636260945,82.27890731929818,134.73909085821467,-126.51842053328905,78.37286199562563,-24.058328067233276,-155.50871491293583,45.96216295397479,107.87907059228526,-142.5948631062313,11.02617976971142,91.66946592676184
2.25,-95.07288036760929,81.83172540048476,136.41752526654608,-126.7726615157638,78.61846002872805,-25.59906037680503,-153.70463500561323,46.69540798601133,108.42651839092233,-141.46960500183582,11.78097645406234,92.4397709625847
2.26,-95.3503474608341,81.71472617278218,137.76935750613995,-126.69830414216524,79.57918291088063,-26.27791273057332,-153.72661747489911,45.88023267093608,109.2055895289337,-140.66335277804524,12.51641052908135,93.45006930503128
2.27,-95.1813976806494,80.75628103500449,141.39820326475066,-126.82894841261616,80.74021859893625,-26.32506944591331,-154.16979200419033,45.075401699595545,110.61439728353128,-138.43289848545356,13.65916312461304,95.6713891413048
2.28,-95.5076722185726,80.14506625537743,142.4552071256242,-126.8388300567743,81.04264478387651,-26.253652879854247,-153.28550952159546,45.381977374088514,111.94421628947272,-137.7636509037006,14.620793333757918,96.21554804544346
2.29,-95.73162539671188,79.92536933841612,143.454327853828,-126.7891386950597,81.65680891410607,-26.466809796056328,-152.30002176264986,46.78097359945058,113.67614815729516,-136.57856164192415,15.06631565627361,97.06917014045496
2.3,-95.818684161254,79.46355327908064,144.29408219282618,-126.904652916329,81.93651644113903,-26.31611004423001,-150.36685047793827,48.49314374780923,115.61795591685836,-135.64870475711362,15.88335190933742,98.3028304468834
2.31,-96.22011794839312,79.35039001682033,144.61233454160188,-126.82590123017629,82.0941834268453,-25.749955605462617,-149.46397645443724,49.76153145815243,116.20535216175314,-134.93018651189328,16.133201743026888,98.6260998910288
2.32,-95.8407292266236,79.29377999532474,144.85137714804875,-126.73705553179816,81.96987648376724,-25.280934898542775,-148.2751168920394,50.7404900135383,116.69416479332496,-134.44165016363468,16.238015703849094,99.23082757574564
2.33,-96.17057199546583,78.95448950593052,145.45709442442958,-126.75304827431977,82.4127026517186,-24.888609142566303,-148.04887944542156,51.54509094012865,116.97800133488724,-133.38851892590853,17.28722738010204,99.9321670358148
2.34,-96.28092417013704,78.59625262184059,145.61058148748305,-126.43978351279348,83.06953934861849,-27.99217632423448,-148.79541103888366,50.60420860869152,116.31378870730649,-132.59104404423357,17.803223713118655,100.669068182198
2.35,-96.08874262337928,78.72812075877893,145.60124315580896,-125.91148454095789,83.34717220335504,-27.966124163012147,-150.0850920363011,49.7852647127026,115.29858593010614,-131.6785509325339,18.46463589259171,101.83042352337982
2.36,-96.2315119267476,78.96199627037599,145.58730877279922,-126.17510124145562,83.56112712513527,-27.77451307813456,-150.1805585375389,49.27783248778648,114.41365932858164,-130.39973636348515,19.013563442965253,102.89712166908136
2.37,-95.9205015785014,78.16908402618542,146.17849677348374,-126.07093695009982,83.88011612137466,-27.627617334584365,-149.97073389035955,49.06277204967778,113.81289271592529,-129.56082373008505,20.159859743545532,103.94009383157172
2.38,-95.61291731250388,77.8580062329759,147.73404740085277,-126.0257777784139,84.46608764722747,-27.67785025462861,-150.09651420030815,48.27957962736678,113.88123189558368,-128.56642763695135,20.440058252994294,104.71961229464416
2.39,-95.40488074846986,77.56794832602431,148.53798372857537,-125.93081598473997,85.07083009142212,-27.807767990288458,-149.81720102967046,48.45376731074549,114.83281859636288,-127.54553336189004,21.1608641580341,105.59228889444594
2.4,-94.99687900255957,77.14534998684135,149.6324551072328,-125.70147334596528,85.27938688812401,-27.933402886480813,-148.7169481142995,49.17541506936261,116.10633752724787,-126.47263920113063,22.085260083844,106.23333264668148
2.41,-94.73912113764024,77.33727012552318,150.36352192069185,-125.84332636556196,85.96899622903759,-27.674907471845327,-147.274572442023,49.46774292524575,117.28824593201568,-125.333121557235,22.50893201625848,107.5057604676607
2.42,-94.70324806437728,77.00695594194359,150.68498369237386,-125.56199500247172,86.74984390670564,-27.917747387993284,-146.62775644483278,49.55298592836953,118.64919266547196,-124.55249828056954,23.17402455428023,108.4116417570615
2.43,-94.99569778924196,76.9487055509636,150.79135934144887,-125.4984172824854,87.57550378559128,-27.965156405773904,-145.32517127075525,49.66725833898525,120.13804868944692,-122.91977249719666,24.400998156516422,109.25859038111749
2.44,-94.52817204028968,76.71893939332377,151.27137547209068,-125.61792551383876,87.742782370352,-28.01459251314534,-144.55001714270026,49.75848898874119,120.90273972026736,-119.59644697921398,26.21151258231466,110.5514094081928
2.45,-94.87005512985225,76.38477374085988,151.25539772502754,-125.78948642592243,88.6767458185218,-27.870062606178063,-143.57706707651985,49.722792632625975,121.94959566698958,-116.5593334945964,27.988547544596287,112.1797030829884
2.46,-95.61860943029092,75.90091146580914,150.74314374745282,-125.74148096787329,89.40190252939294,-27.844598050229,-141.2361782612902,50.4865380010595,124.09924108370048,-110.53717832537625,31.60639758319124,116.3531175706315
2.47,-95.93875356408591,75.45780334122529,150.76371913977846,-125.64611564777452,89.02112351415006,-27.71455582586257,-139.35190676699565,50.811596905577616,125.40985705582176,-108.52508518092353,32.48072761085887,118.8386310688548
2.48,-96.09972732046774,75.53124866702987,150.30776676311294,-125.69968223109429,87.59359041122946,-27.92351174772124,-138.27899004336854,51.10180662332292,126.01380602385753,-105.4239972676472,34.26247343604293,121.08309401799276
2.49,-96.70143489208854,74.67255231398785,150.19541046392283,-125.29148349488776,86.69263629067636,-27.72340594283826,-137.56994676717167,50.93296201570221,126.10507895701072,-101.0008314997606,36.640382898922766,123.12222541329322
2.5,-96.31510828080684,74.52681137913125,150.66896332477572,-125.14614819156844,86.07396417778519,-27.578195115122806,-136.53270158604798,51.537611540279286,126.3218191866592,-100.90404550846335,38.77032218211797,123.4788955928253
2.51,-96.70076855198532,74.09637622365247,151.1368488757202,-124.73645459551564,85.0588710225601,-27.77668092302628,-134.8292430130357,52.16913256426184,126.32261479343846,-101.3087512383507,38.22272883558225,122.0791492118286
2.52,-96.60229288521568,73.96194499742808,151.36492585875033,-124.55156999166562,84.55157920358553,-27.97191996673645,-134.73190724480952,51.96456902619178,126.53702960706153,-101.88346528837032,38.02606566079324,121.57977044958324
2.53,-96.63106413301212,73.6888501995021,151.38761274564274,-124.09687139451673,84.55871938456478,-27.800603021645745,-134.8264245427676,51.60417101331559,126.6707423012485,-102.46167398787068,37.81643715121421,121.3489595744097
2.54,-96.58631665132,73.48870825468872,152.01064363565047,-123.88712272629536,83.93909778055864,-28.01050923371468,-134.13596824115436,51.52419448777234,127.2895172285408,-103.4879820071098,37.39353729485539,120.60067535737232
2.55,-96.08151845608148,72.98429865547888,152.6247605661593,-123.58304798816783,83.09765387078055,-29.43745358130073,-132.63683295773194,51.96077001812282,127.66745385825256,-103.1477681592583,36.63240013228064,119.18816363632914
2.56,-96.27868716097328,72.7926519242963,153.43352134558936,-124.01067716545272,81.98800257403701,-28.1449438387405,-132.05228374883254,52.408167674223705,127.94439283849309,-103.14224806237112,35.551677238067086,117.84299742542412
2.57,-95.67106142172882,72.07849991180588,154.39296609829964,-123.42675182598514,81.03508148519761,-27.75232689562568,-131.0292554071073,53.7284523316956,127.80144773027348,-103.7900867035137,35.09465157730017,116.60224294683184
2.58,-95.47944359628733,72.0333139801473,154.61126502800013,-123.5048813717916,80.5960516885415,-27.72799759028921,-129.83864027027934,53.99705254504002,127.32311159682418,-104.96025302344944,34.97732990958073,115.62936395072376
2.59,-95.81388426795792,71.25893692193935,155.23511246240187,-123.25047667081404,79.81709304697756,-27.787088618575424,-129.74227576258383,54.12075963844008,126.86148613715898,-104.25887214980132,34.27444915369973,113.75896248418364
2.6,-95.98165024245996,70.7638265596068,156.19156681996154,-123.02909176818864,78.88386990687475,-27.766264117982693,-129.64835430134372,53.97330228111844,126.796588940432,-103.31881701490468,33.027809051719736,111.7302531359852
2.61,-95.74955338580902,70.51928897303388,156.66508740511316,-122.99642742129124,78.10418170020162,-28.18917882683435,-128.97920905758494,54.92139346713898,127.35680654927128,-105.37218334054884,32.8514328441747,112.84039583308994
2.62,-95.69752602062168,69.78825564137553,156.98007926013315,-123.47771655019464,77.20450473033553,-28.262596078617705,-127.74431025948066,55.93370740569172,127.37379043328392,-105.12897733690806,31.9347809010681,112.94303724339689
2.63,-95.89923709687248,69.79550608342029,157.31398429504756,-123.67497170525225,77.34836012596702,-27.978584739284795,-128.25585716892002,55.83249912455429,126.3850511830448,-103.28430380101612,30.268143964259625,111.15902086797146
2.64,-96.21630551498336,69.1525434230777,157.83321550889625,-123.93589334136637,77.111841910072,-27.935884094592,-129.46863270537534,55.09621370250099,124.21617260923765,-101.56094794464371,28.578764619519664,110.22493285063364
2.65,-96.21270040805608,67.9987888411573,159.1128530795038,-124.63274511928527,76.02866368576991,-28.359988870549955,-130.77353573882016,54.748848582980976,120.85487155032844,-101.99247295994348,28.062820362650235,110.33758335915992
2.66,-96.11496000680351,67.31698642134276,160.11800176333472,-124.9204859461856,75.52725532711575,-29.02704250820741,-130.65101043310426,55.46074463013088,120.2415277132856,-101.96468744678448,28.5969189667665,109.78087175559484
2.67,-96.37943801847692,66.4930180974389,160.11510631385093,-125.14143091998534,75.05351729338422,-29.40750380288293,-130.2067055489863,56.611897602947785,118.96320140540767,-103.83440767749045,30.03006852407163,110.26626907245458
2.68,-96.52058438358172,66.15840778029646,160.78399121515776,-124.95520851882908,74.89903976828681,-29.31099659512812,-130.07753006326092,57.53240366779716,117.93546690901456,-104.96252615221483,30.43277981989309,111.02572450526588
2.69,-96.53198107964728,65.2363830933545,160.54268008258433,-125.16461651493898,74.27848902826939,-29.17385860304321,-130.44231775053433,58.01684159569046,116.78815431534882,-103.4914696446172,29.922517459764137,109.93432493044756
2.7,-97.05750647513187,65.12935854609503,160.37611743227686,-124.79664336836215,74.13625989143935,-29.152667360015496,-131.5991938474562,58.74925267499769,115.54992151794718,-102.31031075128446,28.78318654878169,109.27267550496674
2.71,-97.22312587062936,64.93205014582513,160.1691993945255,-124.345698333023,74.46351688872504,-28.584794961877822,-132.5530809675627,59.400026972445,113.6058708570983,-102.38702405970692,28.969169860348643,108.84110507682291
2.72,-97.06796767270828,64.77766347914829,160.57308265266548,-123.90706347992338,74.22249658934447,-28.604868979774437,-132.47251621086306,59.59051427062171,112.76586684279698,-103.59354015672945,29.936482536883293,109.7166677934022
2.73,-96.90269899792496,64.18677502673043,160.7043585440663,-123.71292874121043,74.55723579426723,-28.618996526636938,-132.63123655324011,59.77051356457505,112.5468706295524,-104.951719603538,30.94085351098595,110.4433237914225
2.74,-96.92124561402876,64.2366565730831,160.77971362867174,-123.76838518263742,74.6961496557798,-28.69802659848657,-132.90659798443883,59.61679385106399,112.48212377038004,-106.30220115680537,31.56423784203508,110.71441185270454
2.75,-96.6899255106178,64.34728462354221,160.90867286004996,-123.28387871763977,74.67072826690033,-28.42190345577144,-133.906727440116,58.30442180300176,113.20075021143492,-107.65428341737524,33.13564481915145,110.83572985640852
2.76,-96.08026146084464,64.23742170933575,161.4388138920416,-123.18702520449716,74.8826483104597,-28.346138123238287,-134.51000230321094,57.33327023009472,113.8924493138132,-107.8153920925273,34.09242593063111,110.63158186634092
2.77,-95.75268273008784,64.09272324131878,161.41277688497863,-122.71456148730032,74.91426492506473,-28.13716109160036,-133.57135481090702,57.723380676169896,114.90999927536112,-107.61642233409506,35.503452600427124,110.00224375042863
2.78,-95.69013139498836,64.29386855749348,161.44077577255726,-122.72240017393833,74.91558234460499,-28.165510766462344,-131.7693753148798,59.576765107719005,117.2462251894803,-105.8905562701487,36.90187401030132,109.71076356605955
2.79,-95.5117214884383,64.08861048527847,161.61337632004214,-122.7773050542532,75.12680570653151,-28.41159421053295,-130.29699316162876,61.32544383787528,119.87644477729138,-103.36173002187203,38.61742937577558,109.15467808610045
2.8,-95.40639860152184,64.3789924546244,161.651926773257,-123.10414703050866,75.34910355076025,-29.0388905117712,-129.00215500029793,62.824333012521215,121.80100753948352,-100.53143235340958,39.946495751013295,110.16603373443606
2.81,-95.17276603902454,64.22058015114987,161.57613690074564,-123.27925702575511,75.33640290407679,-29.573878155593977,-128.64108258446635,63.70955537354791,123.52585647166153,-97.45989779921344,41.01602805324218,111.3163838606264
2.82,-95.39671287781188,64.46049392213403,161.52594049602436,-123.7222339300184,75.28012443709416,-30.417237212398582,-128.60706807367475,63.79787169220419,124.75906364474176,-94.67575837433968,42.53886015130914,112.08596475710485
2.83,-95.59451899522938,64.35897643994862,161.35884857313656,-124.30028581918005,74.82561519913054,-30.91096542159061,-128.28638053471815,64.28286334563556,126.01454658457334,-94.7931702426929,43.49436372480656,111.90791621898524
2.84,-96.81464959177308,64.41754116409965,160.85684527499376,-126.10651160034764,74.70029554970412,-33.414924837880115,-127.37792865934762,65.02032936750655,128.90918848684086,-96.82844998071074,43.35632892925495,109.79888756388512
2.85,-97.9225416498988,63.82963947931187,160.19926727511557,-126.71028558635922,74.24380166231042,-34.11615847814933,-126.2939998053802,65.27621432978341,131.47486901810447,-98.37332769940136,43.21376113839599,108.30198152562198
2.86,-99.40308351650238,63.53822070705786,158.67838562299585,-127.10680506510283,74.30206482820861,-34.295772249543695,-125.05277492011062,65.63758782082235,133.29367347058948,-98.49498498115766,43.94157279130357,108.3420240323384
2.87,-100.7998841224122,63.36233222685767,157.8808528340939,-127.23217374540744,74.86591944031375,-35.841602497716295,-124.49908603180378,66.33821771615787,136.2409440437565,-96.70936706597983,45.01637372521157,109.39150406669404
2.88,-102.08479084771822,62.87269307476741,156.55974463032635,-127.67439158544911,74.63204359986884,-36.76192062834177,-123.02705555288075,67.18892037687554,138.6495920951995,-95.29824291680714,45.71539421450346,110.30875842616472
2.89,-102.4914703406928,62.55423316354168,156.55517674143496,-128.80528823077492,75.05961112941807,-37.742692694969975,-121.98123340150636,67.35827910595451,141.62893464326766,-94.30543689978305,46.77915728845222,111.41503164097972
2.9,-103.01509163275608,62.43575107126925,156.32978763680782,-129.11965401059166,74.54233587365718,-38.0270677124864,-120.44624174641687,67.67136941976982,143.853139718275,-94.49465686486457,47.142260552325645,111.39857737842031
2.91,-103.51446504087671,62.29445837919069,156.32599577600004,-129.39411379763678,74.77988315760398,-38.63854995186989,-119.75189796652882,67.85278814899053,145.3128774527811,-94.85443712227232,47.403808201527966,111.15963646378242
2.92,-104.40129485169504,61.55695704240083,156.23299016064237,-129.2626181433993,74.81404967093964,-39.15207094704411,-118.04973192399694,68.30074025205148,148.80593813106952,-94.99320504445012,47.48905588353237,111.67090743454143
2.93,-105.46384490625708,61.10715275918262,155.69206860965582,-129.37784855466398,74.98675809159081,-39.54213288758526,-116.68585344081686,68.60132341598367,152.04425139199282,-94.7280804394992,48.0806916107768,112.07746427705108
2.94,-105.79333590818376,61.3363565616734,155.3663048693225,-129.78353559022068,74.85110819927203,-39.52701036938026,-115.8349574535462,68.7396888196618,152.8470585978287,-94.17864470358312,48.39446021021476,112.55497626002273
2.95,-106.01965964844815,61.41076173141951,155.21713619830078,-129.64376017498466,74.83116067507713,-39.666644276253066,-115.51076626238026,68.67524005725299,153.62200664441988,-93.86776530798922,48.22592686126541,113.34728500769003
2.96,-106.32522645263082,61.14583991081989,155.0244939320418,-129.46535811089623,74.436728733384,-39.43066198373894,-115.52653212155283,68.27045449441762,152.85438333980568,-93.13386308323297,48.30278869247263,114.40989644232717
2.97,-106.94181625095403,60.86329133926712,154.48056517911266,-129.7605131419953,74.37803128929994,-39.53139968328007,-115.36114328133532,68.66881554280245,152.92770122944185,-92.5610803510552,48.81812452175175,115.67744026075364
2.98,-107.40879057490466,61.17458032725748,154.5330788998821,-129.60206242880787,74.53156054928402,-39.99311080567671,-115.08228461634296,68.8285843480079,152.4326238009489,-92.5417164311979,48.80068129473837,117.11595690675688
2.99,-107.89698283746613,60.57966390601865,154.798359716663,-129.24783314381995,75.14886580030304,-40.33570326037496,-114.88859519222342,68.78069891955145,152.61309640278424,-92.99605774086002,48.61948421215315,120.9312009062916
3.0,-108.0576402532653,60.5565516116362,154.82206654060337,-129.44495451287412,75.7648753021153,-40.82168483748591,-114.67097870331344,69.10546171263368,152.13698774599635,-93.60617636728928,48.45411584349392,124.87213045388536
3.01,-108.27339321886544,61.14408554670673,154.32669890688737,-129.40442047738887,75.86421915605756,-41.12488274909356,-115.70943564748846,68.82743311378188,150.9881713070457,-93.88922785574567,48.75961680046642,124.75768074500904
3.02,-108.3571679521655,61.28633169285878,154.0934668098165,-129.52901621718087,76.00100498994999,-41.57297105420246,-115.9773643988299,68.85230863003662,150.20035771679946,-93.17044271042438,48.41098089673746,126.06042877009372
3.03,-108.16764776770113,61.92270128173254,153.06938719515307,-129.46178025666072,76.2525033927095,-42.79069853340619,-115.72882315207886,68.82245733700991,150.23652070437365,-92.4991876153372,48.59547147405019,128.274241981897
3.04,-108.45507337293505,62.09001843203386,153.59698853471238,-129.24380338696918,76.26304663466398,-43.597810372603256,-115.31398886313568,68.87974840603414,150.39793990487374,-92.46694775976133,48.414358352031634,128.27015308918854
3.05,-108.315114230799,62.14199631862035,153.06161784689988,-129.40519428306018,76.5654701821908,-44.16079108130246,-115.51388309961656,68.87527563397532,148.77257459304977,-92.95815783258509,47.90645160201934,128.06592137978794
3.06,-108.01850900137477,62.29036651272029,153.01562809116623,-129.575934127465,76.54655435987141,-44.95993205622474,-116.06299262623908,68.73613006985865,148.2058792635747,-93.44908011727615,48.51900454049784,127.84885103912453
