0.01,-112.99,75.68,165.74,-0.05,-0.04,0.21,-0.03,0.23,0.39,-100.06,83.25,109.1,0.21,0.3,-0.1,-0.06,0.04,0.06,-154.89,2.67,2.38,0.51,0.15,0.16,0.88,1.25,0.01,-125.82,9.86,7.74,0.0,0.05,0.04,0.0,0.21,0.05
0.02,-112.69,75.78,165.75,-0.08,0.05,-0.05,0.06,0.07,0.28,-100.06,83.12,110.98,0.06,0.29,0.03,0.2,-0.08,0.03,-154.6,2.76,2.13,0.27,0.13,0.36,0.9,1.07,0.38,-125.95,10.0,7.5,0.03,-0.12,0.18,-0.17,0.3,0.01
0.03,-112.97,75.74,165.93,0.15,-0.26,0.05,-0.01,0.0,0.42,-100.05,82.99,112.55,0.31,0.01,-0.01,0.57,0.2,0.19,-154.2,2.79,2.06,0.28,-0.04,0.39,1.05,1.21,0.54,-125.92,9.91,7.41,0.27,-0.18,0.05,0.16,0.15,0.23
0.04,-112.93,75.46,166.13,0.1,0.21,0.02,0.45,0.24,0.64,-100.25,82.95,114.21,0.24,0.3,0.04,0.47,0.47,0.18,-153.47,2.43,1.47,0.35,0.01,0.49,1.02,1.56,1.16,-125.51,9.75,7.24,-0.05,-0.03,0.04,0.31,0.06,0.48
0.05,-112.89,75.5,166.22,0.04,0.08,0.07,0.15,0.09,0.38,-100.4,82.86,116.99,0.33,0.48,0.17,0.59,0.3,0.13,-153.0,2.65,1.57,0.48,0.06,0.78,0.98,1.5,1.31,-125.36,9.9,7.47,-0.01,0.18,0.36,0.29,0.21,0.71
0.06,-113.16,75.27,166.41,-0.07,0.22,0.07,0.51,0.17,0.68,-100.65,82.54,120.73,0.03,0.54,0.24,0.79,0.24,0.19,-152.19,2.5,1.17,0.18,0.19,0.49,0.97,1.27,1.69,-125.26,9.7,7.28,-0.13,0.08,0.41,0.87,0.31,0.65
0.07,-112.94,75.09,166.79,0.16,-0.07,-0.0,1.07,-0.03,0.64,-100.72,82.24,125.03,0.19,0.58,0.05,1.45,0.27,0.05,-151.65,2.46,1.07,0.24,0.02,0.65,1.05,1.17,2.04,-124.88,9.78,7.3,-0.18,-0.04,0.37,0.72,0.35,0.47
0.08,-113.22,74.73,166.9,0.08,0.28,0.15,0.82,0.27,0.75,-100.72,81.99,129.33,0.08,0.61,0.05,1.48,0.17,0.3,-150.83,2.73,0.71,0.27,0.06,0.47,1.16,1.01,2.63,-124.67,9.65,7.36,0.2,0.03,0.3,0.84,0.32,0.12
0.09,-112.79,74.51,167.3,-0.08,0.43,0.23,1.36,0.2,0.76,-100.95,81.39,134.38,-0.02,0.97,0.24,1.25,0.21,0.36,-150.29,2.75,0.5,0.26,0.07,0.75,1.17,1.02,2.57,-124.36,9.64,7.39,0.12,0.03,0.39,0.95,0.42,-0.03
0.1,-112.84,74.03,167.67,0.09,0.37,0.02,1.26,0.36,0.94,-100.89,80.51,134.24,0.13,1.22,0.4,1.52,0.35,0.52,-149.39,3.0,0.41,0.23,0.04,0.6,0.95,0.97,2.8,-123.86,9.93,7.42,0.13,0.08,0.36,0.96,0.56,0.29
0.11,-112.51,73.26,167.93,0.12,0.6,0.02,1.6,0.66,0.6,-101.04,79.59,138.91,0.11,1.26,0.17,2.25,0.31,0.47,-148.88,3.03,0.49,0.2,0.09,0.37,0.86,0.56,3.2,-123.35,9.91,7.36,0.18,0.06,0.34,1.0,0.91,0.6
0.12,-112.31,71.15,169.4,0.07,1.06,0.25,1.93,0.09,0.74,-101.04,78.22,142.78,0.27,1.3,0.12,2.26,0.1,0.46,-148.12,3.37,0.34,0.48,0.23,0.49,0.92,0.49,3.35,-122.69,10.17,7.18,0.12,0.07,0.63,0.85,0.67,0.89
0.13,-112.13,70.66,169.62,-0.02,1.03,0.04,1.52,0.0,0.49,-101.1,77.67,144.36,0.11,1.41,-0.07,2.59,0.24,0.23,-147.88,3.54,0.57,0.41,0.11,0.58,0.86,0.5,3.16,-122.21,10.1,7.15,0.1,-0.11,0.6,0.85,0.28,1.54
0.14,-112.34,69.9,170.01,0.17,1.2,-0.11,1.25,0.17,0.47,-101.35,76.86,146.24,0.23,1.43,-0.08,2.46,0.08,0.4,-147.8,3.47,0.67,0.12,0.13,0.5,0.77,0.46,3.06,-121.5,10.26,7.12,0.04,0.07,0.46,0.87,0.4,1.99
0.15,-111.98,67.18,171.54,0.13,1.39,0.26,1.39,0.12,0.06,-101.35,75.31,148.83,0.23,1.44,0.16,2.83,0.58,0.33,-147.45,3.46,0.98,0.25,0.01,0.2,0.72,0.61,3.2,-120.89,10.41,6.84,0.04,0.12,0.62,0.84,0.15,1.84
0.16,-111.99,65.89,171.88,0.19,1.4,-0.23,1.57,0.26,0.42,-101.25,73.36,150.99,0.1,1.82,-0.13,2.73,0.36,1.02,-147.07,3.71,1.1,0.27,-0.07,0.08,0.55,1.08,2.79,-119.73,10.28,6.48,0.22,0.15,0.45,0.6,0.19,2.84
0.17,-111.49,64.43,172.73,0.11,1.52,0.24,0.71,0.13,0.32,-101.24,71.5,152.93,0.3,2.08,0.04,2.02,0.03,0.43,-146.9,3.83,1.36,0.37,0.16,0.29,0.23,1.12,3.05,-118.9,10.23,6.3,0.16,0.28,0.55,0.37,-0.13,3.29
0.18,-110.96,62.63,172.85,0.39,1.69,0.02,0.44,0.22,0.08,-100.97,69.43,154.82,0.2,2.22,-0.02,2.08,0.36,0.23,-146.21,4.05,1.73,0.07,0.26,0.49,0.05,0.83,2.57,-118.4,10.01,6.16,0.1,0.31,0.61,0.43,0.64,3.1
0.19,-110.32,61.07,173.44,0.22,1.56,0.14,0.33,0.21,0.06,-100.91,66.85,156.15,0.0,2.17,0.05,2.71,0.24,0.04,-145.59,4.43,1.89,-0.04,0.29,0.32,0.13,0.37,2.97,-117.83,10.02,5.77,-0.03,0.09,0.73,0.26,0.38,3.35
0.2,-110.08,59.35,173.83,-0.1,1.25,0.18,0.56,0.3,0.1,-100.52,64.68,157.33,0.1,2.25,0.1,1.96,0.39,0.14,-145.49,4.58,1.63,0.2,0.11,0.59,0.29,0.11,3.25,-117.26,9.78,5.5,0.07,0.04,0.16,0.3,0.18,3.32
0.21,-110.57,57.58,174.42,0.28,1.4,-0.1,0.5,0.51,0.19,-100.22,61.83,158.07,0.17,2.66,0.37,1.15,0.11,0.6,-144.84,4.86,1.95,0.1,0.05,0.71,0.11,0.39,2.56,-117.05,9.64,5.29,0.02,0.02,0.19,0.0,0.15,3.18
0.22,-110.98,56.09,175.22,0.35,1.66,0.18,1.03,0.74,0.13,-100.03,59.07,158.98,0.11,2.71,0.16,1.84,0.02,0.65,-144.15,5.04,2.21,0.17,0.02,0.58,0.15,0.09,1.8,-116.78,9.68,5.15,0.21,0.15,0.27,0.02,0.47,3.06
0.23,-111.72,54.44,176.26,0.39,1.16,0.19,1.01,0.4,0.82,-99.88,56.21,159.77,0.11,2.26,-0.08,1.51,0.63,0.81,-143.2,4.96,2.05,-0.0,0.11,0.85,0.54,0.23,2.1,-116.4,9.23,5.08,0.23,0.15,0.44,0.22,0.19,2.9
0.24,-112.04,53.45,176.64,0.04,1.0,0.3,0.12,0.13,1.13,-100.01,53.67,160.7,0.09,2.26,-0.06,0.83,0.22,0.96,-142.49,5.26,2.02,-0.03,-0.15,0.62,0.67,0.2,1.63,-115.95,8.98,4.51,0.27,0.3,0.54,0.42,0.27,2.63
0.25,-111.59,52.24,176.55,0.34,1.1,0.1,0.1,0.08,1.1,-99.44,50.79,161.44,-0.03,2.51,0.01,0.29,0.09,0.05,-141.7,5.36,1.68,0.09,0.03,0.61,0.92,0.35,0.93,-115.71,8.65,4.1,0.29,0.21,0.36,0.49,0.3,2.67
0.26,-111.03,51.47,176.42,0.23,1.16,0.05,0.89,-0.02,0.82,-99.09,49.41,161.58,0.26,2.72,-0.09,0.47,0.04,0.07,-141.34,5.2,1.61,-0.07,0.08,0.57,1.11,0.31,0.59,-115.51,8.64,4.04,0.3,0.16,0.27,0.39,0.25,2.69
0.27,-110.51,50.8,176.38,0.42,1.22,0.13,1.51,0.33,0.49,-98.86,47.68,161.93,0.04,2.82,0.11,1.03,-0.0,0.13,-141.18,5.09,1.45,0.21,0.14,0.52,0.99,0.32,0.69,-115.31,8.6,4.0,0.29,0.37,0.2,0.5,-0.1,2.84
0.28,-109.92,49.22,176.09,0.3,1.24,-0.16,1.41,0.72,0.56,-98.95,45.15,162.75,0.34,2.33,0.16,0.91,0.17,0.25,-139.8,4.95,1.12,0.27,0.21,0.32,0.58,0.89,0.17,-114.84,7.9,3.3,0.22,0.32,0.28,0.4,0.58,1.77
0.29,-109.78,48.53,176.16,-0.32,1.03,0.03,1.65,0.46,1.84,-99.06,42.43,163.07,0.23,2.32,0.11,0.01,0.49,0.65,-139.54,4.64,0.77,0.29,0.11,-0.02,0.99,0.6,0.86,-114.5,8.03,3.04,0.41,0.12,0.49,0.45,0.47,1.7
0.3,-109.64,47.38,176.08,0.25,0.87,0.11,1.24,0.32,1.68,-98.89,39.67,163.49,0.09,2.63,0.04,0.67,1.01,0.42,-139.45,4.28,-0.02,0.38,0.13,0.15,0.69,0.02,1.41,-114.25,7.56,2.72,0.31,0.41,0.49,0.34,0.32,1.16
0.31,-108.82,46.19,175.98,0.15,1.63,-0.06,1.28,0.54,0.74,-98.51,35.45,163.83,0.25,2.03,0.19,0.54,0.0,0.65,-139.38,4.04,0.18,0.13,0.29,0.31,0.61,0.36,2.47,-113.57,7.27,2.11,0.21,0.42,0.45,0.56,0.14,0.81
0.32,-108.77,44.23,176.23,0.17,1.87,0.04,1.69,0.07,0.28,-98.37,33.3,163.99,0.19,2.13,0.09,0.45,0.08,1.53,-138.6,3.84,0.65,0.52,0.05,0.47,0.81,0.33,2.65,-113.18,7.24,2.08,0.04,0.26,0.28,0.53,0.27,0.17
0.33,-108.76,40.75,176.75,0.46,1.15,0.03,0.28,0.1,2.35,-98.28,28.46,164.07,0.07,2.52,0.18,2.09,0.18,1.37,-137.9,3.64,0.9,0.6,0.21,0.82,0.6,-0.01,2.63,-112.95,7.24,1.63,0.22,-0.08,0.42,0.48,0.16,-0.02
0.34,-108.29,39.58,176.29,0.72,1.12,0.28,1.95,0.73,0.61,-97.94,25.89,164.31,0.18,1.79,0.11,1.4,0.38,1.03,-137.0,3.76,1.55,0.39,0.16,0.84,0.84,0.27,2.72,-112.74,7.23,1.35,0.18,0.13,-0.04,0.42,0.08,-0.07
0.35,-108.59,35.82,176.73,0.19,1.71,0.0,1.8,0.79,0.19,-98.03,24.06,164.64,0.32,1.4,-0.09,0.31,0.46,4.52,-136.12,3.5,2.22,0.55,0.17,0.86,1.47,0.01,2.7,-112.73,7.69,1.34,0.11,0.24,-0.02,0.77,0.36,1.52
0.36,-108.52,34.44,177.23,0.09,1.18,0.03,1.94,0.25,0.13,-98.12,22.61,164.98,0.42,1.49,0.02,0.22,0.33,2.67,-135.21,3.44,2.78,0.62,0.21,0.75,1.35,1.23,2.41,-112.98,7.96,1.38,0.11,0.41,0.06,0.78,0.26,1.27
0.37,-108.27,33.29,177.19,0.2,0.73,-0.03,1.69,0.65,0.19,-98.06,20.47,165.09,0.19,1.85,-0.06,1.78,0.1,0.42,-134.67,3.08,3.18,0.45,0.23,0.29,1.43,1.44,2.79,-112.96,8.52,1.11,0.12,0.18,0.32,0.53,0.65,1.85
0.38,-108.47,32.41,177.3,0.3,0.97,0.04,1.42,0.22,0.34,-97.93,18.51,165.63,0.17,1.54,0.06,2.26,0.49,1.25,-134.63,2.82,4.05,0.72,0.21,0.28,0.86,1.67,2.73,-113.36,8.39,1.35,-0.07,0.22,-0.05,0.75,1.27,2.7
0.39,-108.5,31.82,177.47,0.41,1.02,0.17,1.56,0.32,0.36,-98.23,17.59,165.93,0.24,1.41,0.07,1.65,0.71,1.93,-135.06,2.77,4.2,0.64,0.19,0.29,1.0,1.64,2.49,-112.98,8.58,1.51,0.01,0.18,0.2,0.55,1.45,2.84
0.4,-108.78,31.47,177.71,0.52,0.89,-0.15,1.5,0.21,0.27,-98.21,16.75,165.74,0.14,1.56,0.07,1.34,1.02,2.94,-135.05,2.41,4.88,0.59,0.4,0.54,0.56,1.31,2.42,-112.99,8.45,1.42,-0.1,0.07,0.33,1.14,1.21,2.89
0.41,-108.92,30.21,177.72,0.06,0.82,0.12,1.4,0.52,0.35,-98.28,15.16,166.07,0.21,1.14,-0.06,0.67,0.2,1.91,-135.61,2.25,5.44,0.58,0.43,0.49,0.44,0.93,1.79,-112.63,8.56,1.43,0.03,0.01,0.41,0.7,0.53,2.73
0.42,-108.89,29.54,177.83,0.08,0.65,-0.01,0.7,0.9,0.22,-98.29,14.05,166.34,0.08,1.13,0.25,0.81,-0.01,0.12,-136.14,2.06,5.73,0.35,0.09,0.77,0.7,0.17,1.92,-112.28,8.78,1.53,0.25,-0.02,0.36,0.72,0.35,3.18
0.43,-108.66,29.2,177.75,0.24,0.51,0.13,1.01,0.81,0.35,-98.42,11.75,166.84,0.2,1.13,0.16,0.54,0.55,1.76,-136.83,1.89,6.08,0.41,0.18,0.42,0.67,0.33,2.03,-111.57,8.5,1.36,-0.03,-0.01,0.41,0.91,0.34,3.47
0.44,-108.68,28.17,177.81,0.04,0.75,0.1,1.54,0.63,0.47,-98.29,10.82,166.83,0.3,0.74,0.17,0.4,0.87,1.76,-137.0,1.75,6.61,0.03,0.33,0.32,0.32,0.75,1.68,-111.21,8.41,1.49,0.29,-0.02,0.46,0.86,0.92,2.94
0.45,-108.73,27.43,177.96,0.22,0.69,-0.18,0.87,0.06,0.29,-98.47,9.65,167.05,0.0,0.26,-0.1,0.6,0.69,0.94,-137.55,1.43,6.63,0.19,0.19,0.32,-0.12,1.77,2.12,-111.34,8.36,1.57,-0.06,0.09,0.28,0.34,1.19,2.79
0.46,-108.7,26.72,177.74,-0.07,0.32,0.08,0.81,0.3,0.76,-98.33,9.26,167.12,0.08,0.4,-0.04,0.5,0.12,1.56,-138.21,1.31,7.19,0.04,0.56,0.95,0.07,1.04,2.5,-111.59,8.47,1.57,0.06,0.12,0.4,0.64,1.23,2.47
0.47,-109.3,26.38,177.5,0.03,0.44,-0.2,0.46,0.42,-0.04,-98.44,8.98,167.14,0.07,0.04,0.02,-0.02,0.35,1.41,-138.84,0.8,7.2,0.18,0.57,0.82,0.32,0.47,2.3,-113.61,8.27,2.5,0.26,0.09,0.57,0.53,0.03,2.61
0.48,-108.99,25.94,177.46,0.1,0.46,-0.04,1.13,0.39,1.21,-98.24,9.04,167.22,0.0,0.12,-0.01,0.05,-0.01,2.04,-139.55,0.43,7.17,0.13,0.62,0.51,1.19,0.91,3.22,-114.2,8.26,2.76,0.03,-0.06,0.28,-0.07,1.78,2.19
0.49,-109.17,25.8,177.72,0.25,0.4,0.21,1.46,-0.03,1.65,-98.26,8.85,167.13,0.05,0.05,0.02,-0.06,0.49,1.66,-140.31,0.07,7.31,-0.08,0.48,0.67,1.16,0.14,3.75,-114.63,8.37,2.93,0.01,0.17,0.56,0.47,1.39,1.69
0.5,-109.46,25.72,177.71,-0.04,0.06,0.1,0.78,0.89,1.22,-98.26,8.57,167.23,0.11,0.0,0.14,1.55,0.22,0.15,-140.88,-0.03,7.4,0.08,0.52,0.5,1.02,0.31,3.46,-115.36,8.67,2.99,0.01,0.16,0.6,0.24,0.42,2.0
0.51,-109.42,25.54,177.92,0.12,0.02,0.01,0.09,0.74,0.57,-98.44,8.61,167.06,0.05,0.14,0.04,1.1,0.5,1.43,-141.2,0.38,7.28,-0.08,0.21,0.21,0.63,1.21,4.26,-116.07,8.85,3.14,0.18,0.39,0.3,-0.05,1.36,2.38
0.52,-109.72,25.65,177.65,0.16,0.12,0.05,0.39,0.6,0.29,-98.36,8.53,166.99,-0.23,0.34,-0.03,0.7,0.28,2.8,-141.73,0.46,7.3,0.0,0.13,0.57,0.65,1.39,4.71,-116.25,9.2,3.18,0.12,0.41,0.37,0.09,0.51,2.7
0.53,-109.8,25.56,177.64,0.04,0.24,-0.11,0.58,0.49,0.35,-98.43,8.52,166.96,0.07,0.14,0.15,0.17,0.01,4.18,-141.99,0.76,7.29,0.11,0.29,0.94,0.49,2.01,4.79,-116.66,9.14,3.13,0.11,0.41,0.68,0.12,0.14,3.08
0.54,-109.69,25.76,177.6,-0.02,0.01,0.06,1.2,0.18,2.04,-98.44,8.8,167.08,0.1,0.2,0.18,0.4,0.59,4.22,-142.75,0.74,7.43,0.12,0.29,0.75,0.3,0.73,4.18,-117.54,9.67,3.73,0.38,0.29,0.54,0.48,0.1,4.09
0.55,-110.26,25.03,177.83,-0.05,-0.05,0.2,2.6,0.93,1.44,-98.42,9.28,167.19,0.23,0.32,0.13,0.78,0.19,1.4,-143.66,1.03,7.11,0.17,0.06,0.48,0.2,0.05,3.89,-119.12,10.55,4.87,0.47,0.66,0.73,1.1,1.29,4.38
0.56,-110.2,25.57,177.56,0.33,0.47,0.16,1.22,0.24,1.22,-98.58,9.5,167.37,0.2,0.46,0.0,1.33,0.52,1.81,-144.11,1.04,6.79,0.5,-0.01,0.27,0.3,0.21,3.14,-119.99,11.32,5.45,0.33,0.59,0.65,0.22,0.36,4.57
0.57,-110.48,26.02,177.94,0.21,0.49,0.07,0.78,0.33,1.0,-98.78,10.26,167.56,0.17,0.87,0.11,1.27,0.56,2.49,-144.74,1.05,6.32,0.42,0.41,0.39,0.05,1.64,3.41,-120.79,11.63,6.02,0.37,0.42,0.84,0.94,0.76,5.45
0.58,-110.53,26.31,178.18,0.06,0.25,0.06,1.42,0.7,0.58,-98.89,11.21,167.75,0.1,0.79,-0.08,0.33,0.13,2.67,-145.19,1.34,5.73,0.58,0.26,0.4,0.05,1.34,3.31,-121.93,12.23,6.89,0.67,0.87,0.3,0.89,0.42,4.61
0.59,-110.78,26.96,177.99,0.13,0.29,0.2,1.99,0.35,0.77,-98.81,12.15,167.82,0.13,0.83,0.13,0.68,0.09,2.21,-145.35,1.67,5.21,0.43,0.19,0.62,0.02,0.94,3.42,-122.55,13.35,7.75,0.75,0.94,0.3,0.22,1.9,4.32
0.6,-111.42,27.19,177.73,0.24,0.76,0.19,2.1,0.26,0.74,-98.65,13.05,167.81,0.03,0.98,0.13,0.76,-0.03,2.23,-146.12,1.87,4.18,0.81,0.44,0.38,0.11,0.66,2.54,-123.11,14.21,8.78,0.53,0.98,0.48,0.29,1.31,3.95
0.61,-111.18,28.15,177.97,0.26,0.85,0.25,1.31,0.13,0.23,-98.72,14.29,167.72,-0.05,1.21,-0.15,0.97,0.01,1.29,-146.44,2.08,3.48,0.74,0.37,0.26,0.19,0.82,2.7,-123.63,15.12,9.99,0.51,1.12,0.32,1.0,0.15,4.07
0.62,-111.2,29.08,177.98,0.09,1.15,0.19,1.09,0.04,0.4,-98.7,16.97,167.41,0.02,1.33,0.02,0.36,0.09,1.61,-146.45,2.22,2.68,0.8,0.22,0.36,0.14,0.38,2.44,-123.72,16.25,10.69,0.67,1.07,0.18,1.21,0.06,4.21
0.63,-111.73,30.3,177.94,0.0,0.82,-0.04,1.24,0.03,0.87,-98.53,18.55,167.34,0.24,1.29,0.15,0.8,0.22,1.34,-146.48,2.39,2.27,0.61,0.47,0.22,0.15,0.73,2.22,-123.86,17.63,11.54,0.94,1.0,0.22,1.14,0.28,4.26
0.64,-111.72,31.24,177.82,0.02,0.91,-0.1,1.29,0.35,0.26,-98.42,21.7,166.83,0.28,1.55,0.04,0.79,0.28,1.42,-146.83,2.93,1.55,0.67,0.27,0.3,0.57,0.63,1.91,-123.91,19.39,13.26,0.98,1.18,0.17,0.95,0.66,2.45
0.65,-111.83,31.75,177.81,0.05,1.14,0.03,1.72,0.3,0.48,-98.38,22.66,166.93,0.18,1.59,0.03,1.03,0.22,0.99,-147.09,2.97,1.46,0.4,0.52,0.1,0.52,0.54,1.51,-123.55,20.3,13.61,0.64,1.07,0.15,0.72,0.18,2.33
0.66,-111.68,32.37,177.71,0.26,1.09,0.02,1.55,0.54,0.49,-98.43,23.35,166.74,0.08,1.68,-0.04,1.04,0.11,0.55,-147.08,3.26,1.39,0.36,0.48,0.12,0.48,0.13,1.03,-123.69,20.54,14.13,1.01,1.15,0.35,0.27,0.2,2.05
0.67,-111.81,33.56,177.61,0.01,1.31,0.03,1.71,0.14,0.06,-98.31,25.34,166.64,0.24,1.69,-0.09,0.85,0.04,0.93,-147.43,3.89,0.74,0.21,0.5,0.31,0.64,0.51,0.96,-122.84,23.16,15.65,0.9,0.93,0.56,0.26,1.11,1.73
0.68,-111.83,36.53,177.02,0.1,1.43,-0.09,1.71,-0.0,-0.02,-98.4,27.3,166.24,0.17,1.72,0.12,1.14,0.33,1.12,-147.49,4.13,0.59,0.08,0.36,0.17,0.53,0.19,0.85,-122.5,24.1,16.26,0.84,0.85,0.37,0.22,1.03,1.48
0.69,-111.7,38.25,176.89,-0.07,1.32,0.15,2.1,0.07,0.63,-98.46,28.25,166.43,0.08,1.79,0.11,1.16,0.4,1.19,-147.78,4.68,0.45,0.07,0.38,0.48,0.41,0.18,1.01,-121.93,25.23,17.24,0.66,0.98,0.4,0.38,0.68,1.35
0.7,-112.08,39.98,177.08,0.09,1.56,-0.2,2.21,0.01,0.41,-98.5,30.36,165.79,0.3,1.8,0.05,1.08,0.23,0.4,-148.59,5.25,0.58,-0.07,0.57,0.59,0.48,0.26,0.85,-121.07,26.43,18.01,0.61,1.05,0.28,0.33,0.6,1.15
0.71,-112.02,42.09,176.77,0.02,1.54,-0.1,1.61,-0.03,0.39,-98.65,32.58,165.32,0.14,2.09,0.07,0.96,0.13,-0.1,-149.08,5.75,0.7,0.24,0.6,0.33,0.39,0.22,0.8,-120.94,27.88,18.61,0.7,1.07,0.18,0.05,0.98,0.68
0.72,-112.09,43.78,176.52,0.08,1.73,0.14,1.37,0.13,0.34,-98.49,36.73,164.24,0.16,2.21,-0.01,0.88,0.6,0.25,-149.86,6.41,1.13,0.22,0.78,0.45,0.54,-0.01,0.16,-120.44,28.9,19.36,0.71,1.0,0.23,-0.1,0.32,0.56
0.73,-112.06,45.86,175.84,0.19,1.77,0.23,1.06,0.69,0.95,-98.44,39.13,164.17,0.28,2.37,0.13,0.43,0.49,1.04,-149.81,7.28,1.25,0.3,0.46,-0.03,1.02,0.05,0.6,-120.45,29.98,20.47,0.83,0.81,0.3,-0.03,1.01,1.02
0.74,-111.74,47.83,175.24,0.21,1.87,0.04,0.43,0.39,0.87,-98.52,45.72,162.76,0.13,2.11,0.13,0.13,0.02,0.88,-150.08,8.05,1.71,0.53,0.83,0.44,0.75,0.42,0.38,-119.39,32.36,22.07,0.82,1.11,0.44,0.38,0.48,0.86
0.75,-111.65,49.49,174.89,0.09,1.7,0.33,1.01,-0.01,1.18,-98.84,48.13,162.61,0.11,2.24,0.26,0.06,-0.1,0.41,-150.28,8.76,2.49,0.32,0.67,0.24,0.47,0.53,0.62,-118.64,33.86,22.75,0.79,1.45,0.31,0.17,0.48,-0.04
0.76,-111.7,51.46,174.6,-0.01,1.52,-0.02,1.25,0.56,1.03,-99.21,50.82,162.06,0.12,2.55,-0.04,0.42,0.03,0.32,-150.68,9.74,2.96,0.55,1.0,0.23,1.09,0.28,1.93,-117.9,36.82,24.85,0.79,1.24,0.37,0.41,0.29,0.09
0.77,-111.95,53.14,174.22,-0.04,1.81,-0.13,1.17,0.15,1.12,-99.68,53.78,161.84,0.3,2.62,0.03,1.12,0.76,0.36,-151.06,10.95,3.44,0.52,0.9,0.26,0.95,0.19,1.53,-117.43,38.15,26.05,0.78,1.35,0.62,0.34,0.17,-0.11
0.78,-111.97,54.33,174.05,0.11,1.68,-0.01,0.68,0.26,0.92,-99.65,54.46,161.56,0.16,2.66,-0.1,1.24,0.5,0.23,-151.22,11.58,4.06,0.44,1.01,0.28,0.71,0.19,1.28,-117.0,39.11,26.67,0.75,1.48,0.59,0.26,0.38,0.07
0.79,-112.11,55.21,173.78,0.14,1.94,-0.04,0.63,0.36,1.0,-99.66,55.25,161.43,0.24,2.44,0.1,1.61,0.34,-0.06,-151.48,12.05,4.36,0.51,1.07,0.3,0.52,0.17,1.45,-116.63,39.95,27.04,0.63,1.55,0.64,0.03,0.38,0.23
0.8,-112.06,56.53,173.67,0.11,1.84,0.25,0.32,0.34,1.74,-99.78,58.05,160.73,0.44,2.75,-0.0,1.41,0.12,0.16,-152.05,12.75,5.19,0.5,1.01,0.56,0.44,0.08,1.82,-115.96,42.14,28.11,0.84,1.69,0.48,0.23,0.01,0.37
0.81,-112.19,58.57,173.04,-0.0,1.81,-0.12,0.07,0.12,1.63,-99.89,60.7,160.13,0.16,2.49,0.03,1.93,0.17,0.17,-152.31,14.36,5.94,0.51,1.26,0.47,0.21,0.34,2.58,-115.29,43.94,29.52,0.81,1.69,0.67,0.22,0.12,1.34
0.82,-112.24,60.31,172.43,0.1,1.75,0.17,0.16,0.51,0.96,-99.97,63.67,159.16,0.27,2.57,0.08,2.05,0.28,0.53,-152.9,15.58,7.39,1.17,1.16,0.64,0.1,0.92,2.13,-115.06,45.81,31.27,0.9,2.11,0.48,0.39,0.53,2.23
0.83,-112.03,64.29,171.12,0.07,1.91,0.13,0.43,0.21,1.4,-100.04,66.2,158.0,0.35,2.56,0.11,2.22,-0.24,0.17,-154.6,18.57,10.36,1.43,1.78,0.73,0.08,1.01,2.97,-114.25,48.21,33.08,0.92,2.1,0.5,0.21,0.53,2.22
0.84,-112.05,66.55,170.04,0.17,1.74,0.17,1.24,0.06,1.36,-99.67,69.06,156.42,0.43,2.51,0.26,2.88,-0.07,0.15,-155.03,20.09,12.3,1.42,1.6,0.58,0.4,2.38,2.83,-113.88,50.61,34.89,1.01,2.06,0.46,0.68,0.51,1.85
0.85,-112.07,70.63,167.35,0.03,1.69,-0.04,1.42,0.41,0.14,-99.63,71.83,154.9,0.45,2.49,0.27,3.19,0.03,0.06,-155.67,23.27,16.47,1.6,1.68,0.49,0.09,0.56,2.33,-112.98,53.05,37.5,0.95,2.56,0.68,0.66,0.7,1.58
0.86,-111.91,72.25,165.82,0.16,1.54,-0.13,1.08,-0.13,0.17,-99.74,74.17,152.83,0.24,2.26,0.09,3.35,0.08,0.61,-156.5,25.12,19.09,1.92,1.73,0.68,0.27,1.32,2.41,-111.5,58.11,37.37,1.34,2.82,0.51,0.2,1.5,1.55
0.87,-112.23,74.06,164.53,-0.01,1.39,-0.07,1.3,0.07,0.09,-99.78,76.12,150.48,0.24,1.77,-0.08,2.16,-0.1,0.75,-156.89,26.69,21.96,2.17,1.56,0.2,0.77,1.85,2.45,-110.65,60.56,41.58,1.39,2.7,0.82,0.21,0.66,1.12
0.88,-112.55,75.44,162.94,-0.11,1.38,0.14,1.86,0.12,0.67,-99.44,77.99,147.4,0.27,1.79,0.18,2.05,0.04,0.41,-157.54,28.07,24.83,2.08,1.77,0.64,0.39,1.44,1.42,-109.73,63.23,46.79,1.42,2.84,0.56,0.47,0.83,0.93
0.89,-112.2,76.6,160.46,0.26,1.33,0.05,1.91,0.52,0.82,-99.15,79.78,143.14,0.15,1.67,0.02,1.6,0.35,0.44,-157.73,29.3,28.3,2.28,1.73,0.76,0.18,0.9,0.8,-109.08,65.41,53.45,1.51,2.81,0.37,0.61,0.89,0.63
0.9,-111.75,77.67,157.84,0.35,1.12,0.26,1.23,0.0,0.58,-98.87,81.38,143.01,0.32,1.5,0.19,1.25,0.11,0.51,-158.38,30.62,31.83,2.4,1.66,0.56,0.27,0.81,0.99,-108.18,67.36,61.37,1.37,3.15,0.49,0.3,0.98,0.42
0.91,-111.68,78.15,156.79,0.48,0.94,-0.04,1.27,0.07,0.56,-98.77,82.1,139.27,0.33,1.52,0.01,1.25,0.05,0.31,-158.54,31.41,33.71,3.04,1.78,0.82,0.27,0.75,0.93,-107.68,68.17,65.96,1.51,3.07,0.38,0.29,0.92,0.29
0.92,-111.52,78.57,155.74,0.4,0.91,-0.03,1.35,0.38,0.47,-98.51,82.98,135.66,0.04,1.4,-0.15,1.0,0.2,-0.13,-158.84,31.86,35.9,2.71,1.93,0.59,0.22,0.76,0.49,-107.42,68.52,70.54,1.54,2.96,0.14,-0.02,1.21,0.31
0.93,-111.26,80.04,151.44,-0.09,0.67,0.09,0.44,0.03,-0.11,-98.46,83.99,135.93,0.27,1.5,0.16,1.09,0.12,0.1,-159.46,34.0,35.81,2.7,1.74,0.54,0.16,0.7,0.4,-106.71,69.43,80.92,1.72,3.23,0.28,0.12,1.3,1.0
0.94,-111.11,80.57,148.69,0.09,0.63,0.07,0.49,0.08,0.2,-97.74,84.87,135.48,0.4,1.08,-0.0,0.32,-0.07,0.84,-159.5,34.83,39.7,2.8,1.56,0.38,0.55,0.58,0.21,-104.81,69.21,80.72,1.57,3.18,0.46,0.2,0.39,1.17
0.95,-111.02,81.49,145.76,-0.02,0.2,-0.04,1.24,0.02,0.07,-97.46,85.21,135.34,0.23,1.01,0.01,0.7,0.74,0.49,-159.49,35.74,43.81,2.59,1.54,-0.05,0.89,0.54,0.15,-103.94,68.46,80.86,1.42,2.99,0.39,0.2,0.5,1.06
0.96,-110.66,81.46,145.02,0.3,-0.13,0.13,1.16,0.55,0.04,-97.09,84.63,135.56,0.19,0.75,0.01,0.71,0.37,0.3,-158.99,36.87,47.58,2.77,1.68,-0.0,0.95,1.65,0.48,-102.86,66.8,89.6,1.47,2.96,0.23,0.29,0.47,1.01
0.97,-110.48,81.73,145.01,0.26,0.2,-0.09,0.64,0.42,-0.02,-96.8,84.5,135.36,0.26,0.67,0.01,1.05,0.58,0.56,-158.54,37.84,51.38,2.65,1.57,0.27,0.96,1.53,1.18,-101.71,65.07,97.03,1.58,2.66,0.11,0.31,0.33,0.75
0.98,-110.31,81.25,146.2,0.31,0.4,-0.05,0.05,0.39,0.76,-96.87,84.47,135.56,0.05,0.5,0.06,0.43,0.53,0.2,-157.6,39.11,55.41,2.55,1.66,0.93,0.59,0.63,1.01,-100.54,63.12,103.72,1.58,2.61,0.41,0.04,0.46,0.11
0.99,-109.91,81.04,147.81,0.14,0.39,-0.14,0.05,0.65,0.41,-96.46,84.04,135.5,0.11,0.46,-0.01,0.37,0.84,0.21,-156.74,40.79,59.46,2.67,1.73,0.79,0.01,0.71,0.55,-98.86,61.07,109.3,1.51,2.44,0.68,0.12,0.28,0.66
1.0,-109.86,80.81,149.0,0.2,0.13,0.11,0.18,1.06,0.33,-96.39,83.6,135.4,0.25,0.79,0.11,0.51,0.7,0.28,-155.64,41.95,63.36,2.69,1.76,0.69,0.09,0.3,0.98,-97.38,59.27,113.94,1.33,2.27,0.75,0.1,0.76,0.57
1.01,-109.33,80.2,150.63,0.09,0.15,0.02,0.43,1.13,0.23,-96.11,83.12,135.28,-0.04,0.25,0.06,0.09,0.66,0.36,-154.37,43.38,67.68,2.38,1.79,0.66,0.27,0.2,1.37,-95.72,57.51,118.15,1.16,2.11,0.6,0.11,0.08,1.44
1.02,-109.59,80.15,151.36,0.21,0.18,-0.15,0.31,0.82,0.21,-96.11,82.87,135.47,0.14,0.19,0.26,0.62,0.81,0.54,-153.15,44.58,71.76,2.34,1.5,0.62,0.51,0.3,1.65,-94.06,55.74,121.67,0.83,2.11,0.95,0.28,0.65,1.65
1.03,-109.87,79.74,152.36,0.14,0.27,-0.03,0.96,0.39,0.6,-95.82,82.71,135.65,0.06,0.1,-0.14,0.66,0.15,0.26,-151.92,45.5,76.29,2.18,1.59,0.38,0.55,0.92,1.32,-92.9,53.92,124.72,0.75,1.67,0.68,1.72,0.93,1.22
1.04,-109.68,79.81,152.83,0.03,0.3,0.1,0.92,0.7,0.75,-95.85,82.73,135.6,-0.0,0.32,0.19,1.12,0.39,0.1,-151.51,46.08,78.52,2.21,1.67,0.84,0.86,1.03,1.38,-92.11,53.46,125.85,0.7,1.61,0.7,1.86,1.06,1.27
1.05,-109.74,79.74,153.16,-0.08,0.09,-0.05,1.03,0.86,1.12,-95.79,82.54,135.56,0.01,0.29,0.07,1.33,0.29,0.12,-150.82,46.44,80.8,2.07,1.66,0.77,1.0,1.28,1.04,-91.19,52.39,126.83,0.78,1.39,0.57,1.76,1.08,1.49
1.06,-109.81,79.06,154.47,0.67,0.37,0.13,1.22,1.55,1.23,-96.21,82.53,135.38,0.14,0.18,0.08,1.65,0.52,0.32,-149.19,47.51,84.89,2.23,1.5,1.11,1.25,-0.05,0.69,-90.17,51.01,128.87,0.77,1.33,0.25,2.29,0.27,2.1
1.07,-108.79,79.1,155.37,0.64,0.53,0.03,0.28,2.06,0.51,-95.95,82.67,135.54,0.21,0.17,0.37,1.24,1.32,0.42,-147.28,48.73,88.89,1.92,1.5,1.31,2.1,0.5,0.5,-88.24,49.89,130.85,0.83,1.27,0.68,2.22,-0.01,1.47
1.08,-107.57,78.59,155.99,0.81,0.39,0.17,1.49,1.49,0.22,-96.0,82.98,135.58,0.26,0.42,0.19,0.54,1.49,0.6,-145.89,49.93,92.99,1.79,1.25,1.18,1.98,0.24,0.78,-85.94,49.12,133.02,0.73,0.94,0.86,2.43,0.15,1.06
1.09,-106.7,78.32,156.16,0.23,0.2,0.05,1.84,0.44,1.49,-95.4,83.43,136.67,0.27,0.31,-0.03,1.72,0.79,0.2,-143.82,51.12,97.0,1.46,1.4,1.28,1.27,1.34,0.85,-84.89,48.88,134.01,0.33,0.86,1.12,2.62,0.44,1.66
1.1,-105.65,78.24,156.0,0.19,0.14,0.13,0.13,0.09,1.61,-95.25,83.7,136.53,0.28,0.34,-0.07,1.67,0.51,0.49,-142.0,51.98,100.92,1.4,1.16,0.98,3.14,1.11,0.1,-83.3,47.83,135.45,0.38,0.63,0.85,2.83,0.34,2.25
1.11,-105.45,77.9,156.39,0.28,0.66,-0.07,0.45,0.49,1.72,-94.98,83.86,136.69,0.18,0.03,0.04,1.18,0.48,1.41,-141.03,52.11,104.06,1.13,1.09,0.39,2.25,1.3,0.16,-81.7,47.52,136.82,0.37,0.59,0.58,2.52,0.44,2.06
1.12,-105.21,77.44,156.37,0.37,0.49,0.12,-0.04,0.38,1.42,-95.09,83.66,136.76,0.05,0.08,0.08,1.08,0.45,1.31,-140.32,52.08,106.86,1.21,0.86,0.57,1.82,1.67,0.58,-80.24,46.63,137.87,0.23,0.47,0.7,2.97,0.76,1.86
1.13,-104.52,76.82,156.86,0.16,0.53,0.18,0.23,0.32,1.93,-95.05,83.93,136.6,0.3,0.04,-0.03,0.01,0.28,0.49,-138.87,51.84,111.1,1.05,0.84,0.51,1.82,0.74,0.45,-79.0,46.04,139.15,0.2,0.61,0.92,3.03,1.13,1.14
1.14,-104.3,76.15,157.38,0.03,0.57,0.12,0.42,-0.1,1.09,-95.63,83.92,136.96,0.1,0.19,0.04,1.14,0.64,0.36,-137.47,51.9,113.54,0.91,0.58,0.96,1.85,-0.03,0.64,-77.33,45.35,140.96,0.21,0.08,0.07,3.59,1.04,0.75
1.15,-103.55,75.46,157.27,0.1,0.54,0.47,0.22,0.47,0.67,-95.64,83.72,136.8,0.15,0.03,0.13,1.04,0.66,0.09,-134.91,52.32,118.0,0.66,0.46,0.63,2.68,2.58,0.52,-77.87,45.17,140.56,0.29,0.24,-0.08,2.86,0.1,1.19
1.16,-102.33,74.27,156.31,0.2,0.51,0.37,0.17,0.75,1.34,-96.0,83.9,136.8,-0.01,0.18,0.07,0.62,0.7,0.8,-134.03,52.62,119.44,0.57,0.73,0.63,2.18,0.46,0.16,-79.37,45.28,140.46,0.24,-0.02,0.34,2.91,0.82,1.77
1.17,-102.16,74.09,155.94,0.02,0.36,0.22,-0.0,0.69,0.96,-95.89,83.92,136.76,0.17,0.09,0.2,0.54,0.75,0.56,-133.84,52.6,120.48,0.44,0.67,0.24,2.07,0.35,0.24,-79.67,45.36,140.22,0.16,0.09,0.28,2.73,1.14,1.36
1.18,-102.03,73.8,155.91,0.17,0.36,0.21,0.1,0.56,0.9,-95.78,83.92,136.76,0.19,0.01,0.02,0.6,0.6,0.07,-133.63,52.44,121.12,0.3,0.73,0.35,2.0,0.26,0.28,-79.73,45.35,140.22,0.16,-0.11,0.18,2.77,1.65,0.8
1.19,-102.37,73.37,156.05,0.54,0.1,0.07,0.2,0.7,0.98,-95.89,84.19,137.05,0.08,-0.1,0.01,0.59,1.1,-0.09,-133.08,52.33,122.62,0.16,0.41,0.76,2.11,0.95,0.26,-80.41,45.29,139.9,0.62,0.15,-0.06,2.54,0.68,0.33
1.2,-103.06,73.23,156.42,0.51,0.08,-0.07,0.13,0.27,1.37,-96.09,84.0,137.11,-0.03,0.15,-0.24,0.6,0.67,0.52,-132.7,52.51,123.79,0.13,0.34,0.22,1.13,1.07,0.56,-81.4,45.59,139.68,0.67,0.25,-0.01,2.48,-0.1,1.25
1.21,-103.95,73.25,156.95,0.43,0.17,-0.02,0.06,0.35,1.4,-96.12,84.22,137.05,0.0,0.04,0.02,0.35,0.57,0.9,-132.61,52.21,124.79,0.01,0.8,0.14,1.12,0.95,0.72,-83.38,45.81,138.93,0.59,0.13,0.13,2.37,0.66,0.51
1.22,-104.95,73.38,157.53,0.65,0.34,0.13,0.16,0.74,1.15,-95.96,84.23,137.06,0.08,0.16,0.05,0.61,0.5,1.21,-133.49,52.01,125.44,0.3,0.48,0.21,1.4,0.35,0.21,-84.82,45.9,138.36,0.64,0.28,0.42,1.97,0.5,0.68
1.23,-105.87,73.22,158.27,0.58,0.27,0.08,0.4,0.71,0.9,-96.29,84.26,136.91,0.41,0.28,-0.03,0.55,0.01,1.14,-133.6,52.01,126.08,-0.05,0.39,0.61,1.51,0.74,-0.16,-85.73,46.46,137.95,0.53,0.43,0.35,1.33,0.43,1.02
1.24,-107.25,73.62,159.45,0.99,-0.03,-0.05,1.02,0.37,0.75,-96.72,84.67,137.08,0.44,0.17,-0.08,1.25,0.15,0.79,-133.32,52.26,126.88,0.13,0.29,0.3,0.93,0.44,0.29,-86.3,47.09,138.0,0.67,0.52,0.54,1.8,0.23,0.57
1.25,-108.57,73.14,160.29,1.09,0.29,0.12,1.22,0.23,1.64,-96.94,84.73,137.05,0.34,0.23,-0.0,1.25,0.27,0.22,-133.94,52.55,127.44,0.23,0.11,0.31,0.15,0.28,0.48,-87.16,47.49,137.94,0.8,0.21,0.63,1.48,0.15,0.47
1.26,-109.4,72.87,160.92,0.73,0.36,0.23,0.28,0.25,0.78,-97.32,84.84,136.7,0.37,0.05,0.01,0.0,0.25,0.0,-133.78,52.98,127.64,0.16,-0.01,0.43,0.11,0.48,0.39,-88.0,48.05,137.99,0.73,0.42,0.46,0.78,-0.03,0.2
1.27,-109.73,72.63,160.87,0.59,0.42,0.25,0.45,0.17,0.89,-97.58,84.87,136.91,0.56,0.07,0.12,0.49,1.13,0.45,-134.5,53.22,127.71,0.47,0.13,0.6,-0.02,0.16,0.41,-89.12,48.47,137.97,0.48,0.43,0.36,0.26,0.4,0.42
1.28,-109.87,72.03,161.36,0.57,0.53,0.23,0.02,0.16,1.27,-98.0,84.94,136.68,0.49,-0.02,0.02,0.72,0.6,0.47,-134.28,53.58,128.1,0.44,0.1,0.27,0.15,-0.01,-0.07,-90.05,49.16,137.74,0.78,0.5,0.65,0.31,0.42,0.41
1.29,-110.67,71.57,161.65,0.81,0.27,0.12,0.21,0.7,0.5,-98.61,85.11,136.86,0.5,0.33,0.01,0.52,0.35,0.61,-134.26,54.17,128.71,0.48,0.25,0.81,0.1,0.27,-0.08,-91.34,49.9,137.46,0.73,0.66,0.6,0.47,0.44,0.11
1.3,-111.19,71.5,162.33,0.79,0.1,-0.07,0.2,0.29,0.5,-99.07,85.2,136.89,0.49,0.33,0.01,0.44,0.09,0.72,-134.44,54.04,128.93,0.46,0.1,0.76,0.1,0.23,0.05,-92.05,50.12,137.68,0.85,0.71,0.75,0.38,0.16,0.15
1.31,-112.1,71.49,163.02,0.93,0.12,0.05,0.22,0.11,0.15,-99.31,85.51,137.1,0.44,0.32,-0.08,0.04,0.06,0.56,-134.82,54.38,128.97,0.52,0.29,0.52,0.37,0.0,0.5,-92.45,50.54,137.63,0.6,0.39,0.57,0.18,-0.03,0.31
1.32,-112.95,71.42,164.46,0.36,-0.04,0.07,0.42,0.63,0.71,-100.0,86.01,137.15,0.61,0.39,0.17,0.73,0.32,0.48,-134.74,54.62,129.39,0.41,0.04,0.6,0.13,0.31,0.84,-94.26,50.97,137.13,0.85,0.38,0.34,0.19,0.42,0.83
1.33,-114.23,71.22,165.49,0.38,0.36,0.12,0.29,1.0,0.28,-100.63,86.25,137.07,0.55,0.38,0.03,0.17,0.03,2.17,-135.11,55.0,129.92,0.13,0.18,0.62,0.33,0.6,0.43,-95.06,51.62,137.09,0.71,0.28,0.47,0.45,1.19,0.56
1.34,-114.83,71.1,166.27,0.23,0.43,0.15,0.17,-0.01,0.37,-100.9,86.44,137.26,0.24,0.33,0.05,0.21,0.05,1.14,-135.07,55.35,130.63,0.31,0.12,0.59,0.31,0.84,0.4,-96.44,52.18,137.04,0.73,0.61,0.61,-0.04,0.25,0.22
1.35,-115.29,70.66,167.06,0.12,0.25,-0.04,0.07,0.44,0.25,-101.43,86.95,137.45,0.1,0.33,0.11,0.29,0.19,0.75,-134.68,55.69,131.0,0.16,-0.03,0.54,0.2,0.8,0.53,-96.73,52.59,137.18,0.63,0.59,0.55,0.52,0.82,0.63
1.36,-115.55,70.48,167.74,-0.02,0.18,0.21,-0.2,0.63,0.17,-101.72,87.15,137.67,0.04,0.44,-0.01,0.22,0.08,1.45,-134.86,55.94,131.13,0.14,0.02,0.34,0.1,0.3,1.06,-97.87,53.25,137.11,0.5,0.49,0.16,0.4,0.29,0.86
1.37,-115.92,70.33,168.62,0.25,0.21,0.3,0.11,0.5,0.01,-102.21,87.33,137.7,0.09,0.41,0.01,-0.0,0.4,0.93,-134.74,56.0,131.32,0.34,0.11,0.48,0.4,0.77,0.88,-99.51,53.82,136.77,0.81,0.6,0.11,0.2,0.72,1.21
1.38,-116.78,70.21,169.63,0.46,-0.02,0.11,0.22,0.37,-0.19,-102.21,87.54,137.71,0.04,0.34,-0.01,0.26,0.47,0.88,-134.81,56.24,131.3,0.06,-0.02,0.23,0.5,0.89,0.29,-100.73,54.56,136.51,0.67,0.54,0.37,0.37,0.41,1.11
1.39,-117.22,70.09,170.57,-0.02,0.32,0.22,0.2,0.09,0.13,-102.45,87.38,138.12,-0.16,0.14,0.1,-0.13,0.16,0.66,-135.41,56.43,131.53,0.22,0.01,0.19,0.27,0.11,1.3,-101.56,55.06,135.82,0.7,0.23,0.23,0.31,0.26,0.75
1.4,-117.4,69.96,171.08,-0.25,0.02,0.34,-0.03,0.15,-0.02,-102.33,87.77,137.96,0.07,0.48,0.16,0.08,0.25,0.86,-135.14,56.68,131.68,0.23,0.13,0.79,0.22,0.65,1.11,-102.91,55.61,135.55,0.49,0.39,0.12,0.02,0.23,1.3
1.41,-117.68,70.07,172.2,0.11,0.17,0.21,0.02,0.09,0.44,-102.31,87.75,138.32,-0.02,0.19,0.36,0.24,-0.04,1.56,-134.59,57.21,132.41,0.4,0.17,0.65,0.03,0.29,0.51,-103.64,55.86,135.4,0.41,0.23,0.28,-0.1,0.69,1.54
1.42,-118.04,69.57,172.94,-0.2,0.16,0.39,0.19,0.55,0.42,-102.36,87.64,137.99,0.03,0.29,0.2,0.18,0.09,0.89,-134.23,57.7,132.84,0.04,0.31,0.47,0.25,0.37,0.94,-104.19,56.31,135.56,0.49,0.61,0.74,0.14,0.04,0.81
1.43,-118.09,69.76,173.3,-0.06,0.26,0.15,0.21,0.84,0.29,-102.29,87.68,138.32,0.18,0.34,0.13,0.09,0.12,0.66,-133.93,58.22,133.2,0.1,0.13,0.49,0.22,0.42,1.14,-104.35,56.58,135.58,0.55,0.25,0.38,0.15,-0.09,1.12
1.44,-118.21,69.7,173.6,0.08,-0.07,0.36,0.29,0.78,0.26,-102.21,87.68,138.41,0.15,0.28,0.31,0.08,0.3,0.92,-133.47,58.32,133.32,-0.02,-0.05,0.47,0.14,0.01,0.95,-104.25,56.67,135.97,0.25,0.37,0.41,0.17,0.17,1.27
1.45,-118.57,69.66,174.45,0.07,-0.02,0.24,0.13,0.81,0.36,-102.23,87.65,138.45,0.28,0.29,-0.03,0.08,0.33,0.96,-133.4,58.75,133.9,0.09,0.19,0.33,0.1,0.4,0.92,-104.62,57.22,136.15,0.26,0.32,0.14,0.06,0.08,1.33
1.46,-118.98,69.65,175.16,0.13,0.16,0.42,0.34,0.65,0.1,-102.41,87.65,138.62,0.03,0.23,0.21,-0.1,0.9,0.59,-132.93,59.31,133.9,0.1,0.14,0.33,0.55,0.89,0.81,-105.3,57.56,136.13,0.35,0.24,0.31,0.36,0.26,1.0
1.47,-119.5,69.92,176.14,0.14,0.09,0.35,0.24,0.57,0.19,-102.22,87.47,138.61,0.11,0.12,0.09,-0.01,0.92,0.63,-133.12,59.44,134.08,-0.04,-0.02,0.38,0.41,0.29,0.99,-105.79,58.19,135.87,0.28,0.44,0.51,0.16,0.28,1.16
1.48,-119.79,69.75,176.71,0.21,-0.03,0.23,0.14,0.49,0.24,-102.27,87.67,138.75,-0.11,0.29,0.09,-0.0,1.02,0.67,-132.93,59.68,134.1,0.08,0.09,0.12,0.13,0.18,0.79,-106.57,59.11,135.53,0.4,0.34,0.22,0.19,0.44,1.16
1.49,-120.23,69.85,177.38,0.09,0.21,0.14,0.16,0.39,0.07,-102.85,87.44,138.93,0.07,0.07,0.2,0.37,-0.07,1.37,-132.39,60.06,134.48,0.02,0.25,0.16,0.07,0.16,0.96,-106.92,59.54,135.67,-0.02,0.28,0.24,0.41,0.58,0.9
1.5,-120.74,69.66,178.28,0.32,0.08,0.04,0.11,0.15,0.19,-102.77,87.46,139.09,0.23,-0.05,0.17,0.33,0.26,1.1,-132.37,60.62,134.85,-0.01,0.14,0.46,0.31,0.18,0.26,-106.68,60.05,135.89,0.3,0.46,0.52,0.35,0.33,1.07
1.51,-121.44,69.98,178.87,0.38,-0.02,-0.03,0.07,0.16,0.23,-103.07,87.55,139.28,0.16,-0.08,0.06,0.21,0.39,0.9,-131.92,60.81,135.27,0.2,0.24,0.33,0.17,0.5,0.36,-107.35,60.86,136.32,0.17,0.6,0.27,0.25,1.11,0.93
1.52,-121.78,69.96,179.34,0.19,-0.14,-0.07,0.3,0.44,0.12,-103.53,87.3,139.07,-0.06,0.05,0.04,0.2,0.4,0.42,-131.36,61.53,135.31,0.12,0.19,0.46,0.21,1.01,0.86,-107.34,61.25,136.27,0.32,0.7,0.23,0.39,0.41,0.71
1.53,-122.0,69.83,179.85,0.12,0.07,-0.09,0.56,0.27,0.04,-103.79,87.24,139.46,0.12,-0.07,0.08,0.1,0.38,0.48,-131.3,61.88,135.6,0.21,0.27,-0.08,0.71,0.48,0.79,-107.73,61.43,136.11,0.34,0.32,0.16,0.04,0.13,1.25
1.54,-122.45,70.1,179.8,0.23,0.12,0.01,0.29,0.15,0.18,-103.9,87.14,139.22,0.32,0.04,0.22,0.33,0.24,0.62,-131.24,61.91,135.2,0.04,0.08,0.22,0.8,0.64,0.55,-108.54,62.01,136.26,0.4,0.3,0.29,0.13,0.3,1.14
1.55,-122.84,69.85,179.35,-0.05,-0.1,0.13,0.08,0.55,0.03,-103.99,86.93,139.38,0.04,0.2,0.28,0.49,0.33,0.47,-131.17,61.9,135.13,-0.18,-0.04,0.27,0.14,0.11,0.79,-108.83,62.55,136.07,0.25,0.23,0.3,0.43,0.1,0.99
1.56,-122.49,69.81,179.51,0.18,-0.02,0.0,0.37,0.36,0.05,-104.02,87.07,139.56,0.1,0.27,0.12,0.39,0.24,0.51,-131.04,62.16,135.07,0.13,0.22,0.1,0.19,0.07,0.65,-109.56,62.79,135.2,0.29,0.4,0.15,0.25,0.5,0.76
1.57,-122.63,69.96,179.62,0.03,0.22,-0.09,0.37,0.39,0.22,-104.0,86.92,139.53,0.12,0.33,-0.0,0.27,0.06,0.57,-130.69,62.3,135.25,0.07,0.14,0.22,0.35,0.1,0.53,-110.19,63.52,134.63,0.45,0.3,0.06,0.02,0.57,0.91
1.58,-122.41,69.71,179.72,-0.25,0.24,-0.03,0.08,0.35,0.2,-104.18,86.71,139.27,0.08,0.25,0.02,-0.01,0.08,0.6,-130.7,62.63,135.17,0.01,0.3,0.12,0.12,0.69,0.8,-110.74,63.78,133.68,0.3,0.46,0.2,0.68,0.62,1.49
1.59,-122.19,69.77,179.88,0.05,0.19,-0.22,0.13,0.46,0.64,-104.14,86.57,139.38,-0.08,0.15,0.09,0.11,0.41,0.94,-130.32,63.16,135.18,-0.03,0.16,0.42,0.28,0.19,0.97,-112.22,64.44,132.63,0.13,0.12,0.22,0.72,0.96,1.58
1.6,-121.91,69.55,179.82,0.2,0.07,-0.03,0.29,0.22,0.32,-103.76,86.32,139.56,0.37,0.04,-0.06,0.16,0.36,1.15,-129.72,63.63,135.61,-0.04,0.43,0.59,0.5,0.32,1.12,-112.65,64.78,132.7,0.42,0.19,0.31,0.59,1.25,2.11
1.61,-121.74,69.76,179.64,0.23,-0.04,0.01,0.11,0.43,0.04,-103.55,86.43,139.52,0.07,-0.04,0.1,-0.02,0.67,1.01,-129.13,64.18,136.17,0.14,0.21,0.25,0.8,1.53,2.06,-113.21,64.94,132.71,0.21,0.07,0.48,0.62,2.34,2.92
1.62,-121.65,69.65,179.16,0.27,0.17,0.18,0.38,0.51,0.12,-103.29,86.38,139.43,0.11,-0.06,-0.04,0.14,0.76,1.05,-128.74,64.39,136.04,0.06,0.08,0.17,1.1,2.3,2.17,-113.78,65.03,131.43,-0.13,0.18,0.46,0.97,1.89,2.97
