0.02,-313.5243660970492,84.62379259772845,4.78933380667212,-126.44375174165428,87.20103022014133,177.25935142986145,-169.07563840852643,1.5464050010438963,11.189641070335734,-158.46057338522502,14.06173597596836,9.432099108207035
0.03,-313.56341665439965,84.61598778990871,4.797404603350285,-126.43441675204022,87.1908180766974,177.25056874490596,-169.06995861302948,1.5678096419099083,11.262482812765326,-158.43819267556708,14.145857536205638,9.450431354854803
0.04,-313.60333841145075,84.5511074154911,4.815075072849361,-126.44300694040793,87.11158222562243,177.2370962469158,-168.99604101833026,1.564129288026731,11.248969745254016,-158.44542379675252,14.133105867041207,9.507877331803837
0.05,-313.6380567492605,84.56255118987477,4.803989937122154,-126.4248631225998,87.12074074434754,177.2418304081189,-169.00391814365372,1.559808518331825,11.311653027032984,-158.4538618288248,14.135170662247056,9.535962299272091
0.06,-313.6882535329718,84.56470759830589,4.813819089254039,-126.50291210713698,87.1353523614426,177.25205766080504,-169.06254593544162,1.6161475792992344,11.298668689115145,-158.49944528678208,14.194689777608318,9.612738518012444
0.07,-313.7430247176821,84.48628305366893,4.805821785160378,-126.49431674818648,87.04936652179703,177.24470940416523,-169.09084167122532,1.6069506525057606,11.353034588721249,-158.5662265120355,14.18617925000147,9.689709713698694
0.08,-313.8162580693232,84.49354643813777,4.811764813676021,-126.4891310610867,87.04932324648567,177.24182181514405,-169.12969892023253,1.63018325627971,11.375934044457765,-158.6241705111654,14.2080837427807,9.70604306734417
0.09,-313.8659887083611,84.50561125348776,4.822166961677146,-126.51083892596807,87.07792578349593,177.25833890603408,-169.1491827871877,1.6074495206082406,11.438924391799551,-158.72524206379092,14.200419588136224,9.717984208521475
0.1,-313.95364841164286,84.49958232235868,4.806548539027761,-126.57614636460738,87.06482280094026,177.23130517032843,-169.19861976770787,1.6514820410673223,11.46378441346104,-158.81204889591422,14.16194438153414,9.73025298834628
0.11,-314.0546155319951,84.5017281398962,4.782611331987631,-126.628431366036,87.05840433962737,177.2464086092956,-169.32210324819656,1.74627687653444,11.489852903105747,-158.97007057550178,14.252592549591458,9.776757481287724
0.12,-314.12911821844074,84.50101006791294,4.734577171933908,-126.61930348201692,87.0447631620199,177.2488444794828,-169.32479499350492,1.761929133433486,11.587592666961848,-159.08440719676392,14.248729250893424,9.8080517054697
0.13,-314.1780339068108,84.50949658795602,4.756894984027089,-126.63703815290889,87.10552642541515,177.23536728425765,-169.35481616818777,1.7573994244445308,11.550982748056253,-159.17791375982534,14.236090361519311,9.813945425634524
0.14,-314.2501208541356,84.50931819942608,4.748644711179586,-126.7603773961926,87.11800216099365,177.25214199919404,-169.4257794257965,1.7979047441666771,11.64102571960466,-159.29354610254515,14.182991670760662,9.80772409308917
0.15,-314.25061164380867,84.52554409778604,4.765500934514198,-126.80148151208807,87.11359863773075,177.25207398038006,-169.49229440580729,1.8111242397015612,11.607571235123077,-159.3734196060122,14.194500425933391,9.865928700339632
0.16,-314.30860842696137,84.49044938774539,4.746585887852793,-126.8625925588299,87.1204869092006,177.23846638528082,-169.5602605791667,1.8220818007036603,11.673867111631974,-159.44739281335356,14.186899717350924,9.807468148754255
0.17,-314.2978536747042,84.49827878446769,4.761597346534771,-126.8780173805974,87.10974121598834,177.25010242347014,-169.73621377881116,1.8156611133747,11.686681215281268,-159.5040276335449,14.20798145406004,9.81119653680613
0.18,-314.3094565408483,84.51118375853345,4.750566751071149,-126.92143567891388,87.1595587558838,177.2428223609538,-169.87892692816416,1.808591996026812,11.690020922275538,-159.5561839808025,14.176331044106352,9.804774019960156
0.19,-314.3677605286016,84.48710918298796,4.759299118827379,-127.00293440061128,87.18998230607578,177.2480253630664,-169.94416859083208,1.7823397884875911,11.674059057209671,-159.68276954107804,14.19560276458324,9.809299607586942
0.2,-314.3655637652688,84.50370429362862,4.759485986497367,-127.1294817831425,87.19125830372349,177.2386914780069,-170.02560451471936,1.7782037785501923,11.690338509472262,-159.7771708459061,14.145477588269706,9.813389333376424
0.21,-314.3976451068962,84.51690483509093,4.758890694106653,-127.19526706412952,87.26117193062643,177.25264602020223,-170.21192587723124,1.753803879061168,11.68624116433844,-159.87078164690817,14.134606778493977,9.724919201506031
0.22,-314.44133205672534,84.49333742915258,4.749807587589982,-127.22942011462176,87.25227687041087,177.22892557593204,-170.24856958561966,1.7540152832123586,11.688988996820475,-159.92716678166724,14.12733601393079,9.695440805514474
0.23,-314.4345709572831,84.47672093538789,4.752931795814217,-127.25895522319064,87.25312491682315,177.2574780051961,-170.3092188777578,1.7432471757838073,11.683046174507629,-159.9950004095555,14.131855531329196,9.690855512893622
0.24,-314.44836240152006,84.42088998216806,4.745459439305902,-127.30345264027014,87.25609173429751,177.2594407023202,-170.3842645259725,1.7443793486468155,11.697537312899223,-160.05649675857873,14.133955290369574,9.669321978912295
0.25,-314.3842910661846,84.43618213173691,4.766302427067405,-127.3059840019082,87.23896068164915,177.24142979790565,-170.4258620569613,1.74924638109112,11.700702205397622,-160.11532947999328,14.135726864882844,9.604791205605355
0.26,-314.3862944375515,84.44119075948947,4.732565013558786,-127.32693081781896,87.25933427910127,177.27817349528064,-170.5022854442706,1.7566450140716312,11.690605489479823,-160.11695283254525,14.067670629050705,9.639522380353949
0.27,-314.38406442807286,84.4252743508088,4.735771939727623,-127.297932343118,87.22859474792097,177.26533997527295,-170.57018557048164,1.7548560984208283,11.692282139969352,-160.1121562903895,14.043330610997089,9.6251802079356
0.28,-314.3824516084495,84.45654663923469,4.7502353265068695,-127.31510953299492,87.26006734417344,177.24301841698494,-170.5545086654236,1.7415446948565505,11.683198266866716,-160.19382788743692,14.06346547123728,9.651210303539768
0.29,-314.3754856384757,84.43309531961972,4.75616239490201,-127.36970314335665,87.24260826070046,177.23862392640677,-170.55930857110158,1.7429577506585356,11.676125475140076,-160.19228136609078,14.056041165402103,9.633987620044886
0.3,-314.3773875347857,84.44110845892742,4.741717888231294,-127.40562156762982,87.25730115702086,177.24245084171926,-170.56409196993684,1.7445504785394073,11.619777823895852,-160.19233700728256,14.046717550405123,9.622684535310036
0.31,-314.38972367213813,84.3861828683293,4.750157003558477,-127.426259137707,87.23045687096165,177.24904378441255,-170.5448913351902,1.7416033734987686,11.645941108392586,-160.18699193721395,14.064173625336569,9.626671554800245
0.32,-314.38363238387296,84.3812419637228,4.753101682833792,-127.44571156584142,87.24661213264399,177.24276014286409,-170.55672722810644,1.7613076578993097,11.63223881028753,-160.19183002839014,14.047459325859426,9.646784216502274
0.33,-314.3914638617629,84.37243936618901,4.746998676008788,-127.4463425577032,87.25354291702928,177.25023931656705,-170.61370629098232,1.7379405245118476,11.630817281719532,-160.1101052540329,14.065997861530834,9.632830046834858
0.34,-314.3746831454216,84.38564615489548,4.745704351673189,-127.50037980377638,87.19317386536368,177.2452409999463,-170.6291806460908,1.75408970628813,11.632073826064106,-160.04191768252423,14.116996149564908,9.560870552014592
0.35,-314.3707954039057,84.36983162431154,4.764495180983084,-127.50121156357082,87.18825707619284,177.24590071005798,-170.63012830136827,1.7491652580790713,11.64875301804461,-160.00169989888371,14.133174736956285,9.554225170384706
0.36,-314.3778369832029,84.35785670049259,4.76439847203204,-127.47020643515724,87.13500056486131,177.24132662010007,-170.61550420122296,1.7530661727612118,11.607190962596198,-159.87426369142153,14.137525905268484,9.552861995048266
0.37,-314.3884522494768,84.36249589389259,4.761551202175189,-127.48809752810672,87.07299578463257,177.24532136646698,-170.56324203205918,1.7593877928671908,11.622535075556575,-159.82676321124785,14.143629345359823,9.567051683356157
0.38,-314.37610815239896,84.38219253846192,4.7456758525291205,-127.49696450391792,86.9998109793934,177.24880191334472,-170.5112670656629,1.7475096480177053,11.636706712738809,-159.74905097424437,14.146786085171822,9.50467478848974
0.39,-314.3805295622245,84.36342338769848,4.756245905064634,-127.5601583438206,86.93006862691534,177.24152774629556,-170.41526518010136,1.7532673418756008,11.625109761139408,-159.69138826498846,14.199651594250795,9.492647350939269
0.4,-314.36665358118194,84.38884882539487,4.763033503249993,-127.59881806119034,86.90749714984469,177.23285805363486,-170.33011954736645,1.7421721545730782,11.634873714031478,-159.56256454664717,14.190281796053377,9.498547150749776
0.41,-314.31480008135,84.3718493139314,4.735152095366671,-127.60977315071614,86.86687797366402,177.2574706386845,-170.25602463367764,1.8131199110406564,11.547925554899525,-159.22750892796446,14.212440936572508,9.37095250968889
0.42,-314.3143304717707,84.37348491877025,4.737354611671202,-127.55831893357848,86.81168745199683,177.23153044171747,-170.1997801716677,1.814267204584526,11.556009990886658,-159.13859956636333,14.258445645041125,9.333502452750018
0.43,-314.3201456364862,84.3789310976363,4.747407331221527,-127.56400119117252,86.71236804692444,177.2304449299426,-170.11034839032394,1.800979748034379,11.5043606276054,-158.92302870136413,14.248417524384552,9.194506290433056
0.44,-314.3415340206856,84.42507226994681,4.740528838246036,-127.60960078427884,86.62317936653639,177.2439300586575,-170.05519845176138,1.8116596020706648,11.443431935770096,-158.8132986366386,14.29035727581172,9.036549687237107
0.45,-314.31596113551655,84.42380291851644,4.759136023548535,-127.62348998057004,86.49755403721835,177.2529581414687,-169.85176854811354,1.8888142258422105,11.363799575976817,-158.71126647727877,14.31028227862391,8.880603780620678
0.46,-314.24524652487014,84.42627339821685,4.68124178284292,-127.6780102661052,86.3049710091919,177.25535878918492,-169.5391022350322,1.8917832017796457,11.312126030747372,-158.64864850679095,14.315603365694152,8.74796511043187
0.47,-314.22005342147133,84.4490132109325,4.6874111077583285,-127.72461530465333,86.16112614289075,177.21333090537536,-169.31230928389832,1.934945162791378,11.181388114480596,-158.48703231843052,14.363398955221305,8.73894888248856
0.48,-314.176205866871,84.44285976223249,4.677013790797618,-127.73612325520376,85.99476672106508,177.1673932740504,-169.12623783837762,1.986858156441046,11.110632961525136,-158.4475486601849,14.371981402042527,8.750084456642167
0.49,-314.1132503285583,84.49654082880937,4.673344859923207,-127.80404733747628,85.74959750565881,177.1120425299353,-168.915152552768,2.1255376808831934,10.998891356509873,-158.19540845706328,14.439496388122596,8.681932594780568
0.5,-314.09015956368546,84.5537443997586,4.690947844377426,-127.80037291401804,85.55158094665221,177.11702631101187,-168.80886196204267,2.251669964347845,10.96204419926679,-157.9535394426509,14.496507950729963,8.737678964378011
0.51,-313.99820066908694,84.70402836593506,4.681958774471981,-127.96017274208448,85.00831263135805,177.0027313303663,-168.6285924010597,2.379316838857838,10.822245415632556,-157.2888032320853,14.71105253640089,8.80260775686693
0.52,-313.86803761604426,84.74962009514348,4.694852253529578,-127.95143378415048,84.84566074005777,176.99715874721434,-168.37529684685612,2.441476947923801,10.743616561246904,-156.93917247811183,14.805167194213372,8.807199668706666
0.53,-313.6867225710639,84.8660988889395,4.627611493147867,-127.98168639695908,84.47197316305204,176.94821727162085,-168.1272911125537,2.5633522678608243,10.647402656462775,-156.61784669227265,14.870417317729302,8.8136906092747
0.54,-313.5014993708188,85.02234751616177,4.6126057844484665,-128.12914015844888,84.13715219476369,176.939781872697,-167.80085959205593,2.6281945661318598,10.494970132181688,-156.40844687706766,14.940049832991535,8.849531638864649
0.55,-313.39043787717884,85.18305826661096,4.625788082962022,-128.18235240093554,83.67765783811522,176.85945067977875,-167.48520233942594,2.70373342196778,10.441672616679668,-156.18230730104193,15.00873999545406,8.879648310277638
0.56,-313.18471436765026,85.31532296374132,4.612458073567736,-128.21205513607137,83.11577027279745,176.87722570190869,-167.23679806944764,2.749554294540617,10.37305331039144,-156.06527711298517,15.010430083159283,8.887009717796982
0.57,-313.0221397490447,85.28256232438717,4.612548031650444,-128.24339909034242,82.57187276041375,176.84610043690503,-167.07012898940073,2.8047823697818752,10.244570869768742,-155.86561298713806,15.0010761087831,8.941107130816611
0.58,-312.8089147240731,85.25035690298597,4.617258824391975,-128.2416146247262,81.89070986626503,179.1157414274236,-166.91176378476837,2.848776615305245,10.106777609880549,-155.69497433938662,14.95062982936468,8.953767601440756
0.59,-312.8015264558743,85.01133309225179,4.559724496979621,-128.21594398678675,81.07590818081525,181.286452268548,-166.74411648101915,2.8721382702028557,9.932162450454245,-155.4191705745214,14.859116658259248,8.875501746791608
0.6,-313.0090986631531,84.49685522706537,4.452392367076082,-128.21127295396073,80.24893644245032,183.43533935214015,-166.61638540642778,2.8004432992249795,9.685197355167633,-155.10750844564998,14.857854428676482,8.817175150569126
0.61,-313.3066445662124,83.36713759379155,4.2396234153056485,-127.99864403494006,78.18737583587352,187.12418676101265,-166.0075084079325,2.739517937516925,9.125518662924922,-154.6946647382201,14.73268263444393,8.691073625807107
0.62,-313.42875322278826,82.60346815487003,4.228696108684468,-127.7853113969303,77.11934575644608,188.667825406289,-165.61635248625583,2.6779405697618994,8.80704706696264,-154.57162900725524,14.632908251043222,8.68144989840186
0.63,-313.6880199605735,81.71447563127633,4.233317584442011,-127.61665374297267,75.9972363502479,190.17193303419384,-165.36719501147434,2.5674929152545576,8.573675163202362,-154.3909427870216,14.551965950845984,8.688479371824304
0.64,-314.1065044157837,80.510118851773,8.602354304841096,-127.37703549175566,74.73753322634032,191.68278425227516,-165.0568818597587,2.440696300259274,8.198225905099525,-154.1841963661157,14.443483099099046,8.68299241060638
0.65,-314.6613039656042,79.2539878051423,12.155255068460262,-127.10667025852172,73.44709883019212,192.92092088934743,-164.81559430720023,2.3536030696000503,7.811738752054059,-153.87048685027438,14.310744731123284,8.694336512684977
0.66,-315.2354137401093,78.18139902720823,14.554892929968029,-126.8520454603882,72.12892087924396,194.15580712222723,-164.56910916698286,2.260877869067774,7.373015309234513,-153.61486362992315,14.251226092395562,8.621528725747787
0.67,-315.8083438240028,77.29866631044398,16.418971922828938,-126.70487048257266,70.81006429382118,195.09849307591355,-164.344671558867,2.201754383053158,7.003830151961153,-153.38985675917075,14.131795073153167,8.617892883526551
0.68,-316.44249593259457,76.43091604005262,17.921794395850753,-126.7417191525298,69.44446996945517,195.64184338032155,-164.31896510835196,2.116854504587145,6.811383928926981,-153.1921834904989,13.992702365368167,8.68920947208022
0.69,-317.21243070706186,75.41243495747416,19.16062935057313,-126.82032124688511,68.05496535579836,196.17482031476152,-164.13809785111326,2.0065730258689096,6.462898913989021,-152.97470033935315,13.947523110730842,8.75160014328164
0.7,-317.979631161024,74.36769832376406,20.336245727346256,-126.87387135390884,66.63354122242511,196.67499070679253,-163.9986240216538,1.878973843022578,6.11948761144594,-152.72797670697898,13.940681635099152,8.694160028011321
0.71,-319.3645998365887,72.36631005884048,21.83329550752676,-126.98555769331556,63.76254945724443,197.4422002119165,-163.54388442345842,1.7017742685272408,5.440991631701351,-152.43878024326688,13.93276887644222,8.54910062320746
0.72,-319.9354523835653,71.62455131764365,21.93014010659987,-127.2586395171141,62.552137890450425,197.6626609034124,-163.13394427267565,1.6176034887710835,5.194633961144808,-152.42774714451562,13.891145856590974,8.496525184433235
0.73,-320.3313298390536,70.99521967480261,22.103800073722383,-127.74125177461691,61.43132849001062,197.69140981393295,-162.76093320403095,1.5372844518795128,5.0856229246857065,-152.6192091636985,13.73785063397152,8.480559420639757
0.74,-320.5004401540219,70.36840295043066,22.600670183469557,-128.44086058112978,60.2374490020613,197.675893843536,-162.4759748255605,1.4960696510255158,5.053535670322153,-152.86754941109234,13.626285386763076,8.562204172020772
0.75,-320.6819548312868,69.5250708816002,23.49263664791358,-129.00501837053798,59.00128871777424,197.54961349738585,-162.3615244551415,1.3666053212648877,5.03524083095861,-153.06837413937495,13.4385748477116,8.696066748339598
0.76,-320.8764494517689,68.30775307009444,24.405504648984568,-129.81931062256163,57.88036720606432,197.30543510508747,-162.239843750096,1.258637639227249,5.0557398352169,-153.12672724282805,13.270728277482409,8.896310650799032
0.77,-320.95277500575054,67.24612002479188,25.239388908226022,-130.63788210220508,56.75091150800165,196.9343379352323,-162.30246809935042,1.1143321936210806,5.042480835186971,-153.07475939927195,13.133045303408965,9.067111080613492
0.78,-320.74740470113954,66.44703124960627,26.11296230786993,-131.44051934162064,55.6259383308906,196.6256491663728,-162.5431675653071,0.9438721916262912,5.08176276441084,-152.9440999472253,12.994148606097133,9.237233150120163
0.79,-320.54565462067205,65.56144974373501,27.05237034927932,-131.92546641566693,54.50158635230101,196.5479853889178,-162.80613144824076,0.7988165966061995,5.0605922805678905,-152.75193032267106,12.930820701530436,9.440734276148676
0.8,-320.49327871840364,64.4442931470003,28.00661940103653,-132.44880732164856,53.30830156901287,196.55779143624716,-162.79044735628736,0.6776094895810649,5.097694036454499,-152.62004156613318,12.76317131849587,9.640558409262926
0.81,-320.93378151996654,62.195996108322056,29.254978520509617,-133.74764434245313,50.87144740901604,196.479311194544,-162.12565114319924,0.4128004416137758,5.182472383345826,-152.71049532296476,12.236305663773344,10.12271459127979
0.82,-321.4576056190632,61.248359240550606,29.41730695305839,-134.13378024359537,49.68742908022416,196.4924339218996,-161.6999200560772,0.1868203250951901,5.183888639404419,-152.8196207143746,11.931586830306433,10.375792238118027
0.83,-321.85561537489804,60.35930048596761,29.496284293389195,-134.19189544359983,48.63142158001856,196.62942347509903,-161.30091101429036,0.0502889908299076,5.0599126333420354,-152.88832227019864,11.688731717511471,10.607032322997064
0.84,-322.10875018962724,59.62898836384274,29.7195248747112,-134.1089206713662,47.50813783243439,196.80743415330548,-161.05292073284147,0.3717685301371514,5.0027211159264064,-153.0022407065777,11.44676350872392,10.8069785676374
0.85,-322.1061580692015,58.99685330118739,30.11049890268611,-134.1967585921824,46.32392929681966,196.94104481448417,-160.99873381932994,0.5984679040462486,5.074640039815303,-153.11303113350704,11.189792334721698,11.051315197652544
0.86,-322.3798563420707,58.33424490446209,30.297937632741228,-134.18794141161771,45.25117967791464,197.12819394041676,-161.1293052949301,0.8186357837121732,5.185088620259624,-153.24558999937858,11.009388604372676,11.247806873336382
0.87,-322.6325390999868,57.68190244376971,30.48223148397644,-134.19859216861886,44.194182134032246,197.3135980552444,-161.1132914979227,1.1211865629417357,5.297233725619622,-153.31328986205446,10.88774255191649,11.42767360597846
0.88,-322.9951850668285,57.25321114723454,30.470841044375536,-133.9934257525122,43.24371301710449,197.4870020547274,-160.83785646253554,1.443755077610989,5.424192992794639,-153.37224328998522,10.694397100681636,11.538220359441544
0.89,-323.4367034892231,56.66143497528754,30.35147178387188,-133.9544607426914,42.3081017635866,197.63939242145585,-160.2964857674461,1.8146484405372665,5.5617556576711085,-153.37227282324966,10.499533867729967,11.824022282288135
0.9,-323.8820410165652,56.056388594755376,30.23394901733581,-133.8803745424586,41.81429569344078,197.61887370936225,-159.94255234424077,2.129035483703221,5.87236492186122,-153.36206757449568,10.300950171196908,11.91529152121652
0.91,-323.43281505169983,55.38506355711731,30.80156533472803,-133.88971432845386,39.99871272191851,197.85659084759456,-159.55854582947302,2.5532956641443505,6.566025137273137,-152.81874678958926,10.13072764688838,12.44316656012552
0.92,-323.18924727597914,55.24639394983046,31.067889903823357,-133.74544252376157,39.12849440535575,198.11661241878727,-159.31586344589408,2.895723955250511,6.675323486322517,-152.50395185317544,10.052281237428582,12.691570005501973
0.93,-322.349638070213,55.26255527243765,31.54419805773696,-133.67340804193117,38.22811394991089,198.37267527568383,-159.07853981678932,3.056002020205805,6.775119043376722,-152.310744692698,9.997810760348864,12.884936927471974
0.94,-321.6376176717767,55.388850462309605,31.92145986390464,-133.68793698270116,37.541838646081175,198.42519614091117,-158.86332627104963,3.2595407320600165,6.875174306963506,-152.10805107583434,9.961621523590075,13.197093170163017
0.95,-321.43601114841186,55.22899593388862,32.0444441764071,-133.64079051153809,37.14891766380066,198.3674082808549,-158.6185945283838,3.296547055408522,6.9337578915724505,-151.85774147695685,9.804364805190504,13.498821292299926
0.96,-321.512239883719,54.999965537880016,31.91192852291521,-133.44909668417964,36.68294520160758,198.42760125359584,-158.36541942975165,3.371377018288757,6.92565054081588,-151.50502639457005,9.72582559321052,13.809462931058071
0.97,-321.1976680314766,54.9436746634621,31.992757695337072,-133.31983181589356,36.01177623601511,198.50145625601075,-158.36467944554195,3.4647534102568898,6.924427283805829,-151.00953421313469,9.698849512368248,14.119988472838472
0.98,-320.4278091616345,54.98830819495573,32.40593560906749,-133.2702402364971,35.432118209690714,198.43689677032236,-158.49890519018464,3.544586528547446,6.873375277300415,-150.49746150319984,9.6109412162548,14.301394943512776
0.99,-319.8681414312262,54.94762649614298,32.85036716015523,-133.13384184853564,34.91759008103407,198.50208785990893,-158.5135052455086,3.6048466578056377,6.704976254929058,-150.0414158675625,9.577573609069493,14.497761430303392
1.0,-319.74881628880667,54.7607840383191,32.98871458183365,-132.86630695407916,34.44252476114606,198.67434093427272,-158.3684208473712,3.6165939981096193,6.499109839441436,-149.61838037602706,9.55591650881058,14.565400376670798
1.01,-319.44214374961064,54.75129436134198,33.09523457137332,-132.33122092263417,33.3272073997634,199.38058184018163,-157.9377196572106,3.688304221719272,6.30862726073763,-148.98883897682492,9.3731117674412,14.684567599531
1.02,-319.1309410256399,54.63832376294725,33.35519092337065,-132.17309065978526,33.13298330706065,199.36057974805644,-157.68695561836256,3.6939097470355775,6.205102669425127,-149.00325639433203,9.1457634991008,14.555057245336805
1.03,-318.8863537746217,54.43607230325822,33.6033792256248,-132.01671647514428,32.78599616735658,199.3665066465091,-157.53917747872163,3.822878531530532,5.999038350076174,-148.87710549410303,9.008428898616444,14.428534738547842
1.04,-318.688092842094,54.35915895493598,33.72873657297512,-131.87353065516632,32.45119826041713,199.37221450960195,-157.55320642063617,4.07563476070605,5.948177394599948,-148.60689504858604,8.878427633606114,14.195375195265171
1.05,-318.3749278483409,54.3850434220237,33.85521392399408,-131.69613272390032,31.939200846835075,199.55960890939076,-157.70573129330373,4.260864696141082,5.943413895922607,-148.2408266872453,8.693732409207673,13.89626814089862
1.06,-318.0555941135959,54.30104332533258,34.06150069056035,-131.57721176730615,31.7514221785956,199.67919762881476,-157.81896252086565,4.369452851190023,6.052455091463108,-148.01809591469882,8.454685552791418,13.578796257031817
1.07,-318.0109903403684,53.93631665719144,34.18574663051791,-131.43433979843817,31.625806309428103,199.6160717235008,-157.62236021328536,4.5118074424958055,6.2560845991611655,-147.79283853449206,8.190572958984733,13.266227515067577
1.08,-318.0534865772929,53.67777906737304,34.23886057809003,-131.38720541639367,31.34939590754685,199.53211153732315,-157.36961813092077,4.696813361205429,6.447067303745466,-147.21042047226138,7.876484242778747,13.055042604421828
1.09,-318.1157578444672,53.569684147057046,34.3108467757522,-131.33970025914084,30.99604682058832,199.60507929133263,-157.18414852273403,4.750473709122796,6.560204866199016,-146.30650403763266,7.715616921880952,12.993311624687264
1.1,-318.18994698126033,53.50155598584861,34.30542443049574,-131.24246093606408,30.82525774106575,199.6205486758331,-156.73458659457552,4.982532172057929,6.743897135967025,-145.4407706458728,7.556420911385176,12.946184271561464
1.11,-318.8796277756141,52.93336048249733,34.04803777491341,-131.1204216608923,30.4429783912116,199.80272430324564,-156.25369606350395,5.421259191475432,7.372457667455394,-147.23164874360705,6.858049763442045,13.103636478412948
1.12,-319.254544358376,52.746840461238335,33.86151216311368,-131.0715891454343,30.06956055948981,199.9994002838845,-155.68594239393693,5.79124735002984,7.684093969161222,-148.74172198798888,6.420589304296768,13.172978544281367
1.13,-319.5924380437542,52.68142032916373,33.71936536200053,-131.0144527188711,29.77034858639645,200.1794746488589,-154.55692965966955,6.185191849213203,7.9854309321529025,-149.55203035032076,6.310576039731913,13.746553134676756
1.14,-319.9521923480699,52.60603040028455,33.54256742057743,-130.95010497691368,29.63755141285268,200.3071236160264,-154.27517241540275,6.415794116580321,8.3979235506126,-150.01367121440452,6.2249177248349365,14.4340789518198
1.15,-320.1158154418333,52.57273123726766,33.426878929756285,-130.9846703643004,29.400240135981797,200.25849948813695,-153.9944525360548,6.608194966781355,8.804025590592488,-150.1327659600689,6.298673781511935,14.86377140423937
1.16,-320.3252921334461,52.650752633092765,33.303831617575774,-130.98276342012514,29.17661550371836,200.2572313827847,-155.04803311754063,6.688998569472818,8.998816430083947,-150.24353714698609,6.495959578834529,15.74726206902838
1.17,-320.5658245183603,52.75162118675116,33.1683515695171,-131.05884557599109,28.87701227725061,200.22558833974492,-156.6827049340871,6.620191463299486,8.886532570993076,-150.3155567661391,6.689248223370589,16.733615629559512
1.18,-320.7983604737435,52.94215237573511,32.931174777128234,-131.12814457300408,28.86286688075726,200.29358687358987,-157.58046857267027,6.5448816376059655,8.53012187689492,-150.1188903737164,6.945070579297044,17.813310385096518
1.19,-321.00668446159494,53.311169153511415,32.73374942874975,-131.13283053392735,28.93968337285095,200.24407179099848,-157.61233395638894,6.370290577136194,8.009680909589179,-149.8028058468837,7.31506195796065,18.933385435780888
1.2,-321.1299893571929,53.81832954838631,32.49570828377774,-131.25750970125773,29.05141343030709,200.24794998530055,-157.18380225044638,6.064123379709652,7.3162766483306525,-149.5533670488792,7.626061400380451,20.071400881783973
1.21,-321.32381901523155,54.99848935810889,31.905716386405103,-131.47903503186018,29.266671590021545,200.241566292715,-156.6014737376551,5.462912340266183,5.711636598252953,-149.07867464487762,8.456362007888853,22.371905547860827
1.22,-321.3651861972394,55.43340089714276,31.743370224828467,-131.66817331491978,29.532603474185795,200.1976237657624,-156.42350615820757,5.200290102315956,4.852539617293875,-148.8007597782425,8.941466178785047,23.636020106513705
1.23,-321.35990088244364,56.4610446420888,31.303665125753607,-131.82643361437567,29.822515120946434,200.10529782555545,-156.6427095306912,4.882082415230327,4.074471718190738,-148.55055168122607,9.559208049728658,24.86878441241611
1.24,-321.3645276586803,57.5064658169624,30.849772237590702,-132.06668341875996,30.11832205129541,200.0502078656748,-156.8680123078018,4.6113169682932895,3.3123236625107118,-148.17693053560353,10.134309445301774,26.32271087275081
1.25,-321.2066889255028,58.74879799071096,30.481571128226104,-132.2623106399057,30.518130919114277,199.94178805830464,-157.00283446130362,4.443428201035925,2.622596379671579,-147.68717776212387,10.803802137478804,27.75052567401598
1.26,-321.0137196923394,60.00357522166084,29.984754406047948,-132.5103124792578,30.991298328313075,199.8025568459083,-157.29699921692634,4.255213505405557,1.8644710945186465,-146.87214643771242,11.637501229102304,29.198893629750263
1.27,-320.8795520028798,61.31666232198699,29.4090623196394,-132.76340336258716,31.517506871670733,199.62310359188072,-157.36460347395516,4.020658109170823,1.043092059288628,-145.9202035128007,12.548149358818218,30.68973180173627
1.28,-320.69239641837095,62.68352865719371,28.78973538677472,-132.93163660204902,32.176781945239874,199.4320700834317,-157.62466337908222,3.603376964262528,0.2568016925964813,-144.92249180534645,13.446638057639005,32.18904186672014
1.29,-320.4987905182404,64.1241304422011,28.170424305061285,-133.17609216554376,32.898992040296875,199.2390297731684,-157.94006919951934,3.1224104221614644,0.5068798699333003,-143.94149256888926,14.30223939943322,33.80256323633803
1.3,-320.2606764463922,65.5129482523316,27.55994048121033,-133.4441867962877,33.804302130537984,199.1324425562904,-158.23707575101253,2.5172889941815884,1.265541669668692,-142.88300162494548,15.196465411041924,35.415248302080684
1.31,-319.81054443049,68.18768684017735,26.170080169330284,-134.00944958984385,36.05577268174422,198.6844593045247,-159.1112939518492,0.8873949507370322,2.8606773651393684,-140.6241824224427,17.243087028530606,38.57709241571974
1.32,-319.76004079223907,69.3968036954788,25.536728662286684,-134.23868348576136,37.30633226200868,198.4987302247016,-159.4921961983261,0.89596712706536,3.705733826158781,-139.43970553150217,18.50028851037508,40.30177437610391
1.33,-319.74625797268897,70.74190141709882,24.492245056858643,-134.3851773124797,38.74123703912916,198.3664620654331,-159.82444365183997,0.9533585503398933,4.494767201872849,-138.26062105984568,19.684371276467395,42.19070500977807
1.34,-319.73345726524434,72.11973827897698,23.369543948503907,-134.57556824727607,40.40651720899073,198.31447429374325,-159.99677414509418,1.504531656968977,4.855858635286236,-137.00065955137,20.82011011259101,43.995393980097056
1.35,-319.62646900513835,73.6721662199313,21.89498475499632,-134.75696612938185,42.06749655205019,198.240093259364,-160.2962948208744,2.5496301720428183,5.559312966389903,-135.70417632636068,22.316323833103397,45.8741195660549
1.36,-319.4949920617412,75.2434520286216,20.418767339482468,-134.84068554446625,43.87213441916572,198.1764960578377,-160.63629312271178,3.815824243522593,6.252054803783598,-134.36758160222482,23.87070601657037,47.94913350280535
1.37,-319.3124783581952,76.93457869231887,18.36419815960028,-134.83935143077466,45.81775794126929,198.16193801471616,-160.87291036305308,5.057705739228255,6.865617978793615,-133.45366053872553,25.3661781625998,50.24107680909519
1.38,-319.2298154515593,78.44363381049831,16.10441411510283,-134.38419494792836,47.82368592847016,198.1877136795828,-161.06727560479507,6.284835740207663,7.436961583840079,-133.12483436107988,26.74771422015809,52.74591139825547
1.39,-319.2502200221268,79.74587871720816,13.298841109563016,-133.81525319387623,49.992550229043786,198.2458269373096,-161.4416002187365,7.623454793792113,7.855539708873157,-133.40997481045656,27.83620029247389,52.76280137383172
1.4,-319.2991023230022,81.00255555024005,9.30444152872606,-133.2616864089134,52.32234285568866,198.24810838031047,-161.92455369084317,9.071809992165116,8.126367566817658,-133.7068689533025,28.941351008943908,52.74934082113698
1.41,-319.4421030585656,83.07643371601405,2.6224055483115727,-133.40919558674608,57.44615822707752,197.57076527876032,-163.5025222230102,11.948189718012792,7.561295843435668,-134.18426620935404,30.884845204421207,59.556033335497766
1.42,-319.36373583798246,83.74218507925134,2.6097617840573517,-133.69570906919276,59.98639275805507,197.136892989276,-164.87642114911745,13.499150177309556,6.672849911348551,-134.4228538418414,31.554958844790477,63.11314545168271
1.43,-319.16751360957653,84.24744625280194,2.6789147185416,-133.81918915432317,62.43396319472567,196.6079316335908,-166.67872995276284,15.187531945848775,5.364174553659586,-134.38100044555375,32.33839359548302,66.85802887612535
1.44,-318.92935090640145,84.74686635283112,2.734521027315968,-133.88161356582432,63.6434316080171,196.353677228237,-168.4474534477657,16.854066153199234,4.065929293843055,-134.44431062787777,33.188458646177246,70.72481462638673
1.45,-318.62941157607304,85.10613579389252,2.846758210981296,-133.8980850531609,65.94177957807295,195.92403281446136,-170.0750712150042,18.38586639701153,2.7382696595414373,-134.1241615977198,33.82110731249093,74.80219338754196
1.46,-318.36572552839147,85.36690121850037,2.935128173549175,-133.96249162294615,68.26472853019628,195.35284736556173,-171.49310941577122,19.95908057304445,1.3626806750228913,-133.75452752139967,34.37227021963844,78.93908657413652
1.47,-318.21695175700825,85.43660969765928,2.9168456930479696,-134.06244774705382,70.4858310171914,194.69144216823972,-173.0041677762503,21.37550819751526,0.060915330444053,-132.86804756073988,35.21249299194427,82.97035385056584
1.48,-317.99631892027764,85.44433659331514,2.93547195106427,-134.27111314887296,72.68039771251986,193.93669262620008,-174.74966565453732,22.94541299370334,1.8608493598598417,-132.02228929730506,36.06986799938722,87.00262776992375
1.49,-317.8002165675744,85.30763370197559,2.93699903732276,-134.3056209727215,74.62406069334841,193.1266302610761,-176.4298475670119,24.29471772010213,4.061410200089076,-131.47910810611373,36.56325535491424,90.92465859937008
1.5,-317.49623904913886,85.26467359571807,2.8795593995799957,-134.2529796685284,76.61929802679849,192.07007759188883,-178.11138040649493,25.56070980480126,6.371904198835748,-131.17415664832984,36.75285118181259,92.91605900211604
1.51,-316.7479441252746,85.23994822873503,2.671142173351836,-134.07003908555797,80.07135720272449,188.8044970763543,-181.82270774317155,27.61833929843793,6.363218473198102,-130.7471911706954,36.55072878172026,100.99470414871236
1.52,-316.47818868193696,85.28963109035877,2.613196298065952,-133.88206852467871,81.5738746570023,186.8697030935433,-183.36485696833043,28.305092347445168,9.113921486250788,-130.11398109754717,36.31152676210775,105.06199908806406
1.53,-316.1981147162717,85.30825340521699,2.525074066980688,-133.73143495758885,82.75491381272734,186.86386911708763,-184.94339235033613,28.79949352761984,12.053027522202862,-129.37743509674388,36.25225320833973,109.23075362726328
1.54,-315.8688664986531,85.38880263519731,2.5090357096235736,-133.58037375066266,83.94606139026716,186.88845276978333,-186.4443788068621,29.18803159490172,14.983447658549244,-127.74566012169484,36.18247073853077,113.24968771282504
1.55,-315.76814107047346,85.40417528001495,2.479022983748934,-133.46446500525468,84.94369448121759,186.86601575706297,-187.87525584469253,29.3564962649425,18.080120117990848,-125.85930020647868,36.2647702857542,117.18717685262368
1.56,-315.6345109702569,85.43044546947216,2.4848162124678685,-133.26321855065137,85.82041098761782,186.8602397106723,-189.3645545878186,29.36971551885969,21.256464804732342,-124.27671450738704,36.00437383214066,120.82360275423572
1.57,-315.49341456778274,85.42833929473294,2.477362851896733,-133.0688580604734,86.62923768988,186.81355769561867,-191.00244839629457,29.197117789949196,24.66930561356802,-122.6725488085123,35.74962827699165,124.42263079726844
1.58,-315.3555829576449,85.50987558370322,2.4861762820350486,-132.8749607809443,87.26121296129166,186.7486104578729,-192.47383429375188,28.89405749624443,28.10479707583484,-121.56067730865897,35.19197811629069,127.67749053934472
1.59,-315.1906734194024,85.50193462636989,2.5093870280782125,-132.700268966631,87.49746874781347,186.6771043486893,-193.6189336321148,28.62585418062808,31.25530355341436,-119.5821631541529,34.653121491495945,130.50740863748825
1.6,-314.9524999199894,85.5477634158432,2.416040331252385,-132.44586044679596,87.62350134960825,186.61533821564564,-194.2402345801856,28.414874146132117,34.13306366772193,-117.62784927933858,34.03279589734515,133.3658425518807
1.61,-314.4934137467222,85.74431950789206,2.373691417770856,-132.07201569047257,87.36262074877375,186.61697842883143,-195.00717514728265,28.11913122277028,39.55914970237704,-112.6282308772973,33.676887329932924,138.69356918709556
1.62,-314.3008703036469,85.78539884673286,2.299186985389141,-131.8860239104398,87.11248323483407,186.70081423411304,-195.00293638450543,28.001475139358508,42.1894505547918,-109.8040302302894,33.69394200302207,141.13127385716993
1.63,-314.04883009230593,85.86847182382198,2.2343279820190047,-131.7112579234619,86.86574934805401,186.69057699963025,-195.13790898629992,28.003649132611145,44.80457328574764,-109.79538147191036,33.678936183933075,143.43165271774652
1.64,-313.813023471529,85.93755515318063,2.248985518840717,-131.5726116517656,86.54711552017251,186.740050386956,-195.2532484174945,28.02840822268317,47.50647815338896,-109.61989108214448,33.75146168138578,145.62978226482738
1.65,-313.7065838644944,85.93991409414426,2.244327195052993,-131.37235578128664,86.3057490838368,186.818763610774,-195.26129669560453,27.977294170313343,50.1904067694956,-109.32200843191188,33.88283647108087,147.60048289194026
1.66,-313.5575555417046,85.99339849419988,2.1804757975325706,-131.27062580072828,86.20034565367126,186.80052825729055,-194.94466549879948,28.245513623793556,52.54404479959401,-109.22196220310953,34.16314825735034,149.456095655943
1.67,-313.4449618336652,86.04883490344727,2.130520431678302,-131.08049458091648,85.9973121499605,186.8068516490193,-194.31494931840436,28.571848479199307,54.8468922055309,-109.1076876352847,34.43635178364928,151.31414014379158
1.68,-313.30617729469145,86.06652597853261,2.049284584053624,-130.87434416364314,85.8162921795666,186.86733084502023,-193.4372723061716,29.108951538289837,57.18482892925573,-109.74654087879372,35.001703490142035,153.30603012990832
1.69,-313.2633205168541,86.10669560446277,2.0096054104347587,-130.709196265116,85.61427283713375,186.88786212732677,-192.56564226559,29.82397078923668,59.7927011873141,-110.3898054174193,35.50409591862416,155.1783277800537
1.7,-313.04132667268647,86.18574100198745,1.9280854733862751,-130.42204787620548,85.52247705761302,186.8518892075102,-191.68787055734717,30.511773337818667,62.393911631975406,-110.61833360233058,35.70554910796414,155.94036255792204
1.71,-312.87864637328715,86.2222539110651,1.8781899840624563,-129.8950183443751,85.5012065820142,186.82041464153127,-190.77029255925663,31.43745201273595,68.06353260862439,-111.44082727202954,36.420552706926415,158.8634538119961
1.72,-312.8105220450774,86.24081940051981,1.8705751796790957,-129.64014560514187,85.57489362365328,186.76720912076948,-190.38955513013528,31.740530656201777,70.9250015642687,-111.55769264323808,36.49546903122165,159.8712557190776
1.73,-312.7478086591602,86.32375217586828,1.8813603894649569,-129.32212939665428,85.55624522200394,186.71093657882545,-189.98737195550328,32.19345478091497,73.66984518549928,-111.80188988267555,36.55213537302368,160.8567648609621
1.74,-312.6616150804112,86.3821481824291,1.8397141506104813,-129.08168771599165,85.62671557238436,186.68708026385008,-188.7046735589429,33.18353387473248,76.12598861166228,-112.5592273239658,36.38675175180122,161.43990889601565
1.75,-312.5607770206202,86.4324729487834,1.7818025406168634,-128.88902661124374,85.56950350855274,186.6914521411913,-187.50440383792156,34.30935414382066,78.4358501755495,-112.51509434833667,36.00261424359259,162.17711357326272
1.76,-312.4914884614136,86.49204987755283,1.7187114782141153,-128.7036892101029,85.50724611162634,186.76431660991412,-186.0132425341895,35.25412340267962,80.68010926847724,-112.92715094103112,35.54602858609174,163.25594966368064
1.77,-312.38605304821976,86.55991656813413,1.6950980287204664,-128.5683151002879,85.53017046871915,186.70124854613655,-184.81480687304156,35.80761378650823,82.85938349364022,-113.816997401986,34.959031706495296,164.0686684770372
1.78,-312.24136686959184,86.62749136033075,1.6896108486901478,-128.46029132319845,85.55341322780072,186.6807126774751,-184.06071885242312,36.00023497432397,85.06667977878094,-113.74939274001316,34.13621554800651,164.87703337032545
1.79,-312.1881041875713,86.62122989723142,1.617216696958082,-128.38283826928225,85.49544694855372,186.71053355086195,-183.31886424914583,35.893344265252146,87.25253271129539,-114.38797326300237,33.261471641344464,165.6238238306341
1.8,-312.0645176810945,86.69705777841808,1.616144659343215,-128.32485572378178,85.44490212716966,186.74200165032448,-182.80120790218533,35.50013486713513,89.50975480546148,-114.41637102417188,32.24489484667699,166.37373577086103
1.81,-311.89823064889697,86.7563102712206,1.5533991350309817,-128.17933944535466,85.41567609592525,186.72590488256387,-180.70069608667296,35.24973559131816,93.62233522477348,-115.8772454850658,29.99702992747985,167.67608607725165
1.82,-311.80755832541576,86.81008213685232,1.565032003303682,-128.01272136315336,85.42912402285025,186.68016564974087,-179.23670361629112,35.38399560572641,95.44492941716196,-115.5768765245256,28.87118296750225,167.7418694931214
1.83,-311.7430921258924,86.80685673093592,1.5359249120219307,-127.82588258839291,85.40864106414034,186.688967174632,-178.1351289990799,35.30538145516158,97.29669383263877,-115.88005888535425,27.73875513082586,167.6279767851776
1.84,-311.6912192476776,86.81749661297776,1.5448761587929194,-127.6327390449142,85.37719280794977,186.70807971357385,-177.25078889185644,34.88560903553197,99.15704812800185,-115.9524290948206,26.815495049831608,167.6797753365962
1.85,-311.7040129941733,86.81478705780358,1.5605420430696768,-127.4369875336642,85.26965761808054,186.69607358788235,-176.57545278173495,34.37160330476888,100.98683352202816,-116.19087336394762,26.098416403100455,167.65947926966427
1.86,-311.6911222207363,86.82731751140672,1.5613914589722522,-127.2757983856008,85.31431696981318,186.69383598450435,-175.6790655707003,33.93067941767443,102.84296755609051,-117.37148561883944,25.559740223223,167.68377122914362
1.87,-311.7015332739375,86.75148626203251,1.486997424755423,-127.14151146910868,85.49431693298749,186.7030644362064,-175.43971537574038,33.88161397761756,103.74341042115648,-117.90021173144088,25.15403236144218,167.64233757052813
1.88,-311.68799446542414,86.7423154486827,1.490178130864113,-127.01838883762372,85.60476853013289,186.7053199041107,-174.22380824655983,33.923016259530165,105.54231713870033,-118.45555415612635,24.742033783610196,167.6308569866553
1.89,-311.75928957414544,86.67886861481227,1.501905858164698,-126.94908214973309,85.84632362932852,186.60403986990627,-173.0041116384263,33.98311252997652,107.30438513170444,-118.3749155889262,24.50620571967447,167.4391215416285
1.9,-311.8660106942874,86.63017184523184,1.4946508719769176,-126.8789554908509,86.06854292326405,186.49691581346647,-171.7067413712211,34.31000056611936,109.04881560865658,-118.49175187356596,24.10727252252268,167.3677338809138
1.91,-311.87948517682986,86.55607419496025,1.4354515318008878,-126.88282251508056,86.46343659762226,186.3198447470992,-168.17353371181352,35.372030873254744,112.3289841703465,-119.99468950802192,23.48358852824061,167.05561403195543
1.92,-311.95071445342944,86.4945048452726,1.42913074517974,-126.7462119475203,86.6887620479216,186.24827302771743,-166.54485082883156,35.751071465894206,113.87457524408651,-121.00286041228054,23.105410529462237,167.36653140944182
1.93,-311.893441094669,86.45473226310659,1.4578347734417585,-126.75699358857293,86.88938566815655,186.18166737273503,-165.19124680336247,35.93895464623885,115.30829004228556,-121.80863852986656,22.88074286332169,167.3635906534247
1.94,-311.8126097375882,86.43242688788071,1.4762757371042643,-126.68822722953516,87.24869163261789,186.0378082859236,-164.30575175449275,36.11250190384638,116.68275340083534,-122.26191418181476,23.024034217870707,167.35449281210148
1.95,-311.81740239020206,86.3851026730223,1.5393985762662392,-126.63843504829964,87.49558543829518,185.94093756752383,-162.87705864217284,36.29468102913029,117.9355911487248,-122.74626379140096,23.19167506697473,167.29920612901697
1.96,-311.8063506508804,86.35789225675362,1.5514799879849597,-126.54986219118142,87.79361743712951,185.87482071825303,-161.6141462842357,36.62551859896082,119.10749141818302,-123.31105128234972,23.753588267251228,167.37848086461264
1.97,-311.7492599428594,86.30360869520209,1.5338414938321028,-126.44901057428856,88.1964464755897,185.7573334759213,-160.13950614036665,37.1300556682502,120.19225227387795,-124.03246918049172,24.133579788239643,166.92746442549168
1.98,-311.7514821462566,86.31098166584273,1.619322448292247,-126.4122662121884,88.46166770792802,185.59626189823263,-158.64252845580668,37.44387959535944,121.30918779312316,-124.76152608091076,24.501451068734813,166.49434816119037
1.99,-311.69034536095063,86.24779676274042,1.6902275380145677,-126.38181463731244,88.72891585189215,185.44084123268652,-157.2505980135562,38.052264812464976,122.56056391954137,-125.23805833230284,24.75213844919553,165.6981920482955
2.0,-311.6201774770254,86.2500236716929,1.6859367702288963,-126.26651956373271,88.85551688700312,185.4483839895404,-155.18899617830226,38.90217522191858,123.82059523830809,-126.57168242132964,24.99111987564497,164.867504699556
2.01,-311.688816771126,86.14664520015513,1.7424612813906537,-126.30317200043844,88.70973541929722,185.6288112269082,-152.04702011020498,40.1968265817018,125.50672800101104,-129.86222124436966,26.37100604186631,163.48197875758467
2.02,-311.87902233958965,86.0597880818492,1.744870835134032,-126.26476498039266,88.49682477159203,185.7629316732281,-150.24241856272516,40.81471114383198,126.56387620062388,-131.55967668091424,27.19418130700599,162.56225730847368
2.03,-312.0942167981136,85.9621027529899,1.7011385728686648,-126.19241436578248,88.19034017224033,185.8190953802042,-148.7477584019001,41.31597190130991,127.43915801714972,-131.79343819451282,27.935344647667897,161.04659573096248
2.04,-312.3040780407571,85.86185268015437,1.681274047497158,-126.07025896575504,87.7434902786267,185.89196258141868,-147.24562247510107,41.74531623210915,128.32351213471338,-132.50356007758157,28.239956554312577,159.68204881104083
2.05,-312.4412596697513,85.80190316595166,1.7024265804033325,-126.15511488544796,87.50011259772587,185.99927662003668,-145.31747794058188,42.44356228023143,129.27240840578867,-133.06305085805272,28.439176318777648,158.5616973248487
2.06,-312.5684133815185,85.68251453564876,1.678984797909872,-126.22380826254673,87.19439890565349,186.0424578565673,-143.31231311947536,43.43517220288256,130.24776573353924,-133.6009110376337,28.702315367569184,157.56018352822775
2.07,-312.6726803675021,85.55038342327795,1.609925555750629,-126.38331569321304,86.69770384918084,186.14369193602337,-141.11960545033,44.49059272449168,131.1143031380803,-134.50574372428483,29.306626840338563,156.29990993014252
2.08,-312.7534665542433,85.484208628153,1.6731869357096758,-126.56838743701972,86.19926623827911,186.2550918995389,-139.55605220255708,45.30903584295578,131.6888312697679,-134.8670876618149,29.867328641578908,155.11891815523964
2.09,-312.74211168047924,85.36979253978302,1.666392719316426,-126.69146686545312,85.83283415947365,186.32651609349125,-138.43068257232068,45.687827504877,131.93416776675045,-134.96238543343568,30.05634053501007,154.55015543769233
2.1,-312.6398597024352,85.3831546712944,1.802181875903424,-126.75961359685554,85.39593974761543,186.3875929901592,-137.9077669253131,45.62645936159533,132.11654582099624,-135.05816043008204,30.12355540981656,153.55006844630145
2.11,-312.32036342576345,85.29242911821277,1.922408900612942,-127.0084738709974,84.25319878124759,186.4943895572049,-136.08449155495288,46.357324414089625,132.75550913898184,-133.8134591571453,30.26071563270174,150.74353709877747
2.12,-312.2241120710859,85.23027184099173,1.950538312851248,-127.049222790098,83.998181366294,186.5203278327212,-134.12987319752915,47.6230861844172,133.43390793801217,-133.61620548808347,30.605916319629458,149.8058142605685
2.13,-312.1243072973123,85.18113109935351,1.988383596737644,-127.21004675463163,83.62696733639807,186.50257332163463,-132.80078668503432,48.38004508179321,133.7917539576163,-133.68891421832865,30.766188005757417,149.31340399872633
2.14,-311.9861885846045,85.23847268196003,2.0485489038940274,-127.2606323121474,83.3069529886823,186.4314360688316,-132.38136404761747,48.56407438031835,133.80494418144195,-133.3921232368243,30.49588039936823,148.64094429405728
2.15,-311.8628272371655,85.32031050158457,2.068165405802304,-127.25317236819284,82.8104715592554,185.38291814156295,-132.42499609328624,48.687918915365564,133.69536139467598,-132.82795851720678,30.08341665452638,147.64728818784604
2.16,-311.69297503110926,85.4588015329945,2.116466227577873,-127.27263091901014,82.26139558481127,185.0584823498856,-132.00806887279614,48.871375787855705,133.50245181437106,-132.24705987776366,29.68896036664506,146.6866416172879
2.17,-311.62507281948416,85.43434308016097,2.129786770827839,-127.3092579282592,81.86968044021809,185.08840396134897,-131.12311460234298,49.32039964065259,133.54566833648536,-132.02336777798277,29.496185849057124,145.975797275542
2.18,-311.5576654986009,85.49045137986873,2.1053694545918007,-127.26870518970694,81.63514891723719,185.06976654285447,-130.2625384291626,49.58200626345467,133.63245035576733,-131.88526165506076,29.323178749969284,145.23660214783837
2.19,-311.492333219714,85.5689646509598,2.1235111261668944,-127.12969726432895,81.15777131997956,184.8875539493726,-130.16534535543124,49.424559087960326,133.4726874713234,-131.8812746213883,29.107463425349486,144.74133003638084
2.2,-311.37359352833136,85.59373960705629,2.149227465088392,-127.00475992853174,80.55981285424649,184.746187936169,-130.06602789720762,49.24257495988418,133.29634651579113,-131.87142848166556,29.12262809317625,144.2879224011878
2.21,-311.1249136025371,85.60809758085735,2.163194555105141,-126.8273160394508,79.86696448430064,185.44163930782585,-129.9205535908926,48.69036433093757,132.79801247282572,-132.29883651207925,29.2655558301974,144.05634486337203
2.22,-311.12617465615926,85.613803382931,2.1975861658498603,-126.68476808390228,79.50843702167823,185.55945718453643,-129.56438533136256,48.75841465681201,132.8156296417703,-132.4384173096181,29.21586822418754,143.7412635958222
2.23,-311.13664915424124,85.63342682820176,2.1746239402480683,-126.57767317616889,79.06184749096316,185.39012820070323,-129.12804941489455,48.92290808809997,132.87354542376863,-132.5491969246463,29.1989125764816,143.4257747581297
2.24,-311.25375889099786,85.61999592511546,2.122870424178636,-126.38715522748338,78.67060642817496,185.26303654171323,-128.9440237893607,49.13883017058959,132.86477178586208,-132.5007327254286,29.056216233462525,143.0393110897692
2.25,-311.3171858058204,85.6225387878483,2.0436476300321966,-126.21688285316536,78.57098400764056,185.36947055064132,-128.87242705167745,49.172797610348695,132.6814763738072,-132.66279280194613,29.09145707259667,142.7177634604437
2.26,-311.4402134822187,85.62214990516047,2.053383395710523,-126.00595303479548,78.25469272807626,185.44478874977065,-128.63462733748233,49.12025319793358,132.48550548195644,-132.81723189030282,29.1388616492048,142.37460460179
2.27,-311.6217864721182,85.60975779323014,1.985979195030093,-126.00483752443624,77.94672106942002,185.44073840770335,-128.3716782398945,49.05334606371625,132.2886394464454,-132.7507004201569,28.85240526824645,141.80039717687586
2.28,-311.88199055500667,85.55816816582707,1.9327655214787396,-126.0777119176292,77.80001751963823,185.56266910168569,-127.85644122448495,49.24795963729622,132.2365733418238,-132.49779602747626,28.631517332483583,141.05214663603553
2.29,-312.1175330499624,85.53335887940074,1.856746789349841,-126.15343314656464,77.71003098036405,185.68065634762735,-127.54060553061495,49.44286691198083,132.178855879525,-132.20599845263362,28.57331174467553,140.35301562212925
2.3,-312.38096657612084,85.42904258464034,1.7993924174373086,-126.07183562063942,77.44165681559474,185.8349789924916,-126.85694037318676,49.63656121912693,132.2662497621736,-132.43912586753885,28.87404908666586,139.99107705039444
2.31,-312.821630472946,85.40204609064715,1.7891752775001917,-126.3055420568162,77.06951357698557,186.45589023538557,-126.31656187560849,49.74144519974126,132.1809515138312,-133.43830749728957,29.871988426979115,139.98260838458435
2.32,-313.0095457634769,85.37072936540471,1.744297218093173,-126.38422604231806,76.96364985414326,186.32990425793983,-126.3706384748087,49.63580969064122,131.922880770385,-134.17477356669824,30.368426034282944,140.03889730549005
2.33,-313.1851670070348,85.37549663659986,1.741318446371692,-126.43533117744953,76.68810200977173,186.0437790759754,-126.24909560851124,49.67109899078312,131.91830827737587,-134.8681898801822,30.876130275045185,140.10774038069027
2.34,-313.3013608158775,85.39325908548797,1.6584706686914847,-126.63956696069788,76.49526546902506,185.8621237096949,-125.74645477451004,50.081362276414495,132.07187273389627,-135.55444018622254,31.55069176182067,140.24588836189844
2.35,-313.51500599312004,85.37897941294057,1.6786851121104265,-126.82554573123863,76.38362826730966,185.7060811352944,-125.22786482929504,50.43098903076972,132.21776446552644,-135.56032424708613,32.257017527072136,140.14087775340766
2.36,-313.578304494194,85.38823855249886,1.67369728182089,-126.94778341291868,76.30062043017706,185.51398287181755,-124.68325309663597,50.829319334868536,132.37305138380893,-134.74294070635682,32.962077371279804,139.91741237186687
2.37,-313.62097984482745,85.38336567941323,1.5925341763329932,-127.1367385160008,76.18552843746708,185.14295844925363,-124.25855085763344,51.1988624581481,132.41867949028943,-134.25005653409255,33.63122931282213,139.8090246341986
2.38,-313.6725861908145,85.3735368896868,1.6174760393429335,-127.32417840086444,76.29971725167385,184.68935248435287,-123.92425004144324,51.60266930140424,132.34321795935713,-133.8653464618797,33.983258629498906,139.73646278837967
2.39,-313.7549356567093,85.32922908909407,1.5794261433304868,-127.56426774486503,76.44945574004853,184.31836681465788,-123.5445439992171,51.98922917963642,132.25311976418632,-133.63070071853545,34.453509436315514,139.37483146504997
2.4,-313.803736787754,85.23448303170754,1.556089998183731,-127.7526009712369,76.5022168945017,184.07604859204056,-122.87742284760373,52.62699483233561,132.19158406543914,-134.062385760288,34.49262147971001,138.8224794614849
2.41,-313.9128617669758,85.13556142402214,1.4620224285084502,-128.03474179309927,76.52892988055176,183.5592476145254,-122.1209094451592,53.50073756301495,131.63088476004583,-134.1720412075423,34.93495773954383,138.03178168452231
2.42,-314.00684619806646,85.05580477724232,1.4352139116998537,-128.13341343229132,76.61052862969005,183.2739885169542,-122.24210624636612,53.56075396956148,130.93795535226334,-133.99055337211828,35.19765990057791,137.80238186871824
2.43,-314.06053143894866,84.99265638792231,1.4264632346849884,-128.27112137228622,76.60509148634901,182.8812694331203,-122.5522992534972,53.57874168617467,130.1283876587455,-133.74786593725617,35.51106274615322,137.66939826326808
2.44,-314.1716166161053,84.94924867019117,1.393437694987404,-128.46249528607,76.6767190335167,182.6529707905144,-123.009905280463,53.43211042935281,129.33020983162172,-133.41045652043215,35.835675259847456,137.55289767883298
2.45,-314.3025674402525,84.81283324157015,1.361914556725511,-128.6241982158775,76.75283616985699,182.43007581946188,-123.36374023645082,53.44822732069168,128.66999964249973,-133.0685116442047,36.19018986163523,137.4265532237671
2.46,-314.42596174533304,84.81411526692864,1.3760180025219155,-128.8306195067607,76.81421554385585,182.1285141114921,-123.44904047087728,53.753498088469954,128.2421460115484,-132.6400560462028,36.69079359814615,137.32351446479737
2.47,-314.5570622131931,84.75726468179269,1.293215287001223,-128.94704916172157,76.92407595551956,181.87693255686588,-123.55846666983796,53.9886332721491,127.8586871546084,-132.18033076854223,37.25546275959684,137.11788439438754
2.48,-314.60258553017576,84.71268716741525,1.3089082207866642,-129.00466595316715,77.05666209786716,181.49476652798327,-123.73263605074786,54.19698874073201,127.43326029551032,-131.7472118436628,37.81414609188933,136.8591447930047
2.49,-314.6393117948835,84.68716278748853,1.3078990424808656,-129.0242373156837,77.36121069041397,181.1217320392749,-123.95027882944387,54.31498209840436,126.85946307731577,-131.43023549480452,38.30089049070263,136.73154666429195
2.5,-314.6956471115016,84.68855639724578,1.2728593041321457,-129.07089281746153,77.60785691296988,180.6861055769924,-124.19258216481455,54.4318272335034,126.31678314293453,-130.87447285836527,38.99569528412048,136.67621294196684
2.51,-314.7554511712436,84.55945060394934,1.2448734678272448,-129.20227888518332,78.06686984376532,179.94966101354242,-124.6996712358619,54.557157598426414,124.554564386158,-129.35798118065026,40.41056353006014,136.7698818800258
2.52,-314.69964799420075,84.49928955976753,1.3020999488570515,-129.20772887556922,78.36498593651669,179.5100895758921,-124.51277616790016,54.8760073431414,124.11763209539788,-128.6008898795555,41.061160307529015,136.81391237459366
2.53,-314.6256387252307,84.44526581329406,1.3007666337042998,-129.18885244769646,78.48313954541565,179.28092279762427,-124.24775479035038,55.19036505230277,123.74608445785114,-127.92254064189848,41.54632349110763,137.25121502291557
2.54,-314.5425514270988,84.37193359628257,1.2994849997591666,-129.2099176196294,78.63090874598136,179.01114065123798,-124.02758002931418,55.47534133774583,123.4491341881933,-126.37157485741125,42.310619549790864,138.68732701419674
2.55,-314.50253087932765,84.3605248583306,1.3046784153402555,-129.2658266105089,78.69915459688386,178.9580935579916,-123.80221962963536,55.74693572585024,123.11440743710835,-124.8776803930895,43.05291679050301,139.9768617084669
2.56,-314.4439966778755,84.31555219134701,1.2992039352784688,-129.12203342524964,78.82498010303574,178.95438368689636,-123.58045590099007,56.053237171911135,122.80436419201318,-124.1236648029618,43.42954550752205,140.4976437546723
2.57,-314.3708576296398,84.31924966541548,1.3004815721018774,-129.0032975852289,78.94290993179233,178.89294732524172,-123.45475738789372,56.13594975743995,122.67968335508908,-123.3440085304939,43.80618451218836,140.8713338174232
2.58,-314.31568525755875,84.27301561322899,1.2903017052287002,-128.95509801688596,78.95495400822878,178.94579788135258,-123.36165297326764,56.25544188203703,122.56421764459428,-123.13006369524896,43.99820434739357,140.98492263859174
2.59,-314.2334199015791,84.25524708452026,1.2925729395254102,-128.81793677916832,78.82209207363367,179.0732583328424,-123.3727217839308,56.19695205165521,122.64011678364388,-122.87446159610388,44.38766255018516,141.24686644613735
2.6,-314.31586441310014,84.26081199843003,1.254395543565584,-128.66200526947833,78.76794705239853,179.14201088746125,-123.18743176445504,56.28580738333712,122.74040823429448,-122.51398873018265,44.74679471217633,141.7502855333876
2.61,-314.56333781889816,84.18614569369639,1.1274017155834066,-128.2556141328606,79.05648889139111,178.6483139342701,-121.62691410098552,57.67947054158245,123.37317020232254,-121.5780770805162,45.462144251344135,142.86637324574326
2.62,-314.6854287666485,84.21062051542773,1.0440012040616162,-128.12939123712647,79.19164051563072,178.38184975079687,-120.43251619918593,58.580537034702935,123.92674309573226,-121.30414184112855,45.6918470922128,143.13190942103435
2.63,-314.8788531040775,84.18528366864614,0.9765372130469556,-127.94682153890024,79.19123688852048,178.2659348619489,-119.42972134209262,59.33360706160548,124.3644241420656,-121.37151515532366,45.76361338042428,143.24474051249877
2.64,-315.11067081174576,84.13221532498976,0.9413707385864224,-127.83460377882284,79.17847117925257,178.06932660273785,-119.179145735633,59.6937592399415,124.43078682679236,-121.63089895669606,45.68714390436272,143.1622089316835
2.65,-315.3138143276884,84.1463503916464,0.8487416393416019,-127.81029241321254,79.22576609227986,177.83950075828437,-119.062157102093,59.69262792670612,124.30791542951636,-121.88309073441872,45.68531799994389,143.18293881809646
2.66,-315.4916826081444,84.0541269876193,0.8724401980171596,-127.818281844744,79.2513192547774,177.65137986175188,-118.85186738291948,59.80453206282387,124.1781508165048,-122.13808029975918,45.75052228102016,143.18499982440758
2.67,-315.62687600923465,84.0634645699518,0.7988055926696788,-127.8805754871522,79.10963673161079,177.70905493734406,-118.32023760745216,60.17364766398885,124.26287300365458,-122.31450370379848,45.70485194334364,143.18752640552702
2.68,-315.7376166150787,84.002251771881,0.7318931494337063,-127.995555639769,79.07049465628796,177.75134388637613,-117.55998958394842,60.74387324055596,124.56308216811036,-122.61939749660937,45.631951920155664,142.97450373105494
2.69,-315.93254168274564,84.0041855295726,0.7290608585525538,-128.08673985434632,79.07548999533168,177.70112388145586,-117.05940614862298,61.2457607608978,124.806133810152,-123.12988440735928,45.50121705805908,142.67411369504268
2.7,-316.217596318256,83.94311386384285,0.6848632833496047,-128.262852758053,78.99799495734537,177.6412324886391,-116.5700992736094,61.6130448347412,124.99165158122746,-123.31747887884777,45.38551136110486,142.4417582271919
2.71,-316.8275711805928,83.80626912998763,0.5488974220010168,-128.63678555761211,78.86957231550142,177.18248047447534,-116.12599637574294,62.24045099529499,124.88037692805268,-124.05816396457354,45.18539925934192,142.05419667302886
2.72,-317.03471933922265,83.80041297204046,0.504973354729805,-128.81006221343227,78.95182316665338,176.8043983432557,-116.02127545377928,62.506896087828366,124.56045116170276,-124.12364119107168,45.11525869634281,142.1173842093316
2.73,-317.31453902817685,83.74813914208775,0.4141747591235418,-128.96260654688746,79.00845462389627,176.45872805982444,-115.98873833661884,62.60793690333801,124.2230807794712,-124.25009439918104,45.0074047701744,142.16231596717174
2.74,-317.550170615542,83.69221853610749,0.3577904603096227,-129.13357746832585,78.9441974022035,176.07219366469008,-115.98871144136348,62.77497003666711,123.85882822312036,-124.56135144925196,44.74710433472035,142.07020751104747
2.75,-317.80609291773635,83.6551169874973,0.2874759949147275,-129.37699614644575,78.87163526852274,175.9527708076726,-115.92007080918918,62.93995682719379,123.81101856082888,-124.99350106923715,44.5060017421953,141.80318203674184
