0.01,-110.63,75.5,177.56,0.01,0.02,0.01,0.05,0.07,0.29,0.44,0.66,0.33,0.51,-100.69,84.31,174.81,0.02,0.02,0.02,0.07,0.04,0.06,0.45,0.59,0.4,0.54,-152.38,1.19,5.5,0.02,0.01,0.01,0.03,0.1,0.04,0.0,0.05,-0.97,0.24,-118.25,11.63,8.69,0.03,0.01,0.01,0.13,0.04,0.18,-0.05,0.12,-0.85,0.52
0.02,-110.63,75.56,177.56,0.01,0.02,0.01,0.03,0.06,0.24,0.44,0.66,0.33,0.51,-100.75,84.25,174.81,0.03,0.07,0.02,0.07,0.03,0.23,0.45,0.59,0.4,0.54,-152.38,1.19,5.5,0.02,0.01,0.01,0.03,0.02,0.05,0.0,0.05,-0.97,0.24,-118.25,11.63,8.69,0.02,0.02,0.01,0.08,0.12,0.01,-0.05,0.12,-0.85,0.52
0.03,-110.63,75.56,177.5,0.02,0.01,0.01,0.1,0.06,0.15,0.44,0.66,0.33,0.51,-100.75,84.19,174.81,0.05,0.06,0.04,0.03,0.07,0.33,0.45,0.59,0.4,0.54,-152.38,1.19,5.5,0.01,0.01,0.02,0.09,0.04,0.04,0.0,0.05,-0.97,0.24,-118.25,11.56,8.69,0.01,0.02,0.03,0.1,0.13,0.01,-0.05,0.12,-0.85,0.52
0.04,-110.5,75.56,177.5,0.02,0.01,0.01,0.02,0.05,0.09,0.44,0.66,0.33,0.51,-100.69,84.19,174.75,0.04,0.07,0.03,0.06,0.02,0.26,0.45,0.59,0.4,0.54,-152.25,1.19,5.5,0.01,0.01,0.02,0.09,0.06,0.03,0.0,0.05,-0.97,0.24,-118.25,11.56,8.69,0.01,0.04,0.03,0.1,0.02,0.01,-0.05,0.12,-0.85,0.52
0.05,-110.44,75.56,177.5,0.02,0.02,0.01,0.04,0.05,0.22,0.44,0.66,0.34,0.51,-100.75,84.25,174.75,0.1,0.1,0.02,0.23,0.14,0.31,0.45,0.59,0.4,0.54,-152.25,1.19,5.56,0.01,0.01,0.01,0.05,0.01,0.04,0.0,0.05,-0.97,0.24,-118.25,11.5,8.69,0.01,0.06,0.03,0.02,0.04,0.01,-0.05,0.12,-0.85,0.52
0.06,-110.37,75.56,177.5,0.02,0.02,0.01,0.07,0.05,0.35,0.44,0.66,0.34,0.51,-100.81,84.25,174.75,0.08,0.09,0.03,0.17,0.05,0.15,0.45,0.59,0.4,0.54,-152.31,1.19,5.56,0.01,0.01,0.01,0.03,0.08,0.03,0.0,0.05,-0.97,0.24,-118.25,11.44,8.75,0.02,0.04,0.02,0.02,0.05,0.04,-0.05,0.12,-0.85,0.52
0.07,-110.37,75.56,177.5,0.01,0.02,0.01,0.08,0.14,0.35,0.44,0.66,0.34,0.51,-100.81,84.25,174.75,0.06,0.15,0.02,0.13,0.06,0.1,0.45,0.59,0.4,0.54,-152.31,1.19,5.56,0.01,0.01,0.01,0.07,0.01,0.04,0.0,0.05,-0.97,0.24,-118.25,11.44,8.69,0.01,0.03,0.01,0.07,0.07,0.15,-0.05,0.12,-0.85,0.52
0.08,-110.34,75.56,177.47,0.01,0.02,0.01,0.06,0.08,0.23,0.44,0.66,0.34,0.51,-100.69,84.19,174.69,0.06,0.05,0.01,0.11,0.14,0.2,0.45,0.59,0.4,0.54,-152.31,1.19,5.56,0.01,0.01,0.01,0.03,0.09,0.01,0.0,0.05,-0.97,0.24,-118.19,11.38,8.69,0.01,0.03,0.07,0.01,0.02,0.05,-0.05,0.12,-0.85,0.52
0.09,-110.31,75.56,177.44,0.01,0.03,0.01,0.05,0.01,0.11,0.44,0.66,0.34,0.51,-100.69,84.19,174.75,0.03,0.09,0.01,0.08,0.03,0.13,0.45,0.59,0.4,0.54,-152.19,1.19,5.56,0.01,0.01,0.02,0.04,0.22,0.13,0.0,0.05,-0.97,0.24,-118.13,11.38,8.69,0.01,0.03,0.05,0.06,0.1,0.03,-0.05,0.12,-0.85,0.52
0.1,-110.31,75.56,177.5,0.04,0.04,0.01,0.02,0.01,0.15,0.44,0.66,0.34,0.51,-100.62,84.19,174.69,0.04,0.06,0.03,0.1,0.01,0.1,0.45,0.59,0.4,0.54,-152.12,1.19,5.56,0.02,0.04,0.05,0.12,0.03,0.12,0.0,0.05,-0.97,0.24,-118.06,11.38,8.69,0.01,0.03,0.02,0.21,0.09,0.16,-0.05,0.12,-0.85,0.52
0.11,-110.25,75.5,177.5,0.04,0.05,0.01,0.09,0.03,0.36,0.44,0.66,0.34,0.51,-100.69,84.19,174.69,0.03,0.03,0.03,0.3,0.07,0.15,0.45,0.59,0.4,0.54,-152.06,1.25,5.56,0.02,0.05,0.02,0.03,0.09,0.15,0.0,0.05,-0.97,0.24,-118.06,11.31,8.69,0.01,0.03,0.01,0.45,0.11,0.29,-0.05,0.12,-0.85,0.52
0.12,-110.31,75.5,177.56,0.02,0.03,0.01,0.07,0.06,0.37,0.44,0.66,0.34,0.51,-100.69,84.19,174.69,0.02,0.04,0.02,0.31,0.1,0.1,0.45,0.59,0.4,0.54,-152.06,1.25,5.62,0.02,0.02,0.01,0.08,0.04,0.04,0.0,0.05,-0.97,0.24,-118.06,11.31,8.69,0.01,0.02,0.01,0.6,0.08,0.52,-0.05,0.12,-0.85,0.52
0.13,-110.31,75.5,177.5,0.02,0.02,0.01,0.2,0.01,0.41,0.44,0.66,0.34,0.51,-100.69,84.13,174.69,0.02,0.13,0.01,0.02,0.07,0.05,0.45,0.59,0.4,0.54,-152.06,1.31,5.56,0.03,0.03,0.03,0.12,0.13,0.01,0.0,0.05,-0.97,0.24,-118.06,11.31,8.69,0.02,0.02,0.01,0.81,0.05,0.9,-0.05,0.12,-0.85,0.52
0.14,-110.31,75.62,177.5,0.01,0.02,0.01,0.78,0.18,0.65,0.44,0.66,0.34,0.51,-100.69,84.06,174.62,0.04,0.1,0.01,0.13,0.14,0.05,0.45,0.59,0.4,0.54,-151.81,1.31,5.56,0.04,0.05,0.06,0.13,0.11,0.03,0.0,0.05,-0.97,0.24,-118.06,11.38,8.69,0.01,0.02,0.01,0.9,0.26,0.98,-0.05,0.12,-0.85,0.52
0.15,-110.19,75.81,177.38,0.11,0.34,0.01,1.52,0.07,0.22,0.44,0.65,0.34,0.51,-100.69,84.0,174.62,0.01,0.11,0.01,0.01,0.02,0.07,0.45,0.59,0.4,0.54,-151.81,1.37,5.5,0.03,0.04,0.02,0.03,0.08,0.05,0.0,0.05,-0.97,0.24,-118.13,11.38,8.69,0.05,0.02,0.01,1.03,0.53,0.48,-0.05,0.12,-0.85,0.52
0.16,-110.12,76.22,177.28,0.1,0.3,0.02,1.11,0.04,1.02,0.44,0.65,0.34,0.52,-100.69,84.0,174.62,0.01,0.06,0.01,0.14,0.21,0.01,0.45,0.59,0.4,0.54,-151.75,1.37,5.44,0.04,0.03,0.01,0.06,0.01,0.05,-0.0,0.05,-0.97,0.24,-118.13,11.31,8.63,0.06,0.05,0.01,1.07,0.26,0.22,-0.05,0.11,-0.85,0.52
0.17,-110.06,76.62,177.19,0.08,0.25,0.02,0.7,0.01,1.81,0.44,0.65,0.34,0.52,-100.69,84.0,174.62,0.06,0.01,0.05,0.14,0.02,0.3,0.45,0.59,0.4,0.54,-151.75,1.44,5.44,0.02,0.02,0.02,0.24,0.12,0.16,-0.0,0.05,-0.97,0.24,-118.0,11.25,8.5,0.13,0.13,0.1,1.03,0.04,1.31,-0.05,0.11,-0.85,0.52
0.18,-110.06,76.69,177.12,0.04,0.04,0.03,0.19,0.1,1.3,0.44,0.65,0.34,0.52,-100.69,83.94,174.56,0.14,0.12,0.07,0.33,0.38,0.06,0.45,0.59,0.4,0.54,-151.75,1.37,5.44,0.01,0.02,0.04,0.49,0.15,0.43,-0.0,0.05,-0.97,0.24,-117.87,11.12,8.31,0.17,0.14,0.1,0.68,0.28,2.16,-0.05,0.11,-0.85,0.52
0.19,-110.56,76.34,177.66,0.14,0.22,0.03,0.85,0.11,1.27,0.44,0.65,0.34,0.52,-100.87,83.62,174.44,0.33,0.44,0.13,0.71,0.17,0.2,0.45,0.59,0.4,0.54,-151.94,1.31,5.37,0.02,0.09,0.15,0.53,0.02,0.67,0.0,0.05,-0.97,0.24,-117.75,10.94,8.13,0.17,0.15,0.13,0.5,0.31,2.62,-0.04,0.11,-0.85,0.52
0.2,-111.06,76.0,178.19,0.23,0.39,0.03,1.51,0.12,1.25,0.44,0.66,0.34,0.51,-101.0,83.22,174.44,0.29,0.49,0.09,0.66,0.13,0.27,0.45,0.6,0.39,0.53,-152.12,1.25,5.31,0.08,0.09,0.19,0.74,0.92,1.12,0.0,0.05,-0.97,0.24,-117.56,10.81,7.87,0.21,0.2,0.25,0.52,0.18,3.29,-0.04,0.11,-0.85,0.52
0.21,-111.19,75.37,178.5,0.04,0.59,0.03,1.95,0.13,0.85,0.44,0.66,0.34,0.51,-101.12,82.81,151.19,0.24,0.54,0.05,0.62,0.09,0.34,0.33,0.67,0.26,0.61,-152.38,1.19,5.19,0.13,0.03,0.15,0.93,1.28,1.26,0.0,0.05,-0.97,0.24,-117.25,10.63,7.56,0.22,0.21,0.28,0.56,0.08,3.65,-0.04,0.1,-0.85,0.52
0.22,-111.06,74.56,178.56,0.14,0.79,0.03,2.13,0.05,0.71,0.44,0.66,0.33,0.5,-101.25,82.37,154.94,0.14,0.58,0.02,0.85,0.06,0.48,0.36,0.66,0.28,0.6,-152.44,1.25,5.12,0.19,0.05,0.02,1.06,1.42,0.73,0.0,0.05,-0.97,0.24,-116.94,10.44,7.25,0.22,0.19,0.29,0.47,0.09,3.95,-0.04,0.1,-0.84,0.52
0.23,-110.75,73.56,178.56,0.21,0.99,0.05,2.61,0.23,0.41,0.45,0.66,0.33,0.5,-101.25,81.87,158.75,0.03,0.69,0.02,1.9,0.1,0.03,0.38,0.65,0.3,0.59,-152.38,1.31,4.87,0.27,0.11,0.18,1.0,1.29,0.05,-0.0,0.04,-0.97,0.24,-116.62,10.31,6.94,0.25,0.17,0.3,0.41,0.13,3.88,-0.04,0.1,-0.84,0.53
0.24,-110.5,72.25,178.75,0.23,1.2,0.1,2.53,0.44,0.09,0.46,0.67,0.33,0.49,-101.12,81.25,163.06,0.05,0.86,0.04,2.38,0.2,0.35,0.4,0.64,0.32,0.57,-152.12,1.37,4.56,0.28,0.15,0.34,1.0,1.01,0.86,-0.0,0.04,-0.97,0.24,-116.31,10.13,6.56,0.26,0.17,0.33,0.32,0.06,3.82,-0.04,0.09,-0.84,0.53
0.25,-110.31,70.81,179.06,0.23,1.32,0.16,2.4,0.34,0.16,0.46,0.67,0.33,0.48,-101.0,80.38,167.62,0.08,1.07,0.06,2.57,0.31,0.41,0.43,0.63,0.34,0.55,-151.69,1.56,4.25,0.29,0.18,0.45,1.01,0.54,1.68,-0.0,0.04,-0.97,0.24,-115.88,10.0,6.19,0.26,0.16,0.38,0.26,0.1,3.88,-0.05,0.09,-0.84,0.53
0.26,-109.94,70.06,179.19,0.29,1.4,0.18,2.42,0.11,0.18,0.47,0.67,0.32,0.47,-100.87,79.87,169.81,0.08,1.21,0.09,2.74,0.43,0.44,0.44,0.63,0.35,0.54,-151.19,1.69,3.94,0.3,0.18,0.43,0.96,0.79,2.05,-0.01,0.04,-0.97,0.25,-115.5,9.94,5.81,0.26,0.13,0.38,0.04,0.03,4.02,-0.05,0.09,-0.84,0.53
0.27,-109.63,68.5,179.44,0.26,1.5,0.14,2.72,0.02,0.28,0.47,0.68,0.32,0.46,-100.75,78.75,174.0,0.07,1.27,0.08,3.23,0.37,0.42,0.47,0.62,0.37,0.51,-150.75,1.87,3.62,0.29,0.14,0.33,0.65,1.07,3.01,-0.01,0.03,-0.97,0.25,-115.06,9.81,5.44,0.27,0.1,0.43,0.05,0.1,4.11,-0.05,0.09,-0.84,0.54
0.28,-109.37,66.81,179.56,0.23,1.54,0.14,2.99,0.15,0.16,0.48,0.68,0.32,0.45,-100.56,77.56,177.44,0.01,1.3,0.05,3.38,0.39,0.52,0.49,0.61,0.39,0.49,-150.38,2.0,3.31,0.32,0.13,0.32,0.77,0.72,3.52,-0.01,0.03,-0.97,0.26,-114.56,9.75,5.12,0.22,0.08,0.42,0.06,0.01,4.1,-0.05,0.08,-0.84,0.54
0.29,-109.28,64.9,179.62,0.15,1.69,0.2,2.54,0.24,0.14,0.49,0.69,0.31,0.44,-100.38,76.19,180.25,0.04,1.51,0.01,3.23,0.21,0.85,0.5,0.6,0.4,0.47,-150.0,2.12,2.94,0.32,0.12,0.31,0.77,1.0,3.64,-0.01,0.03,-0.97,0.26,-114.19,9.69,4.81,0.2,0.1,0.41,0.09,0.05,3.98,-0.05,0.08,-0.83,0.54
0.3,-109.19,63.0,179.69,0.07,1.84,0.25,2.1,0.33,0.12,0.49,0.7,0.3,0.43,-100.25,74.62,182.81,0.08,1.63,0.01,3.45,0.1,1.0,0.52,0.6,0.4,0.45,-149.56,2.19,2.62,0.27,0.05,0.38,0.78,0.86,3.61,-0.01,0.03,-0.96,0.26,-113.75,9.63,4.5,0.16,0.13,0.42,0.18,0.1,3.42,-0.05,0.08,-0.83,0.55
0.31,-109.75,60.94,179.06,0.22,1.84,0.25,1.31,0.37,0.61,0.49,0.71,0.29,0.42,-100.25,72.75,185.19,0.15,1.79,0.01,4.38,0.47,0.82,0.54,0.6,0.41,0.43,-149.12,2.25,2.37,0.26,0.04,0.4,0.73,0.57,3.6,-0.01,0.03,-0.96,0.27,-113.31,9.5,4.25,0.14,0.14,0.43,0.22,0.14,3.4,-0.05,0.08,-0.83,0.55
0.32,-110.63,59.0,178.31,0.09,1.6,0.22,0.85,0.62,0.98,0.49,0.72,0.27,0.41,-100.25,70.94,187.12,0.23,1.73,0.02,4.55,0.32,0.81,0.55,0.6,0.41,0.41,-148.62,2.25,2.06,0.3,0.01,0.45,0.68,0.49,3.71,-0.01,0.02,-0.96,0.27,-113.06,9.38,4.06,0.14,0.14,0.41,0.09,0.11,3.24,-0.05,0.07,-0.83,0.55
0.33,-110.88,57.25,178.06,0.13,1.52,0.18,1.44,0.33,1.4,0.49,0.73,0.26,0.4,-100.31,69.0,188.81,0.29,1.85,0.02,2.95,0.43,0.08,0.56,0.6,0.41,0.39,-148.13,2.19,1.75,0.33,0.01,0.45,0.75,0.32,3.99,-0.01,0.02,-0.96,0.27,-112.56,9.25,3.81,0.15,0.12,0.46,0.1,0.46,3.06,-0.05,0.07,-0.83,0.56
0.34,-110.5,55.5,178.31,0.28,1.61,0.04,1.55,0.11,0.82,0.5,0.73,0.25,0.39,-100.44,66.69,190.38,0.34,2.25,0.16,2.31,0.27,0.45,0.57,0.61,0.41,0.37,-147.81,2.19,1.37,0.32,0.01,0.47,0.92,0.14,4.1,-0.02,0.02,-0.96,0.28,-111.94,9.19,3.5,0.16,0.13,0.61,0.21,0.35,2.9,-0.05,0.07,-0.82,0.56
0.35,-110.12,53.63,178.56,0.11,1.7,0.12,1.18,0.22,1.32,0.51,0.73,0.25,0.38,-100.44,64.25,191.5,0.31,2.28,0.19,3.5,0.24,0.62,0.58,0.61,0.4,0.35,-147.25,2.19,1.06,0.3,0.01,0.49,0.94,0.14,3.84,-0.02,0.01,-0.96,0.28,-111.19,9.06,3.25,0.14,0.1,0.66,0.26,0.1,1.89,-0.05,0.07,-0.82,0.56
0.36,-110.12,51.75,178.56,0.1,1.62,0.2,1.0,0.03,1.79,0.51,0.74,0.24,0.36,-100.06,61.81,192.38,0.02,2.22,0.02,2.98,0.59,2.01,0.59,0.62,0.4,0.33,-146.75,2.19,0.75,0.28,0.01,0.42,0.94,0.26,3.55,-0.02,0.01,-0.96,0.29,-110.5,9.06,3.0,0.13,0.02,0.62,0.18,0.01,1.59,-0.05,0.07,-0.82,0.57
0.37,-109.78,49.94,178.68,0.18,1.7,0.12,0.77,0.21,1.78,0.52,0.74,0.23,0.35,-99.56,59.19,193.31,0.04,2.45,0.12,1.53,0.7,0.96,0.6,0.62,0.39,0.31,-146.37,2.19,0.5,0.23,0.02,0.37,0.83,0.44,3.22,-0.02,0.01,-0.96,0.29,-109.94,9.13,2.69,0.16,0.03,0.52,0.16,0.68,0.8,-0.05,0.06,-0.81,0.57
0.38,-109.44,48.13,178.81,0.25,1.77,0.04,0.54,0.39,1.76,0.52,0.75,0.23,0.34,-99.31,56.56,194.31,0.2,2.4,0.07,1.12,0.36,0.73,0.61,0.63,0.39,0.29,-145.94,2.19,0.31,0.21,0.04,0.39,0.5,0.86,3.31,-0.02,0.01,-0.96,0.29,-109.37,9.19,2.44,0.17,0.03,0.49,0.13,0.61,0.48,-0.05,0.06,-0.81,0.58
0.39,-109.25,46.06,178.94,0.08,1.92,0.06,0.98,0.36,0.96,0.53,0.75,0.22,0.32,-99.31,54.06,195.06,0.22,2.29,0.09,1.1,0.24,1.19,0.62,0.63,0.38,0.27,-145.32,2.22,0.18,0.2,0.04,0.55,0.4,0.71,3.09,-0.02,0.01,-0.95,0.3,-108.94,9.25,2.19,0.13,0.07,0.44,0.09,0.6,0.29,-0.05,0.06,-0.81,0.58
0.4,-107.19,43.87,178.62,0.26,1.97,0.18,1.67,0.09,1.65,0.55,0.75,0.21,0.31,-98.87,51.56,195.44,0.06,2.24,0.11,0.92,0.42,1.17,0.62,0.64,0.37,0.25,-144.69,2.25,0.06,0.2,0.05,0.72,0.31,0.56,2.87,-0.02,0.01,-0.95,0.3,-108.44,9.44,2.0,0.15,0.13,0.44,0.04,0.7,1.55,-0.06,0.06,-0.81,0.58
0.41,-107.0,41.88,178.25,0.09,1.66,0.25,0.78,0.12,1.33,0.55,0.75,0.2,0.3,-98.25,49.13,195.81,0.03,2.16,0.04,0.08,0.03,0.5,0.63,0.64,0.36,0.23,-143.69,2.31,0.19,0.14,0.04,0.91,0.3,0.11,2.81,-0.02,0.01,-0.95,0.31,-108.0,9.63,1.69,0.2,0.15,0.4,0.16,0.62,1.84,-0.06,0.06,-0.81,0.59
0.42,-106.69,40.31,178.25,0.27,1.38,0.22,0.94,0.06,0.95,0.56,0.76,0.19,0.28,-97.69,46.81,196.12,0.01,2.06,0.03,0.23,0.22,0.28,0.64,0.65,0.36,0.21,-142.75,2.28,0.22,0.09,0.05,0.86,0.34,0.12,2.12,-0.02,0.01,-0.95,0.32,-107.81,9.69,1.56,0.18,0.17,0.3,0.37,0.55,2.05,-0.06,0.06,-0.8,0.59
0.43,-106.56,38.75,178.44,0.17,1.42,0.05,2.09,0.39,0.22,0.56,0.76,0.19,0.27,-97.44,44.69,196.56,0.17,1.9,0.02,1.13,0.22,0.01,0.64,0.65,0.35,0.19,-141.81,2.25,0.25,0.04,0.06,0.8,0.37,0.14,1.44,-0.02,0.01,-0.94,0.33,-107.56,9.88,1.31,0.11,0.2,0.23,0.36,0.41,2.39,-0.06,0.06,-0.8,0.59
0.44,-106.56,37.19,178.5,0.04,1.4,0.02,2.2,0.39,0.66,0.56,0.76,0.18,0.26,-97.44,42.5,196.94,0.15,2.06,0.06,0.83,0.68,0.08,0.65,0.66,0.34,0.18,-140.88,2.12,0.25,0.03,0.12,0.7,0.33,0.15,0.47,-0.02,0.01,-0.94,0.33,-107.31,10.13,1.19,0.06,0.24,0.19,0.45,0.05,2.2,-0.06,0.06,-0.8,0.59
0.45,-106.56,36.44,178.5,0.01,1.23,0.07,1.77,0.2,1.41,0.56,0.76,0.18,0.26,-97.38,40.12,197.06,0.07,2.15,0.03,1.49,0.77,0.59,0.65,0.66,0.33,0.16,-140.56,2.0,0.19,0.07,0.23,0.54,0.38,0.15,0.55,-0.02,0.01,-0.94,0.34,-107.19,10.5,1.12,0.03,0.43,0.06,0.51,0.02,1.92,-0.07,0.06,-0.8,0.59
0.46,-106.5,35.13,178.44,0.14,1.16,0.1,1.11,0.06,0.93,0.57,0.77,0.17,0.25,-97.19,38.0,197.25,0.02,1.86,0.04,1.31,0.09,0.58,0.65,0.67,0.32,0.15,-140.0,1.75,0.06,0.1,0.26,0.51,0.65,0.31,0.6,-0.01,0.01,-0.94,0.34,-107.12,11.0,1.19,0.1,0.49,0.08,0.66,0.25,2.37,-0.07,0.07,-0.8,0.59
0.47,-106.81,33.81,178.56,0.11,1.2,0.08,0.95,0.15,1.0,0.57,0.77,0.16,0.24,-97.07,36.19,197.56,0.18,1.57,0.04,0.56,0.36,0.95,0.66,0.67,0.31,0.13,-139.44,1.5,0.18,0.21,0.27,0.48,0.88,0.52,1.43,-0.01,0.01,-0.94,0.35,-107.0,11.56,1.31,0.14,0.45,0.1,0.69,0.09,3.05,-0.07,0.07,-0.8,0.59
0.48,-106.75,32.5,178.56,0.26,1.1,0.09,1.46,0.03,0.85,0.57,0.77,0.16,0.23,-97.0,34.38,197.81,0.13,1.66,0.05,1.05,0.31,0.98,0.66,0.68,0.3,0.12,-138.94,1.19,0.31,0.3,0.31,0.51,0.76,0.41,1.84,-0.01,0.01,-0.94,0.35,-106.94,12.0,1.5,0.21,0.4,0.04,1.0,0.08,2.88,-0.08,0.07,-0.8,0.59
0.49,-106.75,31.31,178.12,0.37,0.99,0.14,2.07,0.36,0.56,0.57,0.78,0.15,0.23,-96.94,32.5,197.87,0.08,1.67,0.01,1.1,0.91,1.0,0.66,0.68,0.29,0.11,-138.37,0.81,0.62,0.32,0.3,0.54,0.84,0.18,1.96,-0.0,0.01,-0.93,0.36,-107.0,12.44,1.75,0.23,0.37,0.13,0.63,0.29,3.09,-0.08,0.08,-0.8,0.59
0.5,-106.63,30.44,177.56,0.17,0.72,0.34,2.64,0.09,0.34,0.57,0.78,0.14,0.22,-96.82,31.0,198.06,0.07,1.29,0.07,0.73,0.2,1.22,0.66,0.68,0.29,0.1,-137.62,0.5,1.0,0.34,0.27,0.63,0.99,0.6,2.19,-0.0,0.01,-0.93,0.36,-107.12,12.75,2.0,0.17,0.3,0.11,0.36,0.05,3.79,-0.08,0.08,-0.8,0.59
0.51,-106.25,29.63,177.38,0.15,0.62,0.28,1.76,1.96,0.65,0.58,0.78,0.14,0.22,-96.75,30.37,198.19,0.21,0.98,0.08,1.07,1.02,1.72,0.66,0.68,0.29,0.09,-136.94,0.19,1.44,0.36,0.34,0.51,1.27,0.67,1.68,0.0,0.01,-0.93,0.37,-107.12,13.06,2.12,0.14,0.26,0.04,0.43,0.12,4.83,-0.08,0.08,-0.8,0.59
0.52,-106.12,29.06,177.87,0.47,0.45,0.18,1.47,1.57,1.03,0.58,0.78,0.14,0.21,-96.69,29.31,198.5,0.22,1.08,0.01,1.28,0.35,2.61,0.67,0.69,0.28,0.08,-136.37,0.19,1.81,0.33,0.33,0.49,0.91,1.03,1.65,0.0,0.02,-0.93,0.37,-107.19,13.31,2.31,0.16,0.23,0.13,0.61,0.82,4.52,-0.08,0.08,-0.8,0.59
0.53,-106.25,28.62,178.44,0.03,0.42,0.2,1.87,1.7,0.92,0.58,0.78,0.14,0.21,-96.69,28.06,198.81,0.17,1.11,0.01,1.25,1.35,1.7,0.67,0.69,0.28,0.07,-135.75,0.5,2.12,0.31,0.26,0.6,0.59,0.94,2.53,0.0,0.02,-0.93,0.38,-107.84,13.46,2.81,0.26,0.2,0.53,0.58,0.69,3.91,-0.08,0.09,-0.8,0.59
0.54,-106.44,28.19,178.5,0.11,0.4,0.12,1.62,2.53,0.88,0.58,0.78,0.14,0.2,-96.63,26.87,198.87,0.02,1.05,0.06,1.36,0.63,2.12,0.67,0.69,0.27,0.07,-135.12,0.81,2.5,0.36,0.31,0.5,0.78,0.74,3.05,0.0,0.02,-0.92,0.38,-108.5,13.62,3.31,0.35,0.17,0.93,0.56,0.56,3.3,-0.08,0.09,-0.8,0.58
0.55,-106.37,27.75,178.31,0.09,0.33,0.26,1.85,1.02,0.82,0.58,0.78,0.13,0.2,-96.38,26.0,198.87,0.08,0.77,0.22,1.78,0.9,2.47,0.67,0.69,0.27,0.06,-134.87,1.25,2.94,0.39,0.38,0.21,0.79,0.08,2.85,-0.0,0.03,-0.92,0.38,-109.94,13.75,4.0,0.42,0.21,0.91,0.32,1.66,4.02,-0.08,0.1,-0.81,0.57
0.56,-106.12,27.44,178.0,0.18,0.29,0.25,1.98,1.85,0.82,0.58,0.78,0.13,0.2,-96.07,25.19,199.0,0.08,0.72,0.19,2.25,1.08,2.21,0.67,0.69,0.26,0.05,-134.63,1.69,3.31,0.29,0.26,0.25,0.3,0.07,3.32,-0.0,0.03,-0.92,0.39,-110.25,14.22,4.5,0.35,0.42,0.57,0.94,2.48,3.88,-0.08,0.1,-0.81,0.57
0.57,-105.94,27.19,177.75,0.08,0.18,0.2,1.42,2.22,1.43,0.58,0.78,0.13,0.2,-96.07,24.44,199.37,0.33,0.64,0.02,1.6,0.68,2.65,0.67,0.69,0.26,0.05,-134.37,2.0,3.62,0.29,0.29,0.22,1.04,0.77,3.79,-0.0,0.04,-0.92,0.39,-110.56,14.69,5.0,0.28,0.63,0.23,1.57,3.31,3.74,-0.08,0.11,-0.81,0.57
0.58,-105.81,27.0,177.81,0.26,0.11,0.04,1.99,0.16,1.56,0.58,0.78,0.13,0.2,-96.13,23.87,199.75,0.32,0.43,0.05,1.84,0.98,2.62,0.67,0.69,0.26,0.04,-134.12,2.37,3.94,0.31,0.34,0.2,1.07,0.85,4.84,-0.01,0.04,-0.92,0.39,-110.94,15.25,5.25,0.33,0.3,0.89,1.64,1.01,3.66,-0.08,0.11,-0.81,0.57
0.59,-105.69,26.94,178.06,0.21,0.03,0.04,1.81,1.19,1.7,0.58,0.78,0.13,0.2,-96.26,23.62,200.0,0.08,0.18,0.12,1.7,1.17,3.64,0.67,0.69,0.26,0.04,-134.12,2.69,4.44,0.47,0.26,0.09,0.97,0.88,4.72,-0.01,0.04,-0.92,0.39,-112.0,15.44,6.06,0.47,0.21,1.15,1.95,3.14,3.25,-0.08,0.12,-0.82,0.56
0.6,-105.63,26.94,178.06,0.04,0.02,0.09,1.36,0.44,1.69,0.58,0.78,0.13,0.2,-96.0,23.5,200.0,0.07,0.15,0.21,1.28,0.94,3.11,0.67,0.69,0.26,0.04,-134.44,2.94,4.94,0.42,0.25,0.28,0.81,0.59,3.54,-0.01,0.05,-0.92,0.39,-113.37,15.56,6.81,0.36,0.22,0.81,0.06,0.15,2.11,-0.08,0.12,-0.82,0.55
0.61,-105.44,27.13,177.81,0.12,0.25,0.25,1.1,0.08,1.76,0.59,0.78,0.13,0.2,-95.82,23.5,200.06,0.01,0.01,0.17,1.21,0.82,3.43,0.67,0.69,0.26,0.03,-134.75,3.12,5.31,0.33,0.17,0.35,0.41,0.71,3.09,-0.01,0.05,-0.92,0.39,-113.19,15.75,7.12,0.28,0.11,0.15,1.48,0.29,2.02,-0.08,0.13,-0.82,0.55
0.62,-105.12,27.44,177.81,0.25,0.26,0.16,2.02,1.56,2.4,0.59,0.77,0.13,0.2,-95.69,23.56,200.12,0.03,0.08,0.11,1.02,0.74,3.3,0.67,0.69,0.26,0.03,-135.37,3.25,5.69,0.34,0.21,0.41,0.5,0.57,3.34,-0.01,0.06,-0.92,0.38,-113.94,15.5,7.5,0.22,0.21,0.57,2.32,1.16,2.59,-0.08,0.13,-0.82,0.55
0.63,-105.0,27.62,178.19,0.34,0.17,0.02,1.92,0.76,2.01,0.59,0.77,0.13,0.2,-95.57,23.69,200.06,0.1,0.14,0.1,1.53,0.7,2.47,0.67,0.69,0.26,0.04,-135.94,3.44,6.12,0.35,0.2,0.57,0.5,0.35,2.74,-0.01,0.06,-0.92,0.38,-114.0,15.31,7.81,0.27,0.17,0.17,1.43,2.14,2.71,-0.07,0.13,-0.82,0.55
0.64,-105.31,27.94,178.12,0.16,0.25,0.07,1.75,1.1,1.93,0.59,0.77,0.13,0.2,-95.5,24.0,199.94,0.18,0.27,0.11,1.86,1.5,2.3,0.67,0.69,0.26,0.04,-136.37,3.62,6.44,0.18,0.18,0.32,0.08,0.12,3.07,-0.01,0.06,-0.93,0.37,-113.44,15.13,7.94,0.25,0.17,0.47,0.48,3.28,2.48,-0.07,0.13,-0.82,0.55
0.65,-105.31,28.12,177.87,0.1,0.15,0.07,1.64,1.25,3.13,0.58,0.77,0.13,0.2,-95.44,24.56,199.75,0.1,0.58,0.06,1.41,0.48,3.21,0.67,0.69,0.26,0.04,-136.94,3.75,6.75,0.32,0.26,0.59,0.48,2.71,4.23,-0.01,0.07,-0.93,0.37,-113.37,15.13,8.13,0.26,0.05,0.09,0.83,1.64,3.27,-0.07,0.13,-0.82,0.55
0.66,-105.19,28.19,178.06,0.26,0.08,0.06,1.46,0.98,4.48,0.59,0.77,0.13,0.2,-95.57,25.37,199.81,0.07,0.73,0.03,1.36,1.25,2.84,0.67,0.69,0.27,0.05,-137.5,4.12,7.0,0.06,0.43,0.46,0.33,1.1,3.29,-0.01,0.07,-0.93,0.36,-113.25,15.13,8.5,0.35,0.04,0.19,0.73,0.86,3.27,-0.07,0.13,-0.82,0.55
0.67,-105.5,28.31,178.12,0.01,0.08,0.09,1.8,1.62,3.75,0.58,0.77,0.14,0.2,-95.63,25.75,199.81,0.04,0.74,0.04,0.75,0.5,3.76,0.67,0.69,0.27,0.05,-138.25,4.62,7.06,0.05,0.48,0.77,0.44,2.41,3.46,-0.02,0.07,-0.93,0.36,-112.69,15.19,8.75,0.4,0.03,0.83,0.88,1.25,3.05,-0.07,0.14,-0.82,0.56
0.68,-105.56,28.44,177.94,0.17,0.14,0.01,0.4,0.84,1.73,0.58,0.77,0.13,0.21,-95.63,26.62,199.75,0.16,0.65,0.1,0.68,1.2,1.69,0.67,0.68,0.28,0.06,-139.19,5.0,7.31,0.18,0.44,0.73,0.2,1.08,2.3,-0.02,0.07,-0.93,0.35,-111.81,15.31,9.0,0.45,0.01,0.69,0.52,1.41,2.39,-0.07,0.14,-0.81,0.56
0.69,-105.87,28.44,177.87,0.03,0.03,0.04,0.13,1.16,1.51,0.58,0.78,0.13,0.21,-95.57,27.25,199.62,0.02,0.36,0.2,1.03,0.25,1.69,0.67,0.68,0.28,0.06,-139.56,5.25,7.37,0.04,0.2,0.2,0.07,0.73,2.81,-0.02,0.08,-0.93,0.35,-111.19,15.38,9.44,0.6,0.03,0.42,0.51,1.94,2.53,-0.06,0.14,-0.81,0.57
0.7,-105.75,28.12,177.87,0.06,0.35,0.08,0.49,0.39,2.53,0.58,0.78,0.13,0.2,-95.32,27.62,199.75,0.07,0.19,0.18,0.92,0.66,2.04,0.67,0.68,0.28,0.06,-139.44,5.25,7.25,0.12,0.05,0.25,0.4,1.19,2.67,-0.02,0.08,-0.93,0.35,-110.94,15.56,10.13,0.69,0.14,0.29,0.02,0.03,2.6,-0.06,0.15,-0.81,0.57
0.71,-105.75,27.62,177.81,0.08,0.47,0.04,0.74,0.17,1.16,0.58,0.78,0.13,0.2,-95.13,27.81,199.75,0.15,0.13,0.19,1.01,0.02,1.31,0.68,0.68,0.28,0.06,-139.25,5.06,7.0,0.26,0.24,0.1,0.7,2.79,1.96,-0.02,0.07,-0.93,0.35,-110.63,15.94,10.81,0.67,0.3,0.23,1.18,0.94,2.81,-0.06,0.16,-0.8,0.57
0.72,-106.06,27.37,177.75,0.07,0.58,0.06,1.68,0.71,1.15,0.58,0.78,0.13,0.2,-94.88,27.94,199.78,0.11,0.08,0.19,1.1,0.45,1.82,0.68,0.68,0.28,0.06,-139.19,4.81,6.5,0.49,0.23,0.09,0.79,3.61,2.58,-0.02,0.07,-0.93,0.35,-110.31,16.31,11.44,0.65,0.32,0.32,1.12,1.05,2.81,-0.06,0.16,-0.8,0.57
0.73,-106.0,26.69,177.62,0.09,0.69,0.01,2.3,0.32,1.87,0.58,0.78,0.12,0.2,-94.63,28.06,199.81,0.07,0.02,0.19,1.2,0.88,2.34,0.68,0.67,0.28,0.06,-139.19,4.62,5.87,0.56,0.15,0.06,0.32,1.36,3.31,-0.02,0.06,-0.93,0.35,-110.06,16.69,12.19,0.67,0.3,0.12,0.35,0.05,2.18,-0.06,0.17,-0.8,0.58
0.74,-106.06,25.94,177.5,0.23,0.44,0.04,1.93,1.11,1.18,0.58,0.78,0.12,0.19,-94.44,28.06,200.0,0.06,0.01,0.14,1.12,0.61,2.56,0.68,0.67,0.29,0.06,-139.44,4.5,5.12,0.79,0.11,0.27,0.41,0.38,2.35,-0.02,0.06,-0.94,0.35,-109.81,17.12,12.88,0.63,0.35,0.17,0.63,0.32,1.9,-0.06,0.18,-0.79,0.58
0.75,-106.44,25.56,177.31,0.13,0.16,0.08,1.36,0.56,0.69,0.58,0.78,0.11,0.19,-94.32,28.06,200.06,0.01,0.03,0.08,0.57,0.44,1.51,0.68,0.67,0.29,0.06,-139.56,4.19,4.0,1.05,0.3,0.03,0.5,0.38,2.11,-0.02,0.05,-0.94,0.35,-109.5,17.62,13.5,0.66,0.4,0.37,1.44,0.55,2.02,-0.06,0.18,-0.79,0.58
0.76,-106.56,25.37,177.31,0.09,0.18,0.13,1.65,0.24,0.25,0.58,0.78,0.11,0.19,-94.26,28.0,200.12,0.06,0.13,0.07,0.77,0.36,0.32,0.68,0.67,0.29,0.06,-139.37,3.75,2.81,1.04,0.44,0.23,1.53,0.36,2.49,-0.02,0.03,-0.94,0.35,-109.0,18.19,14.19,0.74,0.42,0.35,1.32,0.77,2.0,-0.06,0.19,-0.79,0.58
0.77,-107.0,25.19,177.44,0.01,0.22,0.11,1.84,0.17,0.1,0.58,0.79,0.11,0.19,-94.19,27.81,200.31,0.13,0.21,0.08,1.79,0.16,1.96,0.68,0.67,0.29,0.06,-139.25,3.25,1.81,0.85,0.52,0.12,1.11,0.09,2.4,-0.02,0.02,-0.94,0.35,-108.44,18.81,14.87,0.74,0.46,0.63,0.92,0.3,2.48,-0.06,0.2,-0.78,0.59
0.78,-107.12,25.0,177.25,0.12,0.1,0.03,0.18,0.07,0.59,0.58,0.79,0.11,0.19,-94.19,27.75,200.44,0.1,0.18,0.03,0.75,1.13,2.1,0.68,0.67,0.29,0.06,-139.19,2.62,0.81,0.91,0.54,0.04,0.04,1.29,2.42,-0.02,0.01,-0.94,0.35,-107.44,19.56,15.44,0.71,0.52,0.81,1.31,0.83,2.34,-0.06,0.21,-0.77,0.6
0.79,-107.12,25.12,177.12,0.05,0.18,0.04,0.57,0.12,1.09,0.58,0.79,0.11,0.19,-94.26,27.87,200.5,0.06,0.14,0.02,0.44,1.37,1.44,0.68,0.67,0.29,0.06,-139.5,2.12,0.13,0.91,0.39,0.4,0.54,3.43,2.54,-0.02,0.01,-0.94,0.35,-106.69,20.25,16.06,0.74,0.46,0.59,1.61,1.06,0.66,-0.06,0.21,-0.77,0.6
0.8,-107.12,25.12,176.81,0.32,0.05,0.09,1.74,0.01,0.23,0.57,0.79,0.11,0.19,-94.26,27.81,200.5,0.01,0.1,0.02,1.42,0.06,0.56,0.68,0.67,0.29,0.06,-140.31,1.87,1.19,1.01,0.22,0.89,0.01,1.19,2.53,-0.01,0.02,-0.94,0.34,-106.25,20.62,16.31,0.7,0.46,0.86,1.54,1.52,1.4,-0.06,0.22,-0.76,0.6
0.81,-107.12,25.12,176.37,0.31,0.01,0.06,1.73,0.85,0.66,0.57,0.79,0.1,0.19,-94.19,27.81,200.44,0.05,0.08,0.01,1.86,0.94,0.53,0.68,0.67,0.29,0.06,-140.88,1.75,1.75,1.14,0.15,0.99,0.46,0.78,1.83,-0.01,0.02,-0.94,0.33,-105.03,21.5,16.72,0.71,0.5,0.98,1.53,0.84,1.17,-0.06,0.23,-0.75,0.61
0.82,-107.5,25.44,176.37,0.11,0.41,0.05,0.55,0.88,1.34,0.57,0.79,0.11,0.2,-94.19,28.19,200.5,0.07,0.35,0.02,0.25,0.11,0.76,0.68,0.67,0.29,0.06,-141.94,1.62,3.0,1.23,0.2,0.68,0.57,0.45,1.46,-0.0,0.03,-0.94,0.33,-103.81,22.37,17.12,0.72,0.54,1.09,1.52,0.17,0.94,-0.06,0.23,-0.75,0.62
0.83,-107.44,25.94,176.63,0.17,0.44,0.09,1.28,0.52,1.02,0.57,0.79,0.11,0.2,-94.19,28.56,200.44,0.07,0.28,0.03,0.38,0.95,0.37,0.68,0.67,0.29,0.06,-142.56,1.44,4.44,1.34,0.19,0.41,0.57,0.54,1.86,0.0,0.04,-0.95,0.32,-102.87,23.31,17.69,0.69,0.7,0.63,1.39,1.19,0.55,-0.06,0.24,-0.74,0.63
0.84,-107.37,26.31,176.37,0.24,0.33,0.13,2.29,0.37,0.42,0.57,0.79,0.11,0.2,-94.26,28.69,200.37,0.07,0.16,0.02,1.7,0.06,0.39,0.68,0.67,0.29,0.06,-143.19,1.25,5.87,1.46,0.18,0.14,0.57,0.62,2.25,0.01,0.05,-0.95,0.32,-102.12,24.25,18.19,0.63,0.73,0.78,1.02,0.27,1.21,-0.06,0.25,-0.73,0.63
0.85,-107.44,26.81,176.25,0.02,0.57,0.02,0.73,0.14,0.42,0.57,0.79,0.11,0.21,-94.26,29.31,200.19,0.19,0.67,0.03,0.6,0.02,2.2,0.68,0.67,0.29,0.07,-143.31,1.06,7.5,1.42,0.14,0.04,0.5,0.97,1.79,0.01,0.06,-0.95,0.31,-101.44,25.37,18.62,0.6,0.8,0.77,0.52,0.42,0.54,-0.07,0.26,-0.72,0.64
0.86,-107.44,27.81,176.69,0.47,0.93,0.13,0.6,0.28,0.6,0.57,0.79,0.12,0.21,-94.19,30.12,200.0,0.1,0.72,0.03,0.2,0.14,0.24,0.68,0.67,0.3,0.07,-143.44,1.0,9.06,1.44,0.01,0.3,0.86,0.14,1.33,0.02,0.08,-0.95,0.31,-100.62,26.5,19.06,0.5,0.88,0.67,0.01,0.37,0.49,-0.07,0.27,-0.71,0.64
0.87,-107.44,28.81,177.0,0.13,0.83,0.06,1.61,0.35,0.3,0.57,0.78,0.13,0.22,-94.32,30.5,199.94,0.03,0.5,0.05,1.17,0.45,0.98,0.68,0.67,0.3,0.08,-143.75,1.06,10.63,1.41,0.03,0.25,0.38,0.15,1.95,0.02,0.09,-0.95,0.31,-99.87,27.69,19.37,0.44,0.88,0.73,1.22,1.65,0.47,-0.08,0.28,-0.71,0.65
0.88,-107.44,29.75,176.81,0.14,0.87,0.01,2.68,0.29,0.18,0.57,0.78,0.13,0.22,-94.32,31.06,199.81,0.24,0.8,0.05,1.46,0.28,2.64,0.68,0.66,0.3,0.08,-144.0,1.19,12.25,1.47,0.1,0.09,0.13,0.39,1.85,0.02,0.1,-0.95,0.31,-99.06,28.94,19.56,0.44,1.01,0.74,1.12,1.13,0.33,-0.08,0.28,-0.7,0.65
0.89,-107.44,31.06,176.94,0.22,1.36,0.08,0.79,0.24,0.29,0.56,0.78,0.14,0.23,-94.32,32.06,199.44,0.32,1.05,0.04,0.5,0.27,2.48,0.68,0.66,0.3,0.09,-144.06,1.37,13.75,1.34,0.2,0.11,0.64,0.14,1.4,0.03,0.12,-0.94,0.31,-98.31,30.44,20.0,0.61,1.28,0.64,0.29,0.33,0.12,-0.09,0.3,-0.69,0.66
0.9,-107.87,32.69,177.44,0.35,1.39,0.27,0.39,0.18,0.03,0.56,0.78,0.15,0.24,-94.32,33.44,199.0,0.14,1.09,0.03,0.51,0.36,0.48,0.68,0.66,0.31,0.1,-144.19,1.69,15.06,1.11,0.26,0.1,0.52,0.03,1.76,0.03,0.13,-0.94,0.31,-97.88,32.0,20.5,0.56,1.33,0.65,0.28,0.08,0.95,-0.09,0.31,-0.68,0.66
0.91,-108.12,34.0,177.75,0.03,1.09,0.28,2.33,0.02,0.36,0.56,0.78,0.16,0.25,-94.38,34.56,198.81,0.15,0.88,0.02,1.45,0.25,0.11,0.68,0.66,0.31,0.11,-144.37,2.06,16.19,1.03,0.32,0.21,0.05,0.06,1.28,0.03,0.14,-0.94,0.31,-97.37,33.81,21.06,0.43,1.7,0.55,0.78,0.4,0.36,-0.1,0.32,-0.67,0.66
0.92,-108.56,35.25,177.69,0.14,1.18,0.14,1.86,0.16,0.57,0.55,0.78,0.16,0.26,-94.32,35.63,198.56,0.2,0.99,0.02,1.6,0.58,1.16,0.68,0.66,0.32,0.12,-144.62,2.5,17.31,0.98,0.31,0.27,0.08,0.33,0.99,0.03,0.15,-0.94,0.3,-96.87,35.88,21.62,0.45,1.77,0.66,0.94,0.61,1.22,-0.11,0.33,-0.66,0.66
0.93,-108.56,36.94,177.87,0.19,1.62,0.09,0.53,0.37,1.51,0.55,0.77,0.17,0.27,-94.26,37.25,198.31,0.1,1.62,0.03,0.18,0.26,1.98,0.67,0.65,0.33,0.13,-144.94,3.0,18.31,0.93,0.38,0.34,0.23,0.64,0.56,0.02,0.16,-0.94,0.3,-96.56,38.0,22.25,0.49,1.83,0.58,0.23,1.63,0.32,-0.12,0.35,-0.65,0.66
0.94,-108.63,38.81,178.19,0.2,1.73,0.15,0.38,0.46,1.78,0.55,0.77,0.18,0.28,-94.32,39.13,198.06,0.08,1.67,0.05,0.63,0.04,0.71,0.67,0.65,0.33,0.14,-145.5,3.72,19.12,0.78,0.46,0.45,0.3,0.32,0.46,0.02,0.17,-0.94,0.3,-95.87,40.38,22.81,0.54,2.06,0.87,0.68,1.16,1.8,-0.13,0.36,-0.64,0.67
0.95,-108.94,40.69,178.19,0.19,1.61,0.14,0.96,0.59,2.31,0.54,0.77,0.19,0.29,-94.5,40.63,197.75,0.18,1.28,0.02,0.03,0.45,0.85,0.67,0.64,0.34,0.15,-146.06,4.44,19.94,0.63,0.55,0.55,0.38,0.01,0.36,0.01,0.18,-0.94,0.29,-95.19,42.88,23.81,0.79,2.17,0.7,0.12,1.15,1.87,-0.13,0.38,-0.62,0.67
0.96,-109.19,42.56,178.06,0.16,1.74,0.2,0.24,0.47,1.15,0.53,0.76,0.2,0.3,-94.5,42.06,197.5,0.12,1.37,0.01,0.77,0.25,1.06,0.67,0.64,0.35,0.16,-146.5,5.25,20.5,0.5,0.61,0.52,0.79,0.2,0.08,0.01,0.18,-0.94,0.29,-94.44,45.63,25.0,0.8,2.45,0.86,0.77,0.82,1.38,-0.14,0.4,-0.6,0.67
0.97,-109.5,44.63,178.5,0.2,1.86,0.35,0.05,0.28,1.35,0.53,0.76,0.21,0.32,-94.57,44.19,197.25,0.01,2.08,0.01,0.04,0.05,1.49,0.66,0.63,0.35,0.18,-147.06,6.12,20.81,0.28,0.65,0.6,1.51,0.18,0.42,0.0,0.19,-0.94,0.29,-93.62,48.69,26.06,0.64,2.64,0.88,1.16,0.43,2.2,-0.15,0.42,-0.58,0.68
0.98,-111.25,46.75,179.12,0.27,1.94,0.35,0.08,0.03,1.74,0.52,0.76,0.22,0.33,-94.57,46.56,196.87,0.13,2.15,0.01,1.52,0.29,0.42,0.66,0.63,0.36,0.2,-147.25,6.56,20.94,0.16,0.6,0.69,1.46,0.28,0.5,-0.0,0.19,-0.94,0.29,-93.06,51.88,27.44,0.63,2.82,0.91,0.81,1.48,1.24,-0.16,0.45,-0.56,0.68
0.99,-110.37,49.0,179.69,0.23,2.07,0.24,0.55,0.22,1.37,0.52,0.75,0.23,0.34,-94.64,48.69,196.5,0.18,1.87,0.09,1.38,0.1,0.9,0.65,0.62,0.37,0.21,-147.87,7.44,21.0,0.03,0.69,0.69,0.36,0.75,1.39,-0.01,0.19,-0.94,0.28,-91.87,55.44,28.69,0.77,3.01,1.37,1.29,0.28,0.68,-0.17,0.47,-0.54,0.68
1.0,-109.75,51.25,179.75,0.12,2.03,0.24,1.11,0.31,0.81,0.52,0.74,0.25,0.35,-94.82,49.69,196.38,0.06,1.89,0.06,0.84,0.06,0.16,0.65,0.62,0.38,0.22,-148.56,8.5,20.88,0.07,0.79,0.86,1.08,0.37,1.42,-0.02,0.19,-0.94,0.28,-91.12,57.25,29.37,0.87,3.01,1.11,2.59,0.62,2.86,-0.18,0.48,-0.52,0.68
1.01,-109.56,53.44,179.38,0.09,1.95,0.26,1.07,0.13,0.97,0.51,0.73,0.26,0.37,-95.57,51.88,196.19,0.14,2.25,0.05,1.68,0.04,0.89,0.64,0.62,0.38,0.24,-149.5,9.81,20.56,0.3,0.94,0.98,1.0,1.6,1.55,-0.03,0.19,-0.94,0.27,-90.0,60.69,31.56,1.08,2.85,1.12,0.97,0.16,2.05,-0.18,0.51,-0.49,0.68
1.02,-109.63,54.56,179.25,0.17,2.01,0.19,1.06,0.45,0.94,0.51,0.73,0.26,0.38,-96.2,54.38,195.81,0.05,2.17,0.04,2.54,0.22,1.08,0.64,0.61,0.39,0.26,-150.31,11.16,20.0,0.43,0.96,0.95,0.99,1.82,2.02,-0.05,0.19,-0.94,0.27,-88.5,64.06,33.88,1.03,2.95,1.5,0.11,1.04,0.93,-0.18,0.54,-0.46,0.69
1.03,-109.87,56.75,179.12,0.16,2.0,0.13,1.32,0.04,1.07,0.5,0.72,0.27,0.39,-96.89,56.69,195.38,0.06,1.91,0.05,2.49,0.01,1.49,0.63,0.61,0.4,0.27,-151.12,12.5,19.44,0.57,0.98,0.92,0.98,2.03,2.48,-0.06,0.19,-0.94,0.26,-86.56,67.78,36.84,1.18,3.07,1.48,0.17,0.99,1.18,-0.17,0.56,-0.41,0.69
1.04,-110.06,59.0,179.0,0.02,1.92,0.18,1.05,0.59,0.56,0.5,0.72,0.28,0.41,-97.32,58.75,194.87,0.12,1.99,0.07,2.24,0.1,0.12,0.62,0.61,0.41,0.29,-151.87,13.88,18.62,0.66,1.01,1.01,1.12,1.91,3.08,-0.08,0.18,-0.95,0.26,-84.62,71.5,39.81,1.33,3.19,1.47,0.23,0.93,1.42,-0.17,0.59,-0.37,0.7
1.05,-109.87,61.13,178.56,0.01,1.93,0.25,1.04,0.63,0.57,0.49,0.71,0.28,0.42,-97.82,61.0,194.31,0.09,2.11,0.04,2.6,0.42,0.5,0.61,0.6,0.41,0.31,-152.87,15.38,17.44,0.9,1.14,1.14,1.04,1.56,2.12,-0.09,0.18,-0.95,0.25,-82.25,75.44,39.81,1.23,3.3,1.81,0.55,1.49,1.91,-0.18,0.61,-0.33,0.7
1.06,-109.69,63.25,177.94,0.07,1.91,0.28,1.41,0.31,0.82,0.48,0.7,0.29,0.44,-98.26,63.38,193.69,0.07,2.12,0.01,2.58,0.33,0.73,0.6,0.6,0.42,0.33,-153.87,16.87,16.25,1.14,1.26,1.27,0.96,1.22,1.16,-0.11,0.17,-0.95,0.24,-79.72,79.34,39.81,1.17,3.16,1.68,0.8,0.84,1.56,-0.18,0.63,-0.3,0.69
1.07,-109.56,65.31,177.19,0.08,1.9,0.27,1.66,0.17,0.04,0.47,0.7,0.29,0.45,-98.51,66.19,192.62,0.33,3.01,0.11,1.12,0.46,3.75,0.59,0.59,0.42,0.35,-154.94,18.69,14.63,1.27,1.39,1.6,0.19,1.99,2.02,-0.13,0.16,-0.95,0.23,-77.19,83.25,20.43,1.11,3.02,1.54,1.04,0.18,1.2,-0.3,0.59,-0.37,0.65
1.08,-109.25,67.37,176.31,0.08,1.74,0.19,1.78,0.42,0.46,0.47,0.69,0.3,0.47,-99.57,71.12,190.0,0.6,4.47,0.15,2.7,0.28,0.77,0.56,0.59,0.43,0.4,-156.31,20.56,12.69,1.32,1.4,1.64,0.11,3.01,2.15,-0.15,0.14,-0.95,0.22,-74.69,85.38,20.43,0.79,3.0,1.18,0.64,0.94,3.0,-0.3,0.61,-0.34,0.65
1.09,-109.06,69.25,175.38,0.07,1.63,0.17,1.5,0.47,0.01,0.46,0.68,0.3,0.48,-99.95,74.0,187.87,0.5,0.43,0.02,4.5,0.49,0.53,0.54,0.58,0.43,0.42,-157.62,22.62,10.5,1.59,1.43,1.44,0.57,3.51,0.85,-0.17,0.13,-0.95,0.21,-72.87,84.75,21.74,0.17,3.05,1.66,0.58,0.79,0.78,-0.28,0.62,-0.33,0.66
1.1,-109.0,71.0,174.69,0.11,1.57,0.11,1.43,0.31,0.3,0.45,0.68,0.31,0.49,-100.26,74.69,187.25,0.4,0.81,0.1,5.16,1.66,3.31,0.54,0.58,0.43,0.43,-158.63,24.44,8.19,1.64,1.38,1.22,0.59,1.6,1.07,-0.19,0.11,-0.96,0.2,-71.0,82.31,21.74,0.01,3.06,1.89,0.01,2.48,0.4,-0.26,0.61,-0.33,0.67
1.11,-109.12,72.56,174.06,0.1,1.27,0.03,1.5,0.15,0.2,0.44,0.67,0.31,0.51,-99.89,74.0,187.69,0.02,0.03,0.05,2.28,0.88,0.42,0.54,0.58,0.43,0.43,-159.87,26.25,5.75,1.69,1.56,1.38,0.7,2.51,1.09,-0.21,0.09,-0.96,0.18,-68.94,79.25,21.74,0.39,2.76,1.52,0.39,0.36,0.28,-0.23,0.6,-0.33,0.69
1.12,-109.37,73.94,173.69,0.15,1.15,0.02,1.31,0.27,0.18,0.43,0.67,0.31,0.52,-99.89,75.06,186.5,0.18,0.61,0.03,0.7,0.17,1.75,0.54,0.58,0.43,0.44,-160.75,28.19,3.19,1.97,1.8,1.4,0.37,2.87,0.35,-0.24,0.07,-0.95,0.17,-66.56,76.19,21.74,0.57,2.58,1.01,0.94,2.43,0.17,-0.21,0.59,-0.33,0.71
1.13,-109.75,75.0,173.56,0.26,0.92,0.03,1.1,0.53,0.29,0.43,0.67,0.31,0.52,-100.39,77.12,183.75,0.34,2.35,0.09,1.36,0.39,0.62,0.52,0.59,0.42,0.46,-161.69,30.25,0.13,2.14,1.91,1.35,0.94,1.08,0.43,-0.26,0.04,-0.95,0.15,-65.25,73.25,19.3,0.34,2.48,0.85,1.09,2.89,0.85,-0.2,0.57,-0.34,0.72
1.14,-110.31,75.81,173.69,0.27,0.68,0.02,0.57,0.68,0.4,0.42,0.67,0.31,0.53,-100.64,79.31,179.0,0.03,1.97,0.13,1.22,1.2,0.42,0.49,0.6,0.4,0.5,-162.62,32.69,3.5,2.24,2.47,1.56,0.61,2.71,1.26,-0.27,0.07,-0.95,0.15,-63.63,70.56,17.37,0.2,2.07,1.51,0.38,1.55,0.08,-0.2,0.55,-0.35,0.73
1.15,-110.63,76.56,173.69,0.16,0.64,0.03,0.06,0.59,0.03,0.42,0.66,0.32,0.53,-100.51,80.56,174.5,0.24,1.21,0.09,0.88,1.25,0.32,0.46,0.61,0.38,0.52,-163.69,35.25,7.25,2.22,2.44,1.44,0.69,3.52,0.24,-0.29,0.1,-0.94,0.15,-61.25,67.94,14.37,0.31,2.01,1.49,0.02,1.05,0.95,-0.19,0.53,-0.36,0.74
1.16,-110.69,77.31,173.5,0.08,0.7,0.03,1.16,0.59,0.33,0.41,0.66,0.32,0.54,-100.26,81.63,169.81,0.23,1.13,0.03,0.89,0.03,0.48,0.44,0.62,0.37,0.54,-164.56,37.56,11.31,2.44,2.34,1.4,0.76,2.79,0.19,-0.3,0.14,-0.93,0.16,-59.9,65.69,13.34,0.34,1.86,1.18,0.74,1.58,0.64,-0.18,0.52,-0.36,0.75
1.17,-110.5,78.19,172.87,0.21,0.76,0.04,1.76,0.57,0.02,0.41,0.66,0.32,0.54,-100.14,82.81,169.81,0.19,1.4,0.02,1.94,0.8,0.33,0.43,0.61,0.37,0.55,-165.31,39.63,15.81,2.76,2.05,1.33,1.59,0.43,0.57,-0.32,0.17,-0.92,0.17,-58.56,63.44,12.3,0.37,1.72,0.87,1.47,2.11,0.33,-0.18,0.5,-0.36,0.77
1.18,-109.94,78.75,172.06,0.19,0.43,0.05,0.73,0.39,0.52,0.41,0.66,0.32,0.55,-100.07,83.37,169.81,0.12,1.2,0.04,1.13,0.67,1.59,0.43,0.61,0.37,0.55,-166.06,41.37,15.81,2.9,2.25,1.64,0.06,0.56,0.85,-0.33,0.17,-0.91,0.16,-58.81,61.44,11.93,0.65,1.47,1.11,1.51,3.28,0.2,-0.17,0.49,-0.37,0.77
1.19,-109.81,78.87,171.81,0.06,0.04,0.06,0.5,0.35,0.42,0.41,0.66,0.32,0.55,-100.14,84.19,169.88,0.1,0.8,0.01,0.2,0.82,1.64,0.43,0.6,0.38,0.55,-166.88,43.13,21.18,2.74,2.33,1.25,0.35,3.09,0.47,-0.34,0.21,-0.9,0.17,-57.81,59.69,10.99,0.32,1.24,1.22,0.89,0.47,1.3,-0.17,0.47,-0.38,0.78
1.2,-109.63,79.0,172.0,0.12,0.14,0.07,0.21,0.38,0.25,0.41,0.65,0.32,0.55,-100.07,84.69,169.88,0.14,0.76,0.01,0.74,0.34,0.28,0.43,0.6,0.38,0.56,-166.88,44.88,25.71,2.61,2.15,0.7,0.6,1.78,0.5,-0.35,0.25,-0.89,0.19,-56.81,58.06,10.37,0.33,1.18,0.92,0.73,0.34,0.6,-0.16,0.46,-0.38,0.79
1.21,-109.31,79.31,171.81,0.32,0.27,0.04,0.69,0.36,0.59,0.41,0.65,0.32,0.55,-99.89,85.12,169.94,0.28,0.94,0.06,1.17,0.12,0.26,0.43,0.6,0.38,0.56,-166.88,46.63,30.25,2.47,1.97,0.16,0.85,0.47,0.53,-0.35,0.28,-0.87,0.2,-57.19,56.56,10.49,0.77,1.1,0.8,2.12,0.19,0.87,-0.16,0.45,-0.38,0.79
1.22,-108.94,79.5,171.44,0.27,0.14,0.02,0.5,0.23,0.54,0.41,0.65,0.32,0.55,-99.7,85.5,170.06,0.32,0.75,0.18,0.94,0.1,0.89,0.43,0.6,0.39,0.56,-166.06,48.44,34.12,2.28,1.97,0.19,0.72,0.33,1.1,-0.36,0.31,-0.85,0.23,-57.62,55.25,10.68,0.97,0.88,0.81,1.86,1.1,0.02,-0.15,0.44,-0.39,0.79
1.23,-108.88,79.47,171.78,0.18,0.1,0.05,0.42,0.46,0.84,0.41,0.65,0.33,0.55,-99.64,85.75,170.06,0.23,0.48,0.16,0.47,0.19,1.85,0.43,0.6,0.39,0.56,-165.53,50.32,38.47,2.24,2.22,0.2,1.05,0.71,1.09,-0.36,0.35,-0.83,0.25,-59.25,54.19,11.31,1.06,0.77,0.67,1.17,3.02,0.56,-0.15,0.44,-0.4,0.79
1.24,-108.81,79.44,172.13,0.09,0.05,0.08,0.34,0.7,1.14,0.41,0.65,0.33,0.55,-99.7,85.81,169.93,0.07,0.2,0.09,0.16,0.23,1.38,0.42,0.6,0.39,0.56,-165.0,52.19,42.81,2.2,2.46,0.22,1.38,1.09,1.08,-0.36,0.38,-0.81,0.27,-59.88,53.13,11.62,0.86,0.75,0.82,2.51,1.96,1.05,-0.14,0.43,-0.4,0.79
1.25,-108.81,79.5,172.62,0.21,0.08,0.12,0.21,0.9,1.17,0.41,0.65,0.33,0.55,-99.7,85.88,169.75,0.2,0.48,0.18,0.19,0.56,1.06,0.42,0.6,0.39,0.56,-164.13,54.25,47.75,2.17,2.56,0.41,0.87,1.01,0.22,-0.36,0.41,-0.78,0.3,-60.75,52.25,12.18,0.87,0.63,0.3,2.79,2.89,1.01,-0.14,0.43,-0.41,0.79
1.26,-108.63,79.62,173.0,0.3,0.1,0.12,0.01,0.47,0.89,0.42,0.65,0.33,0.55,-99.7,85.94,169.56,0.34,0.75,0.26,0.22,0.89,0.74,0.42,0.6,0.39,0.56,-163.12,56.37,52.62,2.13,2.36,0.78,1.16,1.31,0.52,-0.36,0.45,-0.75,0.32,-62.19,51.88,12.8,1.32,0.65,0.28,3.0,2.82,1.16,-0.14,0.42,-0.42,0.79
1.27,-108.31,79.75,173.31,0.32,0.15,0.14,0.31,0.17,0.94,0.42,0.64,0.34,0.55,-99.64,85.87,169.31,0.18,0.46,0.15,1.01,0.09,0.26,0.42,0.6,0.39,0.56,-161.62,58.38,57.75,2.27,2.27,0.61,2.06,0.2,1.47,-0.35,0.48,-0.72,0.35,-64.25,51.0,13.99,1.32,0.66,0.81,3.32,1.19,0.88,-0.13,0.42,-0.43,0.79
1.28,-108.06,79.94,174.06,0.19,0.08,0.18,0.79,0.54,0.54,0.42,0.64,0.34,0.54,-99.64,85.87,169.31,0.09,0.01,0.02,0.32,0.3,0.69,0.42,0.6,0.39,0.56,-160.19,59.94,63.74,2.3,2.31,0.46,0.74,0.77,0.45,-0.34,0.52,-0.68,0.39,-65.87,50.12,14.68,1.18,0.59,0.59,2.52,1.08,1.08,-0.13,0.42,-0.44,0.78
1.29,-108.19,79.81,175.19,0.07,0.13,0.2,0.28,0.94,0.12,0.43,0.64,0.35,0.54,-99.39,85.94,169.18,0.28,0.01,0.09,0.66,0.47,1.47,0.42,0.6,0.39,0.56,-158.87,61.31,70.31,2.1,2.41,0.54,1.2,0.87,0.32,-0.32,0.56,-0.64,0.42,-67.96,49.46,15.9,1.09,0.57,0.32,2.98,1.04,1.11,-0.13,0.41,-0.45,0.78
1.3,-108.44,79.69,176.5,0.07,0.12,0.19,0.28,1.41,0.38,0.43,0.63,0.36,0.53,-99.32,85.87,169.06,0.2,0.39,0.13,0.7,0.81,0.16,0.42,0.6,0.39,0.56,-157.81,62.19,77.43,2.11,2.46,0.28,1.45,0.92,0.13,-0.29,0.6,-0.59,0.45,-70.06,48.81,17.12,1.0,0.55,0.05,3.43,1.01,1.14,-0.12,0.41,-0.47,0.77
1.31,-108.87,79.69,177.75,0.28,0.08,0.16,0.28,1.7,0.91,0.44,0.63,0.36,0.53,-99.32,85.75,168.99,0.11,0.41,0.11,1.28,1.18,0.55,0.42,0.6,0.38,0.56,-156.63,62.75,84.87,2.06,2.47,0.32,1.84,1.13,1.15,-0.26,0.64,-0.55,0.47,-72.44,48.25,18.18,0.96,0.44,0.19,2.3,0.91,0.54,-0.12,0.41,-0.48,0.77
1.32,-109.56,79.75,179.25,0.36,0.03,0.19,1.05,1.58,1.27,0.44,0.63,0.37,0.53,-99.39,85.56,168.87,0.06,0.06,0.04,0.74,0.99,0.32,0.42,0.6,0.38,0.56,-155.69,62.62,92.49,2.08,2.42,0.05,2.52,0.58,1.66,-0.22,0.68,-0.5,0.49,-74.19,47.94,18.99,0.85,0.21,0.17,2.54,0.95,0.4,-0.12,0.41,-0.49,0.76
1.33,-109.9,79.75,178.94,0.32,0.04,0.18,1.12,1.61,1.31,0.44,0.63,0.36,0.53,-99.51,85.62,168.81,0.06,0.05,0.05,0.73,1.37,1.22,0.42,0.6,0.38,0.56,-154.63,62.44,99.5,1.85,2.2,0.32,2.53,0.38,0.16,-0.18,0.71,-0.45,0.51,-75.75,47.62,19.68,0.75,0.22,0.24,2.95,1.3,0.74,-0.12,0.41,-0.5,0.75
1.34,-110.25,79.75,178.62,0.28,0.06,0.17,1.2,1.64,1.35,0.43,0.63,0.36,0.53,-99.57,85.69,168.81,0.2,0.04,0.04,0.17,1.72,1.08,0.42,0.6,0.38,0.56,-153.44,62.19,105.68,1.58,1.94,0.39,1.35,0.23,0.24,-0.15,0.74,-0.41,0.52,-77.37,47.44,20.12,0.57,0.13,0.25,3.78,0.73,1.15,-0.12,0.41,-0.51,0.75
1.35,-110.81,79.62,177.31,0.23,0.14,0.17,0.65,0.15,1.54,0.42,0.64,0.35,0.54,-99.83,85.75,168.81,0.42,0.19,0.03,1.39,1.3,1.16,0.42,0.6,0.38,0.56,-152.32,61.5,110.75,1.55,1.78,0.21,1.57,1.6,0.94,-0.11,0.76,-0.37,0.53,-78.37,47.25,20.49,0.49,0.11,0.11,3.52,0.54,0.7,-0.12,0.41,-0.51,0.74
1.36,-111.06,79.37,176.37,0.09,0.24,0.13,1.6,1.27,1.6,0.42,0.65,0.34,0.54,-100.32,85.87,168.81,0.52,0.1,0.02,1.04,0.22,0.65,0.42,0.6,0.38,0.57,-151.19,60.81,115.81,1.52,1.61,0.03,1.79,2.97,1.65,-0.08,0.77,-0.34,0.53,-79.81,47.06,20.99,0.51,0.17,0.06,3.63,0.36,0.86,-0.12,0.41,-0.52,0.74
1.37,-111.0,79.12,175.94,0.28,0.14,0.14,0.17,0.45,2.07,0.42,0.65,0.34,0.54,-100.76,86.0,168.74,0.13,0.06,0.15,0.46,0.16,2.28,0.41,0.6,0.38,0.57,-150.38,60.06,119.62,1.14,1.35,0.14,1.18,0.4,0.84,-0.05,0.79,-0.31,0.53,-81.25,46.97,21.86,0.5,0.13,0.29,3.34,0.35,0.94,-0.12,0.41,-0.53,0.73
1.38,-110.75,79.0,175.38,0.27,0.13,0.17,0.38,0.03,1.97,0.42,0.65,0.34,0.54,-101.07,86.06,168.56,0.13,0.07,0.15,0.06,0.2,1.75,0.41,0.6,0.38,0.57,-149.69,59.25,122.68,1.15,1.2,0.09,0.4,0.22,1.27,-0.03,0.8,-0.29,0.53,-82.69,46.88,22.74,0.49,0.09,0.51,3.04,0.34,1.03,-0.12,0.41,-0.54,0.73
1.39,-110.75,78.81,174.5,0.05,0.19,0.28,0.11,0.51,1.71,0.41,0.65,0.33,0.54,-101.32,86.19,168.43,0.1,0.02,0.17,1.18,0.4,1.07,0.41,0.61,0.37,0.57,-149.06,58.38,125.43,0.94,1.19,0.01,1.44,2.26,2.03,-0.01,0.81,-0.27,0.52,-83.87,46.88,23.24,0.34,0.06,0.24,2.84,1.38,0.38,-0.12,0.41,-0.54,0.72
1.4,-111.06,78.56,173.0,0.02,0.2,0.3,0.12,0.83,1.89,0.41,0.66,0.32,0.55,-101.57,86.44,168.24,0.08,0.31,0.11,0.65,0.03,1.96,0.4,0.61,0.37,0.57,-148.44,57.81,128.06,0.65,1.07,0.34,1.99,2.13,1.06,0.01,0.81,-0.25,0.52,-84.94,46.88,23.93,0.21,0.01,0.34,3.23,1.53,0.11,-0.12,0.42,-0.55,0.72
1.41,-111.5,78.31,171.37,0.06,0.19,0.33,0.09,0.35,2.1,0.4,0.67,0.31,0.55,-101.57,86.75,168.12,0.12,0.27,0.1,0.12,0.51,1.1,0.4,0.61,0.37,0.58,-148.5,57.31,130.18,0.51,0.94,0.29,3.26,0.95,0.83,0.02,0.82,-0.24,0.52,-84.77,47.1,23.81,0.21,0.03,0.33,3.1,1.48,0.16,-0.12,0.42,-0.54,0.72
1.42,-111.81,78.06,169.81,0.21,0.15,0.3,0.07,0.2,2.16,0.39,0.67,0.29,0.56,-101.57,86.94,168.06,0.05,0.1,0.09,1.2,0.06,0.05,0.4,0.6,0.37,0.58,-148.25,57.13,131.18,0.47,0.75,0.32,3.69,0.99,1.12,0.03,0.82,-0.23,0.52,-84.6,47.32,23.69,0.21,0.05,0.32,2.96,1.44,0.21,-0.13,0.42,-0.54,0.72
1.43,-111.56,77.81,168.94,0.43,0.15,0.24,0.65,0.03,1.94,0.39,0.67,0.29,0.56,-101.64,87.0,167.87,0.12,0.1,0.13,1.11,0.04,0.1,0.4,0.61,0.37,0.58,-147.69,56.81,132.93,0.44,0.54,0.28,2.62,1.84,0.62,0.04,0.83,-0.22,0.52,-84.42,47.54,23.56,0.21,0.07,0.3,2.82,1.39,0.26,-0.13,0.42,-0.54,0.72
1.44,-111.0,77.62,168.81,0.55,0.18,0.15,1.08,0.68,1.89,0.39,0.67,0.29,0.56,-101.45,87.06,167.74,0.3,0.01,0.14,0.91,0.97,1.69,0.4,0.6,0.37,0.58,-147.28,56.4,133.99,0.42,0.46,0.26,2.28,2.35,0.54,0.05,0.83,-0.21,0.51,-84.25,47.75,23.44,0.21,0.09,0.29,2.69,1.34,0.31,-0.13,0.42,-0.54,0.72
1.45,-110.69,77.5,168.75,0.26,0.04,0.11,0.55,1.63,1.64,0.39,0.67,0.29,0.56,-101.45,87.31,167.56,0.15,0.15,0.16,0.2,1.73,1.06,0.4,0.6,0.37,0.58,-146.87,56.0,135.06,0.39,0.37,0.24,1.93,2.85,0.45,0.06,0.83,-0.2,0.51,-84.08,47.97,23.32,0.21,0.11,0.28,2.55,1.29,0.36,-0.13,0.42,-0.54,0.72
1.46,-110.63,77.5,168.13,0.1,0.08,0.16,0.36,1.38,1.39,0.39,0.67,0.29,0.56,-101.39,87.5,167.37,0.16,0.08,0.18,0.01,1.1,0.66,0.4,0.6,0.37,0.58,-146.81,55.5,135.49,0.3,0.28,0.44,1.28,1.58,0.82,0.06,0.84,-0.2,0.51,-83.91,48.19,23.2,0.21,0.13,0.27,2.42,1.25,0.4,-0.13,0.42,-0.54,0.72
1.47,-110.63,77.62,167.62,0.15,0.13,0.03,0.48,0.66,0.6,0.39,0.68,0.29,0.56,-101.45,87.56,167.18,0.09,0.1,0.14,0.2,0.94,0.49,0.39,0.6,0.37,0.58,-147.06,55.0,135.49,0.2,0.26,0.36,1.8,0.57,2.11,0.07,0.84,-0.2,0.51,-83.74,48.41,23.08,0.21,0.15,0.26,2.28,1.2,0.45,-0.13,0.42,-0.54,0.72
1.48,-110.37,77.75,167.37,0.09,0.2,0.04,0.79,0.72,0.81,0.39,0.67,0.29,0.56,-101.51,87.5,167.06,0.03,0.09,0.1,0.17,1.05,1.1,0.39,0.61,0.37,0.58,-147.25,54.63,135.56,0.11,0.13,0.21,0.97,1.09,0.28,0.07,0.84,-0.2,0.5,-83.56,48.63,22.95,0.21,0.17,0.24,2.15,1.15,0.5,-0.13,0.42,-0.53,0.72
1.49,-110.56,77.94,166.62,0.12,0.15,0.12,1.73,0.84,0.5,0.38,0.68,0.28,0.57,-101.57,87.5,166.99,0.1,0.08,0.01,0.07,1.31,1.49,0.39,0.61,0.37,0.58,-147.25,54.75,135.87,0.09,0.06,0.33,0.46,2.51,0.01,0.07,0.84,-0.2,0.5,-83.39,48.85,22.83,0.21,0.19,0.23,2.01,1.1,0.55,-0.14,0.42,-0.53,0.72
1.5,-111.0,78.06,165.56,0.29,0.12,0.11,1.43,0.54,0.19,0.37,0.68,0.27,0.57,-101.45,87.44,166.99,0.09,0.11,0.02,0.72,0.84,0.46,0.39,0.61,0.37,0.58,-146.81,54.81,136.24,0.14,0.05,0.01,1.29,0.66,1.23,0.07,0.84,-0.2,0.5,-83.22,49.06,22.71,0.21,0.2,0.22,1.88,1.06,0.6,-0.14,0.42,-0.53,0.72
1.51,-111.37,78.19,164.5,0.23,0.17,0.1,0.68,0.28,0.01,0.36,0.68,0.27,0.58,-101.57,87.25,166.99,0.07,0.23,0.03,0.18,0.17,0.88,0.39,0.61,0.37,0.58,-146.69,54.75,136.37,0.1,0.02,0.07,1.85,1.04,1.12,0.07,0.84,-0.19,0.5,-83.05,49.28,22.59,0.21,0.22,0.21,1.74,1.01,0.65,-0.14,0.42,-0.53,0.72
1.52,-111.69,78.31,163.75,0.13,0.08,0.06,2.01,0.22,0.21,0.36,0.69,0.26,0.58,-101.57,86.94,166.99,0.02,0.29,0.04,0.5,0.05,0.09,0.4,0.61,0.37,0.58,-146.37,54.94,136.37,0.14,0.25,0.2,0.15,1.68,0.37,0.07,0.84,-0.19,0.51,-82.88,49.5,22.47,0.21,0.24,0.2,1.61,0.96,0.7,-0.14,0.42,-0.53,0.72
1.53,-111.75,78.31,163.69,0.1,0.01,0.05,1.96,0.2,0.7,0.36,0.69,0.26,0.58,-101.51,86.69,167.06,0.02,0.1,0.05,2.13,0.49,0.08,0.4,0.61,0.37,0.58,-145.75,55.25,136.43,0.24,0.27,0.02,0.2,1.18,0.64,0.08,0.84,-0.19,0.51,-82.7,49.72,22.34,0.21,0.26,0.18,1.48,0.91,0.75,-0.14,0.43,-0.53,0.72
1.54,-111.44,78.37,164.5,0.17,0.04,0.16,0.12,0.48,1.19,0.36,0.68,0.27,0.58,-101.51,86.56,167.12,0.01,0.21,0.02,1.61,0.31,1.93,0.4,0.61,0.37,0.58,-145.38,55.38,136.18,0.18,0.32,0.28,0.18,1.75,1.48,0.08,0.84,-0.19,0.51,-82.53,49.94,22.22,0.21,0.28,0.17,1.34,0.86,0.8,-0.14,0.43,-0.53,0.72
1.55,-110.81,78.5,165.56,0.42,0.06,0.13,0.73,0.96,0.38,0.37,0.68,0.28,0.57,-101.45,86.31,167.12,0.23,0.46,0.07,0.11,0.06,1.59,0.4,0.61,0.37,0.58,-145.5,55.38,135.37,0.07,0.47,0.11,0.96,0.56,0.43,0.07,0.83,-0.19,0.51,-82.36,50.16,22.1,0.21,0.3,0.16,1.2,0.82,0.84,-0.14,0.43,-0.52,0.72
1.56,-110.0,78.5,166.69,0.55,0.06,0.08,0.23,1.53,0.07,0.38,0.67,0.29,0.57,-101.2,85.81,166.99,0.43,0.45,0.11,0.91,0.54,0.46,0.4,0.61,0.37,0.58,-145.12,55.69,134.81,0.14,0.5,0.15,1.69,0.7,0.08,0.07,0.83,-0.19,0.51,-82.19,50.38,21.98,0.21,0.32,0.15,1.07,0.77,0.89,-0.14,0.43,-0.52,0.72
1.57,-109.56,78.44,167.25,0.57,0.1,0.08,0.43,1.35,1.37,0.39,0.67,0.29,0.56,-100.89,85.69,166.81,0.35,0.05,0.11,0.4,0.6,1.62,0.4,0.61,0.37,0.57,-144.75,56.0,134.18,0.13,0.42,0.17,0.38,1.56,0.44,0.07,0.83,-0.2,0.52,-82.02,50.59,21.86,0.21,0.34,0.14,0.94,0.72,0.94,-0.15,0.43,-0.52,0.72
1.58,-108.69,78.37,168.37,0.63,0.11,0.12,1.47,0.42,0.14,0.4,0.66,0.3,0.56,-100.83,85.75,166.68,0.17,0.07,0.07,1.42,0.55,1.5,0.4,0.61,0.37,0.57,-144.5,56.13,133.68,0.21,0.38,0.33,0.65,1.66,0.44,0.07,0.83,-0.2,0.52,-81.84,50.81,21.73,0.21,0.36,0.12,0.8,0.68,0.99,-0.15,0.43,-0.52,0.72
1.59,-107.63,78.44,169.75,0.66,0.12,0.13,1.02,0.27,1.02,0.41,0.66,0.32,0.55,-100.64,85.69,166.62,0.47,0.13,0.07,2.08,0.49,0.63,0.4,0.61,0.37,0.57,-144.19,56.56,133.49,0.17,0.54,0.3,0.24,0.02,0.65,0.07,0.83,-0.2,0.52,-81.67,51.03,21.61,0.21,0.38,0.11,0.66,0.63,1.04,-0.15,0.43,-0.52,0.72
1.6,-106.69,78.44,171.13,0.41,0.13,0.05,0.11,0.18,0.31,0.42,0.65,0.33,0.54,-100.2,85.62,166.49,0.44,0.29,0.04,0.05,0.22,0.44,0.41,0.61,0.37,0.57,-143.13,57.13,133.43,0.4,0.49,0.06,1.49,1.18,0.55,0.08,0.83,-0.19,0.53,-81.5,51.25,21.49,0.21,0.4,0.1,0.53,0.58,1.09,-0.15,0.43,-0.52,0.72
1.61,-106.12,78.25,171.81,0.3,0.1,0.02,0.35,0.35,0.2,0.43,0.65,0.33,0.54,-99.83,86.0,166.43,0.32,0.38,0.02,0.68,1.17,1.18,0.41,0.61,0.37,0.57,-142.44,57.56,133.43,0.4,0.5,0.07,0.9,0.22,1.51,0.08,0.82,-0.19,0.53,-81.37,51.69,21.06,0.11,0.41,0.18,0.59,1.05,1.21,-0.15,0.43,-0.52,0.72
1.62,-105.63,78.19,172.37,0.35,0.11,0.05,0.91,0.49,0.4,0.43,0.64,0.34,0.53,-99.45,86.37,166.43,0.44,0.27,0.01,1.1,0.42,0.1,0.41,0.6,0.37,0.57,-141.75,57.88,133.18,0.34,0.42,0.15,1.19,0.55,0.97,0.08,0.82,-0.18,0.53,-81.0,52.06,20.55,0.02,0.41,0.37,0.79,0.88,0.36,-0.16,0.43,-0.51,0.72
1.63,-105.12,78.0,173.13,0.4,0.21,0.06,0.21,0.43,0.21,0.44,0.64,0.34,0.53,-98.95,86.37,166.37,0.45,0.01,0.02,0.34,0.27,0.17,0.41,0.6,0.38,0.57,-141.0,58.19,133.06,0.36,0.39,0.14,0.64,0.88,0.21,0.09,0.82,-0.18,0.54,-80.94,52.44,19.87,0.02,0.41,0.38,1.24,0.05,0.86,-0.16,0.43,-0.52,0.72
1.64,-104.44,77.81,174.06,0.43,0.24,0.06,0.47,0.32,0.93,0.45,0.63,0.35,0.52,-98.51,86.56,166.43,0.34,0.22,0.06,0.12,0.2,0.86,0.41,0.6,0.38,0.57,-140.69,58.44,132.87,0.39,0.41,0.13,0.71,0.72,0.45,0.09,0.82,-0.18,0.54,-80.44,52.75,18.99,0.15,0.35,0.44,0.92,1.15,1.35,-0.17,0.43,-0.51,0.72
1.65,-103.81,77.56,175.0,0.37,0.15,0.09,0.11,0.11,0.57,0.46,0.63,0.36,0.51,-98.07,86.87,166.43,0.36,0.33,0.07,0.63,0.19,0.9,0.41,0.6,0.38,0.57,-140.19,58.63,132.43,0.23,0.39,0.21,0.99,0.36,1.06,0.09,0.82,-0.18,0.54,-79.75,53.06,18.24,0.25,0.34,0.18,0.94,0.02,1.2,-0.17,0.43,-0.51,0.72
1.66,-103.25,77.44,175.87,0.31,0.12,0.08,0.22,0.11,0.46,0.47,0.63,0.37,0.51,-97.64,87.12,166.49,0.37,0.18,0.05,0.94,0.22,0.27,0.41,0.59,0.39,0.57,-140.25,58.94,131.93,0.04,0.43,0.05,0.9,0.99,0.62,0.08,0.82,-0.18,0.54,-79.94,53.5,18.3,0.29,0.35,0.46,0.43,1.75,0.19,-0.18,0.43,-0.51,0.72
1.67,-102.69,77.25,176.63,0.31,0.19,0.08,0.41,0.11,0.65,0.47,0.62,0.37,0.5,-97.14,87.25,166.49,0.46,0.09,0.01,0.72,0.18,1.01,0.41,0.59,0.39,0.57,-139.56,59.5,131.68,0.12,0.57,0.25,0.12,0.15,1.23,0.08,0.81,-0.18,0.55,-79.94,54.0,18.43,0.21,0.37,0.26,0.21,0.1,0.24,-0.18,0.44,-0.51,0.72
1.68,-102.25,77.06,177.38,0.25,0.23,0.09,0.52,0.54,0.42,0.48,0.62,0.38,0.5,-96.7,87.5,166.49,0.37,0.39,0.04,0.81,0.28,0.31,0.42,0.59,0.39,0.57,-138.88,59.94,131.31,0.17,0.45,0.19,0.36,0.09,0.93,0.08,0.81,-0.17,0.55,-79.81,54.44,18.05,0.14,0.46,0.09,0.14,0.4,0.47,-0.18,0.44,-0.51,0.72
1.69,-101.87,76.75,178.0,0.1,0.18,0.06,0.4,0.5,0.24,0.49,0.62,0.38,0.49,-96.33,88.0,166.62,0.16,0.48,0.11,0.42,0.15,0.91,0.42,0.59,0.4,0.57,-139.0,60.19,130.81,0.15,0.36,0.13,0.16,0.4,0.96,0.08,0.81,-0.18,0.55,-79.87,55.12,17.93,0.12,0.62,0.23,0.31,1.17,0.56,-0.19,0.44,-0.51,0.72
1.7,-101.69,76.56,178.38,0.05,0.18,0.07,0.87,0.11,0.13,0.49,0.61,0.38,0.49,-96.07,88.25,166.68,0.12,0.2,0.08,0.2,0.02,0.54,0.42,0.58,0.4,0.57,-138.88,60.25,130.56,0.14,0.41,0.1,0.4,0.9,0.82,0.08,0.81,-0.18,0.55,-80.12,55.81,17.81,0.03,0.62,0.04,0.15,0.76,0.55,-0.19,0.44,-0.51,0.71
1.71,-101.5,76.37,178.81,0.04,0.22,0.08,0.08,0.37,0.78,0.49,0.61,0.38,0.48,-95.89,88.31,166.75,0.13,0.1,0.06,0.14,0.33,0.3,0.42,0.58,0.4,0.57,-138.5,60.56,129.99,0.14,0.48,0.02,0.39,0.3,0.37,0.08,0.81,-0.18,0.56,-80.44,56.5,17.56,0.11,0.59,0.05,0.66,1.71,0.77,-0.2,0.44,-0.51,0.71
1.72,-101.38,76.06,179.12,0.05,0.24,0.06,0.44,0.92,0.1,0.5,0.61,0.39,0.48,-95.76,88.37,166.81,0.08,0.42,0.07,0.27,0.21,0.33,0.42,0.58,0.4,0.57,-138.25,60.94,129.5,0.18,0.38,0.05,0.27,0.35,1.44,0.08,0.81,-0.18,0.56,-80.5,57.19,17.3,0.08,0.64,0.03,1.2,5.41,0.69,-0.2,0.45,-0.51,0.71
1.73,-101.25,75.81,179.44,0.06,0.19,0.05,0.8,0.54,0.3,0.5,0.61,0.39,0.48,-95.64,88.69,166.87,0.02,0.38,0.06,0.58,0.17,0.61,0.42,0.58,0.41,0.57,-137.75,61.25,129.24,0.25,0.27,0.11,0.18,4.28,1.91,0.08,0.8,-0.18,0.56,-80.44,57.38,16.99,0.28,0.19,0.3,1.79,4.44,0.07,-0.21,0.45,-0.51,0.71
1.74,-101.19,75.69,179.63,0.01,0.06,0.03,0.44,0.08,1.12,0.5,0.61,0.39,0.48,-95.57,88.81,166.93,0.09,0.23,0.07,1.0,0.64,1.61,0.42,0.58,0.41,0.57,-137.56,61.5,128.93,0.1,0.17,0.03,0.94,4.76,0.47,0.08,0.8,-0.18,0.56,-80.69,57.81,17.56,0.23,0.28,0.97,0.38,2.18,2.34,-0.21,0.45,-0.5,0.71
1.75,-101.12,75.56,179.81,0.06,0.29,0.05,0.26,0.08,0.65,0.5,0.61,0.39,0.47,-95.57,88.69,167.06,0.02,0.04,0.13,0.11,1.18,0.24,0.42,0.58,0.41,0.57,-137.75,61.5,128.56,0.14,0.19,0.11,0.88,3.28,0.97,0.07,0.8,-0.18,0.56,-80.69,58.25,17.62,0.14,0.36,0.05,0.64,0.19,1.62,-0.21,0.45,-0.5,0.71
1.76,-100.94,75.19,179.75,0.13,0.3,0.06,0.07,0.66,0.05,0.5,0.61,0.39,0.47,-95.32,88.56,167.06,0.14,0.46,0.11,0.53,0.64,0.02,0.42,0.58,0.41,0.57,-136.94,61.94,129.06,0.23,0.14,0.66,0.97,0.52,1.17,0.08,0.8,-0.17,0.57,-81.06,58.44,17.43,0.21,0.19,0.21,0.71,3.42,0.39,-0.21,0.45,-0.5,0.7
1.77,-100.44,74.94,179.06,0.37,0.21,0.12,0.41,0.75,0.08,0.5,0.61,0.38,0.47,-94.95,88.44,167.0,0.18,0.33,0.07,0.26,0.03,1.03,0.42,0.58,0.41,0.57,-135.94,62.62,130.24,0.42,0.28,0.67,0.02,0.27,1.84,0.09,0.8,-0.16,0.57,-81.75,58.81,17.81,0.27,0.28,0.36,0.87,2.53,1.19,-0.22,0.46,-0.51,0.7
1.78,-99.75,74.69,178.25,0.35,0.21,0.11,0.35,0.03,0.14,0.51,0.61,0.38,0.47,-94.82,88.37,167.0,0.04,0.13,0.02,1.15,0.53,1.22,0.42,0.58,0.41,0.56,-134.69,63.25,130.87,0.39,0.23,0.18,0.15,0.9,1.35,0.1,0.8,-0.14,0.58,-82.81,59.13,18.18,0.43,0.3,0.12,0.05,1.09,0.27,-0.22,0.46,-0.51,0.7
1.79,-99.06,74.37,177.75,0.28,0.28,0.02,0.01,0.43,0.33,0.51,0.61,0.38,0.47,-94.82,88.37,166.94,0.06,0.1,0.05,0.83,0.35,0.11,0.42,0.58,0.41,0.56,-134.25,63.5,131.31,0.44,0.11,0.1,0.41,1.34,0.86,0.1,0.8,-0.14,0.58,-83.31,59.38,17.74,0.49,0.37,0.51,0.71,1.4,0.85,-0.23,0.45,-0.51,0.69
1.8,-98.87,74.12,177.69,0.01,0.21,0.01,0.39,0.54,0.62,0.51,0.61,0.38,0.47,-94.64,88.25,166.88,0.09,0.23,0.06,0.32,0.5,0.34,0.42,0.58,0.41,0.56,-133.75,63.44,131.56,0.35,0.1,0.17,1.63,0.58,0.01,0.11,0.8,-0.13,0.58,-83.87,59.75,17.49,0.38,0.38,0.21,2.01,0.84,1.54,-0.23,0.45,-0.52,0.69
1.81,-98.81,73.87,177.75,0.03,0.18,0.01,0.5,0.03,0.04,0.51,0.61,0.38,0.47,-94.57,88.12,166.81,0.02,0.26,0.04,0.38,1.22,1.26,0.43,0.58,0.41,0.56,-133.37,63.31,131.68,0.31,0.08,0.1,1.73,0.32,0.83,0.11,0.8,-0.13,0.58,-84.81,60.06,17.62,0.31,0.3,0.02,1.42,1.3,1.89,-0.24,0.45,-0.52,0.68
1.82,-98.9,73.62,177.84,0.04,0.24,0.02,0.5,0.47,0.2,0.51,0.62,0.38,0.46,-94.45,88.12,166.88,0.1,0.07,0.01,0.55,1.32,0.85,0.43,0.58,0.41,0.56,-133.12,63.63,131.87,0.16,0.25,0.29,0.49,0.51,1.73,0.11,0.8,-0.13,0.58,-85.06,60.31,17.24,0.31,0.29,0.43,0.38,0.08,1.46,-0.24,0.45,-0.52,0.68
1.83,-99.0,73.37,177.94,0.04,0.3,0.02,0.49,0.91,0.35,0.51,0.62,0.38,0.46,-94.26,88.06,166.75,0.08,0.02,0.15,0.32,0.46,0.66,0.43,0.58,0.41,0.56,-132.37,64.12,132.18,0.12,0.25,0.45,0.13,0.06,0.9,0.12,0.8,-0.12,0.58,-85.62,60.5,17.12,0.17,0.16,0.07,1.68,1.01,1.03,-0.24,0.45,-0.53,0.68
1.84,-98.87,73.06,177.81,0.09,0.22,0.04,0.36,0.18,0.15,0.51,0.62,0.38,0.46,-94.07,87.75,166.5,0.06,0.19,0.22,0.02,0.29,0.47,0.43,0.58,0.41,0.56,-131.87,64.62,132.68,0.22,0.17,0.27,0.31,2.1,0.78,0.12,0.79,-0.11,0.59,-86.63,60.63,18.12,0.39,0.01,0.4,0.07,0.69,0.36,-0.24,0.46,-0.53,0.67
1.85,-98.68,72.9,177.68,0.08,0.18,0.04,0.26,0.14,0.23,0.51,0.62,0.37,0.46,-94.01,87.5,166.31,0.06,0.16,0.15,0.21,0.19,1.24,0.43,0.58,0.41,0.56,-131.19,64.94,132.99,0.45,0.2,0.16,0.09,0.62,1.7,0.12,0.79,-0.1,0.59,-87.81,60.69,19.12,0.48,0.01,0.2,0.78,1.18,1.82,-0.24,0.46,-0.53,0.67
1.86,-98.5,72.75,177.56,0.07,0.14,0.04,0.15,0.09,0.31,0.52,0.62,0.37,0.46,-93.95,87.44,166.25,0.05,0.04,0.06,0.42,0.09,1.07,0.43,0.58,0.4,0.56,-130.63,64.94,132.87,0.42,0.22,0.19,0.17,1.13,2.44,0.13,0.79,-0.1,0.59,-88.5,60.62,19.5,0.53,0.02,0.24,0.73,0.6,1.52,-0.24,0.46,-0.53,0.67
1.87,-98.75,72.56,177.75,0.11,0.15,0.03,0.03,0.32,0.27,0.52,0.62,0.37,0.46,-93.95,87.44,166.19,0.02,0.02,0.01,0.59,0.09,1.06,0.43,0.58,0.4,0.56,-130.63,65.0,132.37,0.27,0.23,0.25,0.28,0.15,2.16,0.13,0.79,-0.1,0.59,-89.19,60.56,19.87,0.58,0.03,0.28,0.67,0.02,1.21,-0.24,0.46,-0.54,0.67
1.88,-98.87,72.44,178.0,0.08,0.1,0.03,0.09,0.7,0.05,0.52,0.62,0.37,0.46,-93.95,87.38,166.19,0.1,0.04,0.02,0.38,0.38,1.48,0.43,0.58,0.4,0.56,-130.56,64.81,132.06,0.27,0.14,0.33,1.18,0.02,2.06,0.12,0.79,-0.11,0.59,-89.87,60.5,19.93,0.51,0.15,0.41,0.54,0.69,1.65,-0.24,0.46,-0.54,0.66
1.89,-99.06,72.37,178.12,0.08,0.08,0.01,0.15,0.23,0.2,0.52,0.62,0.37,0.46,-93.95,87.31,166.19,0.17,0.06,0.03,0.18,0.67,1.91,0.43,0.58,0.4,0.56,-130.56,64.62,131.99,0.23,0.05,0.15,1.28,0.19,2.07,0.13,0.79,-0.11,0.59,-90.38,60.63,19.55,0.32,0.28,0.37,0.61,0.21,1.75,-0.25,0.45,-0.54,0.66
1.9,-99.25,72.25,178.38,0.17,0.11,0.07,0.82,0.24,0.45,0.52,0.62,0.37,0.46,-94.07,87.37,166.19,0.11,0.23,0.03,0.19,0.29,0.57,0.43,0.58,0.4,0.56,-130.19,64.69,132.62,0.1,0.07,0.29,0.07,0.36,1.54,0.13,0.79,-0.1,0.59,-90.5,60.88,18.99,0.26,0.26,0.6,0.71,0.27,1.8,-0.25,0.45,-0.55,0.66
1.91,-99.62,72.12,178.87,0.22,0.09,0.09,0.84,0.2,0.52,0.52,0.62,0.37,0.45,-94.14,87.44,166.12,0.07,0.04,0.04,0.29,0.2,0.56,0.43,0.58,0.4,0.56,-129.5,65.19,133.93,0.04,0.01,0.85,0.18,0.3,1.74,0.14,0.79,-0.09,0.59,-90.62,60.94,17.93,0.29,0.22,0.69,0.66,0.13,1.7,-0.26,0.45,-0.55,0.65
1.92,-100.19,72.12,179.63,0.32,0.04,0.1,0.63,0.03,0.39,0.52,0.62,0.38,0.45,-94.2,87.37,166.12,0.08,0.02,0.03,0.05,0.49,1.18,0.43,0.58,0.4,0.56,-128.69,65.87,135.68,0.03,0.03,0.98,0.48,0.34,2.12,0.15,0.79,-0.07,0.59,-90.62,61.0,16.93,0.42,0.23,0.62,0.44,0.48,1.52,-0.27,0.44,-0.55,0.65
1.93,-100.75,72.19,179.63,0.31,0.06,0.09,0.64,0.35,0.01,0.51,0.62,0.37,0.46,-94.26,87.44,166.12,0.01,0.08,0.04,0.46,0.53,1.1,0.43,0.58,0.4,0.56,-127.75,66.5,137.31,0.05,0.03,0.79,1.0,1.0,2.61,0.16,0.79,-0.05,0.59,-90.75,61.13,15.99,0.42,0.3,0.66,0.1,0.45,1.36,-0.27,0.44,-0.56,0.65
1.94,-101.19,72.25,179.0,0.3,0.09,0.09,0.46,0.54,0.02,0.51,0.63,0.37,0.46,-94.32,87.56,166.25,0.03,0.16,0.1,0.72,0.26,0.99,0.43,0.58,0.4,0.56,-127.62,66.81,138.74,0.13,0.14,0.64,0.08,0.15,1.98,0.17,0.79,-0.04,0.59,-90.87,61.25,14.74,0.54,0.39,0.9,0.07,0.13,1.29,-0.28,0.43,-0.56,0.65
1.95,-101.56,72.37,178.5,0.08,0.14,0.06,0.57,0.47,0.48,0.5,0.63,0.37,0.46,-94.51,87.75,166.31,0.08,0.18,0.07,0.78,0.26,1.28,0.43,0.58,0.4,0.56,-127.25,67.0,139.93,0.09,0.15,0.48,0.1,0.13,1.19,0.18,0.79,-0.03,0.59,-91.0,61.37,13.3,0.59,0.31,0.72,0.39,1.52,1.88,-0.29,0.43,-0.57,0.64
1.96,-101.75,72.56,178.19,0.07,0.15,0.05,0.09,0.28,0.23,0.5,0.63,0.36,0.47,-94.7,87.81,166.37,0.23,0.25,0.01,0.79,0.02,1.31,0.42,0.58,0.4,0.56,-127.0,67.19,140.81,0.11,0.07,0.35,0.52,0.35,1.31,0.18,0.79,-0.02,0.59,-91.56,61.44,12.8,0.59,0.2,0.33,0.26,1.27,1.92,-0.3,0.42,-0.57,0.64
