0.01,-107.45938005018819,77.8072980640177,157.469441115643,0.016031754849073276,0.03907295341309955,0.018603724671719876,0.3546260133897927,0.057563047379755906,0.27706185127918576,0.35082346441359713,0.690355048887399,0.23931792265121293,0.5886272698625888,-94.44833506805014,82.34342405027107,121.61408713858415,0.03309437952244062,0.08805009813223899,0.0103194262049748,0.04008482502247057,0.03761496293244641,0.03361571641033717,0.21181122547349734,0.7001062066973873,0.11923801466306254,0.6681177468489556,-152.69993986318545,4.562578330553173,4.63694417016901,0.06719470784635477,0.06835237248230092,0.03978138676456352,0.12136641076656043,0.20868468792387113,0.13002792365470073,-0.030033677084839182,0.05023966984000023,-0.9698808474578124,0.24043955632606834,-119.80266302142128,7.633321995268846,8.86195675500435,0.03676519989822261,0.026039778834459532,0.03366303932320802,0.10512355140226833,0.18605003143553106,0.05571831205209591,-0.020261641177966607,0.0999530233523309,-0.8598791098289628,0.5001661608814992
0.02,-107.60360835331014,77.87954263883637,157.85359568994159,0.04817725089013678,0.0775718188383012,0.02716038457595505,0.42632260342199885,0.10835312890976288,0.42469940589511945,0.3522285786969282,0.6895640277774191,0.24125094537928674,0.587851457202308,-94.49647396592975,82.35967273852698,122.27354304661708,0.05395001547793056,0.10740706400758093,0.021768025149727494,0.13882825337637514,0.08402192553045859,0.06662228406716575,0.21531318334963126,0.6998381468830184,0.12304344631965684,0.6676995489989532,-152.710210174087,4.527464495322636,4.5285018727061015,0.0876941557703229,0.06837071597093884,0.05474358967307573,0.26244939254977784,0.30709394979141913,0.1349014111107139,-0.03014826660819561,0.04895472334977963,-0.970111198963939,0.239818251773877,-119.80925896473255,7.586724803411764,8.844606674892166,0.04351299899510307,0.026730501871270223,0.04325356915431823,0.2401560939556109,0.24384619793837883,0.05239706945653208,-0.020200544608486314,0.09984480931929665,-0.8599276286036411,0.5006914174113565
0.03,-107.74718272702763,77.95077550493195,158.2644881512814,0.07933607438659249,0.1188376536628849,0.03559670700630852,0.5035570653763439,0.15718410815336215,0.5584744179517429,0.3537642144693623,0.68873402867999,0.24337334317890838,0.5869817779291343,-94.54578749861713,82.38746869291148,122.97818320220678,0.07353178432364552,0.12996016049183212,0.032455505349253976,0.24694289860986404,0.1291211735232489,0.0996518242767939,0.21903400134866638,0.6994596468312996,0.12718543582859304,0.6672589985258424,-152.71525841850027,4.491866945409622,4.414761353505074,0.1076030784234951,0.06838926823720097,0.07158597243658993,0.401553721422483,0.40767669725748606,0.1490126905096953,-0.030276548144268774,0.04761402385101707,-0.9703166079983608,0.2392510771124168,-119.80889135808455,7.542493783803687,8.833315478007204,0.0509414028936638,0.02787510034407944,0.055559203491892716,0.37587214811854397,0.30083262059859056,0.05919863219621711,-0.02010054362095708,0.09978204384024533,-0.8599356697834262,0.5012509912662871
0.04,-107.87709566854207,77.98771523320406,158.7309970573479,0.10819699701890685,0.16569653996591271,0.043791672901633855,0.5870500114006295,0.2023750687772913,0.6699396886167848,0.3557533886401309,0.6878655502561571,0.24577202930327036,0.5857133589972316,-94.5919801290886,82.40518409713215,123.7961589828922,0.0908045090563607,0.16043280584181696,0.04190929937501743,0.3692608941188722,0.17178845509714738,0.13191704624992664,0.22348571213080448,0.6988701314541104,0.13197732203410664,0.6665083227604804,-152.70467601347895,4.4549020081687205,4.292777195100917,0.12642408759981383,0.06839324132220419,0.0914594446708931,0.5355478025091892,0.5103005949775586,0.181750951517761,-0.030407265295780455,0.0461969247135273,-0.9704726142408053,0.2388349092226176,-119.79165968036385,7.506288679159216,8.832135284425842,0.05924623744862116,0.029804944673474984,0.07166745607037893,0.5106984778458985,0.3560312291802512,0.08600156663767908,-0.019962516997000846,0.09980993009738463,-0.859843053325561,0.5019077699154193
0.05,-107.98041622429812,77.95760272830569,159.27662221022322,0.13366682725634513,0.22052845683890146,0.05160272766477548,0.6763285871492728,0.24250562858665167,0.752925164450499,0.35849166474750355,0.6869688678738306,0.24850051010449153,0.5837626799315097,-94.63077091954797,82.38999515332475,124.78732891068803,0.10492139037752721,0.20309746422234043,0.04977287539446786,0.5092419192295993,0.21110246139361086,0.16292267894680973,0.22913741725069595,0.6979866438733525,0.1376753434253136,0.6651691616610161,-152.6687339249765,4.415825506924458,4.160600644184813,0.14368909913956412,0.06838698122073181,0.11516978087331899,0.6611139914970634,0.6137083182389318,0.24136782866776552,-0.030525496613917704,0.04469335839166773,-0.9705570359695175,0.23866104067297583,-119.7484108067461,7.483499490069083,8.844250512228378,0.06846658215432659,0.032811656140521006,0.09226907766444029,0.6422371612427114,0.40832871440271773,0.1414254383510519,-0.019791976036349444,0.09996723346696677,-0.8595954246783019,0.5027192753933979
0.06,-108.0449866018488,77.82962283521582,159.91733941550072,0.1549486280744712,0.28505994628571996,0.05885620572632551,0.7696458768978383,0.27654449199143377,0.804163161068669,0.36222695394165,0.6860668165672251,0.2515685959283948,0.5808836752649293,-94.65799754340784,82.3181898314445,125.99879057763476,0.11529645630571765,0.26150131411766164,0.05583141701519806,0.6684646979680263,0.24641201035670052,0.19249728402811067,0.23638646844101338,0.6967513769913354,0.144452129211815,0.6629846234238308,-152.59882388573544,4.374115231605809,4.017612973685922,0.1589618839325815,0.068394310779359,0.14308027943792254,0.7748280919981155,0.7153559394627934,0.3342624466294682,-0.030613174726304936,0.04310678940646052,-0.9705505355777223,0.23881151850594845,-119.67127842546348,7.478955720170366,8.871653585535174,0.07844390968749475,0.03711391888406059,0.11756503405881259,0.7672541292075956,0.4564531518891149,0.23216333210808274,-0.019599782313569954,0.1002831091938555,-0.8591475947253039,0.5037343870308104
0.07,-108.0600543054204,77.57614147686753,160.66023367152735,0.17158127693880243,0.360207691464135,0.06534764453007894,0.8640442370846598,0.30393603137610253,0.8235994678707876,0.3671441137371048,0.685195869758977,0.2549363862263721,0.5768801800146308,-94.66970074901991,82.16553285773527,127.46156758693455,0.12164804902759375,0.3382349004089882,0.06002110922887448,0.8462683906328946,0.2773426510018226,0.22074612226267348,0.2455360308210664,0.6951370988906057,0.15237770639322773,0.6597290244765744,-152.48784797172874,4.3295162360682165,3.864728148385187,0.17184943616667658,0.0684550746904446,0.17505346978016195,0.8733241477413991,0.8114753879296688,0.4643597580597117,-0.030650043212079602,0.04145568147423596,-0.9704372017526146,0.23935566396791685,-119.55416324288865,7.496663826671667,8.914918242126,0.08880852113214117,0.04282654856580182,0.14721201251688532,0.8818413377839007,0.49900522095708494,0.3624034670556926,-0.01940249758269014,0.10077452631119015,-0.8584662152165697,0.504990856267027
0.08,-108.01679512496109,77.17373484124504,161.50300717508358,0.1834415216895053,0.44598760806676185,0.07085279797263028,0.95558245959604,0.32463466515802863,0.8143546479153996,0.37335532807741023,0.6844052062841325,0.25851327528814866,0.5716141088559361,-94.66219335980406,81.90773807260538,129.18866160660946,0.12401151363078478,0.43475905067443077,0.062423041839246296,1.039594158505991,0.30375535961115185,0.24793933268628582,0.25678005704956797,0.6931499234554934,0.1614096118294863,0.6552151365105615,-152.33053425658883,4.282050822592609,3.7044413803453473,0.18202184198002205,0.06861643653847649,0.21043924384941975,0.9535394476743267,0.8973640203758638,0.6326347491874491,-0.030615049952754405,0.03977339131585106,-0.970205144977952,0.24034690685888963,-119.39312667568784,7.539585795161126,8.973092950837756,0.09899690777068006,0.04993554715536469,0.1803130967824108,0.981742066973801,0.5345430754557917,0.5333867268674131,-0.01922223863317134,0.10144453234000121,-0.8575316000079024,0.5065136117190213
0.09,-107.90869894472985,76.60400095917053,162.43437325450162,0.19071499708887846,0.5415002988138898,0.07514831601912957,1.0397202009751498,0.33908487215793404,0.7823421187514857,0.3808966688843391,0.683753761621129,0.2621622029160292,0.565009111971651,-94.63211641192392,81.52107377697493,131.17457415305157,0.12272339925320762,0.5513044685117628,0.06324521519477143,1.243057892652464,0.32568250403418575,0.2743620797745791,0.2701962701222152,0.6908291122726556,0.17139285429591924,0.6492989652334066,-152.12365246027503,4.232002165626912,3.5407168121105346,0.18923699388052115,0.06891975804812131,0.24811262179778473,1.0130136984056426,0.9678713787432399,0.8368358866018527,-0.030488125592070935,0.03810657922281876,-0.9698470556377112,0.2418201715184364,-119.1866726584315,7.609469734699385,9.043727291361233,0.10829930974120057,0.05828285682576295,0.2154572484980669,1.0628001478354525,0.5617091594735797,0.7431490959630783,-0.01908593297107535,0.1022815910077496,-0.8563385632965723,0.5083137033060925
0.1,-107.73181923914318,75.85415247432766,163.43527353407632,0.19384319007159342,0.6449965938016786,0.07803914041284883,1.1118209961227394,0.34815222112732697,0.7355892226946406,0.38973060336772924,0.6833056187057402,0.2657088542090649,0.5570498014715277,-94.5764835736415,80.98309366105424,133.3962914840083,0.11838193608960405,0.6868525916748088,0.06279654166830176,1.4492594100842886,0.3432689915481535,0.30015989157434253,0.28574734815055025,0.6882439247377091,0.18206958319246283,0.6418822187686327,-151.8661052230283,4.179883560157104,3.378724675203937,0.19336379564178213,0.06938634462135054,0.28656019949602857,1.0501966923881267,1.0180283187916828,1.0714553396012778,-0.03025223875491023,0.03651228576937537,-0.9693606288643704,0.24379013264091903,-118.93589497210209,7.706740815287143,9.123033762028193,0.11593278472306531,0.06756350425613362,0.2508086081503009,1.1214739945078822,0.5793773994132717,0.9864945649147933,-0.019023912080909842,0.10326017925053847,-0.8548962516586786,0.5103876999483662
0.11,-107.48491689829625,74.91739659615368,164.4807850976682,0.19345162215228398,0.754016457442035,0.07938766392051413,1.167713023561284,0.35301586689457065,0.6833410435511775,0.3997535488727596,0.6831244257119126,0.2689549966858994,0.5477770406720113,-94.49271678169092,80.27345468996889,135.8155921929156,0.11178926867152368,0.8391965382473636,0.06145545731429455,1.6493083776746755,0.35673960559014783,0.3252132623025462,0.30328989366946896,0.6854879123620553,0.19309736966482968,0.6329127374320064,-151.55887863074875,4.126404572368924,3.2244535318285954,0.1943966007692097,0.0700062442687832,0.3240101190312778,1.0647080490871208,1.0437442780233348,1.327975536324489,-0.029895561021844704,0.03505382567219862,-0.9687487278156507,0.24625067980656623,-118.64447101773698,7.830458115538653,9.206176902194787,0.12113202434987157,0.07733619611625898,0.28424374099905503,1.1553460207714188,0.586793399254766,1.2552313201658742,-0.019067837691991874,0.10434273368612415,-0.8532270916713848,0.5127174684148575
0.12,-107.16954409920433,73.79311478171114,165.5425130972381,0.19026508330442982,0.8655839638652564,0.07913834170851247,1.204243377248814,0.35503662894405275,0.6350500927452546,0.410807013728866,0.683267712780281,0.2716946462548954,0.5372802177015422,-94.37868212478436,79.37476289270742,138.38239398265785,0.10388066567292216,1.0050723529193493,0.05963426302690524,1.8335265958113025,0.3664004985110414,0.3490699568723417,0.3225899539133536,0.6826713764893569,0.20407408927759407,0.6223832633592093,-151.20484910589735,4.072441859388915,3.0842348063652683,0.1924551399499471,0.07073335236209065,0.3585953497191953,1.057496406837985,1.0424810287294028,1.5953899420699171,-0.02941352150745011,0.03379570249652117,-0.9680191488547601,0.24917585030275208,-118.31848838877023,7.978340013889244,9.287671131557648,0.12324776827937943,0.08704697847042729,0.31353080603326705,1.1635557313801936,0.583681868864239,1.5386781945419767,-0.01924803073933049,0.10548287785024486,-0.8513651042796275,0.5152704402478051
0.13,-106.790103334884,72.4868559055393,166.59120385541954,0.1850198743040222,0.9764344648133512,0.07733189338130712,1.2197708975501287,0.3556178976952337,0.5993641865391329,0.4226906035112058,0.6837819468207015,0.27373135551999533,0.5256877373519329,-94.2327421765211,78.27338278137333,141.03874995432562,0.09564587307243191,1.1803466803748557,0.057739945428758564,1.9922702777907426,0.37266840413942465,0.37095216781485896,0.34334312720270893,0.6799128722303946,0.21456675144072485,0.6103289677470553,-150.8084613240304,4.0190169594142136,2.96422393177083,0.18776780213786756,0.07148833524303554,0.3885339565204645,1.0308633283781667,1.0137997464281765,1.8609582951151828,-0.028810492254936575,0.03279790059251778,-0.9671838804307656,0.2525222913537209,-117.96609966940618,8.146857867689747,9.361858711456152,0.12184103463195271,0.09606487726918687,0.33653889455717007,1.1470899014493086,0.5703036248816822,1.8244111820395412,-0.019590357796941484,0.10662965192982891,-0.8493538647386634,0.518000585749652
0.14,-106.35388174720184,71.01014683796234,167.5992861430838,0.1783873063157109,1.0832494665214183,0.07410597024602524,1.2145496337189035,0.35607722828940985,0.5832193696194834,0.4351753423362172,0.6846989480879745,0.27489473819995125,0.513156987614816,-94.05384373203968,76.96015534280741,143.7230778642986,0.08804845383063224,1.36024637368139,0.05613335607428254,2.1168042464983463,0.37610915423714925,0.38984298328068256,0.3651969569428453,0.6773306143754422,0.22414146079884692,0.5968240787687675,-150.37531148385517,3.9672774498738166,2.8698850724540863,0.1806407985238892,0.07216934574035037,0.41230448269284936,0.9883428077534118,0.9596826729307575,2.1111266988109385,-0.028100832060287687,0.03211010388698702,-0.9662578248092067,0.2562330301367819,-117.59701493964079,8.331395444242197,9.423430969514309,0.11676144225556503,0.1037284404252741,0.35145921271639974,1.1088766083582937,0.5474543201796862,2.099182153378323,-0.02011291802770594,0.10773227252959477,-0.8472442814387073,0.5208502810103853
0.15,-105.87101613181277,69.38010427647941,168.543068949116,0.17092274238193014,1.1828786791326975,0.06968332309830758,1.1909509308754889,0.3575418252585939,0.5911285347212796,0.44801629076392635,0.6860339826022156,0.27505446472666245,0.4998647358641868,-93.84165414281061,75.43098628128377,146.3742567090992,0.08194960812490609,1.5396157967628898,0.055090603948749164,2.200151814443284,0.37746066337497036,0.404646618464306,0.3877734591153522,0.6750344904815251,0.23239199798006413,0.5819778065590958,-149.9116887004532,3.9184741568624792,2.8055246345953666,0.17142008505756753,0.07266927762471724,0.42879251772442006,0.9344521029993532,0.8845578944909196,2.3325304126711,-0.027309039299720398,0.03176650416286457,-0.9652570864672598,0.26024205376221493,-117.22186051408819,8.526470172013902,9.4679514607277,0.10820051376325368,0.10940225047246725,0.35701388403727197,1.0536512002276357,0.5164056770806095,2.349917059353971,-0.02082285455000905,0.10874487237140108,-0.8450922054725039,0.5237531028638309
0.16,-105.35431094577551,67.61881211543019,169.40438893232297,0.1630485867865893,1.2725336401424732,0.06435230354703231,1.1534643771610846,0.3608721230408843,0.6247346795906391,0.46096410465135224,0.6877855157551522,0.27413035758276966,0.48599842809024574,-93.59674478320011,73.68727929129766,148.93531016705998,0.07804251772795678,1.7131872222235132,0.05477211877146347,2.2378387995670312,0.3776177628018958,0.41440837061358893,0.410690088344188,0.673119224482764,0.2389650262869395,0.5659296375179543,-149.42413982583003,3.873928023824733,2.7739124460382842,0.1604555554159422,0.07289716838392982,0.43738800032582986,0.8743469349043055,0.7950027834661159,2.5130015212508665,-0.02646883568134809,0.0317818189430203,-0.9641971067468033,0.2644790249471218,-116.85145438815186,8.726011359783065,9.492340753120047,0.09671549461579737,0.11254216638547197,0.3526248504479277,0.9875893020072857,0.47879903051536105,2.564695393074792,-0.021713674211689914,0.10963075879576004,-0.8429557909497336,0.5266374070771122
0.17,-104.8188289945004,65.75242549773144,170.1715918358496,0.15506962941832464,1.3499402597064165,0.058446265750600745,1.108425252274334,0.3666102584055092,0.6826728214955992,0.4737756817757392,0.6899363353498181,0.27209775531094715,0.471748418000351,-93.32080059425954,71.73619191671766,151.3564731285332,0.0768017656340641,1.8758483055852335,0.055204962572381784,2.228450037914808,0.37756820132599395,0.41856888005040194,0.43357798019137805,0.6716591145654865,0.24358044306647428,0.5488440320808905,-148.91912523762113,3.834986104549676,2.776018536928442,0.14807698548480508,0.07280049576205266,0.4380215286698939,0.8134211185867779,0.699156898152153,2.6425180697370085,-0.025621133862027256,0.03214897112717914,-0.9630910724862041,0.26887342422502475,-116.49606916269393,8.923689345671459,9.495289198993568,0.0832240811475908,0.112766972626202,0.33851673079345845,0.9177320694416379,0.43651128814172574,2.7336254218646263,-0.022763483431945567,0.11036592938177936,-0.8408925696686262,0.5294304033386206
0.18,-104.2812088338759,63.80998817270922,170.83982835508667,0.14720923555211451,1.4134387538148787,0.05232744897200986,1.063452484048,0.37495037424114197,0.7607550945337602,0.4862241635742849,0.6924556024903911,0.26898788799468376,0.4573009095436248,-93.01681696516965,69.59068825240064,153.59749656693864,0.07845099279436922,2.022889010604764,0.056282242971611676,2.1739262285012817,0.3782868788001182,0.41721271158807083,0.45609675286450546,0.6707046468994611,0.24604585535590057,0.5309046090242792,-148.40282245858006,3.802974449250816,2.810878760753519,0.1345883280521741,0.07238491132222716,0.4311396349383899,0.7568890569868658,0.6059241598110264,2.71404678304633,-0.024811038425278473,0.0328386700910793,-0.9619490450331142,0.2733575079035362,-116.16476558549824,9.113287593994695,9.47757483908562,0.06897372762654222,0.10993231405038471,0.31573484883446884,0.8512598717825323,0.39152062792970155,2.849555405652837,-0.023934517841460303,0.11094178603902995,-0.8389563408223631,0.5320623492203339
0.19,-103.75872457352307,61.822004372040766,171.4107282657736,0.1396500519332618,1.4620220322628457,0.04637795497883946,1.026640860659285,0.38573462102166317,0.8524586892842263,0.4981082860577461,0.695301384845012,0.26488357261095163,0.4428314286090903,-92.68923548931824,67.2693626968882,155.62910098113662,0.08295130853525175,2.1502109100113045,0.05778050519204633,2.079548857090442,0.3806102309732304,0.41125945131875064,0.4779454887806676,0.6702811068728906,0.24626461090716104,0.5123080019294812,-147.88111077998335,3.77916245519684,2.8755864108759233,0.12028195666609645,0.07172864043293548,0.4176301717966898,0.7093839213475385,0.5240754105493995,2.724238802062419,-0.0240842715181051,0.03380092326472742,-0.9607780974632271,0.2778676767922513,-115.86487873084215,9.289106955890944,9.442275613449793,0.05549018256505231,0.10420061966984281,0.28607197997009237,0.7946987712228274,0.34579817911792177,2.908590863134217,-0.02517424227227621,0.11136712457448682,-0.83719410410897,0.5344704433353595
0.2,-103.26816954586238,59.81887413450275,171.89157423251288,0.13256598259918131,1.4953107280972977,0.04099706040820689,1.0056109109634341,0.39848471116636314,0.9496599075252682,0.509260640931233,0.6984233004577002,0.2599110598214448,0.42849889824601267,-92.34397094911571,64.79601677880623,157.4335501361724,0.09001226329343726,2.254485733813088,0.059392918155312974,1.9535889421207806,0.38511710954282946,0.40254422058308803,0.49886981661115004,0.6703890945326377,0.24423727022071118,0.4932576826333703,-147.3597365425712,3.7647551785659785,2.9653932067771764,0.10546916601360624,0.07099036443676017,0.39871620062364527,0.6745991894656955,0.4613711867853567,2.673931071807249,-0.023483626506592546,0.034968295694986065,-0.9595834736423056,0.2823441369656334,-115.60172237113551,9.44638773246171,9.394874775141371,0.04450905037555271,0.09609867203182157,0.2519113800436299,0.7531635381514347,0.301242767190582,2.9104110796578935,-0.026418112357123425,0.11166952886840649,-0.8356433220093474,0.5366020113404243
0.21,-102.82468971319373,57.829353670892104,172.29412371507246,0.12614101713615247,1.5134739509380426,0.036601617396320486,1.0065553683152457,0.4124764005005589,1.0435268387966248,0.5195541283519777,0.7017649806897153,0.2542292533833719,0.4144406982545591,-91.98829251084533,62.19898539866277,159.00438439950005,0.09912518208657545,2.3332559828301065,0.06077387752967732,1.8066302720156615,0.3920370637321693,0.393749050310227,0.5186653331375045,0.6710066680607232,0.24005685457393805,0.4739580992626675,-146.84462201090597,3.7609256944511364,3.0738955868489803,0.0905198849219051,0.07041125717028607,0.37583862801975615,0.6549979749581981,0.4238127972833785,2.568388287097606,-0.023046124806851122,0.0362605209587141,-0.9583705088011994,0.2867290605584039,-115.37854760555422,9.58173096725072,9.34326271391269,0.03789256766825837,0.0865530397482277,0.2160057970364501,0.7297452404528652,0.25966278489947725,2.8583862918204184,-0.027593832745899664,0.11189627718944493,-0.834329804775453,0.5384166522445217
0.22,-102.44070228124758,55.87921455841986,172.6332285957119,0.12057926096092597,1.5171152767604819,0.03362502029307321,1.0334239933822895,0.4268529045425412,1.1254637933639784,0.5289059215103683,0.7052661474340679,0.24801768554507034,0.4007692199517292,-91.63053996937735,59.51022669479615,160.345419766791,0.10961535464364393,2.3849769098474796,0.061589485056982,1.6506181859027296,0.401199113402914,0.3881762770205747,0.5371779156480415,0.6720927187473409,0.23389863991048895,0.45460941942398914,-146.34224893138804,3.7688896185593443,3.193283990755853,0.075904028529581,0.07031264533800635,0.3505457236063458,0.6516126501221097,0.4151036244148085,2.4172053831712397,-0.022801423262006976,0.03758989856189088,-0.9571468606616123,0.29096375692396753,-115.19675367431135,9.693495759892214,9.297636030330441,0.037532376292588585,0.0768930776226545,0.18122022029279974,0.7251373407473748,0.22279590373030328,2.759489118665387,-0.028626688082012325,0.1121147872517015,-0.833266489312386,0.5398871583686056
0.23,-102.12501432392477,53.99023998041103,172.92538857614682,0.11611429792196007,1.5071488350347815,0.032509891565597714,1.0873652720144833,0.44076006709962745,1.1879949317370826,0.5372785672653393,0.7088642156717078,0.24146455613474554,0.38757027332293154,-91.27967790247664,56.76420898761716,161.46917496388218,0.12070658416412892,2.4090061853681624,0.0615679170289391,1.4977252641914345,0.412029342824324,0.389390546695937,0.5543017044372927,0.6735911033472944,0.22600565155964605,0.43540301277837357,-145.86002717736704,3.790011120812035,3.3146437886235,0.06222799006314183,0.07108978435477455,0.3244036244502595,0.6639560959489449,0.4363691450176293,2.233796729770504,-0.022771739331538126,0.03886687560599743,-0.9559245236638997,0.29498558004394415,-115.05630717291204,9.782144590910189,9.270287064185151,0.04523835131310297,0.06881190116275884,0.1502689343810607,0.7375629119016542,0.1923463570244839,2.6239775125468165,-0.029445366483193538,0.11241249973816601,-0.8324532822684106,0.5409992382022171
0.24,-101.8822205226103,52.179627914514874,173.18735501425104,0.11302376322353583,1.484688374499898,0.03369030963383122,1.1665036303100635,0.45347945862976297,1.2254830247650168,0.5446782410663924,0.7124954701516929,0.2347558865849655,0.37490336574928035,-90.94471424349788,53.996648226232296,162.3949247821997,0.13159058975449062,2.405553950131928,0.060543910028506634,1.3591587574807737,0.42360211975860695,0.40078330997260003,0.569975611602983,0.6754350049653821,0.2166712874507376,0.4165176449638819,-145.40655283046914,3.8259182413544686,3.42831283658378,0.05026061032771143,0.07320035949318178,0.29893609145066696,0.6900647569921675,0.4861505219500763,2.0344372944722893,-0.02297322757101455,0.04000533994276632,-0.9547211428468554,0.29872540239287715,-114.95628725377367,9.850503944231262,9.275267838514765,0.06261380178393225,0.06427817782218326,0.12547488124937678,0.7630226097395769,0.17001467358792816,2.4648165221812404,-0.029987697106482348,0.11289594163078939,-0.831877914216783,0.5417503009947789
0.25,-101.71242311139977,50.45979801883151,173.43487932098066,0.11164893947545262,1.4509640898705418,0.037561478836849134,1.2660811891965402,0.4645378736248619,1.2346029183398424,0.5511504955170315,0.7160960026147595,0.22806646871520425,0.3628035652714679,-90.63403285654583,51.24317001448732,163.14658676919726,0.14149471633334265,2.3756084692533084,0.05849256256065526,1.2440559504423694,0.434742910421408,0.4251252718214544,0.5841791036303393,0.6775509911620149,0.20622061442915435,0.39811629548010324,-144.9916707107165,3.878598864413802,3.52431510467654,0.0409430218745821,0.07714505285897164,0.27559322198612035,0.7266896446961212,0.5606583512870379,1.8368901742910506,-0.02341842072115828,0.040927380920239315,-0.9535603060851211,0.30210646415292314,-114.89544754313852,9.90390342815315,9.327906227966373,0.09091902776398318,0.06539636404088327,0.10857323186915012,0.7958366942405333,0.1574989513734323,2.296817102499193,-0.030205835140149295,0.11368855416785348,-0.8315174701563691,0.5421477211964209
0.26,-101.61128892992365,48.838544782730004,173.6816744303437,0.11241239189842324,1.4072715105185114,0.044438142012068214,1.378940549814746,0.473778092991798,1.21452804816865,0.5567740148289282,0.7196026978208653,0.2215528782669369,0.35128454041580837,-90.35470893805636,48.53798762329506,163.75063166826354,0.14974277902330488,2.3208495708347017,0.0555490322025268,1.1586150372023039,0.44417037621300876,0.46417011499476424,0.5969277493152875,0.6798623527070784,0.1949918431694504,0.38034356551659304,-144.6262842723766,3.950448971122841,3.5928948068887934,0.0353768252537642,0.08343782556307308,0.255738943324012,0.7696398219343483,0.654251870372514,1.6587374603829321,-0.024119078791214815,0.04156748769658662,-0.9524707466512257,0.30504521990738703,-114.87267872994542,9.950154586886311,9.444153641084517,0.1309285857408163,0.07422022267928743,0.10057446435862812,0.8294126290516274,0.1564585151120955,2.135507619892183,-0.030070552515972376,0.11492679363282138,-0.8313400837160798,0.5422070442374172
0.27,-101.57043785810744,47.319452993054576,173.93863096363833,0.11582153711488648,1.3549477536346657,0.054506732362945336,1.4962769093582835,0.4813810310263951,1.1668355565428261,0.5616529198961348,0.7229545575453011,0.21534846913292818,0.340342419350219,-90.11188690052234,45.91269200795396,164.2341736113583,0.1558045576410362,2.2435560742961935,0.05201197986438018,1.1055803505590367,0.45065708387450343,0.5183619854429307,0.608268729968251,0.6822915530699794,0.18331929650583983,0.3633237075029228,-144.32189701756647,4.044251139684355,3.6251663069160993,0.034785702632505994,0.09256580017751512,0.24064047297661986,0.8142615664968558,0.7600912660163376,1.5156046944778412,-0.02508863175184467,0.04187627974476485,-0.9514846525669246,0.3074544432254442,-114.88727297743881,9.999333421210158,9.639755821972848,0.18279238910723242,0.09253305812789571,0.10169678482754155,0.8571382493218667,0.16844417562553746,1.9958103352468484,-0.029574372378754286,0.1167541174298446,-0.8313063466374128,0.5419505300558298
0.28,-101.5781368000723,45.90248833693646,174.21330387224265,0.12244462586962007,1.2953653068571727,0.06777888849164708,1.6085506494109592,0.4878341286927489,1.095176261683119,0.5659081238245199,0.7260945166478874,0.2095600382154182,0.3299602028525849,-89.90829886611502,43.39523523926196,164.62335339332185,0.15932996163557128,2.1465092176673264,0.04832978439196927,1.084142537169828,0.45318687703606897,0.5866833522696225,0.6182762867628048,0.6847619075452748,0.1715188441060134,0.34715930393208816,-144.08991506688645,4.163072358421869,3.6138718086152006,0.04044675413675667,0.10494227182825289,0.2314437545652181,0.8560093362610134,0.8708932624724858,1.419511369603336,-0.02634344364540992,0.04182388510168538,-0.9506354415768182,0.30924840157246264,-114.93892938820608,10.063341299436365,9.929262142601972,0.24591601716010422,0.12161619012796095,0.11137284303894726,0.8732830593624744,0.19480798010085842,1.890654284013066,-0.02873331876249467,0.11931278798176602,-0.8313702722510652,0.5414062888809854
0.29,-101.62024759480207,44.584686332757066,174.50966245584587,0.1328498900476024,1.2299330225445855,0.08405465231253245,1.70643271620703,0.49384830857787376,1.0047772485282578,0.569668202238968,0.7289716967183775,0.2042657764682971,0.32011249142659987,-89.74398685500749,41.009158678085,164.94208322112334,0.16016528670533114,2.032894294663197,0.045069956113723504,1.0902452445748376,0.451091352497206,0.6666617841108214,0.6270469888367491,0.6871988077361187,0.1598763356810243,0.33193056093330164,-143.94078022484962,4.310084780512664,3.5542059005756856,0.05359000326611084,0.12085955716083314,0.22912684320849108,0.8910391248707357,0.9797058172359454,1.3775765881435449,-0.027902398904671714,0.0414030158710567,-0.9499553605738743,0.3103495236371858,-115.02749029730049,10.155238825962806,10.324921500426557,0.3188800603787808,0.16203277576432287,0.12833028199492014,0.8737895573508153,0.2366064250250623,1.8296985435740636,-0.027587067066295278,0.12273387487229158,-0.8314799785239987,0.5406080800669454
0.3,-101.68134912098637,43.360877276573,174.82808032022012,0.14750892814196506,1.1600971836343714,0.10290241554630421,1.7816608840518706,0.5002347579157709,0.9018483166690671,0.573060272339395,0.7315438768605874,0.19951418735236998,0.31077024521101254,-89.61626581426921,38.77308153495861,165.21117779250136,0.1583514587697053,1.906205390609321,0.04287368959762817,1.117233436779473,0.4441516724670401,0.7545355568049239,0.6346947470419864,0.6895308407767314,0.1486391362168964,0.31769511133688866,-143.88303062490652,4.488328706919182,3.444630707180449,0.0752688362768747,0.14044908785568352,0.23443348495809185,0.9167368868746085,1.0806129526645438,1.391259837664253,-0.02978473397940868,0.04063166442969355,-0.9494731538162784,0.3106957450758698,-115.15245161861111,10.288375196305815,10.835549474706268,0.39942045170061463,0.21345594175415009,0.1507394718645446,0.8568525561975023,0.2945058608238509,1.8183510720055862,-0.026197309474126004,0.12712625861783577,-0.8315784387322703,0.5395956528184171
0.31,-101.74593445416885,42.22439722930678,175.1655368234205,0.16667856551544732,1.0873394722015857,0.1236601366455802,1.8277155291750602,0.5077587897020158,0.7929592980668481,0.5762014561680944,0.733779904660991,0.1953238269994466,0.30190523981274586,-89.51993376761125,36.7004331951595,165.44785853650174,0.1541068675737324,1.7701582795974198,0.04239854168697008,1.1567440339736899,0.4326530020874378,0.8455594739447461,0.641345621960133,0.6916910626353205,0.13801054826127387,0.30448817535420275,-143.92239997122294,4.700449790887511,3.28757618332153,0.10621095934060788,0.16365414883085655,0.24779664764981216,0.9320906753827417,1.169286998610267,1.4562359669803742,-0.032006470626971775,0.03955518933516798,-0.9492119155728991,0.31024763882950424,-115.3123386752762,10.475368137427356,11.465484261049735,0.4844896706677103,0.2745680121515397,0.1764154039817212,0.8232139918513531,0.3686911806323597,1.8572406133652637,-0.024644226685924635,0.13256572648310483,-0.831604648265791,0.5384153388631936
0.32,-101.79958045325714,41.16774328680881,175.51600823374892,0.19028552611117186,1.013170469888522,0.14545943207599007,1.8402693533563066,0.516989567453452,0.6844493560848297,0.579191564695217,0.7356617926607872,0.19168393777143894,0.29349383910270427,-89.44770633465838,34.79939119261731,165.66558959275983,0.14779938876010068,1.6286111418902356,0.044252661464878544,1.1997215992046217,0.41738255859503054,0.9344160838920965,0.6471325921146698,0.69361857364353,0.1281467377552601,0.29232293089628003,-144.061065814229,4.948448183445347,3.089905461558358,0.1466670912421695,0.19021751445040494,0.26926486593462073,0.9378326924860445,1.2433198580276268,1.5629104923005335,-0.034576143116166566,0.03824741143016686,-0.9491871653615466,0.308994463213408,-115.50407470885446,10.727021105426603,12.2137689383094,0.5704109639081967,0.3430518187662748,0.20305486656772603,0.7761385886364827,0.4587739931069058,1.9422332608520707,-0.023021111895042235,0.13908538035734458,-0.8314954483491542,0.5371204900768988
0.33,-101.82999758169744,40.183137224846895,175.87103780482767,0.21784072018155506,0.9391162466516592,0.16727157396050898,1.817408708241997,0.5281640609878403,0.5819206809513209,0.5821075958045011,0.7371862655568263,0.18855621001391587,0.2855196789801445,-89.39083001505782,33.07298121967839,165.87418777633016,0.13991303633838978,1.4854844621612016,0.04892451296321325,1.2374337608827977,0.3995724133107117,1.0156866802141302,0.6521904848532118,0.6952604705505602,0.11915575300750636,0.28119102223784437,-144.29714070535903,5.2334743141462665,2.8630318066121294,0.1962800770730579,0.2196836729906746,0.29844427184245803,0.9363183610633096,1.3022886361683979,1.697493488835071,-0.03749069158596513,0.03681023290200668,-0.9494051686230865,0.30695837646152996,-115.72248497037977,11.051287358321444,13.073695778292612,0.6531243012178465,0.41568628062380303,0.22848480661548934,0.7210763004725794,0.5636990821746807,2.064992868512032,-0.021427425917588082,0.14666857458242705,-0.8311881026739364,0.5357713138880064
0.34,-101.82788607615181,39.26296941679979,176.22047821551513,0.24840444189368718,0.866693440189435,0.18797242131911496,1.7596488607255205,0.5410840826478691,0.48985609630106947,0.5850004659817436,0.7383655113053649,0.18587793194569954,0.2779748759990302,-89.33981351226741,31.519305501398236,166.08014327545223,0.13101422021109682,1.3446666273931647,0.05671336934957056,1.2623659106494427,0.38079948048514406,1.0843317705196165,0.6566512298743586,0.6965741715861022,0.11109830444747626,0.27106326992562485,-144.62446735029232,5.555695383053075,2.6226034637934426,0.25399795394002095,0.25141391527676216,0.334467974106834,0.9311616606451423,1.347550291154212,1.8434817881386392,-0.040732385459684356,0.03537125787932081,-0.9498615569698682,0.3041962891652508,-115.96006710861089,11.452396898142048,14.03281882992579,0.7285056901781689,0.488546926631543,0.2508930879699195,0.665055449056807,0.6816586457163021,2.2139899442361237,-0.01996081743228705,0.1552454597283002,-0.8306235703219927,0.5344337170394453
0.35,-101.78754550811581,38.40010893926487,176.55338978034823,0.2806131789141891,0.7973676744371263,0.20642160989224853,1.6697712313848458,0.5550665832494273,0.41138392422486997,0.587894151275536,0.7392269057782132,0.18356667627064488,0.27085950363387545,-89.28520948745748,30.131883671513734,166.28708938439595,0.12172073233258957,1.209894345695852,0.06766788928708928,1.2688992275735214,0.36285939373176596,1.1361312614644297,0.6606395425061139,0.6975299628663744,0.10399009876685492,0.26189076617283885,-145.0327362426451,5.9142416831481155,2.3877208493522923,0.3180501207170268,0.28461160255291346,0.3760033965807734,0.9266893140530577,1.3818135923794672,1.983361618679845,-0.04426743820697421,0.03407896063547492,-0.9505403584160886,0.3007991228840539,-116.2071148697715,11.930248152589842,15.073485138461312,0.7927244829221483,0.5572984045616343,0.2690098613623677,0.6158821768968774,0.8100351701799847,2.3757953659462614,-0.018708823829979085,0.16469388016806163,-0.829750269391622,0.5331769363283039
0.36,-101.70720403405087,37.58808545405483,176.85905317494814,0.31276693848598036,0.7324929534443827,0.2215496100569395,1.552510375349577,0.5689659036027687,0.3481958122302039,0.5907871708989889,0.7398115877840827,0.18152648602188315,0.26417932957677004,-89.21838008726782,28.90010608421875,166.49636387178143,0.11267379308595753,1.0846054791788455,0.08154178027318282,1.2537176069490605,0.34762697016141825,1.1680399877083292,0.6642691363075093,0.6981134187595209,0.09780562620170177,0.2536065727663539,-145.50790623777974,6.307226816779188,2.1797085022409757,0.38599757242469984,0.31835397373583946,0.42130746888433634,0.9272990449749748,1.4085855952632698,2.100340222417602,-0.04804662689592349,0.03309513729733523,-0.9514136061925564,0.2968884984492139,-116.4522146701008,12.480135812511785,16.17386321119339,0.8425913301463474,0.6175528254749955,0.28220964069661414,0.5812439240836266,0.9453951192064776,2.536470580686123,-0.017741027271836636,0.17484486519737613,-0.8285279940780887,0.5320699965197204
0.37,-101.58904910818646,36.821167113504735,177.12802233045937,0.3429664477594856,0.6732349788738938,0.23244470778984408,1.4141218380048117,0.5812789706328704,0.3006067109798046,0.5936561365365167,0.740171934422629,0.17965529500857003,0.257942106959598,-89.13218586719356,27.80980709715748,166.7076092565308,0.10451088631704121,0.9717715702496258,0.09777585122476654,1.2159337337213723,0.3369088521355655,1.17842351436348,0.6676395933901434,0.6983272166025186,0.09248332799812851,0.24612816720001043,-146.03289020537358,6.7318250616160595,2.0205238786247888,0.454858566716213,0.3516270883891439,0.46833684586058505,0.9368117511997734,1.431606566257451,2.1799356113814072,-0.052007841949979094,0.03258469973331216,-0.9524417313212771,0.2926110007529857,-116.68306312432792,13.092849935369067,17.309376849037697,0.8758470294236311,0.6652588409544078,0.2905145910925232,0.5678236969733829,1.0835464837229059,2.6828834045231877,-0.017102425907384297,0.18549236474604908,-0.8269315533018793,0.5311773165083776
0.38,-101.43895519545103,36.09436951817935,177.3531115131823,0.3692838040193427,0.6204861645179245,0.23843113942202449,1.2618671487490756,0.5903315544355212,0.26773314841210577,0.5964609209627116,0.740368148504628,0.1778530578903591,0.2521529848361513,-89.02154542660364,26.843964431984105,166.91936436789783,0.09783576470717252,0.8737247684391731,0.11551419586927811,1.1569587584585175,0.3322893405855546,1.1671520928714316,0.6708340364088228,0.6981918808847748,0.08793201556965788,0.23936065007750856,-146.58847074235925,7.184385680281281,1.9309409649437683,0.521301949339071,0.38336325178119535,0.5149119584003538,0.957901799409637,1.4543603543190107,2.2112838059544138,-0.0560801713095998,0.03270332022368096,-0.9535749360636671,0.28813020064319467,-116.88749956587408,13.755147913619703,18.45439915637769,0.8913516109117733,0.6970830828788602,0.29449924717744885,0.5805268138575645,1.2196664162095123,2.8038218639372823,-0.016808763093478066,0.19640633759996023,-0.8249536666336625,0.530553972631213
0.39,-101.26592032681079,35.40343251751764,177.5301907921034,0.38994705594944773,0.5747825656128549,0.2391297579601161,1.1034544867051654,0.5945283840742911,0.24775659747855397,0.5991508773515689,0.7404642718164401,0.17602982259501623,0.24680983625978875,-88.88382016553184,25.983522142259474,167.12960604541823,0.09318242169560227,0.7919982779891538,0.13365870392676424,1.0801593436529096,0.33497178084901574,1.135548719634983,0.673917714273501,0.6977451330001017,0.08403831999128891,0.23320059616279903,-147.15441809615115,7.660567978302194,1.9286943276272253,0.5818924148617155,0.4124842397991218,0.5589190802192707,0.9916767815050462,1.479694211714288,2.1880550540214845,-0.06018892371121641,0.033583968756625886,-0.9547556712986854,0.2836166994896898,-117.05462244405496,14.450571278536321,19.584033675120395,0.8891512708105607,0.7107460368852789,0.2951202806566683,0.621904799488825,1.3485074429011474,2.8908263216639947,-0.016844517900663936,0.20734790484561838,-0.8226067094337673,0.530241159237205
0.4,-101.08124486479107,34.744797482724486,177.6586651314644,0.4035170406286022,0.5362342634345979,0.23449355304110936,0.946473746390232,0.5926321655517486,0.2382331598678214,0.6016714639214423,0.7405239795561995,0.1741128414751261,0.24189947928538807,-88.71898728441329,25.208320852989523,167.33620831032383,0.09097223487139751,0.727201562560546,0.15096057239975955,0.9903541670876582,0.345624856697859,1.0862085914042192,0.6769375443361694,0.6970397150897281,0.08067486884732966,0.22754035685407417,-147.7107720826175,8.155489237397907,2.026801471709114,0.6333655610965836,0.43795537859631717,0.5985184722812767,1.0374584385257828,1.5095363028667605,2.1089049080465903,-0.06426092225599682,0.03532388667462529,-0.9559221862207509,0.2792366991422341,-117.17585983644334,15.160550414841206,20.675807543853416,0.8704223188543465,0.7052764959923784,0.2935115111853041,0.6918352401586761,1.46468972344009,2.9386967820915086,-0.017164088639872503,0.21808510893896182,-0.8199230499695082,0.530262301924314
0.41,-100.89751240065782,34.11560983271939,177.74154132560886,0.40903335536415103,0.5044825591578557,0.22481234351922882,0.7978662883437084,0.5840186021247692,0.23641102035470737,0.603970601420088,0.7406065103336829,0.17205184913711388,0.23739578712984213,-88.52957884664198,24.49810131870086,167.53729686845827,0.09146753337283493,0.6789518115665057,0.16614063720389058,0.893207073785589,0.36425117388740474,1.0227237211734888,0.6799225750110959,0.6961397568709724,0.07770881973860291,0.22227260998247836,-148.23921338331007,8.66388570602002,2.2322864244126746,0.6729059681969494,0.4588529312161094,0.6323166855274042,1.0927925988051979,1.5446851794880536,1.97742340012211,-0.06822943821198753,0.03797382926133411,-0.9570128964872534,0.27513996550265185,-117.24588058525124,15.865711203164492,21.711120902697253,0.8373098848852931,0.6811526136267757,0.29078725653584114,0.7874846718387347,1.5630688851477803,2.9456557877333673,-0.017696319562519953,0.22840788080487967,-0.8169539237539072,0.5306201683601864
0.42,-100.72746122595777,33.513759746825606,177.78504595887796,0.40610726590094454,0.47869793781160913,0.21068473715570674,0.6634714176744626,0.5688472719228989,0.23952403216892562,0.6060041249227737,0.740763058963968,0.16982185005285066,0.23326042461880694,-88.32038721715313,23.83352849213939,167.7314884360534,0.09472882062144371,0.6458807951166701,0.17802374334361823,0.7945815976356491,0.3900992392145883,0.9493515208396212,0.6828852601547323,0.6951159646963057,0.07501030546133777,0.2172949601882726,-148.72439910414016,9.18029113440179,2.545491917371554,0.6983986420158945,0.4744412614318149,0.6594642564322516,1.1536895981852977,1.5846649956569416,1.8015871641924248,-0.07203827122353525,0.041531317298845474,-0.9579710963864335,0.2714484291371396,-117.26325270392245,16.547271063744482,22.67633094925391,0.7926913105035833,0.6403047517761078,0.2878888542924694,0.9035479913593154,1.6391407240907763,2.913168212000206,-0.01835198052332736,0.23814103211188495,-0.8137669663524936,0.5312952385916389
0.43,-100.5828583409817,32.9379580998026,177.79783702978796,0.3949454249994428,0.4576286242280008,0.19296084810856515,0.5476873566856848,0.548102463313562,0.24504020404234805,0.6077397945803813,0.741033916075896,0.16742313457359553,0.2294463964481952,-88.09796460563753,23.19716769544108,167.91801514717284,0.1005847350627691,0.6257294187197835,0.18566787789223418,0.6999292753491185,0.42163852733395235,0.8706625276262784,0.6858233831156202,0.694040130836814,0.0724602828950895,0.21251438626154184,-149.1550989377224,9.69923628155274,2.9600862809222406,0.7086233482790187,0.48424897740930084,0.6796592850053562,1.2150653435360088,1.627672788687341,1.5927707987958435,-0.0756446842380101,0.045939117643621366,-0.958749428197325,0.26824689267761037,-117.23077639779449,17.188392170911055,23.563391880404154,0.7398996549830075,0.5859675644503461,0.28549619488397154,1.0327261126477703,1.6894237895115685,2.845449085961854,-0.019033269860043913,0.2471543429858624,-0.8104426277129687,0.5322455392217604
0.44,-100.47349688271834,32.38782791225812,177.7899294766644,0.3763009861671609,0.43970053526440395,0.172664494927134,0.4532720998783938,0.5234900508114821,0.25085353907824576,0.6091595153080059,0.7414465834241462,0.16487870196383292,0.22590390007995706,-87.86997112454128,22.57433784327552,168.09674278280676,0.10862314161770799,0.6155300735731107,0.18846781482470126,0.6137832167321781,0.4566140210512472,0.7911972391137823,0.68872244637845,0.6929796340438183,0.06995728366523588,0.20785131944753996,-149.52496848760856,10.215465113096789,3.4637577761365432,0.703364103233193,0.4881263935460391,0.6930670074269267,1.271316958066049,1.6706608000598866,1.364436400906695,-0.07902109340435982,0.05108934092190606,-0.9593135745273299,0.2655772219087073,-117.15544338595923,17.775352609105873,24.370018282614662,0.6824419781357686,0.5223871501344945,0.28401133170963877,1.1663751646922376,1.7117569936595147,2.748728847120941,-0.019644039789205245,0.25536904629919555,-0.80706972719691,0.5334080859440079
0.45,-100.40642609182932,31.863979213126818,177.7715060792061,0.35136489102253293,0.4231601085004342,0.1509064302175438,0.3812959582355021,0.4972113360415646,0.2554149714937397,0.6102596808886704,0.7420150252121099,0.1622296870972711,0.22258737542462997,-87.64444588339751,21.953772884745305,168.2680982700158,0.11820947274652047,0.6118614446706652,0.1862163788863138,0.5394124225542583,0.4921923880014057,0.715156748392551,0.6915583533956499,0.6919926380113636,0.06742265851117568,0.20324313396571653,-149.83284766085148,10.724148093378606,4.039474493720154,0.6834142392729088,0.48626309974759657,0.700190284494396,1.3169382777510692,1.709582439344254,1.130677084854793,-0.08215549749550555,0.05683261444294328,-0.9596448087983751,0.26343688023441925,-117.04800650255822,18.298408650379457,25.099384444192733,0.623739816159112,0.45441179138140214,0.28360481062079024,1.2952405243893603,1.7054580172849052,2.6303775420136595,-0.020099332322180703,0.2627602291633418,-0.8037404062528325,0.534701984737992
0.46,-100.38549258481274,31.368030479365274,177.7517973846059,0.32162278620975493,0.4062458906703752,0.128799661634165,0.33124847653437944,0.47166093617461313,0.2578033376037535,0.6110498462051435,0.7427401272667612,0.15952964353334254,0.2194623200543387,-87.42908451663325,21.328040610668868,168.43292839865876,0.12853498798858423,0.6111470159781446,0.17911411002441774,0.4786643222346644,0.5252027280243865,0.6461433684284001,0.6943002522992503,0.6911245494438117,0.06480403309593316,0.19864683129114125,-150.08256153658482,11.221053992747503,4.6671042468747626,0.6504718801124552,0.47914925969643163,0.7017319276867908,1.3470791899302625,1.7397957159410382,0.9048137392162302,-0.08505059124681785,0.06299097863295657,-0.9597412268425908,0.2617818218635683,-116.92218631327003,18.752255986355035,25.759410800022433,0.5669068859253554,0.38701591465053253,0.28429927399847027,1.4101903523881099,1.6713070704246948,2.498000815226071,-0.02033297416053554,0.26935492779483605,-0.8005447356827544,0.5360330875703401
0.47,-100.41123030116736,30.902543333317606,177.73818972898508,0.28870679892775003,0.38737221078013534,0.10738501012910642,0.3012935770026496,0.44910807028358224,0.2577405848972568,0.6115501562953249,0.7436113172219809,0.15683858529542175,0.21651046712574795,-87.23060193278796,20.693692155745087,168.59231853507342,0.1386927153232396,0.6099618702982856,0.1677284542369462,0.43199245137796305,0.5524575022925605,0.5869578874227851,0.6969134706387472,0.6904060331651034,0.06207680227723297,0.19404068969711397,-150.28229257451096,11.70263112913426,5.325153265242021,0.606939870707244,0.46748047554984307,0.698477319424249,1.3579838267811872,1.7565830296320413,0.698222528332797,-0.08772146833979899,0.06937263393272267,-0.959617626516918,0.26053292618929397,-116.79359174650793,19.136049525709716,26.361717938651402,0.5145667642928479,0.32481939815942656,0.2860550865142955,1.5028920920112059,1.611353715060199,2.3586122173090804,-0.02030238077325112,0.2752260237092669,-0.7975653013022189,0.5372998855922516
0.48,-100.48109148165905,30.470848746510686,177.73566956917907,0.25426579643827557,0.3653059826591838,0.08757140882802923,0.2886519749648907,0.43141669533713933,0.25555656457657444,0.6117880740756442,0.7446091408742654,0.15421757349896378,0.2137322794844955,-87.05424253480362,20.051140570772375,168.7474054903926,0.14777295009655192,0.6053135366759375,0.15291327595230333,0.3986407461227926,0.5711176665119427,0.5394576113646359,0.6993624955829925,0.689852608303763,0.05924360729147838,0.18942464031903108,-150.4436466881096,12.165960841851849,5.992394800965081,0.5556638031079028,0.4520285065096799,0.691207225017834,1.347285554508654,1.755721095193507,0.5195169166357366,-0.09019194298284271,0.07578652730100603,-0.9593040948148747,0.25958472049075165,-116.67847670702254,19.45299950963418,26.920347440961528,0.46870788844796574,0.27166414640845116,0.2888262228987979,1.5664119986530944,1.528590441231193,2.2179720600538815,-0.019990266015390463,0.2804824497266335,-0.7948722379955977,0.5384001110249997
0.49,-100.58996818071135,30.076761915814064,177.74664778928323,0.21986616647239726,0.33931535316768996,0.07009242197820342,0.29007006428011456,0.4198429901525709,0.25210827738487246,0.6117949532799931,0.7457084057854801,0.1517244168226624,0.21114629440062768,-86.90347665885889,19.40429073852429,168.89921864356873,0.15496483259158964,0.5948693397959901,0.13570528290812073,0.37693723761400366,0.5790488586047378,0.5044856452140962,0.7016139165992248,0.6894656400358101,0.05633189817708196,0.18481916849862068,-150.5805348115791,12.608582994168351,6.649208772168484,0.49965541202687325,0.43351633384167676,0.6806367749554798,1.3141662505226555,1.7340228893429805,0.37414273889721306,-0.09248982328628001,0.08205501533264103,-0.9588434211401944,0.2588152407520235,-116.59247613385016,19.709615385429426,27.4503591225365,0.43057712018478844,0.23029747306420445,0.2925718809715233,1.5957293285197443,1.4265797667806124,2.0801675709614087,-0.01940346413639053,0.2852566193598466,-0.7925192926350508,0.539237407038741
0.5,-100.73091928723855,29.724206399162483,177.77114246892705,0.1869231030567233,0.3092688288317092,0.055478745748439605,0.3023153496384036,0.41492731529531207,0.2486583721381459,0.6116029258388056,0.7468813574668325,0.14941076889769186,0.20878549948883382,-86.77989713057528,18.75996459627101,169.04857419528062,0.15964745951833367,0.5771119827074951,0.11721494696569472,0.364638411246691,0.5751103623172813,0.48188772137547364,0.7036391890766395,0.6892344127678984,0.05338985221809931,0.18026267653161235,-150.70795458456215,13.028241128869176,7.278526696494236,0.44184998323253816,0.412535841763771,0.6673713152506536,1.259397126750714,1.6897791047570718,0.2643812264363468,-0.09464181162923675,0.08802337841993171,-0.9582875033717508,0.2580963129834438,-116.54945416905497,19.914709283736595,27.96641924011469,0.40062137848527446,0.20219143010648755,0.297230413583481,1.5881334805684892,1.3091397287097797,1.9474823578655398,-0.018569395757793306,0.2896903166795369,-0.7905414196532127,0.5397274653475416
0.51,-100.89599866835017,29.416790659584947,177.8072450076145,0.15665520228390803,0.27566785098818464,0.044046031370625106,0.32262592638044224,0.41647994112549747,0.24671992647660637,0.611242442223201,0.7481003430375522,0.14732057767184686,0.20669147365442042,-86.68330730853008,18.127182071172342,169.19602978988476,0.16145484053650871,0.551414532632183,0.09852696670451949,0.3592656882189623,0.5593277691703981,0.47062886203169396,0.7054170425079987,0.6891389132752754,0.050481051102161015,0.17580747606826277,-150.84072362439682,13.422630119686655,7.866354884897876,0.38493227632474825,0.3895299761708547,0.6518734604056502,1.185277525511319,1.6230482078652502,0.18970028392679816,-0.09666891877310106,0.09356562611519728,-0.9576929708912822,0.2573039129102516,-116.56056320074525,20.078290836349936,28.481495340862352,0.3784913521362204,0.18750466258873977,0.3026753600972229,1.543442419223698,1.1801703933844248,1.8205592348851733,-0.01753084894508016,0.2939204569067377,-0.7889541324987562,0.5398031751170242
0.52,-101.07707972047422,29.15739568787013,177.85176101261953,0.1300545157812688,0.23960484999997694,0.03589741993526261,0.3490412410114711,0.42364924641058815,0.24787844108964527,0.610740645397625,0.749339585294275,0.14548954802543063,0.20490738488641227,-86.61197324574714,17.516366051146374,169.34188757667204,0.16030456121275932,0.5180341398745356,0.08062098516693467,0.35839093150536416,0.5329208403127462,0.46900731402875107,0.7069353304397077,0.6891529508311816,0.047678403347030274,0.17151482508176386,-150.99221832519254,13.789233789010263,8.401915370156606,0.3312397658466768,0.36483746534757916,0.6344439308075442,1.0954838865292775,1.5357704799511507,0.1473547066837799,-0.09858327259362708,0.09858666101680759,-0.9571163338697971,0.25632828611018177,-116.63357313083165,20.210481637547268,29.00576796568626,0.36311757700022157,0.18517439034786254,0.30867478891108313,1.4639835152824507,1.04364412564849,1.6988107431992077,-0.01633980624046634,0.29806612364995005,-0.7877544886556946,0.5394184795360195
0.53,-101.26658773522273,28.9478361073326,177.90090683217673,0.10786728658760318,0.20265096406192376,0.030939605225970317,0.3805581035060752,0.43505730590680947,0.25360555340707663,0.6101205972804667,0.7505759712065683,0.14394512182818023,0.20347105476547678,-86.56299816129423,16.938538334026127,169.48622194243555,0.15638861799043588,0.4780308138587266,0.06431821513897105,0.3598520345681683,0.4981848248742764,0.4749425461095753,0.70819208932108,0.6892472800989309,0.04505783630261338,0.16744957576508662,-151.1732105489876,14.125311752832584,8.877486204144795,0.2827264628317537,0.338777200573124,0.6152239560661238,0.9948334410001541,1.431698150263801,0.13311676218766558,-0.10038696885029834,0.10302133105325556,-0.9566090908778236,0.255083166142992,-116.77249624066143,20.320555868787682,29.545852175487365,0.35285865447612164,0.1931144054307776,0.3148688003568236,1.354323227153648,0.9037111850239615,1.5809937946509398,-0.015051101807240327,0.3022181270990099,-0.7869233328140817,0.5385507443093868
0.54,-101.45807660850215,28.788647416909768,177.9509528280514,0.09058367085285897,0.16668988485147881,0.028909868149421463,0.4170892179200425,0.44898661123280464,0.26508159422040073,0.6094012313100823,0.7517890346407652,0.14270651701776418,0.20240917776942288,-86.53276781995827,16.404564104339006,169.6289079990633,0.15013278695606444,0.43312416520590646,0.050254418180028654,0.3618988041746567,0.458249077867174,0.48629402355711077,0.7091955935178144,0.6893924566460767,0.04269227126213605,0.16367499416149195,-151.3909380440383,14.428047141114527,9.288038599942654,0.24095757470296686,0.31173803243904696,0.5942259406059999,0.8889577863674447,1.3161375178358081,0.14202241991214468,-0.10207318946336714,0.10683114246761663,-0.9562133687716778,0.2535129786697352,-116.97750680908139,20.416183165304343,30.104390660621988,0.3457086781329077,0.20849065724888932,0.3207719519119744,1.220791424362681,0.764827830214521,1.465846069803547,-0.013716711726120424,0.3064320435772419,-0.7864283329494463,0.537201511172437
0.55,-101.64661335260448,28.67903094104509,177.99873025307932,0.07843634899525946,0.13372323176416592,0.02941037084347495,0.45924320349858627,0.463598332219346,0.2830460026744343,0.6085977932349174,0.7529604995862276,0.14178457731279356,0.20173347779659642,-86.51741165923544,15.924487391236942,169.769635858484,0.14213513687033283,0.3855063999620908,0.03887506687368671,0.3632756182612086,0.4167528353494598,0.5011552576736154,0.7099633160108971,0.6895612312478191,0.04064633557054754,0.16024819009756483,-151.64855372239364,14.694819886996921,9.630764836172338,0.20710868212968006,0.28424071442630794,0.5713936545512529,0.7838807919479179,1.19550599123121,0.16904246424184188,-0.10362929997254483,0.10999946433136201,-0.9559587545392256,0.25159674725085934,-117.24513676786847,20.50291873725084,30.68003998720918,0.3395402713306934,0.22804602620222914,0.32580185728623345,1.0708853864695673,0.6318179993257083,1.3526790276946468,-0.012381377862638791,0.3107253129853101,-0.786227407448452,0.5353955752752819
0.56,-101.82895905491849,28.616961280609715,178.04195336882208,0.0714085281708733,0.10567585805839724,0.03194604589411781,0.507981548242683,0.477156377067403,0.3076947342977592,0.6077224693037714,0.7540738173008134,0.14118146616708555,0.20143920246861574,-86.51322776974106,15.506983051270225,169.90790719800907,0.13309474359783802,0.3376317949274951,0.030445513328417224,0.36324496194105327,0.3774820856930113,0.5180703028286449,0.7105198945986717,0.6897303668889572,0.03897214998212539,0.15721645506253804,-151.94505424534734,14.923540109116606,9.904578188704372,0.18195647817580898,0.2569508253915203,0.5466841652724662,0.6855145902843298,1.0767354782324017,0.20962200083662874,-0.10504118317284511,0.11252603141432195,-0.9558608961560802,0.24934777927410237,-117.56871842910621,20.583958571816567,31.267831601119553,0.3323535191561253,0.2484464001993716,0.32933216609333116,0.9126464165422619,0.5098181449920499,1.241833544144137,-0.011080001298228706,0.3150785219052576,-0.7862722965635358,0.5331784283389545
0.57,-102.00355753258522,28.59943601361848,178.07934490514384,0.06925206173900146,0.08422622752483433,0.03596344680680751,0.5642270990058811,0.4882269086486455,0.33863987900076437,0.6067848990139962,0.7551140746831777,0.14089045342999312,0.20150600212211842,-86.51703023778215,15.158936961391756,170.04301892617406,0.12373981655775206,0.2920006671441676,0.02506832142711875,0.361554955302308,0.3440087740542204,0.5361390154388537,0.7108943763910142,0.6898818334477113,0.037706363471628625,0.15461470234989894,-152.2757010338666,15.112969334081232,10.109652518656961,0.16586125964297155,0.2306396046667377,0.5201522186983226,0.5991213403186239,0.9665947387866411,0.2600641632147996,-0.1062978170534971,0.11442153022587313,-0.9559221408965634,0.24680905342684026,-117.93903676075323,20.66015627921676,31.85985585274706,0.3225007112445116,0.26661892873214815,0.33076417749411613,0.7540860543925743,0.40409544466143743,1.134931602685149,-0.009836880668476268,0.3194405486502104,-0.7865121671125559,0.5306122687053165
0.58,-102.17036205490857,28.622830323249584,178.11058442812214,0.07151622507744235,0.07067952681640503,0.04088889238619525,0.6284975764933801,0.4958259305573722,0.37493758966067114,0.6057923389168957,0.7560684779215328,0.14089610530958552,0.2019009615855028,-86.52639254112748,14.885158370926492,170.17404193083874,0.11476165686807417,0.25095177935297064,0.022701502293524044,0.35836000851161515,0.3193681216303076,0.5550061267864138,0.7111171146079771,0.6900033940948407,0.0368684493547231,0.1524641329302632,-152.63284941575552,15.262970641866337,10.247057273307655,0.15874836415273744,0.20610590501025888,0.49201066187701675,0.5288139129927367,0.8710273356999303,0.31775527864868264,-0.10739512999932319,0.11570303477728507,-0.9561340180242839,0.24404520273092212,-118.34513977561288,20.73028194321888,32.44619186573606,0.30886247312010195,0.2800511369056384,0.3296057574775449,0.6027101035541742,0.3197553158698754,1.0348966590102766,-0.008666530060993398,0.3237368491780825,-0.786897139203374,0.5277709621053545
0.59,-102.33054407756369,28.683312450373965,178.1361216468356,0.07758677302145972,0.06589230827070165,0.0461645289618266,0.7006228450289785,0.4995000070506779,0.4151781077599737,0.604749389557828,0.7569273568109604,0.14117512185540795,0.20258333901326198,-86.53977634489911,14.688226057417493,170.29980229010206,0.10675811361899046,0.21647465674082053,0.023174365821456353,0.3541134679349667,0.3058010228563034,0.5747567224887213,0.7112167166539171,0.690088641691897,0.03646020562335649,0.1507721857755563,-153.0070284507095,15.374652251229964,10.318530886726496,0.1600973360006453,0.18408066267025716,0.46264556506691185,0.47716820252952813,0.7945932596982614,0.38123726420926174,-0.1083384226409715,0.11639097282533221,-0.9564809354703582,0.2411326815988715,-118.77523684152075,20.791489109186646,33.015989329673495,0.2909607540340962,0.28702007660802326,0.3255425251623083,0.465157947279636,0.2613709075259171,0.945749693025576,-0.00757557061877206,0.3278798626040948,-0.7873814824307089,0.5247344725685666
0.6,-102.4861341050669,28.777277211571654,178.15690902238384,0.08673351091170485,0.07024915898100148,0.05128087280538704,0.7795856161494907,0.49934085591712457,0.45762037875553624,0.6036573992813171,0.7576853759839294,0.14169795073145675,0.20351038797050547,-86.55654758126023,14.568469415758226,170.41887073317608,0.10018861738985188,0.19005414848839214,0.026200797256667588,0.3494568889594948,0.3045767425358902,0.5957589565815985,0.7112174081431752,0.6901365723815618,0.03646643416488603,0.14953373782143192,-153.38808625001292,15.450391701088506,10.326416814939599,0.16894741459813695,0.16513481561857937,0.4325817262384696,0.4449981573767015,0.7400727611986937,0.45013357439816165,-0.10914301345284523,0.11650807535847327,-0.9569442224648218,0.23814990697485805,-119.21759928385659,20.839942136090745,33.55860210015995,0.26900421374886013,0.2867274064062625,0.31848677564439165,0.34695107904948297,0.2325817622299663,0.8722060796898353,-0.006565074966821004,0.33178036450811405,-0.7879260881301424,0.5215833282616159
0.61,-102.63964353814868,28.9017599512928,178.17410990766658,0.09816359562490105,0.08368526163972505,0.05580454930303146,0.8635068736709294,0.4959435634987221,0.500347050233681,0.6025138437252487,0.7583424977161779,0.14243118995757678,0.20464348894929624,-86.5768904258877,14.524083012875613,170.52956598282745,0.09534310572337082,0.1725622199810604,0.03139182476683727,0.3451280678792709,0.3159007942612499,0.6185001633831455,0.7111371023311487,0.690150798355487,0.036856820782460845,0.1487333779493502,-153.76623569313045,15.493743515376552,10.273758983685937,0.1839276156158339,0.14960665399940834,0.4024139568390574,0.4313182477050639,0.7082596016250655,0.5249372866526762,-0.10983312068024056,0.11608037594984232,-0.9575056802021775,0.23516889963937107,-119.66137345629,20.871544115078322,34.06467769978867,0.24386843263962896,0.2793289657879474,0.308593400959335,0.25233259048389095,0.23571692283278137,0.8191101423887162,-0.005632753036430544,0.33535862842001574,-0.7884998303537922,0.5183936526359332
0.62,-102.7937092268743,29.054798987212333,178.18882978674617,0.11107734674307311,0.10574455787512999,0.05940028134830017,0.9497781780120264,0.490317645163648,0.541415506551342,0.601312043336825,0.7589042807731906,0.14334067397269568,0.20595374124268687,-86.60163627822489,14.551367220207222,170.6299794986661,0.09232821441589126,0.1642124770111571,0.03826993895113766,0.34190015644906646,0.3389080458065953,0.6434547271154196,0.7109863638000359,0.6901385049191561,0.03758897983785276,0.1483484300616257,-154.13288862194187,15.509242326962612,10.164520376734707,0.20331822400407398,0.13755937137013874,0.3727306261812409,0.4334969129456631,0.6979492070362524,0.6066816290012417,-0.11043926853582074,0.11513984415800967,-0.9581500344526616,0.23224937845127686,-120.09722635862624,20.88269761901341,34.52711843623194,0.2170168970031548,0.265861995964319,0.2962384397944821,0.18417823615634005,0.27149490014131805,0.7907670288098072,-0.004774495208232762,0.338554423285374,-0.7890795899110195,0.5152332003957492
0.63,-102.95079127105075,29.235720484449285,178.2019014348835,0.12472260996622689,0.13566183215795855,0.06184612217674181,1.0353205780836316,0.4837573002229383,0.5789874713651837,0.600041473164308,0.7593812747642671,0.1443949976279258,0.20742624753736433,-86.63203045315335,14.645080376490613,170.71803111171005,0.09107381892499122,0.16458801594565578,0.04628716725985916,0.3405506956678119,0.3717411193298149,0.6710047202755449,0.7107683421628982,0.6901092515962614,0.038612445775869024,0.14835231209311364,-154.48122874946532,15.502119894587294,10.003858034185907,0.22514707824526078,0.12877511793784138,0.3440531678110702,0.44758743293323106,0.7061177984981768,0.696533203099031,-0.11099468778366871,0.11372779351346687,-0.9588659933348197,0.22943557861637928,-120.51776647983712,20.87102725597253,34.94184565574216,0.1903708692921332,0.24808549968463994,0.28196453314581393,0.143965681900306,0.3388418492652719,0.7902641930642512,-0.003985022491548969,0.3413350782382092,-0.7896489392306475,0.5121587062190197
0.64,-103.11294106191481,29.445327265681886,178.2137358771216,0.13844241691529893,0.1724577547275192,0.06304030792258582,1.1169276331937523,0.47768012035106383,0.6114312249180028,0.5986887003053656,0.7597874785023384,0.14556907492007715,0.20906259194974378,-86.66946362731527,14.798882392136449,170.79156353740402,0.09136017783218094,0.1727429105713231,0.05484804573710426,0.3418471415971769,0.411714077945511,0.7014150089842298,0.7104796366168527,0.6900737064518155,0.0398732145547865,0.14871782489351448,-154.8065222813303,15.477962199861002,9.798369089209348,0.24731884271233687,0.12278684214821751,0.31680256166864845,0.46880460136768753,0.7282846480710438,0.7953671295865536,-0.11153127908063627,0.11189796814282428,-0.9596459092362258,0.22675550049169982,-120.91771332609328,20.835994406026654,35.3083167192877,0.1661387094827271,0.22825761736395528,0.2664058883594378,0.13179490787365586,0.4348547802884922,0.8188961372106576,-0.003257698189704536,0.34370103010161457,-0.7901956888386445,0.5092146978664972
0.65,-103.28164254240373,29.685983161090167,178.22423648919283,0.15171020862185922,0.21503772321526435,0.06299777682824857,1.1916361058681688,0.47345140774861705,0.637401296277763,0.5972387712339177,0.7601380044217975,0.14684721135836779,0.21088139025635788,-86.71519680978358,15.005846195341773,170.8484761427044,0.09286159411650093,0.1873649318271962,0.06333778641028477,0.3465297078975588,0.45555640944400855,0.7348502180133792,0.7101119443163234,0.6900423901243399,0.04131838966581344,0.14942005135642858,-155.10619038300032,15.44234269802758,9.556222067045136,0.26776868112596913,0.11894288911772392,0.29129022053044645,0.4920959054857145,0.7590373856383372,0.9033918594759386,-0.11207573277388712,0.1097182888350694,-0.9604842881897535,0.22422201920930518,-121.29382101706047,20.77934164235331,35.62976339462936,0.1466182731602153,0.20887828734491726,0.2502095811815532,0.14645472219600672,0.5549211173218573,0.8757986942418232,-0.002583844259627085,0.34568844070405186,-0.7907086474708819,0.5064337529644891
0.66,-103.45771719167408,29.961595757871702,178.23276662316346,0.16414840986302948,0.262287559573222,0.061835477794288385,1.257066264920963,0.4722164850696964,0.6559053232697333,0.595676749255642,0.760446210657031,0.14822518355270442,0.21291714856382665,-86.7701071460307,15.259009708962786,170.88688566542552,0.09519898452230405,0.20697546509196013,0.07115528356333216,0.3552763825482518,0.4997209891920002,0.7714127397144154,0.7096542526075926,0.6900244936933854,0.04290055988728807,0.1504386742101562,-155.37967477856563,15.400476215798607,9.287106741992874,0.284624017178502,0.1164931795466777,0.26772372081923884,0.5127393804111776,0.7926730809159863,1.0198850794911205,-0.11264635951404979,0.10727059723793958,-0.9613755701666558,0.22183529277838726,-121.64458769628533,20.705318328046634,35.913139424199,0.13398887261688755,0.19242600666195459,0.2339687207955905,0.18552879607853667,0.6929898100408338,0.9578650803207115,-0.0019520601181037135,0.3473686584931103,-0.7911740420483239,0.5038380082448818
0.67,-103.64127402987847,30.27751014440415,178.23815951179517,0.17552890548194305,0.31316121407596864,0.05974802115382708,1.311681199828547,0.47476219085935245,0.6663646660910963,0.5939891025681552,0.7607206322464646,0.14971100705579746,0.21521790637703617,-86.83447815767974,15.551935139723186,170.90528918319782,0.09799269816959591,0.23013507690653634,0.07775005686757355,0.36864718288208537,0.5407244072200967,0.8111760961931285,0.7090952646222216,0.690026824076011,0.0445816208077331,0.15175965117892265,-155.62813133959963,15.356938448613734,9.00196939760541,0.2963525249282474,0.11468261488610605,0.2462193731333111,0.526891589975905,0.8238758745085946,1.143082180764832,-0.11325108730712098,0.10464822843512601,-0.9623117121490012,0.21958602579499314,-121.96980115003929,20.620659500860306,36.16878387979408,0.13011081531138963,0.18111455137456023,0.21817793577045455,0.24553412896686191,0.8419711755710129,1.0599679113344762,-0.0013479997182042549,0.3488445369290523,-0.7915720815868315,0.501441609281913
0.68,-103.83168161592411,30.640332267698696,178.23875800422155,0.18575674996046326,0.3667567813715102,0.05697760004377737,1.3549256545279558,0.4814243234856596,0.6686666275416865,0.5921647505469915,0.7609620701841705,0.1513243651871554,0.2178422199228779,-86.90785345009652,15.879235249069929,170.90269894415331,0.1009082822110735,0.25562243777682003,0.08266139604619306,0.38701779173801104,0.5754754462873046,0.8541868233573798,0.7084257072117306,0.6900529227947326,0.04633577778578663,0.15337628190055977,-155.85399677876168,15.31548364614131,8.712538561353917,0.3018752475212301,0.1128385532183787,0.2268196563818728,0.5320100982393702,0.8483335566652724,1.2702299985325813,-0.11388692490571907,0.10195169058285489,-0.9632801358176559,0.217459203020441,-122.26998473208822,20.534315594833078,36.40982661806019,0.1363501196392222,0.17669004392854004,0.2032157376496671,0.3220893338173792,0.9942226525590309,1.1754578254690722,-0.00075487366487942,0.3502439255254227,-0.7918741327982609,0.4992537413556877
0.69,-104.02754138301158,31.057701909802155,178.23246925419582,0.19484132065322377,0.4223767607196891,0.05378304605435404,1.3872184746480969,0.49205258264251484,0.6631971937956318,0.5901957205946985,0.7611611875232003,0.15309494496935863,0.22085596536940463,-86.98896761589297,16.237022032374107,170.87872265954837,0.1036904123491899,0.282561441396214,0.08555646009104227,0.410518166348128,0.6015461509557991,0.9004158827966418,0.7076401679927617,0.6901023983911317,0.048151466645306326,0.1552897314301849,-156.06048923500313,15.278969037085805,8.430678909358873,0.3006313339250865,0.11044328480762072,0.20951723819385018,0.5270872419410292,0.8632002136345376,1.397786739697578,-0.1145409787405704,0.0992830073512504,-0.9642625473251913,0.21543786451655692,-122.54581870747164,20.456958098070455,36.651382970975384,0.1534439059091367,0.18028237244434517,0.18935330817999227,0.4101188128302984,1.1420622684281496,1.2968548289156474,-0.00015471267893703123,0.3517109699383446,-0.7920409083457196,0.4972818608093161
0.7,-104.22665158458993,31.53803214611176,178.2168194234453,0.2028620421377483,0.4795669929285209,0.05041219474276914,1.4097927872653964,0.5060372342381191,0.6508403359372034,0.5880774505297596,0.761296920215058,0.15506009090243553,0.22432926510622053,-87.07576081570544,16.6232362764093,170.83357439422855,0.10618284265970863,0.310484118147979,0.08626217082036206,0.43898710726744433,0.6173520945276868,0.9496598660632497,0.7067381535179957,0.6901705083484674,0.05003199215122846,0.15750903540082928,-156.2511142841888,15.249366354042971,8.167632072518087,0.2925909085938626,0.10718662855566463,0.19428494479379985,0.5126586765389335,0.8673355028466352,1.521720259597841,-0.11519284322107456,0.0967393512964689,-0.9652349927908852,0.21350644473277935,-122.79761733462612,20.400312367236186,36.90960395277416,0.18141883012694124,0.19231948095030907,0.17678512961993942,0.5041054248252294,1.2782520340868302,1.4166045769124442,0.0004697679380603697,0.3533961084024858,-0.7920219568528436,0.4955347054426046
0.71,-104.42596637501588,32.0902254918567,178.1889993949542,0.20993675548707122,0.5381274252814213,0.04708018334731447,1.4244066710627281,0.5223917858649506,0.6329364669881844,0.5858087491152746,0.7613359410381463,0.15726220725440185,0.22833365043952625,-87.16547376593388,17.037828084862795,170.76801513190188,0.10833458353192424,0.33933037218587975,0.08478461780197555,0.47194446447568417,0.6222267631004337,1.0014148304102493,0.7057241633749222,0.6902480214056539,0.05199485738422082,0.160050549776966,-156.4292422249376,15.22781824897097,7.933212889818389,0.27822010258117236,0.10299667935823531,0.18110481983221643,0.49058909359434283,0.8612851457486368,1.637839735469658,-0.11581788750227617,0.09440653249592937,-0.9661692796971545,0.21165325925168835,-123.02493498109963,20.376389082885684,37.20066113135468,0.21957112698704226,0.21250928348579262,0.16567308950366008,0.5984014030702539,1.3964123747136525,1.5277590627963746,0.001133000909194836,0.3554457721322013,-0.791756594521675,0.4940246417875075
0.72,-104.621569787821,32.723368966249986,178.14590296048192,0.21619783710332688,0.5980885602813604,0.04395473219698299,1.4329774825781456,0.5398754474205916,0.6112050613823337,0.5833913649722821,0.7612333221656128,0.15974622469790667,0.23293942447874544,-87.25480943765831,17.48277579395612,170.68323368989226,0.11019426780660588,0.3693953926417409,0.08131073304372385,0.5085768000423735,0.6163912878783071,1.054757691670296,0.7046067422289083,0.690321383573567,0.054069975283929456,0.1629368037568944,-156.59779649480072,15.214687412827825,7.735032467210945,0.25840666313420063,0.09804888066653676,0.16998481768203275,0.4636789496746299,0.8470084956474295,1.7420992661579575,-0.1163907127251508,0.09235282112498924,-0.9670355962649372,0.2098719340964804,-123.22635163568158,20.396696591245703,37.53974886616183,0.2665121884261965,0.23989051425354452,0.15619244098182647,0.6875924318850853,1.4913528404859464,1.6244720479322923,0.001844470570781867,0.35799276944184033,-0.7911762423486879,0.49276899250374756
0.73,-104.80869442036395,33.44640438503454,178.08416877807073,0.22177574615686818,0.6596516875093229,0.0411484117813367,1.437211814766438,0.5571314138545387,0.5876459049618968,0.5808291092848786,0.7609344310895497,0.16255725997063822,0.2382130912136362,-87.34014007125273,17.96194887868041,170.5806859031334,0.11189550848474016,0.40124055703921124,0.07619038408732683,0.5477346298286151,0.6008335539628542,1.1082664450158117,0.7033966870441546,0.6903731990634061,0.05629710224360393,0.16619479628821257,-156.7590563971498,15.209550602309736,7.577817850731146,0.23435872132127553,0.09275572092732008,0.1609532777380739,0.43516721819212184,0.8274045705577856,1.8308351413277193,-0.11688796205134307,0.09062353221379488,-0.9678058764462831,0.20816184754152436,-123.39945230714314,20.47151669858229,37.940180970512046,0.3202777875270603,0.27294844187369227,0.14856691374959657,0.7668866463594102,1.5593181590384946,1.7022601388516694,0.002607074683883938,0.36114817356466417,-0.7902079452356853,0.4917902080962844
0.74,-104.98181712753588,34.267769748423916,178.00024147345204,0.22678593663497368,0.7230986599941687,0.038717489155108226,1.4383024525452304,0.5728162276530808,0.5644337084429158,0.5781265451866013,0.7603779733780411,0.16573843238318306,0.24421470326400277,-87.41773543370272,18.480835420954534,170.461913260145,0.11363622363774081,0.435584946305552,0.069901227333655,0.5879465748001376,0.57712116539238,1.1599993185545798,0.7021047820744334,0.6903830192602836,0.05872285326174782,0.16985388541027038,-156.91454934741117,15.211105583533518,7.462891108326109,0.20749411157309314,0.08774105369455679,0.1540295693110715,0.4082174348253422,0.80572753639879,1.900927347460664,-0.11728978761737673,0.08923674634209179,-0.9684572996732547,0.2065278253729603,-123.54097580425692,20.609317360476417,38.41264640896804,0.37849220117910615,0.30978406251303503,0.14308359270199913,0.8324783242599643,1.5981507151042422,1.7580401502743268,0.0034162803413827106,0.3649952999376166,-0.7887786695852251,0.4911150290965985
0.75,-105.13485869824703,35.1950133309044,177.8904629274088,0.2313153529930762,0.7886849381150065,0.03666682450464831,1.4367486252320618,0.5857033591332429,0.5438130957303315,0.5752873283277647,0.7594999750284068,0.1693287173175205,0.2509950888917201,-87.4839902085108,19.04616475982886,170.32836232964146,0.11565477863682602,0.4731937924984748,0.06300168923032337,0.6274594921585189,0.5471798105991289,1.2075439668055064,0.7007395098063405,0.6903284082964182,0.0613975906937567,0.17394349027806993,-157.065002697345,15.216980846323636,7.387857421848318,0.17933953322988547,0.08380330825107132,0.14917961586765982,0.38546701932125493,0.7850015978535823,1.94989651121088,-0.117579561206928,0.08818043416265323,-0.9689753413889658,0.20497930196631928,-123.64707910728698,20.81635827101618,38.964672448909084,0.43857170699276515,0.348318891754532,0.14008595332842091,0.8818262962091702,1.6073686919756174,1.789994123099304,0.00426029033815605,0.3695861292814347,-0.7868198299859461,0.4907729963499367
0.76,-105.26150159435817,36.23439007232071,177.75119389637973,0.23540744882968287,0.8565337827966124,0.034959964454749776,1.4323337489381314,0.5947562165144289,0.5279919783187481,0.5723123183009405,0.7582383922941731,0.17336070950991858,0.25859309197731545,-87.53563302307897,19.66546175482174,170.181224341202,0.11820501755456916,0.5147776316701266,0.056078577057220316,0.664311386718988,0.513070222852074,1.248140516041837,0.6993050966952129,0.6901862234960184,0.06437241865802777,0.17849085850715818,-157.21033943744843,15.223461350378994,7.34653583485756,0.15145425910519364,0.08187056176742434,0.1462714029738111,0.3686993174844279,0.7675364096575215,1.975957466133191,-0.11774175323787335,0.08741112878083337,-0.9693559539269978,0.20352903046394621,-123.71365251331387,21.096521399242107,39.60032620929501,0.49794706887943607,0.38651431143858633,0.13995196649144376,0.9137948249229826,1.5881579005366313,1.7973377279511762,0.005121248437074961,0.37494034301040824,-0.7842714156793857,0.4907947263955142
0.77,-105.35562060579534,37.390454266784225,177.57895465465475,0.23904719194197083,0.9265486162388534,0.033533002411704885,1.4242646616523444,0.5991744844230559,0.5190281974481922,0.5691976216902878,0.756537968342628,0.17785820890273435,0.267033066368601,-87.56990525069764,20.34657222443484,170.02131175168125,0.12153060456210789,0.5609112131321726,0.04969557425903728,0.6964412127497681,0.4767921583408272,1.2788731029825497,0.6978000630922312,0.6899340154616479,0.0676965059370462,0.1835191639312196,-157.34971999042278,15.225166804481718,7.329152352966252,0.1253833006682875,0.08294872402497384,0.14504549964723723,0.35867168508024794,0.7546148387822604,1.9780517606480361,-0.11775822575318406,0.08685422885914372,-0.9696066558384414,0.2021913820356298,-123.73662712095684,21.451371852100674,40.32016830080026,0.554283077196016,0.42258459605183096,0.14306878414876067,0.9286265897411209,1.5432743407301397,1.7800803245659964,0.005977278851478299,0.3810469561175011,-0.7810851090250551,0.49121030307854324
0.78,-105.41179907426002,38.66566097394006,177.3705671427008,0.24214905959719435,0.9983561654394381,0.032310295046678095,1.4114395006706721,0.598419133889552,0.518708816335776,0.565932816554811,0.7543549463438433,0.18283360000043597,0.27632284336388413,-87.58470345498571,21.097200147888124,169.84898637473177,0.125838041397779,0.6119755929213856,0.0443478927097707,0.7218379990482048,0.4401333751692169,1.2969180833941054,0.6962162766212632,0.689551420300436,0.07141495353438053,0.18904617507281238,-157.4816411363698,15.214741211877653,7.322804471251091,0.10263491584134385,0.08806332946562048,0.1451104853454979,0.35510582919645717,0.7463895392951659,1.9558735104811695,-0.1176034711860292,0.08640606037454379,-0.969746473330727,0.20098036397091712,-123.71223225961245,21.880429690446057,41.12145626604538,0.6056748476975355,0.45518446053432954,0.14981436956385394,0.9277470067611903,1.4768531210788616,1.7388591664663486,0.006804952150452555,0.38786832433253826,-0.7772259297211634,0.4920480253198876
0.79,-105.4258828741854,40.059984412597416,177.12328210239238,0.2445516300946644,1.0712862194431303,0.03121992122362025,1.3927820194215619,0.5922183458556176,0.5284276104733148,0.5624996998941405,0.7516613022723146,0.18828505491490283,0.28645227915398924,-87.57868416024733,21.924495576717508,169.66415019886807,0.13126914755506344,0.6681233969798251,0.04042691272904305,0.7387251763438691,0.4045692903635891,1.2998360027172087,0.6945384405176702,0.6890213920470887,0.075567361893841,0.19508365687660517,-157.6041000300427,15.182630610425113,7.312196310586951,0.0846714651855156,0.09819647508084259,0.14596586646395207,0.3568216881020394,0.741991311614257,1.9098906717307242,-0.1172395831261849,0.08593794585463121,-0.9698047948590771,0.19990758535084382,-123.63717837338167,22.381613311378157,41.99858171910473,0.6508040263276179,0.48355395669732604,0.16055112272065955,0.9134312989432779,1.394120309176425,1.6748983360393508,0.007581704613311469,0.39534608194722387,-0.772672169787378,0.49333363970581917
0.8,-105.39550972429038,41.57056226019686,176.83488064612914,0.2460215364340114,1.1443858037814614,0.030206781447597645,1.3675708926946062,0.5805545167647412,0.5490673076931086,0.558871901397612,0.7484482368217711,0.19419368199460568,0.2973923647814382,-87.5513324953212,22.83472646095244,169.46630343756243,0.13787688841428614,0.7292668041237016,0.038196907974878805,0.7457644187387434,0.3712106159919643,1.285887032045322,0.6927439906576556,0.6883311155374209,0.0801871425512282,0.20163755092926663,-157.71481981825295,15.117034685651472,7.28063061707012,0.07290218924289119,0.11422330122468416,0.14704855831439304,0.3619778370806052,0.7398198257635673,1.8413572719620588,-0.11661195366347755,0.08530262540906201,-0.9698192779423126,0.19898039420465483,-123.50875668976074,22.951800494327813,42.943713954809795,0.6890421308514496,0.5076063391635856,0.17563021193721412,0.888395254334056,1.3010137161020747,1.5900911807859717,0.00828786492828533,0.4034083945126626,-0.767413625310376,0.4950900700910839
0.81,-105.32054542860239,43.19138717690811,176.50374582144994,0.24626767035046662,1.2164592801174854,0.029241545958077302,1.3357015776537773,0.5636339960350142,0.5808903986581103,0.55501557790563,0.7447286968514242,0.2005209111542295,0.30909482324055293,-87.5029971008888,23.833054895870816,169.2546656803607,0.1456099108538323,0.7950875240522998,0.037784270374578544,0.7422548213112063,0.34079441739368566,1.254328374374587,0.690803459761889,0.6874724597696142,0.08530148405235743,0.20870883365631124,-157.8115189621706,15.004112442700285,7.211225534802164,0.06866978868353209,0.1368557253975457,0.14779538035494433,0.36837290181916144,0.7379569984703258,1.7523148724779456,-0.11564679045224009,0.08434331441044854,-0.9698329980040511,0.19820032167538026,-123.3248596100425,23.58744481839073,43.947614006515806,0.7204928792497642,0.5279493535857674,0.19540087029731415,0.8553895488085254,1.203737531725154,1.487153737303592,0.00890820230496638,0.4119778476385449,-0.7614483064702283,0.49733752664983183
0.82,-105.20336277422288,44.913090411039875,176.1289015987825,0.24496557678652323,1.2861242674480704,0.028324448883249642,1.297837120723785,0.5418450759993801,0.623443162000382,0.5508911872111175,0.7405386706547253,0.20720660675020655,0.3214921849512466,-87.43489369265949,24.92341664691678,169.02834888585562,0.1543090336658316,0.8650658936113206,0.039178396389218564,0.7283014761416826,0.3137154185466493,1.2056339791964397,0.688681392363849,0.6864418920545287,0.09093173040497989,0.2162947793468799,-157.8921942783767,14.828501273205202,7.088301055888203,0.07322657993335366,0.1666024502944807,0.14771306802176465,0.37376180883417887,0.7346239464715928,1.6455855642817134,-0.11425144313464478,0.08290540424692878,-0.9698910626944042,0.1975618911177852,-123.08393458640647,24.285183829742866,45.000575283545615,0.7459705484727873,0.5458369942377992,0.22021775791191614,0.8168777489390773,1.10829366056532,1.3697663780100209,0.009433171709318192,0.4209793323102045,-0.7547779011769354,0.5000937704065741
0.83,-105.0489127974419,46.72288585453147,175.71001347790673,0.24179244176864081,1.3518759543922665,0.027484040836261433,1.2554267570924758,0.5157144195644111,0.6754845758690132,0.5464561103900777,0.7359369956433864,0.21416849542015845,0.33449850016387445,-87.3490802611327,26.108476488816024,168.78656735544493,0.16371490232344318,0.9385234002628043,0.0422425923633194,0.7049296580238241,0.2900941542342193,1.1415821329137927,0.6863378144042821,0.6852398845756463,0.09709380190756187,0.22439019124922552,-157.95538117680476,14.574175845046796,6.898856520086064,0.08769819874322475,0.20375185904367552,0.14644698550610338,0.37614430496786605,0.728600957335987,1.524754953252502,-0.11231819056565621,0.08085037441461726,-0.9700369391782468,0.19705184884057242,-122.7848886177501,25.042380514909087,46.09343760016085,0.7669164360187143,0.5630552011891463,0.2504411374065849,0.7748576614546002,1.0200381858685013,1.2426203627537098,0.009860169238131563,0.4303473355681882,-0.7474023213370102,0.5033742919808174
0.84,-104.86456065354342,48.6047508227069,175.24734025937394,0.23647227863138653,1.4121560302678855,0.02677197147375782,1.2105927059789392,0.4858746358871827,0.7349604142778736,0.5416676969485145,0.7310035099898231,0.22130339781976086,0.34801100296513554,-87.24840837283453,27.389612024838495,168.52886777809556,0.17348327160127,1.014671044624547,0.046732746601928075,0.6741260220712468,0.2698747112288396,1.0651817403353452,0.6837301407303061,0.6838699954237283,0.10379825495107249,0.23298809614071606,-158.00035374172487,14.225634365339632,6.634041432743688,0.11303350389143432,0.24837873064849367,0.14383874761435217,0.3739918826183236,0.7195431830086785,1.3941305607454682,-0.10973165141637946,0.07807101504218722,-0.9703087601991253,0.1966489579586428,-122.42696026959864,25.857548421192043,47.21860829556733,0.7852596847666824,0.5817497911561276,0.2864274126403335,0.7308501133042049,0.9433065016459342,1.111311138365351,0.010195070942951938,0.44003202060955204,-0.7393137331230731,0.5071922470243804
0.85,-104.65968778223703,50.53990131305682,174.74162700227907,0.22882695016270937,1.465424507892874,0.02625530485948787,1.1659023917490154,0.4530511930082466,0.7990474163812459,0.5364861941823603,0.7258355610346678,0.22849047874991493,0.36191306356845687,-87.13645609639681,28.76687604208472,168.2553587587516,0.1832043146198647,1.0926553909788448,0.052321150176924465,0.6387960163966783,0.25293826986711143,0.9804383300291505,0.6808153408979054,0.6823379331621315,0.11104966897579159,0.24207950827352348,-158.02723108079667,13.769360643338006,6.290509260930827,0.1499406926482842,0.30036929117555733,0.1399625404741646,0.3663952703348605,0.7081473245750177,1.2586455909058236,-0.10637948411842763,0.07450667048629889,-0.9707358872250182,0.19632462955984892,-122.00957239366333,26.73062031327471,48.37100855320555,0.8032324276511323,0.6042087864326767,0.32850979240833156,0.6860374409026916,0.8811443460624107,0.9820598586385786,0.010454171296219193,0.4500034178683646,-0.7304905834667514,0.511558098371514
0.86,-104.44509490190445,52.507573443796,174.19393963653965,0.21882392138332318,1.5102328849264723,0.026007770338373322,1.1240550207796949,0.4180651618418887,0.8642890216235614,0.5308770702206429,0.7205430874033135,0.23559637628889168,0.3760785888364655,-87.01744666116778,30.238905380457766,167.9669134058228,0.19242387518394713,1.1715953636975305,0.058623170424745505,0.6026321679998092,0.23921306199199188,0.8919901695970573,0.6775521973453666,0.6806509236682599,0.11884523720598274,0.2516521609666014,-158.03696551724857,13.195473503966154,5.871536303006456,0.19881366422003366,0.3594552412886198,0.13513225143533408,0.35313368932848627,0.6961538190015786,1.1236726784804636,-0.10216563423421843,0.07015697750641534,-0.9713360113249806,0.19604475332006052,-121.53217361027451,27.66303165352946,49.54885333686582,0.8231529452924509,0.6326160121357308,0.3769696569352112,0.6414974914971967,0.8351739951750545,0.8612861515345853,0.010666482800542153,0.460253089812396,-0.7208922213738707,0.5164789671978879
0.87,-104.23226980200113,54.48605915548471,173.60546048419786,0.20661002650294485,1.5452958584798888,0.02610099909074349,1.0875216647843795,0.3818379452526666,0.9268296798897141,0.5248124847236858,0.7152426752896336,0.24248174987507187,0.3903776785819412,-86.89615231079452,31.80277690500091,167.66531298943391,0.20066609399057048,1.2506058950482626,0.06522549044574485,0.5698879450554597,0.22876141316447962,0.8046698697966224,0.6739035158125236,0.6788175520119889,0.12717267765443463,0.2616884754409134,-158.03120495362217,12.499440272781545,5.387784092719822,0.25965847733416747,0.42524758021736664,0.12987665916668317,0.33468063159769423,0.6861975262558493,0.9947287289722845,-0.09702507190164766,0.06509252134880562,-0.9721130562430547,0.19577300970057077,-120.99407238952773,28.657608111445434,50.75418136455915,0.8471939896253737,0.6687988262081538,0.4319993095674723,0.5984609000903044,0.8056078802220719,0.7550887444564905,0.010876270474503534,0.47079290074122065,-0.7104546765625246,0.5219576989936782
0.88,-104.03260248414607,56.453882137286094,172.977283185702,0.19252314112033275,1.5695564690299417,0.026596517635559085,1.058188621974422,0.3453841501845983,0.9827306801615235,0.5182719990841402,0.7100511326915463,0.249008571127854,0.40468293348568724,-86.77777693891379,33.45384668384443,167.3532972089171,0.20745771628720128,1.3288081401713134,0.07171540436295547,0.5450527931457844,0.22183097507784558,0.7230573504475729,0.6698381334403786,0.6768480227045052,0.13600781783596,0.2721633291566145,-158.01204531118182,11.683699300391785,4.857587393426337,0.3320337403236762,0.49726365385104215,0.12488547876559429,0.3121655156376024,0.681537025650334,0.8770875069223758,-0.09093869395046446,0.05946095940980765,-0.9730561015287367,0.1954756362898851,-120.39426598987569,29.71827215996112,51.99308136547024,0.8771558304465523,0.7139979703093707,0.4936574412013768,0.5585241408307456,0.7913979009379843,0.6687099269858858,0.011145650691855498,0.4816509887239875,-0.6990879898393525,0.5279916615801913
0.89,-103.85663332418878,58.39096048477507,172.31025613516815,0.17707868276360222,1.5822372890980436,0.027539198244313907,1.0370597528621668,0.3097883057316217,1.0283261761317235,0.5112428668179106,0.7050791916521363,0.25504738923514736,0.41887551471939155,-86.6678076534065,35.1856346973475,167.0344885944535,0.21235462225433657,1.4053284802099246,0.07771030400539093,0.5324361317618421,0.2188647439066291,0.651081248846792,0.665332522491174,0.6747545959322633,0.14531238201772026,0.2830422947968237,-157.98171313006847,10.759012631405254,4.306667591300995,0.41501837564870797,0.5749431794842995,0.12093297859362273,0.2873084282081031,0.6856971816773207,0.7753513827400622,-0.08394683737205542,0.053487423750082606,-0.9741394519601394,0.19512715740960107,-119.73126893477998,30.84961066547832,53.275602927232605,0.9142642976848225,0.7686887112703877,0.5618200477381005,0.5237683752273868,0.790489059663947,0.6060626276437409,0.011557038011413525,0.4928655064693211,-0.6866752936384285,0.5345713357449415
0.9,-103.7134073948012,60.27959971761407,171.6049203217346,0.16093298681517829,1.582870222065163,0.028952860573205955,1.0240675263471528,0.2761702953099985,1.0605653282812137,0.5037203087330097,0.7004258942989489,0.260483843784188,0.432850019504405,-86.57182684431697,36.98982619654178,166.7131652673213,0.21497078058667732,1.4792894980977702,0.08288529497774808,0.5356938414610994,0.22046791993258744,0.5917071066564408,0.6603717380344599,0.6725519061770989,0.15503257343184157,0.2942809533520366,-157.94223524215627,9.745360927076637,3.767209009017413,0.5072163521971971,0.6576501053035402,0.11878821798954256,0.2623376540795417,0.7020597008254074,0.6930498254263555,-0.07615971952882128,0.04746840002817842,-0.9753238306364053,0.19471615453868268,-119.00295350269492,32.05636176759014,54.61537837363972,0.9590127629495695,0.8324783026614618,0.6361306167231349,0.4967528419022635,0.8001356282123412,0.5693866171532711,0.012215155647033155,0.5044769748879627,-0.6730737258659607,0.5416788062344763
0.91,-103.6099843518032,62.10519331405507,170.86157142678812,0.14482947408344318,1.5713009705079017,0.030838531401200766,1.0180248555364901,0.24564495359914088,1.0772904639000098,0.4957081018656221,0.6961740484206576,0.2652238704317126,0.44651747480949217,-86.49528242947734,38.85644888975201,166.39386796291095,0.21500896958428242,1.5497967417237744,0.08699600815244338,0.5573587506318054,0.22733107260917304,0.5467342348544789,0.6549494407790555,0.6702569675821644,0.1650989469199002,0.3058257051159473,-157.8951573110517,8.672204566279586,3.2762942573853833,0.6068029578039136,0.7446582085583165,0.11912244635668492,0.23988690284005434,0.73343805734681,0.6323296030169572,-0.06776314743873453,0.041758828555250316,-0.976558478266708,0.19424994438645088,-118.20642879950749,33.34287689780705,56.0290046572454,1.0110637911523432,0.9040960330721637,0.7159531493834657,0.48037074511707434,0.8172335603894912,0.5590764634136957,0.013248233543109774,0.5165201266104401,-0.6581172697048383,0.5492862637559512
0.92,-103.5511258237751,63.85656423986936,170.08045287189955,0.12953574325867995,1.5476701848632113,0.0331753857597346,1.0167278498719134,0.21927538586653328,1.0774174486014196,0.48721967126111687,0.6923869212295999,0.26919730114584134,0.45980615086146454,-86.44322315449078,40.77425306970004,166.08084459519947,0.21229125979616317,1.6159265607925202,0.0898939348209167,0.5984509864583422,0.24011434666197487,0.5167123339793293,0.6490667829890031,0.6678888559121935,0.17542778762079317,0.31761625041413216,-157.84136571747985,7.5779706712905845,2.8737700317961963,0.7116116713714433,0.8351209888766119,0.12242495413811284,0.22285539127546697,0.7816769764671403,0.5937882143318297,-0.05901805423919634,0.03675290134483508,-0.9777837641728985,0.19375712648094112,-117.3380028723506,34.71259245996598,57.53523901284208,1.0692217608895418,0.9814802707471169,0.8003307292333509,0.4775792042509838,0.8386243374426023,0.5736931068715792,0.014807922279457967,0.5290159844097501,-0.6416217323065834,0.557354559432076
0.93,-103.53915864556703,65.52594225625461,169.26206309772775,0.11577993104018577,1.5123785747445477,0.03592369242163585,1.0171989445647398,0.1980161927229844,1.0610031200465433,0.4782796864919039,0.6891061655951289,0.27235983009464176,0.4726603286401013,-86.42001643809253,42.73127521857657,165.77735876092996,0.20678564153734855,1.676721706628485,0.09153284073997807,0.6582383280813318,0.2593075600742883,0.5009798812288837,0.6427300921771365,0.6654682274647795,0.18592381337183297,0.32958960298219375,-157.78104990243412,6.50868614806759,2.59969878765429,0.8192543647122627,0.9280311242243667,0.12893809500866726,0.2142090768280015,0.8473209767586461,0.5764799489728443,-0.05025285101033626,0.03285987780892903,-0.9789338533525324,0.193287315252129,-116.39328452800407,36.16751650988941,59.15405608152426,1.13148254130131,1.0619537823671743,0.8879529966514357,0.4910401088097955,0.861337158384111,0.6101417131300154,0.01706741380470593,0.5419647394407705,-0.6233922050548598,0.5658317405190011
0.94,-103.57399789580097,67.10862584536632,168.40754163698168,0.10419287220825764,1.4660452258196526,0.039028397391782835,1.0160418402401692,0.18264718447091036,1.0291987187326088,0.46892594780029667,0.6863508938539038,0.27469355075175483,0.48503753465423055,-86.42907572839466,44.715518088959364,165.4849145047085,0.1986240741841133,1.7312006510627855,0.09196616656863976,0.7341956614051756,0.2850901517048488,0.4978151541028648,0.6359474861758879,0.6630169185026964,0.19648365590630673,0.34168518065504244,-157.7138179992345,5.5157595653788976,2.4916324459623493,0.9272613047509669,1.0221800564130252,0.13861969299698798,0.21671342047985143,0.9293977764728252,0.5780926328825149,-0.041848248231027445,0.0304770714525232,-0.9799390749622988,0.19290787245557225,-115.36747466827896,37.70771687033653,60.90560864411527,1.1951599867266274,1.1424665636764157,0.9771393103747555,0.5227278206190491,0.8827576303818838,0.663981004055589,0.020217364823901,0.5553398653827015,-0.6032333012305688,0.5746514262298111
0.95,-103.65330937277493,68.60241866945636,167.5190866212366,0.0952601604663467,1.4094668642432262,0.0424216708071976,1.00986527637383,0.1737067631290829,0.9840985329744725,0.4592111802565329,0.6841178192660602,0.27620642679640106,0.49690500062316334,-86.47262889541464,46.715650092146795,165.20247223432273,0.18810748733459373,1.7783832048657924,0.0913360666081959,0.822182415045116,0.31721715155207986,0.5046781447921729,0.6287247394320338,0.6605578500841429,0.20699940508495634,0.35385027485738746,-157.63895113972046,4.653013415284444,2.582003527556543,1.0332232182057157,1.1161318365189856,0.15113690526986023,0.23261396255251438,1.025355231258134,0.5952584589751526,-0.034215070567724035,0.02996277301494203,-0.9807278411386204,0.19269800102311838,-114.25586517742708,39.33080071748351,62.809135323146464,1.2570810470967153,1.2198769583127491,1.0658490471645004,0.5735672541893764,0.9007323372246925,0.7298268577749922,0.024459484625316552,0.5690838479164323,-0.5809621291041985,0.583730940312482
0.96,-103.772792254725,70.00695373248091,166.60035145627415,0.08928683053631284,1.3435824171278958,0.04602319142897267,0.995720237124416,0.17143943451123161,0.9285028643569305,0.4492043131784255,0.6823824293263732,0.276931075448795,0.5082361372087372,-86.55155627843446,48.72162426504807,164.92574465502778,0.17569497529824038,1.817330533636428,0.08985501893208009,0.9168205113231072,0.35495223393168357,0.5185117922232247,0.6210608569841115,0.6581153498230377,0.21736157899075118,0.3660450907732449,-157.5557556851663,3.9731714359393453,2.8959436676642203,1.13491686102587,1.2082256700936393,0.16589122124724362,0.2633067005411416,1.1311730061644742,0.6239365318043256,-0.027766551627361975,0.03161206459909132,-0.9812281618792851,0.19274104479987653,-113.05451559016694,41.03139848080454,64.88186391166492,1.3138322762911174,1.2912380773251801,1.1517324470830603,0.6431608586148634,0.9136279939472796,0.8018168659555138,0.029997993014938145,0.5831058529362279,-0.5564234273363423,0.5929693126363559
0.97,-103.92656238030925,71.32301835120585,165.65676989761647,0.08637687069979601,1.2694440299521519,0.04973816401134572,0.9714823549291558,0.17576998534969346,0.8656237434212729,0.43899089131897173,0.68110119332683,0.2769230856922954,0.519007620912113,-86.6653179930431,50.72513617909964,164.6466663643575,0.16197682490870344,1.8471942340507232,0.08778158065720326,1.0120193865926634,0.3970601187260709,0.5360666736682669,0.6129439137525629,0.6557158230688913,0.227461143133483,0.3782465789896994,-157.46395296755318,3.5240996398940214,3.4497903834528327,1.2303984344442778,1.296618136319852,0.18207110202043122,0.30905275520146147,1.2416475246380911,0.6597997329306129,-0.022887510136482176,0.03563811300813198,-0.9813689205944902,0.19311614125512036,-111.7610306590568,42.80069366841247,67.13796333099046,1.3620325822684278,1.3540564916633853,1.2322312488447131,0.729646600874926,0.9203584209400331,0.8741001929105161,0.037029475486583995,0.5972815304982982,-0.5295057685371876,0.6022455039838813
0.98,-104.10761079909163,72.55197028929572,164.69576425754246,0.08642867971318616,1.1881948667855522,0.053454516621645014,0.9361087098107195,0.1863091282290275,0.7987690492556982,0.4286723735617026,0.680214791720759,0.27625884285712804,0.5291973805175568,-86.81197922214557,52.71986791022706,164.35312815929947,0.1476332145567733,1.867268296375177,0.08539309060934655,1.1015712878764818,0.4418615407184693,0.5542141062701726,0.6043478002365866,0.6533885434418103,0.2371905273829607,0.39045043368439175,-157.36403722628498,3.3451719692943813,4.250431496764649,1.3180556234993517,1.3793686988276204,0.19872734734153683,0.3687885847743839,1.3508268139729873,0.6985770590234054,-0.019903549213017523,0.04216065356226052,-0.9810811030725128,0.19389043040313683,-110.37532790174247,44.62606392734823,69.58760067312646,1.3986028498266023,1.4064925556599526,1.3047285519502998,0.8297057430592726,0.9203812794955539,0.9413067345443462,0.04573192987797674,0.6114549739926237,-0.5001573330483502,0.611417356536689
0.99,-104.30830206834176,73.69530103411594,163.7267971442705,0.08914552867882537,1.1010555667422468,0.057041619219493155,0.8897251535150217,0.20238554587319765,0.7310455529342386,0.4183641798593736,0.6796522598928184,0.2750326491729796,0.5387834919821268,-86.9883328758465,54.70149460174538,164.0290570660372,0.13338208059820658,1.8770392338286823,0.08295902905330962,1.1797371682386149,0.48734562109359114,0.5702177040433868,0.5952305436031557,0.651166274345579,0.24644390107949576,0.4026708839454504,-157.2575353286626,3.464167903844696,5.295492818820292,1.3966177267192947,1.454562131810733,0.21486581267836663,0.4400696070179933,1.4525516213638616,0.7363326117154814,-0.01905385219903166,0.05120224444224209,-0.9802991280276416,0.19511287069266658,-108.90026798581356,46.49091237404776,72.23616536229545,1.4210042618592977,1.447477230921944,1.366736189018298,0.9387179857109945,0.9136605749245951,0.9989430650937056,0.056254011513359355,0.6254426982142102,-0.46839947780001545,0.6203217472509253
1.0,-104.52086742081998,74.75436986268299,162.76123247304253,0.09405837290296795,1.0093216803441138,0.06035273438102004,0.8335527970932348,0.22309153322706707,0.6651209447210094,0.40819244815888783,0.6793357984905796,0.2733529422590074,0.5477438578840962,-87.19011176075523,56.66746080584486,163.65490337899985,0.11992090574294723,1.8762310989126518,0.08071843010869738,1.241756477124016,0.5313260658346006,0.5819409312526822,0.5855347803859406,0.6490854771160968,0.2551172251771263,0.414938189533597,-157.14711471569288,3.895089985822248,6.574244250347853,1.4651315629177204,1.5204525870711516,0.22955042366728792,0.5191679198965973,1.5410404824018527,0.7696838691827015,-0.02047107946101,0.06269182920682194,-0.9789623392612994,0.1968104371681497,-107.34202491589454,48.37476839169278,75.08372829585075,1.4274233778788665,1.4767307696320429,1.4160996469064313,1.0510502490708802,0.9005941520461567,1.043671634987088,0.06870559475155318,0.6390393964780278,-0.4343362335910419,0.6287762637792866
1.01,-104.73784590345268,75.73030773254956,161.81198263029106,0.10055832623646847,0.914370823684708,0.06323244020904475,0.7697261982730234,0.24732837461655813,0.603073550098944,0.39828957548760907,0.6791858868893451,0.27133760914011706,0.5560565566287584,-87.41227594717043,58.61656445794899,163.20856541221318,0.10786827325131278,1.8648416973696247,0.07886343932419622,1.2842319838278453,0.571619281517152,0.587974655308562,0.5751907354530501,0.6471859200416324,0.263108748598447,0.42729400842378573,-157.0365072835154,4.637195548417402,8.069016579540701,1.5229160440700518,1.5756099516673108,0.24200494935896236,0.6013269999871579,1.6114439572450006,0.7959642391324249,-0.02417110383633367,0.0764744072773098,-0.9770166240063564,0.19898712942778313,-105.71010089225419,50.25371873415082,78.12480121537544,1.4168906242198658,1.4946836474008338,1.4511964110520856,1.1604622151741895,0.8819136001300554,1.0734524049677054,0.08315068786805696,0.6520251454920858,-0.39815808267162245,0.6365825379997807
1.02,-104.95243602227819,76.62407136759052,160.89294359792171,0.10793750369403793,0.8176727769511662,0.06552903001526211,0.7010648975368051,0.2738447609575773,0.5463372765314395,0.38878875052077155,0.6791262859718469,0.26910864692137165,0.5637008178951795,-87.64935388764366,60.54841047545684,162.66674294764886,0.09771198679258856,1.8431647162174196,0.07752969271609023,1.3053563315189922,0.6062168777886966,0.5876748101721683,0.5641217854174915,0.6455095164722017,0.27032058069774334,0.4397850089644911,-156.93024579369535,5.6753717763778715,9.756894174326453,1.5695100321798703,1.6190497635860723,0.2516970902652575,0.6811575089331464,1.6602950003943346,0.8133260990591724,-0.030053868430539636,0.09232518880848684,-0.974416058373715,0.2016258135288535,-104.01694226566332,52.10119210345143,81.34844323748153,1.389326412565143,1.5023157206627873,1.4711028760079676,1.260606003251289,0.8585705887474515,1.0875501219363939,0.0996034176290067,0.6641735988501205,-0.3601389382351884,0.6435312246806971
1.03,-105.15873966170152,77.43661333312306,160.01825907041874,0.11543794394378445,0.7207928741428619,0.06711075633394531,0.6308417630878833,0.30127235996337526,0.49572987593610246,0.37981783671873437,0.6790885267775887,0.26678659820476053,0.5706586170775015,-87.89580751690386,62.462804596812525,162.0066652210391,0.08977088031817272,1.8117916388735824,0.07679310747717254,1.3049605675251303,0.633426987738524,0.5811110690741748,0.5522524352720802,0.6440982340606095,0.2766617414990019,0.4524552472786487,-156.83324171758613,6.981783698762647,11.61146676418739,1.604627409869968,1.650330227352165,0.2583890753673969,0.7531388657304728,1.6858019599007696,0.8207764106162357,-0.03791488148488402,0.10996642959925186,-0.971124470851605,0.20469250683296997,-102.27717919472649,53.88907196624608,84.73872909501883,1.3455145186071622,1.5009409893756458,1.475707583481229,1.3455813265914458,0.8316258718565301,1.0864259623910995,0.11802730862180495,0.6752605667148806,-0.3206260599173245,0.6494084798749645
1.04,-105.35190127454045,78.1691238432978,159.20149695259968,0.12230727152319772,0.625380210306225,0.06788380858611942,0.5625665632590644,0.3281697959661478,0.4515453558233726,0.37149312108507576,0.6790155319055964,0.26448524761493986,0.5769168075224786,-88.1463839177874,64.3591485134719,161.208092776094,0.08417614023799956,1.7715886214815744,0.07667193905881046,1.2843820638698342,0.6519706533957459,0.5689424765312787,0.5395183190995105,0.642991023120472,0.2820527524499419,0.46533791476149944,-156.75025999665417,8.518546540631059,13.604470395600048,1.628130740919333,1.6696024294998748,0.262148123058017,0.8121753345474916,1.6879613380316751,0.8181435819036956,-0.047465336819806955,0.12908518943170688,-0.9671168349018815,0.20814238050136089,-100.50657696741082,55.58906640060185,88.27555493974624,1.287007700703383,1.4919705366164497,1.465754487082197,1.4104868781590425,0.8021564109636241,1.0715401511282496,0.13833758968482135,0.6850723131017351,-0.28002353177305184,0.6540036155366173
1.05,-105.52815991144242,78.82329461728011,158.45485113454453,0.12785689421425903,0.5331355148516755,0.06780933151914116,0.4997813587488169,0.35308630447179384,0.413693420048128,0.3639135764392814,0.6788640896414371,0.26230706278956323,0.5824695273491688,-88.39641389882446,66.23587826315631,160.25544870654403,0.08087452731322888,1.723647660995045,0.0771327388217365,1.2461750370270628,0.6610350762173471,0.5522471975691847,0.5258776007219811,0.6422199430709686,0.28643148316641986,0.47844709949273645,-156.68535877651513,10.241059070234698,15.707208354236737,1.6400300186530403,1.6776042622307106,0.2633227560114588,0.8541474767537411,1.6684955141403381,0.8059832310115654,-0.0583579269780557,0.14935055746222667,-0.9623803979167549,0.2119265890641068,-98.72083702134206,57.174228967712544,91.93572006236218,1.2159777592284449,1.47668637957713,1.442807774207785,1.4518981511774747,0.7711925370080039,1.045098533635865,0.16040592882914778,0.6934129994737389,-0.2387707552240983,0.6571173909607241
1.06,-105.68483719796575,79.40155347209837,157.78848996879478,0.13151603870913683,0.4457574815867682,0.06691703467220621,0.4458507297778408,0.37465033073165416,0.38186906492937606,0.3571563546067317,0.6786059867139258,0.26033985236044344,0.5873204227440642,-88.6420254873431,68.0899727462872,159.13989799369037,0.07965126680599535,1.6692179101740974,0.07809919295432709,1.1937180635121183,0.6602943279725229,0.5323363865444611,0.5113228882511957,0.6418059478912931,0.2897596566789249,0.4917702410982164,-156.64136067228972,12.101594704877524,17.891704684197137,1.6405059111270053,1.6755960441175999,0.2624980978962435,0.8763979832624862,1.6306352635162296,0.7854337981183724,-0.07021511038921965,0.17042937924688326,-0.9569154083875668,0.21599905440613426,-96.93441203051813,58.62050315756686,95.69419210613083,1.135029566935189,1.4560561165868575,1.409137879336895,1.468210162839476,0.7396888954770452,1.009781814338137,0.1840668798402156,0.7001109616765046,-0.19731803572974765,0.6585702590785648
1.07,-105.82028525583661,79.90722085757851,157.2101633855057,0.13287486172146273,0.3648708394812015,0.06531396934207014,0.4037320086392314,0.3916788456289795,0.3557297838517927,0.35127418549664324,0.6782277010429244,0.258655069257345,0.59148412262356,-88.88025726843317,69.91655534049714,157.86116765008492,0.08016653235342812,1.6096288517266446,0.07946320682209863,1.13079655878233,0.6499069005359989,0.5105804753080191,0.495892520120643,0.6417549909659476,0.29202916468813295,0.5052620254806973,-156.6194142335883,14.052770385724726,20.131596051385984,1.6299496707276369,1.6652447305474916,0.2604410648170846,0.8780901261997808,1.5787684537682876,0.7580354496640022,-0.08265674707961859,0.1920000237400416,-0.9507352573084304,0.2203224625943505,-95.15949985490631,59.90815456497595,99.5254418930356,1.04700214936298,1.4306127603663734,1.3675368839061497,1.4598052857552195,0.7085227791901523,0.9684947934232501,0.20912534206132696,0.7050238153532569,-0.1561016846112923,0.6582099246674684
1.08,-105.93381863108472,80.34454858346551,156.72515581406185,0.13171202639641794,0.2919438446804047,0.06318803644829041,0.3757292666109922,0.40329377784997233,0.33505206119970965,0.3462951665849098,0.6777286630338764,0.25730805366907633,0.5949864149986303,-89.10907628079359,71.70861601845257,156.42888843944607,0.08199782904176006,1.5462179979091752,0.08109745519381142,1.0612393758665593,0.6304941689535865,0.488272417220597,0.4796798552927375,0.6420551411089687,0.29326720231041725,0.5188405442640102,-156.61869694026475,16.05057881101247,22.40280514376252,1.6090073544334726,1.6484708961083279,0.25803948147731987,0.8603797551114214,1.51797686867225,0.7255342159430407,-0.09532450382394804,0.2137640734877144,-0.9438658472336704,0.2248728862962725,-93.40535707968066,61.022960096586765,103.40472023917087,0.954778437265698,1.4004151271336152,1.3210809571105844,1.4290288246105556,0.6785100742258394,0.9241589473611324,0.2353643661696217,0.7080425931904938,-0.11552111662333095,0.6559177784165208
1.09,-106.02565156535702,80.71861885109114,156.33662666267173,0.12800454450838375,0.2282054161224304,0.06080586901984352,0.3632576926787208,0.4090272884300313,0.3198395197223981,0.3422250986019418,0.6771182193935441,0.25634025929475696,0.5978627244462634,-89.32732069722967,73.45688578016565,154.86324601354585,0.08468119336850172,1.4802708237467805,0.0828681307533705,0.9886619566826907,0.6030999173225958,0.4665429675853054,0.46283905973543443,0.6426752873889952,0.2935392157978735,0.5323865382025754,-156.6363030668917,18.05675688813903,24.68405526831559,1.5786153501198024,1.6272768519185334,0.256235035127445,0.8263577001898033,1.4534956884237993,0.6897002325778276,-0.10790114392234722,0.23545595070696598,-0.9363440562163734,0.22964258896539194,-91.67802729568419,61.9570425738588,107.30914067652589,0.861121331662959,1.3650920997072034,1.2728656762405646,1.3799703253384115,0.6504365527224893,0.8795494921141457,0.2625526233959239,0.7090951506146527,-0.07592023266774911,0.6516140402869357
1.1,-106.09685282826544,81.03510708525225,156.0463116146268,0.1219192820059548,0.17457190319932567,0.05850409685362562,0.3666575433346313,0.4088990795793678,0.3103646669488049,0.3390521178295094,0.676411582502004,0.2557831470299471,0.6001547913920087,-89.53459554171475,75.14989264185094,153.19476297128733,0.08774616806158238,1.412973759489259,0.08464638438710975,0.9163234992332401,0.5691296474810515,0.44632673433433206,0.4455859447355202,0.6435658268017697,0.29294875143853544,0.545746348621377,-156.66734458405477,20.040355389369495,26.957277641208453,1.540016560667774,1.603576026759529,0.2559509879851224,0.7807523796709898,1.3901532294905936,0.6521825221634238,-0.12012360614203907,0.256850441244921,-0.9282152832705444,0.2346407248731409,-89.98051813714208,62.709270090345505,111.21843196423659,0.7685493700607906,1.3239618406631575,1.2257438684813984,1.318060393309407,0.6251121221902451,0.8371613851492885,0.29045085295450507,0.7081489836517255,-0.037574953141816726,0.6452616938928075
1.11,-106.14931653994472,81.29993921949573,155.85548108665472,0.11378711773096542,0.13159137041530017,0.05667282903957994,0.38509357388333343,0.4034528292093769,0.30714309338737344,0.3367529733496868,0.6756252082371182,0.2556630378475535,0.6019058651539704,-89.73114987746075,76.77421664756022,151.46309979480867,0.09074241423572665,1.345377384359135,0.08631712453531233,0.8470643019940605,0.5302707641827271,0.4283615590023882,0.4281927912056233,0.6446615200031574,0.2916335199481557,0.5587388026676954,-156.705268566515,21.97846122943055,29.20793314223622,1.4947508523724253,1.5790439957589373,0.2580183686440128,0.7294238242896393,1.3318635738816351,0.6144075245703718,-0.13178949735406567,0.2777679260930943,-0.9195302430467927,0.2398918501634554,-88.31339493709257,63.28517878058922,115.11524230563673,0.6792596245118323,1.2762073533740803,1.1820946068916434,1.2495113706320693,0.6034547917080584,0.7990894666150432,0.31881672247192194,0.7052134978240172,-0.0006881220986834253,0.6368694793915631
1.12,-106.18573512714113,81.51889621443578,155.76599205924146,0.1040630994640796,0.09941070989818707,0.05573116139179184,0.41656145471219963,0.39374086073283493,0.310856067923879,0.33529997580196574,0.6747721716426424,0.2560059524991633,0.603155112029002,-89.91775608341501,78.31494193515378,149.71486227546342,0.09325907503067445,1.27836817020754,0.08778424828344257,0.7832737328905116,0.4884014357162629,0.41319749647455045,0.4109767938566255,0.6458864602204807,0.2897573974807107,0.5711657387512433,-156.74236460457234,23.856103396229443,31.425234171239282,1.444618238749952,1.555009438068537,0.26310579288868924,0.6787177440714165,1.2812360256228223,0.5775198672868517,-0.14275724320476743,0.29807701174137013,-0.9103413502858334,0.24543240357700336,-86.67570077874882,63.69642249647904,118.9849233581223,0.5950971604975112,1.221082721966005,1.1436474695107295,1.1806597339176006,0.5865966026912105,0.7669237137034297,0.3474078072712112,0.7003417236558974,0.03460784021819743,0.626494274120799
1.13,-106.20955411935535,81.6972311940905,155.78124227693672,0.09327836659084489,0.07776836118085632,0.05609594465207472,0.4580061879801786,0.3812471319374661,0.32224547896869066,0.3346674785967233,0.6738581542794223,0.25684146259447,0.6039321759486656,-90.09559770013702,79.75628073711738,148.00053027273188,0.09494037777615484,1.212650849756493,0.08897209860821176,0.7268554949844852,0.4455020483817859,0.4011991133535077,0.3942826752376353,0.6471608063764843,0.28749867504122184,0.5828253278230725,-156.77040514491074,25.665451258893302,33.6022307884849,1.3916167031468238,1.5323969534899944,0.2716585527666872,0.6347713344895071,1.239342280612463,0.5423653951513701,-0.15294072022059152,0.317694316025225,-0.9006990943336205,0.25130558143765497,-85.06607384136683,63.95980082301161,122.81480048461898,0.5175614023584056,1.1581185896859296,1.1113785201600996,1.1172971224016428,0.5759845394674195,0.7416751610518814,0.37598274091130385,0.693631466163282,0.06824114500467011,0.6142430503758212
1.14,-106.22488819699218,81.8393654604981,155.90684143257056,0.081990967326333,0.06601264188978771,0.05814596007411285,0.50554542515764,0.36774454122002453,0.3420021910892221,0.33483679585187365,0.6728786053660951,0.2582048182628316,0.6042528645787566,-90.26615835799154,81.08232415145076,146.37076456998534,0.09550111650499245,1.1487455912156748,0.08982402577493018,0.6791894348179919,0.40358220538028505,0.3925403015196869,0.3784609707014127,0.648408585203874,0.2850355801827139,0.5935268371054562,-156.7813341399031,27.40448746940359,35.735729366636555,1.337857671543131,1.5117231817266208,0.283853800791615,0.6028639551951924,1.2056675359463591,0.5095177751543285,-0.1622997333258598,0.3365814408740769,-0.8906487284161255,0.25755529130988897,-83.48391788371538,64.09596308461438,126.59303831411619,0.44783415320686754,1.0872922492229964,1.0854843443847,1.064086962612572,0.5734358884040005,0.7237478656857232,0.40430093980731774,0.685225819843925,0.10018533525680201,0.600274263355409
1.15,-106.23638183612513,81.94871782575001,156.15084538810459,0.070742492801486,0.06314244441327714,0.06218398334551344,0.554782328793956,0.3550970146010368,0.37066228563326,0.33579870860607014,0.6718174993046583,0.2601369745652114,0.6041167917537249,-90.43109884874934,82.27786545865362,144.87248034860747,0.09474348155404251,1.0870019593911109,0.0902997042891443,0.6411124276806878,0.3646273150469469,0.3872026718196424,0.36384425547071103,0.6495655320787047,0.2825308092874126,0.6031051335965016,-156.76790239658914,29.0753907527618,37.82603498666399,1.285462408725985,1.493136807648239,0.29958003240413955,0.5868869755950464,1.1782671181239894,0.47934395787093165,-0.17082808503871755,0.35473952080098337,-0.8802274714222245,0.2642200718697252,-81.93048577722143,64.12792270661767,130.30731026196946,0.38681376372890314,1.0091314337165833,1.0654305355104303,1.0241469101357548,0.5811077073756811,0.7129604251521571,0.43212162361420137,0.6753128289154269,0.13044098568491003,0.584798131945575
1.16,-106.24900341634935,82.02769819357351,156.52345148711476,0.06002567966530595,0.06786402820575585,0.06839946018341952,0.6011835431678819,0.345033935463355,0.4085215395424,0.33755310390740106,0.670647892361061,0.2626824896292359,0.6035075356633378,-90.59211551185861,83.32924598947797,143.5451608683857,0.09257343703895099,1.027626211995098,0.09037259026361141,0.6129403888020656,0.3305567787123333,0.3849890716960283,0.35072399120808023,0.6505857423170692,0.2801173314872135,0.611433179905206,-156.72415162701327,30.682878480288164,39.87653670467001,1.2364438234115718,1.4764864709944199,0.3184478474091897,0.5889801485903904,1.1541339403979367,0.4520948340134313,-0.17854107786852194,0.3722020389573613,-0.8694623206132959,0.2713279315101813,-80.40974884458679,64.0795348503902,133.94353723068062,0.3351435990393906,0.9247339922234603,1.0500639247504708,0.9988413288918304,0.6013600371037293,0.7086102868085753,0.4592030620166627,0.6641238503246272,0.15901737697242682,0.5680750226778868
1.17,-106.26776769983164,82.07786564802413,157.0361209074354,0.05026519879164464,0.07865648644153686,0.07683485564401574,0.6404858825393959,0.33893357941720476,0.45557551768968607,0.34010575034476914,0.6693342120519216,0.2658855379286887,0.6023955204419952,-90.7507860101368,84.2251837729397,142.4178866690655,0.08901225860335452,0.9707133807799041,0.09002802792967367,0.5945342318360491,0.30317689138618764,0.38555554014256904,0.3393306069275,0.6514459730020925,0.2778878179946263,0.6184310797213887,-156.64567681174458,32.232730029003044,41.89317739323462,1.1925809832207273,1.461399674250081,0.33983319346152036,0.6093595182129847,1.1297420746600795,0.4280023333000911,-0.18546407164906242,0.38902678609020397,-0.8583685128001975,0.2788929195530819,-78.92894086850977,63.9740846933982,137.48495182821497,0.2932280622423938,0.835704757602088,1.0377736335548378,0.9877873658069546,0.636526891865225,0.7095722022121892,0.4853029881348659,0.6519299751174783,0.18591700436397213,0.5504111307791315
1.18,-106.29739056384743,82.10022101205408,157.700170340468,0.04181068947612794,0.093840257264453,0.08735909421409098,0.6690844866549946,0.33765009857534717,0.5114868767019806,0.3434626563407855,0.6678359613162529,0.26978444197108725,0.6007434445655038,-90.90842012464857,84.957549480916,141.5074562651348,0.08419851885543991,0.9162734611420029,0.08926212595195583,0.5853899334759102,0.28411061422633793,0.38845690966397434,0.3298188982065193,0.652146823068843,0.2758895494150211,0.6240707810947718,-156.52964071195973,33.73064767304395,43.883862004930336,1.1552980280736727,1.4473584685723917,0.3629456481758593,0.6463469904873788,1.1016814315218333,0.4073645296396429,-0.19162323514405633,0.40528785702265646,-0.8469486397863825,0.2869139194414178,-77.49868990939977,63.833104285198566,140.91168380888558,0.26123470423670864,0.7440287378991662,1.0266828106418966,0.9890476315678616,0.6886387143167205,0.7144236466561568,0.5101809510062768,0.6390358177995662,0.21112513663988444,0.532150846626759
1.19,-106.34189426548716,82.09558114886039,158.52495112585245,0.034938845305417944,0.11164683322508648,0.0996518750345056,0.6843533501623752,0.34141073351170376,0.5755746961999187,0.34762280685196234,0.6661123505768671,0.27440520009598784,0.598513710565552,-91.06593708512217,85.52204525349282,140.8177918664123,0.07837817851683222,0.8642428087714552,0.08808175992175041,0.5847218710821169,0.27469482699912845,0.3931983939842252,0.322259980635352,0.6527106506463882,0.27412559727844193,0.6283761795791506,-156.37456252494658,35.181525510057526,45.85785664070795,1.1255639382923943,1.4337621814594643,0.3869069724930125,0.6965983009837802,1.067265046438791,0.39060428904353395,-0.19703898804795084,0.4210683941120756,-0.8351924321613784,0.29537572066671547,-76.13269198577412,63.67548944790161,144.2009771733184,0.23908603605452788,0.6519100589422356,1.0148494880635246,0.9994697059130476,0.7591498195244519,0.7215878832282995,0.5336031206693465,0.6257702101472604,0.23460567036099692,0.5136655509654195
