0.01,-112.75,75.55,164.55,0.19,0.11,0.01,0.13,-0.1,1.04,-103.76,81.05,113.56,0.24,0.3,0.08,0.38,0.29,0.33,-159.62,3.3,7.62,-0.03,-0.15,0.0,0.27,-0.1,0.01,-133.23,6.47,9.43,0.12,0.11,0.31,1.1,0.59,-0.21
0.02,-112.38,75.4,164.45,0.21,-0.02,0.01,0.15,-0.13,0.78,-103.52,81.07,116.7,0.34,0.49,0.15,0.39,0.28,0.42,-159.74,3.39,7.4,-0.05,0.17,0.07,0.2,0.09,0.07,-133.06,6.23,9.17,0.09,0.25,0.17,1.12,0.63,0.21
0.03,-111.93,75.44,164.23,0.03,0.17,-0.12,0.59,0.01,0.69,-103.28,80.7,120.09,0.02,0.47,-0.01,0.55,0.13,0.32,-159.87,3.37,7.45,0.18,0.15,-0.1,0.12,0.25,0.12,-132.47,6.08,8.98,0.02,0.22,0.15,1.07,0.48,0.43
0.04,-111.52,75.1,164.25,0.31,0.24,0.22,0.5,0.24,0.51,-103.09,80.4,123.59,0.3,0.55,-0.02,0.71,0.24,0.32,-159.78,3.5,7.69,0.16,0.19,0.15,0.3,0.43,-0.16,-131.94,5.94,8.75,0.15,0.29,0.3,1.01,0.68,0.83
0.05,-111.18,74.85,164.52,0.19,0.37,0.04,0.68,0.05,0.26,-102.95,80.24,127.09,0.08,0.84,0.18,1.07,0.13,0.35,-159.74,3.3,7.57,-0.08,0.18,0.01,0.44,0.29,0.06,-131.69,5.78,8.71,0.29,0.09,0.19,0.82,0.37,1.08
0.06,-110.64,74.43,164.58,0.27,0.47,0.11,0.83,0.09,0.26,-103.02,79.29,130.41,0.22,0.97,0.01,1.34,0.14,0.23,-159.71,3.48,7.62,0.18,0.24,0.23,0.49,0.48,-0.08,-131.09,5.46,8.52,0.32,0.24,0.46,0.97,0.32,1.58
0.07,-110.27,73.85,165.14,0.3,0.5,0.19,1.05,0.22,0.22,-102.36,78.51,133.91,0.16,1.0,0.06,1.46,-0.02,0.37,-159.82,3.39,7.38,0.17,-0.04,0.16,0.66,0.61,-0.07,-130.74,5.57,8.33,0.22,0.23,0.48,1.1,0.29,1.92
0.08,-110.03,73.15,165.42,0.28,0.76,0.25,1.06,0.48,0.19,-102.41,77.45,137.54,0.2,1.16,0.24,1.57,0.02,0.33,-159.48,3.72,7.5,0.11,0.26,0.25,0.76,0.75,0.07,-130.51,5.36,8.33,0.38,0.31,0.21,0.87,0.22,2.24
0.09,-109.79,72.62,166.02,0.31,0.77,0.04,1.26,0.36,0.25,-102.05,76.01,140.93,-0.14,1.42,0.13,1.5,0.28,0.33,-159.26,3.74,7.13,0.13,0.16,0.3,0.89,0.92,0.28,-130.09,5.15,8.1,0.11,0.39,0.27,0.67,0.29,2.55
0.1,-109.59,71.69,166.89,0.34,0.93,0.09,1.22,0.45,0.4,-101.94,74.39,144.51,0.07,1.34,0.08,1.84,0.32,0.52,-158.92,3.83,6.98,0.31,0.17,0.35,0.89,0.77,0.39,-129.68,4.92,7.84,0.14,0.18,0.39,0.77,0.2,2.67
0.11,-109.23,70.61,167.63,0.31,1.1,0.16,1.43,0.44,0.23,-101.58,72.28,147.94,0.22,1.6,0.16,1.96,0.3,0.41,-158.68,4.14,6.61,0.3,0.11,0.36,0.91,0.74,0.57,-129.36,4.76,7.54,0.41,0.36,0.23,0.63,0.22,2.79
0.12,-108.89,69.66,168.57,0.23,1.12,0.29,1.45,0.31,0.01,-101.26,69.9,151.01,0.16,1.76,-0.01,2.13,0.34,0.59,-158.22,4.11,6.46,0.27,0.27,0.12,0.84,0.96,0.6,-129.26,4.64,7.42,0.08,0.24,0.36,0.29,0.05,3.03
0.13,-109.13,68.36,169.97,0.12,0.98,0.14,1.61,0.35,0.19,-101.07,67.72,154.11,0.21,1.91,0.01,1.91,0.47,0.38,-157.93,4.21,6.09,0.34,0.15,0.47,0.88,0.92,0.8,-129.03,4.52,7.09,0.3,0.07,0.13,0.51,0.11,3.15
0.14,-109.25,66.87,170.75,0.27,1.23,0.22,1.64,0.43,0.3,-101.11,64.8,156.84,0.33,2.11,-0.03,2.13,0.21,0.61,-157.29,4.38,5.77,0.23,0.27,0.29,0.93,1.08,1.09,-128.74,4.52,6.79,0.11,0.27,0.28,0.39,0.08,3.2
0.15,-108.95,65.61,172.1,0.3,1.45,0.23,1.42,0.4,0.46,-100.82,62.13,159.14,0.15,2.35,0.03,2.04,0.23,0.6,-156.89,4.59,5.59,0.35,0.35,0.41,1.09,1.0,1.45,-128.27,4.28,6.33,0.23,0.18,0.2,0.16,0.11,3.06
0.16,-109.05,64.48,172.52,0.23,1.51,0.32,1.5,0.46,0.44,-100.72,60.38,160.3,0.23,2.24,0.01,2.11,0.52,0.63,-156.55,4.63,5.25,0.38,0.31,0.35,1.07,0.91,1.53,-128.16,4.33,6.29,0.31,0.26,0.21,0.37,0.28,3.04
0.17,-109.05,63.78,173.11,0.08,1.48,0.31,1.25,0.27,0.48,-100.54,59.02,161.36,0.29,2.38,0.12,1.93,0.43,0.76,-156.14,4.78,5.17,0.35,0.24,0.45,0.92,0.83,1.78,-128.21,4.04,5.89,0.36,-0.17,0.26,0.12,0.01,3.09
0.18,-109.28,62.27,174.16,0.13,1.47,0.21,1.44,0.42,0.84,-100.42,56.1,163.35,0.31,2.51,-0.03,1.82,0.28,0.73,-155.72,5.0,4.65,0.51,0.33,0.37,0.99,0.77,2.05,-127.7,4.25,5.78,0.1,0.24,0.25,0.24,-0.03,2.83
0.19,-109.55,60.65,175.03,0.39,1.61,0.3,1.3,0.49,0.92,-100.43,53.05,164.77,0.26,2.34,0.34,1.55,0.32,0.78,-154.89,5.15,4.39,0.43,0.22,0.51,0.94,0.88,2.3,-127.51,3.81,5.34,0.23,0.3,0.27,0.26,0.1,2.92
0.2,-109.71,58.87,175.99,0.26,1.4,0.17,1.22,0.51,0.7,-100.25,49.89,166.13,0.19,2.51,-0.04,1.34,0.39,0.73,-154.73,5.32,4.24,0.26,0.06,0.24,0.96,0.86,2.56,-126.89,3.81,5.25,0.21,0.14,0.3,0.14,0.11,2.41
0.21,-110.04,57.1,176.49,0.13,1.45,0.36,1.1,0.59,1.05,-100.21,46.81,166.85,0.22,2.56,0.04,1.18,0.26,0.72,-154.12,5.44,3.61,0.5,0.13,0.72,0.93,0.67,2.9,-126.58,3.59,4.71,0.12,0.16,0.2,0.16,0.06,2.17
0.22,-110.24,55.41,177.42,0.29,1.41,0.2,1.14,0.41,0.95,-100.1,43.7,167.85,0.36,2.73,-0.03,0.88,0.33,0.71,-153.56,5.67,3.25,0.36,0.07,0.55,0.79,0.54,3.04,-126.26,3.69,4.27,0.26,0.12,0.42,0.16,0.07,1.95
0.23,-110.68,53.8,177.94,0.27,1.71,0.14,0.71,0.35,1.13,-99.69,40.97,168.27,0.28,2.49,0.05,0.7,0.4,0.63,-153.01,5.75,2.85,0.29,0.17,0.32,0.87,0.57,3.15,-125.9,3.5,4.06,0.34,0.15,0.31,0.35,0.06,1.59
0.24,-110.75,52.19,178.1,0.09,1.44,0.22,0.82,0.3,1.0,-99.59,38.1,168.95,0.15,2.33,0.01,0.93,0.47,0.71,-152.54,6.07,2.61,0.24,0.18,0.47,0.75,0.43,3.14,-125.45,3.21,3.71,0.33,0.17,0.22,0.4,-0.0,1.48
0.25,-111.31,50.19,178.64,-0.02,1.6,-0.03,0.54,0.52,1.05,-99.5,35.34,169.05,0.22,2.5,0.12,0.53,0.42,0.64,-152.08,6.28,2.29,0.23,0.18,0.48,0.68,0.45,3.25,-124.88,3.58,3.24,0.23,0.13,0.5,0.51,0.11,1.1
0.26,-111.55,48.51,178.92,0.27,1.66,0.11,0.76,0.45,1.12,-99.38,32.9,169.41,0.1,2.22,0.22,0.7,0.37,0.69,-151.51,6.44,1.97,0.09,0.13,0.63,0.53,0.41,3.17,-124.46,3.28,3.11,0.2,0.15,0.17,0.58,0.29,0.98
0.27,-111.6,46.8,179.21,0.08,1.59,0.03,0.72,0.38,0.99,-99.12,30.31,169.84,0.27,2.22,0.1,0.52,0.16,0.9,-151.07,6.72,1.55,0.04,0.14,0.51,0.6,0.42,3.07,-124.15,3.47,2.84,0.42,0.08,0.41,1.02,0.26,1.0
0.28,-111.94,45.26,179.09,-0.01,1.45,-0.02,0.7,0.18,0.8,-99.15,27.91,169.9,0.13,2.11,0.12,0.51,0.25,0.72,-150.46,6.76,1.52,0.27,0.02,0.53,0.54,0.3,2.9,-123.66,3.57,2.44,0.16,0.26,0.32,0.86,0.22,0.85
0.29,-111.92,43.35,179.43,0.14,1.36,0.13,0.83,0.26,0.88,-98.87,25.53,169.95,0.12,1.86,0.34,0.64,0.12,1.03,-149.76,6.93,1.39,0.04,0.09,0.61,0.64,0.35,2.64,-123.4,3.67,2.38,0.23,0.14,0.14,0.96,0.26,0.84
0.3,-112.2,42.02,179.24,0.22,1.59,0.3,0.9,0.52,0.71,-98.53,23.41,169.9,0.15,2.02,0.1,0.59,0.25,0.88,-148.89,6.98,1.15,0.23,0.15,0.69,0.59,0.28,2.31,-123.23,3.76,1.96,0.39,0.19,0.25,0.95,0.41,0.97
0.31,-112.4,40.53,178.92,0.35,1.5,0.1,0.99,0.47,0.86,-98.33,21.22,170.15,-0.02,1.62,0.13,0.65,0.39,1.1,-148.2,7.17,1.21,0.18,0.14,0.65,0.65,0.4,2.02,-122.62,3.81,1.9,0.11,0.13,0.25,0.77,0.54,1.17
0.32,-112.45,39.39,179.25,0.21,1.4,0.06,0.97,0.31,0.6,-97.91,20.28,170.26,0.06,1.63,0.27,0.66,0.25,1.02,-147.68,7.07,1.06,0.25,0.21,0.64,0.44,0.37,1.76,-122.59,3.75,1.74,0.11,0.07,0.06,0.9,0.55,1.19
0.33,-112.36,38.72,179.06,0.12,1.49,0.2,0.96,0.5,0.58,-98.12,19.39,170.25,0.03,1.38,0.1,0.68,0.2,0.96,-147.44,6.97,1.26,0.35,0.08,0.77,0.65,0.37,1.63,-122.36,4.08,1.82,0.17,0.27,0.24,0.93,0.39,1.26
0.34,-112.43,37.22,178.88,0.2,1.51,0.09,1.23,0.3,0.72,-98.12,17.47,170.62,0.12,1.55,-0.06,0.48,0.11,1.07,-146.69,6.87,1.32,0.01,0.16,0.82,0.69,0.35,1.63,-121.95,4.18,1.68,-0.01,-0.1,0.03,0.84,0.34,1.54
0.35,-112.45,35.4,178.98,-0.06,1.32,0.17,1.15,0.3,0.62,-97.78,15.55,170.41,-0.08,1.31,0.17,0.73,0.17,1.28,-145.77,6.73,1.22,0.3,0.07,0.74,0.83,0.48,1.39,-121.58,4.2,1.43,0.04,0.02,-0.01,0.98,0.52,1.56
0.36,-112.72,34.17,179.03,0.32,1.1,-0.07,1.24,0.25,0.59,-97.56,13.92,170.81,0.03,1.13,0.04,0.77,0.23,1.1,-144.62,6.49,1.67,0.19,0.25,0.83,0.76,0.45,1.02,-121.15,4.15,1.24,-0.13,0.2,0.27,0.76,0.65,1.85
0.37,-112.64,32.67,178.95,0.2,1.21,0.01,1.26,0.33,0.54,-97.59,12.37,171.05,0.1,1.0,0.05,0.73,0.23,1.23,-143.67,6.18,2.0,0.14,0.13,1.06,0.87,0.62,1.05,-120.87,4.49,1.35,0.03,0.11,0.02,0.78,0.73,2.01
0.38,-112.74,31.17,178.94,0.29,1.1,0.09,1.18,0.51,0.52,-97.49,11.05,170.97,-0.04,1.04,0.02,0.67,0.14,1.19,-142.77,6.05,2.12,0.14,0.06,0.8,0.88,0.47,0.85,-120.44,4.53,1.19,0.2,0.08,0.24,0.72,0.77,2.16
0.39,-112.83,29.97,178.92,0.16,0.93,0.01,1.36,0.38,0.5,-97.47,9.61,171.27,0.05,0.84,0.01,0.66,0.16,1.41,-141.83,5.75,2.74,-0.01,0.2,0.58,0.93,0.56,0.8,-120.12,4.42,1.04,-0.07,-0.06,0.19,0.61,0.86,2.41
0.4,-112.71,28.79,178.88,0.13,1.07,0.11,1.45,0.47,0.58,-97.19,8.72,171.04,-0.03,0.7,0.09,0.53,0.13,1.43,-140.58,5.39,2.9,0.3,0.34,0.8,0.96,0.64,0.95,-119.81,4.59,0.93,0.13,-0.0,0.27,0.6,0.9,2.49
0.41,-112.92,27.68,178.81,0.13,0.91,0.12,1.37,0.37,0.69,-97.27,7.85,171.01,0.01,0.6,0.02,0.38,0.1,1.54,-139.9,5.01,3.61,0.17,0.14,0.7,0.99,0.62,1.21,-119.73,4.5,0.85,0.03,0.32,0.44,0.48,0.89,2.74
0.42,-113.03,26.75,179.11,0.17,0.7,0.1,1.14,0.41,0.56,-97.3,6.84,171.3,0.08,0.44,-0.14,0.76,0.12,1.84,-139.04,4.7,3.95,0.16,0.37,0.54,0.97,0.57,1.33,-119.5,4.71,0.91,0.06,0.29,0.35,0.43,0.88,3.27
0.43,-112.99,25.9,179.22,0.23,0.67,0.12,1.17,0.39,0.55,-97.14,6.3,171.41,0.16,0.59,0.14,0.47,0.15,1.73,-138.05,4.23,4.28,0.17,0.21,0.37,0.85,0.83,1.44,-119.65,4.68,1.06,0.29,0.03,0.54,0.47,0.89,3.13
0.44,-113.15,25.27,179.36,-0.02,0.55,0.05,1.17,0.52,0.39,-97.26,5.77,171.27,-0.0,0.55,-0.02,0.33,0.2,1.72,-136.94,3.84,4.76,0.27,0.32,0.39,0.84,0.62,1.7,-119.71,4.93,1.08,0.27,0.16,0.56,0.36,0.83,3.17
0.45,-113.35,24.58,179.17,0.19,0.31,0.22,1.31,0.28,0.81,-97.18,5.72,171.42,0.19,0.39,0.04,0.66,0.18,1.97,-136.46,3.43,5.02,0.19,0.42,0.38,0.87,0.84,1.55,-119.94,5.15,1.45,0.11,0.2,0.66,0.44,0.92,3.58
0.46,-113.33,24.03,179.4,0.18,0.4,-0.13,1.29,0.48,0.59,-97.27,5.49,171.48,-0.04,0.22,-0.06,0.36,0.27,2.16,-135.71,3.05,5.5,0.29,0.27,0.19,0.68,0.82,2.02,-120.4,5.39,1.85,0.26,0.24,0.32,0.4,0.97,3.7
0.47,-113.39,23.56,179.43,0.1,0.37,0.17,1.07,0.33,0.74,-97.35,5.38,171.75,0.01,0.48,-0.02,0.64,0.21,2.12,-135.2,2.66,6.01,0.25,0.36,0.27,0.67,0.53,2.21,-121.0,5.72,2.24,0.5,0.2,0.58,0.54,1.05,3.87
0.48,-113.42,23.52,179.18,0.21,0.27,0.04,1.27,0.5,0.71,-97.32,5.31,171.7,0.01,0.33,-0.08,0.41,0.42,2.27,-135.07,2.99,6.31,0.17,0.19,0.25,0.56,0.62,2.47,-121.27,6.03,2.64,0.39,0.28,0.61,0.51,0.95,4.01
0.49,-113.44,23.51,179.3,0.06,0.36,0.03,1.26,0.33,0.62,-97.19,5.52,171.55,0.0,0.25,0.08,0.45,0.46,2.21,-134.63,2.58,6.1,0.33,0.09,0.22,0.42,0.63,2.18,-121.62,6.19,2.86,0.44,0.39,0.58,0.57,0.86,3.93
0.5,-113.61,23.04,179.3,0.09,0.25,-0.02,1.26,0.52,0.66,-97.42,6.14,171.73,-0.06,0.31,0.23,0.48,0.29,2.25,-134.24,2.35,6.33,0.08,0.25,0.38,0.43,0.68,2.61,-122.5,6.89,3.41,0.45,0.52,0.72,0.55,0.9,3.87
0.51,-113.79,23.37,179.34,0.06,0.37,0.17,1.4,0.32,0.58,-97.4,6.34,171.66,0.04,0.38,0.33,0.45,0.21,2.36,-133.92,1.98,6.65,0.12,0.23,0.36,0.45,0.61,2.68,-123.07,7.51,4.26,0.4,0.69,0.52,0.61,0.85,4.08
0.52,-113.89,23.5,179.19,0.18,0.4,0.17,1.41,0.37,0.7,-97.52,7.0,171.8,0.16,0.48,0.09,0.55,0.42,2.35,-134.18,1.81,6.64,0.06,0.23,0.28,0.44,0.93,2.78,-123.89,7.91,4.84,0.72,0.81,0.68,0.7,0.67,4.09
0.53,-114.14,23.76,179.1,0.11,0.4,-0.03,1.36,0.35,0.75,-97.62,7.85,171.67,-0.05,0.61,-0.03,0.57,0.58,2.29,-134.21,1.56,6.6,0.14,0.17,0.43,0.43,1.0,3.18,-124.88,8.7,5.69,0.67,0.91,0.74,0.43,0.65,3.98
0.54,-114.57,24.6,179.02,0.09,0.37,0.02,1.36,0.27,0.5,-97.48,8.87,171.69,-0.11,0.66,0.11,0.4,0.38,2.15,-134.69,1.63,6.62,0.19,0.22,0.56,0.39,0.98,3.11,-125.64,9.62,6.93,0.74,0.66,0.66,0.54,0.7,3.76
0.55,-114.25,25.15,178.77,0.24,0.46,0.06,1.34,0.46,0.55,-97.38,9.92,171.74,0.07,0.79,0.07,0.45,0.29,2.29,-134.7,1.38,6.6,-0.11,0.4,0.7,0.34,0.85,3.41,-126.43,10.41,7.81,0.75,0.82,0.6,0.61,0.67,3.54
0.56,-114.85,25.92,178.5,-0.0,0.58,0.07,1.51,0.31,0.52,-97.3,11.13,171.7,0.09,0.92,-0.03,0.82,0.51,2.11,-135.73,1.24,6.5,0.18,0.28,0.7,0.38,0.7,3.54,-127.18,11.15,8.9,0.71,0.84,0.6,0.64,0.41,3.59
0.57,-114.97,27.01,178.54,0.19,0.81,-0.03,1.51,0.36,0.42,-97.38,12.28,171.49,0.2,1.19,0.01,0.48,0.29,1.78,-136.8,1.1,6.06,0.1,0.19,0.83,0.25,0.84,3.72,-127.97,11.94,9.89,0.73,0.79,0.64,0.58,0.48,3.36
0.58,-115.13,28.25,178.04,0.25,0.79,0.02,1.46,0.33,0.33,-97.54,14.05,171.35,0.15,1.34,0.15,0.47,0.5,1.7,-137.55,0.95,6.0,-0.03,0.23,0.95,0.38,0.84,3.64,-128.57,12.94,10.99,0.61,1.09,0.4,0.71,0.53,3.15
0.59,-115.52,29.22,177.85,0.32,0.97,0.27,1.36,0.57,0.45,-97.15,15.74,170.92,0.0,1.39,0.11,0.65,0.38,1.49,-138.56,0.79,5.78,0.08,0.17,0.87,0.46,0.61,3.61,-128.95,14.02,11.83,0.68,0.95,0.42,0.49,0.34,2.78
0.6,-115.71,30.8,177.5,0.14,1.08,0.15,1.35,0.41,0.5,-97.27,17.39,171.02,0.31,1.6,0.06,0.4,0.35,1.4,-139.74,0.89,5.44,0.34,0.14,0.97,0.41,0.74,3.75,-129.76,15.11,12.94,0.74,1.21,0.33,0.38,0.38,2.48
0.61,-115.93,32.34,177.15,0.25,1.38,0.14,1.36,0.3,0.67,-97.27,19.24,170.45,0.3,1.62,0.1,0.41,0.41,1.23,-140.98,0.79,5.24,0.45,0.24,1.1,0.54,0.78,3.51,-129.85,15.99,13.94,0.8,1.06,0.26,0.55,0.41,2.26
0.62,-116.14,34.15,176.72,0.45,1.39,0.12,1.3,0.19,0.48,-97.11,21.48,170.12,0.21,1.78,0.34,0.39,0.28,1.09,-142.11,0.62,4.85,0.4,0.2,0.94,0.39,0.78,3.66,-130.31,17.19,14.67,0.59,1.24,0.3,0.51,0.36,1.79
0.63,-116.22,35.58,176.33,0.16,1.34,0.02,1.27,0.31,0.58,-97.0,23.59,169.8,0.42,1.97,0.08,0.15,0.22,0.98,-143.41,0.52,4.63,0.37,-0.07,1.0,0.4,0.74,3.42,-130.56,18.24,16.02,0.76,1.24,0.21,0.44,0.44,1.56
0.64,-116.44,36.38,176.26,0.08,1.51,0.06,1.24,0.22,0.69,-96.97,24.78,169.68,0.25,1.91,0.06,0.05,0.18,0.8,-143.89,0.43,4.26,0.1,0.17,0.94,0.49,0.64,3.14,-130.69,18.93,16.31,0.64,1.3,0.33,0.34,0.44,1.51
0.65,-116.45,37.5,176.05,0.3,1.54,0.24,1.18,0.28,0.75,-97.03,25.98,169.64,0.28,1.96,0.02,0.14,0.19,0.67,-144.62,0.26,4.05,0.41,0.08,0.91,0.57,0.52,3.28,-130.54,19.44,16.82,1.03,1.44,0.23,0.41,0.43,1.13
0.66,-116.39,39.17,175.45,0.05,1.83,0.15,0.99,0.37,0.64,-96.95,28.0,169.25,0.24,2.18,0.03,0.12,0.08,0.52,-145.73,0.22,3.63,0.42,0.25,0.73,0.36,0.83,2.92,-130.83,20.62,17.55,0.94,1.35,0.22,0.48,0.5,1.21
0.67,-116.49,41.11,175.29,0.17,1.8,0.17,0.9,0.19,0.83,-96.52,30.35,168.89,0.4,2.18,0.13,0.01,0.33,0.16,-146.75,0.33,3.1,0.18,-0.07,0.78,0.5,0.43,2.68,-131.04,22.3,18.95,0.84,1.45,0.25,0.55,0.41,0.96
0.68,-116.7,43.33,174.86,0.45,1.75,-0.11,0.68,0.09,0.76,-96.56,33.02,168.43,0.42,2.32,-0.03,0.04,0.12,0.28,-147.92,0.11,2.84,0.08,0.08,0.89,0.65,0.59,2.18,-131.29,23.55,19.68,1.05,1.59,0.24,0.47,0.62,0.8
0.69,-116.8,45.19,174.47,0.24,1.9,0.14,0.8,0.15,0.97,-96.47,35.47,168.28,0.26,2.41,0.15,0.16,0.18,0.22,-148.87,0.18,2.42,0.2,0.29,0.75,0.37,0.47,1.89,-131.2,25.34,20.96,0.94,1.62,0.26,0.36,0.74,0.54
0.7,-116.77,47.2,174.32,0.35,1.97,0.03,0.59,0.05,1.09,-96.47,38.12,168.16,0.35,2.51,0.02,0.18,0.11,0.2,-149.98,0.19,2.0,0.12,0.23,0.91,0.6,0.54,1.61,-131.22,27.13,21.96,0.92,2.0,0.07,0.47,0.71,0.73
0.71,-117.14,49.32,173.74,0.23,1.91,0.14,0.52,0.2,0.94,-96.64,40.71,167.73,0.21,2.37,0.12,0.29,-0.05,0.19,-150.81,0.46,1.46,0.44,0.28,0.68,0.44,0.44,1.41,-131.4,28.92,23.28,1.09,1.97,0.14,0.54,0.71,0.81
0.72,-117.12,51.33,173.31,0.17,2.04,-0.08,0.53,0.09,0.89,-96.56,43.43,167.39,0.28,2.53,0.04,0.37,0.24,0.22,-151.75,0.45,1.23,0.11,0.11,1.0,0.22,0.49,1.1,-131.55,31.19,24.92,1.3,2.0,0.34,0.71,0.65,0.83
0.73,-117.44,53.36,173.03,0.12,2.12,0.2,0.57,0.31,1.07,-96.68,46.06,167.23,0.1,2.59,0.14,0.45,0.26,0.24,-152.67,0.88,0.73,0.46,0.34,0.88,0.2,0.32,1.01,-131.23,33.45,26.91,1.28,2.04,0.4,0.56,0.73,0.96
0.74,-117.35,55.59,172.45,-0.07,1.94,0.03,0.48,0.08,1.2,-96.82,48.84,166.84,0.14,2.75,0.07,0.72,0.06,0.28,-153.5,1.09,0.7,0.04,0.43,0.72,0.35,0.35,0.84,-131.19,35.66,28.74,1.38,2.13,0.2,0.57,0.82,1.19
0.75,-117.56,57.39,171.95,0.27,1.91,0.1,0.64,0.08,1.07,-97.22,51.6,166.32,0.14,2.57,0.11,1.11,0.35,0.13,-154.24,1.69,0.57,0.07,0.36,0.78,0.43,0.55,1.13,-131.27,38.05,31.28,1.5,2.27,0.24,0.58,0.68,1.09
0.76,-117.69,59.38,171.35,0.18,1.79,0.06,0.69,0.22,1.18,-97.39,54.37,166.0,0.18,2.66,0.11,1.44,0.02,0.11,-155.19,2.06,0.43,0.22,0.6,0.77,0.52,0.27,0.87,-131.09,40.57,34.16,1.58,2.04,0.26,0.61,0.68,1.56
0.77,-117.6,61.57,170.67,0.12,1.82,0.11,0.62,0.3,1.11,-97.49,57.13,165.03,0.08,2.49,0.12,1.47,0.31,0.21,-156.13,2.74,0.95,0.27,0.4,0.71,0.44,0.52,0.84,-130.87,43.02,37.08,1.42,2.4,0.45,1.01,0.81,1.37
0.78,-118.11,63.53,169.88,0.13,1.78,-0.02,0.7,0.25,0.74,-97.93,59.8,164.22,0.15,2.58,-0.05,1.38,0.4,0.39,-156.79,3.29,1.03,0.31,0.68,0.48,0.42,0.53,1.24,-130.5,45.58,40.86,1.63,2.47,0.41,0.58,0.5,1.53
0.79,-118.0,65.4,168.93,0.37,1.81,-0.01,0.75,0.22,0.96,-98.2,62.37,163.16,-0.07,2.42,0.16,1.69,0.39,0.29,-157.66,4.34,1.52,0.71,0.88,0.8,0.48,0.39,1.36,-130.3,48.27,44.84,1.53,2.59,0.15,0.82,0.62,1.43
0.8,-118.11,66.26,168.38,0.15,1.59,0.16,0.98,0.19,0.74,-98.18,63.91,162.37,0.23,2.52,0.13,1.97,0.51,0.25,-158.04,4.97,1.92,0.66,0.77,0.74,0.51,0.49,1.44,-130.08,48.97,47.21,1.47,2.51,0.36,0.61,0.46,1.52
0.81,-118.28,67.08,168.01,-0.01,1.43,0.02,0.81,0.27,0.71,-98.41,65.09,161.56,0.07,2.47,0.23,1.91,0.44,0.18,-158.51,5.19,2.43,0.57,0.86,0.73,0.4,0.7,1.53,-130.11,50.4,49.33,1.56,2.53,0.38,0.88,0.57,1.67
0.82,-118.5,68.72,166.9,0.14,1.4,-0.1,1.02,0.36,0.6,-98.75,67.71,159.97,0.11,2.25,0.08,2.18,0.37,0.56,-159.28,6.37,3.13,0.58,0.74,0.74,0.32,0.67,1.76,-129.7,52.42,54.29,1.58,2.65,0.16,0.9,0.5,1.37
0.83,-118.54,70.1,165.6,-0.16,1.24,-0.04,1.03,0.45,0.62,-98.84,70.0,158.24,0.17,2.1,0.03,2.18,0.5,0.06,-160.26,7.26,4.4,0.95,0.92,0.96,0.39,0.64,2.06,-129.46,54.56,59.67,1.56,2.38,0.24,0.8,0.51,1.65
0.84,-118.88,71.51,164.31,0.18,1.22,0.08,1.1,0.32,0.65,-99.02,72.16,156.11,0.09,2.01,0.21,2.13,0.46,0.36,-160.8,8.58,5.74,1.17,1.2,0.76,0.3,1.04,2.19,-129.24,55.88,65.2,1.73,2.43,0.24,0.97,0.48,1.34
0.85,-118.95,72.79,162.94,-0.04,1.12,0.1,1.15,0.49,0.47,-99.42,73.94,154.08,0.08,1.77,0.08,1.87,0.34,0.32,-161.89,9.93,7.38,1.22,1.37,0.79,0.18,1.05,2.33,-128.82,57.61,71.06,1.77,2.64,0.35,0.61,0.57,1.27
0.86,-119.14,73.93,161.78,0.26,0.99,0.03,1.12,0.37,0.33,-99.4,76.08,151.86,0.16,1.73,0.11,1.81,0.64,0.32,-162.62,11.04,9.06,1.48,1.44,0.65,0.31,1.23,2.48,-128.69,58.41,76.9,1.57,2.63,0.42,0.65,0.29,1.25
0.87,-119.16,74.84,160.26,0.08,0.95,0.07,1.14,0.37,0.27,-99.47,77.77,149.63,0.17,1.54,0.06,1.7,0.46,0.32,-163.19,12.4,10.93,1.6,1.31,0.76,0.43,1.31,2.39,-128.47,59.28,83.09,1.71,2.64,0.29,0.86,0.46,1.03
0.88,-119.59,75.59,159.23,0.23,0.77,0.06,1.03,0.21,0.28,-99.57,79.39,147.1,0.19,1.41,0.08,1.48,0.39,0.46,-164.05,13.73,13.47,1.96,1.27,0.6,0.26,1.31,2.42,-128.24,59.48,89.08,1.54,2.58,0.28,0.74,0.52,0.9
0.89,-119.55,76.4,158.03,-0.05,0.84,-0.08,0.98,0.36,0.38,-99.53,80.79,144.91,0.17,1.22,-0.08,1.34,0.54,0.52,-164.53,15.13,15.83,1.86,1.45,0.72,0.26,1.42,2.31,-127.88,59.75,94.94,1.53,2.33,0.39,1.02,0.46,1.0
0.9,-119.8,76.78,157.04,0.25,0.55,0.06,1.0,0.29,0.35,-99.66,81.83,142.97,0.03,1.19,-0.02,1.05,0.26,0.35,-165.39,16.72,18.29,2.23,1.41,0.62,0.45,1.25,1.97,-127.75,59.12,100.84,1.44,2.62,0.45,0.8,0.48,0.64
0.91,-119.94,77.22,156.16,0.18,0.51,0.1,0.9,0.42,0.38,-99.69,82.67,141.13,-0.11,0.9,0.1,0.96,0.16,0.6,-166.12,17.87,21.08,2.15,1.55,0.5,0.38,1.38,1.65,-127.76,58.8,106.33,1.41,2.38,0.17,0.8,0.31,0.75
0.92,-119.97,77.54,155.58,-0.04,0.49,-0.04,0.66,0.37,0.2,-99.46,83.52,139.44,0.09,0.9,0.03,0.62,0.27,0.48,-166.62,19.39,24.09,2.42,1.51,0.58,0.55,1.17,1.76,-127.36,58.01,111.75,1.31,2.35,0.2,0.85,0.56,0.62
0.93,-119.98,77.72,155.11,0.13,0.15,-0.07,0.78,0.3,0.54,-99.35,83.92,138.07,-0.06,0.86,-0.08,0.66,0.21,0.35,-166.91,20.83,26.97,2.26,1.55,0.52,0.58,1.38,1.38,-127.42,57.03,116.67,1.2,2.25,0.11,1.2,0.51,0.56
0.94,-119.91,77.74,154.78,-0.06,0.19,-0.09,0.49,0.2,0.51,-99.24,84.29,137.04,0.04,0.98,0.13,0.46,0.17,0.43,-167.31,21.81,30.16,2.34,1.69,0.37,0.5,0.94,1.38,-127.25,55.88,121.48,1.09,2.18,0.19,1.37,0.55,0.54
0.95,-120.05,77.81,154.43,0.19,0.06,0.1,0.42,0.19,0.62,-99.1,84.56,136.27,0.17,0.86,-0.16,0.35,0.3,0.61,-167.72,23.24,33.42,2.46,1.55,0.46,0.57,1.01,0.94,-127.23,54.55,125.81,1.28,2.08,0.39,1.31,0.42,0.35
0.96,-119.72,77.95,154.5,0.21,0.27,-0.01,0.31,0.63,0.6,-99.01,84.8,135.94,0.14,0.82,0.08,0.42,0.11,0.43,-168.02,23.95,35.08,2.47,1.58,0.19,0.4,1.02,0.84,-126.95,53.93,127.63,1.11,2.22,0.2,1.26,0.62,0.41
0.97,-119.92,77.61,154.48,0.23,0.27,0.01,0.51,0.43,0.63,-98.96,84.82,135.7,0.13,0.57,-0.07,0.46,0.12,0.4,-168.24,24.58,36.19,2.36,1.49,0.41,0.33,0.96,0.67,-126.82,53.21,129.54,1.11,2.11,0.28,1.59,0.55,0.46
0.98,-119.59,77.54,154.76,-0.14,0.31,0.02,0.38,0.68,0.45,-98.63,84.71,135.4,0.1,0.61,0.19,0.44,0.27,0.36,-168.6,25.73,39.89,2.45,1.54,0.46,0.26,0.96,0.51,-126.61,51.33,133.16,1.1,2.02,0.28,1.48,0.43,0.32
0.99,-119.45,77.33,155.01,0.29,0.18,-0.09,0.31,0.41,0.65,-98.74,84.41,135.12,0.04,0.53,0.02,0.27,0.19,0.46,-168.88,26.83,43.26,2.4,1.5,0.53,0.32,0.59,0.34,-126.5,50.02,136.29,0.95,1.94,0.17,1.45,0.64,0.36
1.0,-119.44,77.08,155.28,0.26,0.27,-0.12,0.24,0.68,0.59,-98.56,84.21,134.99,0.3,0.58,0.04,0.47,0.08,0.26,-169.28,27.56,46.11,2.15,1.63,0.35,0.47,0.65,0.06,-126.24,48.41,139.15,0.96,1.73,0.2,1.87,0.49,0.26
1.01,-119.0,76.7,155.79,0.15,0.28,0.0,0.21,0.45,0.62,-98.19,84.07,134.93,0.18,0.46,0.2,0.46,0.36,0.28,-169.35,28.86,49.4,2.06,1.62,0.36,0.5,0.27,0.13,-126.08,46.88,141.63,0.63,1.57,0.16,2.09,0.44,0.27
1.02,-119.01,76.31,156.26,0.15,0.28,-0.11,0.33,0.74,0.54,-98.04,83.78,135.38,0.32,0.31,0.09,0.57,0.32,0.3,-169.65,29.58,52.35,2.24,1.39,0.09,0.61,0.49,0.13,-125.65,45.54,143.86,0.89,1.52,0.22,1.85,0.35,0.31
1.03,-118.74,75.96,156.93,0.07,0.25,0.08,0.29,0.63,0.47,-97.86,83.31,135.62,0.13,0.25,0.01,0.27,0.41,0.38,-169.94,30.48,55.61,2.32,1.53,0.46,0.64,0.35,0.01,-125.83,44.11,145.8,0.7,1.25,0.24,2.06,0.75,0.45
1.04,-118.56,75.66,157.78,0.4,0.35,0.17,0.42,0.82,0.35,-97.74,83.03,135.57,0.02,0.26,-0.0,0.71,0.37,0.29,-169.93,31.46,58.48,2.12,1.55,0.18,0.5,0.28,-0.02,-125.53,42.81,147.37,0.58,1.23,0.33,2.25,0.74,0.06
1.05,-118.37,75.31,158.39,0.22,0.4,0.01,0.37,1.02,0.31,-97.51,82.59,135.97,0.08,0.12,0.17,0.81,0.61,0.24,-170.31,32.04,61.68,2.09,1.46,0.34,0.55,0.24,0.16,-125.68,41.67,148.72,0.56,1.13,0.24,2.02,0.83,0.32
1.06,-118.46,74.83,159.31,0.17,0.34,-0.03,0.42,0.75,0.38,-97.39,82.43,136.09,0.05,0.08,0.13,0.53,0.58,0.28,-170.32,32.93,64.56,1.96,1.38,0.04,0.57,0.4,0.07,-125.56,40.56,150.03,0.49,0.99,0.2,2.16,0.91,0.27
1.07,-118.61,74.65,160.4,0.11,0.42,-0.03,0.29,0.81,0.47,-97.24,82.36,136.43,0.05,0.33,0.03,0.57,1.01,0.21,-170.68,33.54,67.57,2.07,1.45,0.2,0.47,0.39,0.01,-125.72,39.91,150.91,0.4,0.82,0.34,1.98,0.89,0.4
1.08,-118.79,74.24,161.2,0.21,0.32,-0.05,0.63,0.82,0.42,-97.2,81.98,136.94,0.03,0.3,0.09,0.92,0.68,0.27,-170.55,34.15,70.38,1.97,1.32,0.22,0.68,0.26,0.35,-125.84,39.3,151.85,0.32,0.67,0.46,2.06,0.99,0.28
1.09,-118.88,73.83,162.21,0.37,0.44,0.07,0.49,0.97,0.45,-97.12,81.94,137.07,0.16,0.24,0.16,0.68,0.78,0.08,-170.59,34.78,73.55,1.84,1.37,0.3,0.71,0.3,0.24,-126.19,39.02,152.33,0.56,0.78,0.43,2.21,0.88,0.64
1.1,-119.32,73.82,163.11,0.1,0.33,0.06,0.52,0.92,0.59,-97.3,81.95,137.32,0.0,0.11,0.2,0.45,0.8,0.31,-170.47,35.48,76.6,2.02,1.4,0.36,0.8,0.2,0.37,-126.66,38.99,152.85,0.46,0.63,0.48,2.09,1.1,0.57
1.11,-119.63,73.74,164.28,0.19,0.16,0.08,0.47,0.96,0.65,-97.25,81.78,137.7,-0.03,0.19,0.11,0.55,0.94,0.32,-170.23,36.01,79.68,1.86,1.46,0.42,0.93,0.35,0.7,-126.91,39.19,153.27,0.45,0.6,0.48,2.27,1.04,0.55
1.12,-120.09,73.79,164.89,0.07,0.06,0.02,0.59,0.86,0.36,-97.29,81.86,137.73,0.04,0.14,0.09,0.64,0.89,0.34,-170.28,36.22,81.18,1.92,1.42,0.19,0.55,0.25,0.34,-127.06,39.38,153.1,0.53,0.75,0.72,2.18,1.27,0.81
1.13,-120.15,73.65,165.74,0.22,0.34,0.02,0.68,0.92,0.5,-97.25,81.79,137.9,-0.21,0.35,0.15,0.7,0.97,0.34,-169.97,36.35,82.52,2.02,1.13,0.49,0.69,0.31,0.48,-127.24,39.71,153.23,0.53,0.43,0.67,2.2,1.12,0.74
1.14,-120.56,73.46,166.66,0.14,0.24,0.27,0.51,0.7,0.71,-97.36,82.13,138.04,-0.04,0.07,0.14,0.66,0.79,0.44,-169.3,37.15,85.52,1.99,1.44,0.32,0.62,0.22,0.63,-127.57,40.35,153.16,0.42,0.68,0.64,2.19,1.22,0.85
1.15,-121.3,73.32,167.67,0.34,0.24,0.24,0.51,0.73,0.92,-97.39,82.14,138.48,0.03,0.28,0.15,0.54,0.76,0.4,-168.9,37.56,88.8,1.9,1.15,0.47,0.73,0.2,0.57,-127.98,41.23,153.48,0.71,0.66,0.73,2.15,1.24,1.06
1.16,-121.57,73.29,168.73,0.41,0.25,0.34,0.52,0.67,0.94,-97.56,82.21,138.45,0.06,0.41,0.29,0.4,0.85,0.6,-168.28,38.1,91.83,1.82,1.17,0.55,0.58,0.45,0.75,-127.92,42.33,153.36,0.52,0.64,0.8,2.19,0.97,0.95
1.17,-121.92,73.31,169.87,0.33,0.16,0.23,0.53,0.6,1.17,-97.81,82.67,138.82,0.25,0.08,0.21,0.46,0.75,0.63,-167.28,38.9,95.08,1.95,1.18,0.66,0.61,0.25,0.66,-128.44,43.55,153.31,0.51,0.84,0.74,2.25,1.26,0.94
1.18,-122.05,73.25,170.79,0.3,0.24,-0.04,0.38,0.41,1.35,-97.94,83.01,138.83,0.09,0.22,0.1,0.21,0.87,0.71,-166.42,39.41,98.22,1.68,1.16,0.57,0.56,0.39,0.7,-128.57,44.88,153.23,0.58,0.94,0.77,2.34,1.09,0.85
1.19,-122.19,73.2,171.56,0.28,0.26,0.34,0.52,0.53,1.61,-98.05,83.29,138.79,0.19,0.24,0.04,0.4,0.76,0.85,-165.56,39.99,101.38,1.75,1.17,0.67,0.77,0.56,0.54,-128.67,46.06,152.8,0.65,0.83,0.88,2.24,1.12,0.89
1.2,-121.92,73.15,172.04,0.38,0.09,0.28,0.32,0.6,1.73,-97.96,83.73,138.86,0.21,0.4,0.18,0.4,0.84,0.92,-164.15,40.76,104.42,1.67,1.09,0.96,0.63,0.62,0.45,-128.78,47.79,152.81,0.64,0.61,0.93,2.16,0.96,1.07
1.21,-121.75,72.9,172.8,0.42,0.34,0.03,0.53,0.5,1.87,-98.0,83.96,138.96,0.13,0.48,0.04,0.33,0.79,0.83,-162.89,41.42,107.84,1.68,0.96,1.37,0.72,0.98,0.61,-128.77,49.1,152.61,0.48,0.77,0.63,2.11,0.97,0.85
1.22,-121.63,72.88,172.91,0.36,0.23,0.28,0.72,0.52,2.0,-98.16,84.23,138.7,0.19,0.31,0.24,0.55,0.86,0.93,-161.31,42.41,110.63,1.51,1.06,1.32,0.91,0.94,0.81,-128.65,50.22,152.45,0.59,0.6,0.75,1.84,0.53,0.93
1.23,-120.94,72.91,173.26,0.55,0.25,0.28,0.69,0.63,2.06,-97.99,84.48,138.6,0.18,0.14,0.11,0.61,0.77,0.57,-159.75,43.1,113.63,1.37,1.1,1.19,1.01,1.39,0.56,-128.64,51.57,152.26,0.53,0.59,0.59,2.0,0.81,0.63
1.24,-120.56,72.81,173.23,0.47,0.0,0.2,0.65,0.32,1.94,-97.96,84.71,138.73,0.2,0.36,0.18,0.59,0.63,0.77,-158.14,43.8,116.67,1.24,0.64,1.24,1.34,1.4,0.45,-128.71,52.74,151.96,0.51,0.74,0.65,1.61,0.74,0.6
1.25,-119.8,72.68,173.12,0.48,0.07,0.13,0.74,0.62,1.95,-97.99,84.68,138.44,0.19,0.2,0.02,0.56,1.01,0.58,-156.22,44.85,119.37,1.05,0.46,1.51,1.29,1.7,0.5,-128.71,53.58,151.77,0.55,0.52,0.43,1.16,0.59,0.63
1.26,-119.0,72.81,172.83,0.5,0.22,0.27,0.61,0.77,1.78,-97.88,85.01,138.37,0.11,0.2,0.25,0.71,0.84,0.78,-154.61,45.71,121.8,0.99,0.65,1.45,1.41,1.85,0.5,-128.56,54.32,151.65,0.37,0.66,0.38,0.97,0.44,0.64
1.27,-118.2,72.53,172.61,0.58,0.11,0.03,0.74,0.76,1.59,-97.78,85.27,138.43,0.08,0.27,0.31,0.78,0.68,0.58,-152.7,46.39,124.18,1.01,0.73,1.25,1.51,1.92,0.44,-128.58,55.01,151.49,0.36,0.53,0.31,0.98,0.29,0.59
1.28,-117.76,72.54,172.68,0.45,0.25,0.09,0.89,0.85,1.51,-97.45,85.33,138.4,0.27,0.06,0.13,0.97,0.52,0.65,-151.86,46.77,125.42,0.86,0.53,1.34,1.51,1.99,0.45,-128.75,55.29,151.23,0.4,0.46,0.32,0.76,0.19,0.65
1.29,-117.42,72.55,172.33,0.62,0.07,0.0,0.95,0.67,1.36,-97.5,85.51,138.12,0.13,0.23,0.01,1.01,0.74,0.73,-151.22,47.43,126.58,0.75,0.44,1.36,1.65,1.93,0.25,-128.79,55.87,150.88,0.35,0.44,0.23,0.86,0.33,0.53
1.3,-116.69,72.49,172.0,0.44,0.25,-0.1,0.87,0.68,1.37,-97.22,85.2,138.18,0.33,0.14,-0.04,1.07,0.66,0.8,-149.62,48.3,128.57,0.63,0.52,1.2,1.73,2.01,0.47,-128.83,56.18,150.76,0.3,0.37,0.19,0.68,0.34,0.55
1.31,-115.84,72.25,171.44,0.47,0.27,0.06,0.88,0.8,1.21,-96.77,85.58,138.12,0.26,0.09,-0.06,0.98,0.49,0.91,-147.95,48.76,130.43,0.44,0.31,1.33,1.65,2.02,0.48,-128.91,56.78,150.41,0.06,0.31,0.22,0.48,0.44,0.85
1.32,-115.21,72.21,171.08,0.51,0.19,-0.06,0.96,0.82,1.04,-96.51,85.45,138.04,0.17,0.06,0.14,1.06,0.6,0.88,-146.43,49.45,132.13,0.6,0.14,1.03,1.75,1.86,0.46,-129.03,56.99,150.11,0.13,0.39,0.16,0.44,0.32,0.72
1.33,-114.62,72.16,170.6,0.43,0.26,0.03,1.11,0.84,0.71,-96.42,85.39,138.24,0.15,0.01,0.15,1.11,0.45,0.86,-145.13,50.21,133.67,0.42,0.34,0.93,1.49,1.76,0.35,-129.3,57.35,150.0,0.06,0.22,0.06,0.11,0.38,0.82
1.34,-114.1,71.98,170.11,0.55,0.26,0.17,0.88,0.65,0.61,-95.9,85.32,137.92,0.13,0.33,-0.08,0.84,0.62,0.71,-143.98,50.49,134.83,0.44,0.31,0.8,1.57,1.57,0.44,-129.54,57.43,149.61,0.16,0.39,-0.08,0.23,0.48,0.96
1.35,-113.62,71.85,169.91,0.19,0.3,0.08,0.75,0.56,0.42,-95.72,85.37,138.07,0.14,0.02,0.01,0.6,0.08,1.02,-142.59,50.87,135.72,0.36,0.09,0.6,1.37,1.48,0.43,-129.68,57.86,149.2,-0.03,0.24,0.23,0.0,0.28,1.0
1.36,-113.19,71.67,169.49,0.36,0.33,-0.17,0.7,0.42,0.3,-95.55,85.41,137.99,0.05,0.12,0.1,0.76,0.5,0.87,-141.84,51.35,136.73,0.25,-0.11,0.46,1.24,1.31,0.35,-129.91,57.94,148.82,0.05,0.35,0.07,0.28,0.5,1.13
1.37,-112.89,71.34,169.51,0.24,0.35,0.08,0.56,0.44,0.19,-95.33,85.42,137.75,0.14,0.12,-0.12,0.66,0.43,0.88,-141.05,51.66,137.44,0.22,-0.0,0.41,1.21,1.13,0.56,-130.01,58.14,148.67,0.21,0.09,0.2,0.56,0.47,1.26
1.38,-112.48,71.03,169.34,0.11,0.29,0.05,0.71,0.37,0.21,-95.13,85.23,138.18,0.17,0.11,0.05,0.5,0.54,1.04,-140.23,51.79,138.08,0.46,-0.1,0.29,0.92,1.04,0.56,-130.4,58.5,148.23,0.12,0.07,-0.0,0.57,0.65,1.38
1.39,-112.36,70.94,169.11,0.19,0.2,0.09,0.63,0.27,0.06,-95.03,85.51,138.13,0.19,0.24,-0.02,0.62,0.23,1.08,-139.58,51.85,138.36,0.26,0.06,0.31,0.89,0.82,0.43,-130.95,58.79,147.84,0.24,0.34,0.08,0.36,0.98,1.36
1.4,-112.06,70.66,169.09,0.15,0.17,0.06,0.46,0.32,0.09,-94.83,85.32,138.29,0.03,0.1,0.05,0.43,0.2,0.91,-139.25,51.96,138.91,0.2,0.2,0.21,0.65,0.66,0.71,-131.01,58.97,147.67,0.26,0.35,0.04,0.72,0.95,1.37
1.41,-111.96,70.57,169.15,0.28,0.07,0.13,0.33,0.22,0.01,-94.71,85.37,138.13,0.02,0.3,0.07,0.25,0.15,1.22,-138.88,52.33,139.11,0.35,0.16,0.2,0.43,0.65,0.65,-131.27,59.09,147.38,0.22,0.19,0.19,0.61,1.05,1.42
1.42,-111.84,70.21,169.02,0.11,0.31,0.0,0.23,0.02,0.13,-94.54,85.52,138.17,0.06,0.24,0.03,0.13,0.34,1.07,-138.4,52.42,139.43,0.37,0.18,0.12,0.42,0.6,0.63,-131.61,59.63,147.17,0.17,0.04,0.11,0.68,0.98,1.38
1.43,-111.7,69.86,169.13,0.07,0.28,-0.02,0.29,0.18,0.07,-94.53,85.44,138.29,0.01,0.48,0.12,0.09,0.27,1.0,-137.77,52.25,139.45,0.17,0.23,0.21,0.37,0.29,0.64,-131.79,59.83,146.93,0.26,0.23,0.06,0.79,1.02,1.33
1.44,-111.59,69.65,168.92,-0.01,0.16,0.01,0.4,0.33,0.09,-94.45,85.57,138.1,0.06,0.01,-0.03,0.07,0.32,1.16,-137.78,52.48,139.48,0.41,0.05,0.14,0.1,0.65,0.91,-131.74,59.98,146.69,0.26,0.0,0.29,0.68,1.1,1.25
1.45,-111.6,69.59,169.14,0.18,0.27,0.08,0.18,-0.04,0.11,-94.77,85.3,138.28,0.05,0.19,0.04,-0.02,0.34,1.25,-137.44,52.7,139.66,0.27,0.05,0.01,0.32,0.55,0.8,-131.95,60.26,146.69,0.22,0.13,0.21,0.51,0.9,1.36
1.46,-111.68,69.29,168.9,0.07,0.26,-0.04,0.32,0.08,0.29,-94.58,85.35,138.32,0.14,0.11,0.1,0.16,0.38,1.16,-137.22,52.76,140.05,0.36,0.2,0.05,0.16,0.42,0.92,-132.35,60.41,146.66,0.34,0.03,0.25,0.75,1.01,1.1
1.47,-111.56,68.97,168.86,0.04,0.29,0.05,0.22,0.07,0.05,-94.64,85.35,138.38,0.1,0.1,-0.12,0.01,0.36,0.94,-136.74,52.89,140.29,0.12,0.15,0.25,0.23,0.52,1.07,-132.46,60.75,146.37,0.29,0.19,0.35,0.63,0.86,1.02
1.48,-111.58,68.99,168.96,-0.04,0.36,0.26,0.54,0.32,0.3,-94.62,85.5,138.37,0.07,0.01,-0.13,0.17,0.24,1.19,-135.88,53.04,140.59,0.43,0.11,0.07,0.1,0.61,1.04,-132.51,61.14,146.25,0.03,-0.02,0.2,0.61,0.85,1.33
1.49,-111.23,68.73,168.89,0.06,0.22,0.18,0.32,0.19,0.28,-94.44,85.35,138.43,0.06,0.08,-0.02,0.38,0.23,1.0,-135.58,53.09,140.85,0.35,0.32,0.05,0.26,0.61,0.98,-132.76,61.17,146.24,0.26,0.08,0.08,0.42,0.86,1.21
1.5,-111.29,68.47,168.73,-0.13,0.13,0.01,0.17,-0.01,0.31,-94.63,85.52,138.59,0.1,0.12,-0.17,0.25,0.46,0.91,-134.9,53.25,141.09,0.3,0.1,0.18,0.45,0.59,1.01,-133.04,61.36,146.22,0.29,-0.01,0.3,0.46,0.75,0.9
1.51,-111.27,68.35,168.52,-0.08,0.14,0.27,0.28,0.25,0.07,-94.6,85.56,138.24,-0.01,0.13,0.05,0.1,0.38,1.09,-134.51,53.57,141.6,0.3,0.44,0.36,0.34,0.67,1.32,-132.95,61.98,146.3,-0.0,0.21,0.19,0.51,0.56,0.85
1.52,-111.28,68.05,168.7,0.05,0.24,-0.02,0.24,0.21,0.24,-94.72,85.42,138.49,-0.0,0.16,0.09,0.21,0.08,1.17,-133.78,53.66,141.99,0.36,0.2,0.19,0.31,0.64,1.07,-132.96,61.9,146.54,-0.22,-0.01,0.14,0.58,0.61,0.89
1.53,-111.1,67.96,168.1,0.05,0.13,0.33,0.38,0.02,0.41,-94.75,85.48,138.41,-0.06,0.12,0.03,0.25,0.34,1.03,-132.97,53.86,142.32,0.36,0.17,0.35,0.37,0.53,1.19,-133.11,62.13,146.74,-0.22,-0.01,0.09,0.51,0.56,0.94
1.54,-111.25,67.86,168.34,-0.03,0.19,0.08,0.24,0.15,0.03,-94.74,85.73,138.36,0.16,-0.0,-0.03,0.34,0.1,0.76,-132.2,53.99,142.81,0.06,0.19,0.23,0.43,0.67,1.12,-132.96,62.38,146.62,0.03,0.11,-0.01,0.62,0.47,0.91
1.55,-110.87,67.87,168.04,-0.03,0.02,0.32,0.38,0.12,0.21,-94.56,85.55,138.39,0.01,0.01,0.08,0.17,0.23,0.97,-131.72,54.35,143.21,0.31,-0.0,0.31,0.7,0.46,0.93,-133.04,62.44,146.85,0.09,0.01,0.15,0.44,0.35,1.07
1.56,-111.06,67.83,167.76,0.13,0.15,0.14,0.17,0.18,0.26,-94.83,85.51,138.45,-0.01,0.19,-0.06,0.42,0.25,0.92,-131.02,54.49,143.71,0.39,0.07,0.3,0.48,0.65,1.05,-133.03,62.37,147.34,0.02,0.16,0.21,0.39,0.32,0.88
1.57,-110.89,67.86,167.52,-0.1,0.13,0.17,0.16,0.22,0.09,-94.71,85.54,138.53,0.18,-0.01,0.16,0.35,0.38,0.67,-130.33,54.84,144.16,0.21,0.06,0.16,0.63,0.53,1.15,-132.75,62.64,147.51,0.13,0.08,0.25,0.76,0.26,1.1
1.58,-110.95,67.76,167.44,-0.07,-0.02,-0.0,0.28,0.06,0.17,-94.71,85.83,138.52,-0.02,0.07,0.11,0.23,0.23,1.0,-129.75,54.95,144.88,0.28,-0.01,0.3,0.58,0.53,1.0,-132.72,62.45,147.89,0.22,0.04,0.0,1.13,0.39,1.27
1.59,-111.05,67.71,167.34,0.1,0.11,0.03,0.26,0.28,0.31,-94.78,85.74,138.18,0.05,0.22,0.04,0.22,0.1,0.92,-129.03,55.02,145.22,0.33,0.12,0.18,0.62,0.4,1.04,-132.41,62.29,147.94,0.29,0.13,0.03,1.27,0.5,1.36
1.6,-111.02,67.75,167.43,0.07,-0.01,-0.13,-0.03,0.1,0.27,-94.95,85.77,138.33,0.04,0.21,-0.15,0.12,0.2,0.87,-128.97,55.22,145.04,0.26,0.16,0.21,0.47,0.59,1.14,-132.45,62.28,148.03,0.1,0.16,0.22,1.21,0.31,1.51
1.61,-110.95,67.73,167.35,0.04,-0.04,-0.11,-0.01,0.27,0.01,-94.96,85.72,138.41,0.15,0.07,0.14,0.28,0.06,0.86,-128.66,55.43,145.37,0.15,0.1,0.22,0.59,0.5,0.83,-132.18,62.41,148.35,0.16,0.01,0.17,1.36,0.49,1.5
1.62,-110.99,67.61,167.42,-0.02,0.01,-0.05,0.09,0.26,0.47,-94.7,85.59,138.48,0.11,0.22,0.1,0.33,0.1,1.02,-128.09,55.7,145.49,0.11,0.2,0.2,0.44,0.61,0.89,-131.75,62.12,148.51,0.31,0.08,0.21,1.76,0.54,1.74
1.63,-111.22,67.92,167.37,-0.11,0.1,0.15,0.26,0.19,0.29,-94.7,85.58,138.61,0.03,0.05,-0.01,0.23,0.08,0.84,-127.79,55.8,145.87,0.11,0.17,0.21,0.62,0.46,0.89,-131.36,61.8,149.1,0.67,0.29,0.46,1.94,0.65,1.95
1.64,-111.17,67.83,167.2,0.15,0.16,0.03,0.17,0.23,0.3,-94.62,85.51,138.71,-0.02,0.13,-0.12,0.16,0.09,0.89,-127.37,56.06,145.95,0.22,0.01,0.21,0.46,0.32,1.0,-130.55,61.42,149.69,0.4,0.18,0.42,2.23,0.79,1.85
1.65,-111.12,68.02,167.33,0.01,0.16,-0.01,0.14,0.21,0.15,-94.61,85.67,138.6,0.16,0.11,0.01,-0.07,0.27,0.81,-126.91,56.34,146.19,0.09,0.28,0.11,0.61,0.42,1.01,-129.82,61.02,150.35,0.65,0.29,0.43,2.58,1.09,2.2
1.66,-111.34,68.0,167.2,0.14,0.17,-0.0,0.13,0.09,0.48,-94.46,85.59,138.79,0.22,0.3,-0.03,0.13,0.21,0.88,-126.7,56.51,146.14,-0.07,0.1,0.22,0.35,0.37,0.98,-129.15,60.66,150.67,0.76,0.3,0.46,2.71,0.88,2.09
1.67,-111.51,67.9,167.15,0.08,0.07,0.13,0.34,0.15,0.34,-94.26,85.45,138.75,0.03,0.22,-0.07,0.1,0.25,1.03,-126.55,56.77,146.36,0.27,-0.1,-0.02,0.51,0.44,0.86,-128.11,60.15,151.63,0.87,0.41,0.33,3.39,1.22,2.18
1.68,-111.37,68.09,167.4,-0.05,-0.06,0.2,0.41,0.27,0.36,-94.16,85.51,138.89,0.21,0.31,0.19,0.19,0.26,0.73,-126.47,57.13,146.47,0.22,0.18,-0.1,0.66,0.56,0.91,-127.04,59.81,152.29,1.04,0.45,0.49,3.53,1.41,2.47
1.69,-111.58,68.3,167.27,-0.03,-0.06,0.04,0.34,0.21,0.49,-94.0,85.34,138.73,0.34,0.2,0.11,0.29,0.28,0.97,-126.46,57.34,146.37,0.03,0.1,0.05,0.8,0.35,0.93,-126.06,59.11,152.89,1.07,0.25,0.6,3.7,1.41,2.22
1.7,-111.67,67.95,167.38,0.01,0.06,-0.02,0.49,0.08,0.79,-93.94,85.18,139.16,0.08,0.25,0.1,0.09,0.49,0.72,-126.21,57.68,146.55,0.18,0.1,0.09,0.84,0.51,0.86,-125.04,58.67,153.71,0.97,0.37,0.79,3.91,1.62,2.2
