0.01,-109.24,77.34,173.46,0.3,0.31,0.13,0.47,-0.12,1.57,-98.32,85.34,175.42,0.13,-0.07,0.01,0.38,0.2,0.25,-149.95,0.57,4.3,-0.0,-0.16,0.14,0.1,0.1,-0.06,-118.38,13.56,9.36,0.12,0.15,0.06,0.8,0.9,0.4
0.02,-109.61,77.09,174.15,0.11,0.44,0.02,0.44,0.35,0.87,-98.21,85.37,175.43,0.24,0.27,0.18,0.56,0.29,0.24,-149.73,0.54,4.5,0.05,-0.01,0.03,0.26,0.15,0.1,-117.98,13.57,9.33,0.13,-0.0,0.28,1.27,0.72,0.32
0.03,-109.78,76.44,174.48,0.15,0.57,0.21,1.04,0.49,1.07,-98.28,85.0,175.16,0.57,0.39,0.36,0.34,0.42,0.64,-150.07,0.49,4.43,0.02,0.29,0.29,0.34,0.03,0.24,-117.77,13.75,9.36,0.2,-0.08,0.23,1.58,0.37,1.24
0.04,-110.08,76.03,174.93,0.05,0.52,-0.12,1.19,0.3,0.92,-98.7,84.54,174.9,0.32,0.45,0.09,-0.04,0.05,0.48,-150.28,0.19,4.45,-0.08,0.07,-0.03,0.43,0.08,0.14,-117.76,13.58,9.39,-0.07,-0.0,-0.09,1.37,0.27,1.82
0.05,-110.04,75.1,175.19,0.05,0.72,-0.08,1.53,0.07,0.61,-98.93,84.3,174.87,0.21,0.35,0.04,0.75,0.16,0.25,-150.35,0.19,4.15,0.17,0.46,0.18,0.46,0.03,0.23,-117.32,13.58,9.5,-0.07,0.25,0.04,1.27,0.39,2.38
0.06,-109.84,74.21,175.4,0.35,0.72,0.22,1.88,0.15,0.27,-99.33,83.98,174.88,0.25,0.33,0.13,1.34,0.34,-0.03,-150.36,0.25,4.21,0.19,-0.0,0.23,0.64,0.88,0.45,-117.3,13.29,9.33,0.28,0.22,0.22,1.01,0.46,2.65
0.07,-109.49,73.19,175.45,0.28,0.86,-0.02,1.31,0.18,0.11,-99.46,83.81,174.87,-0.01,0.91,0.06,1.54,0.4,0.12,-150.75,-0.02,3.88,0.19,0.15,0.18,0.97,1.28,0.26,-117.15,13.25,9.07,0.11,0.21,0.24,0.73,0.67,2.56
0.08,-109.14,72.13,175.53,0.2,1.05,0.07,1.54,0.01,0.41,-99.63,83.2,174.69,0.09,0.81,0.08,1.57,0.2,0.15,-150.63,-0.02,3.95,0.2,-0.1,0.1,1.03,1.81,-0.0,-116.69,12.96,8.97,0.04,0.16,0.23,0.72,0.33,2.56
0.09,-108.51,70.83,175.54,0.34,1.34,0.02,2.27,0.36,0.45,-99.81,82.37,174.85,0.15,1.05,0.2,1.79,0.08,0.24,-150.3,0.13,3.57,0.22,0.13,0.2,1.19,2.02,0.57,-116.54,12.82,8.57,0.17,0.09,0.58,0.63,0.11,2.86
0.1,-108.26,69.1,175.81,0.29,1.5,-0.11,2.33,0.38,0.29,-99.66,81.5,180.91,0.19,1.25,0.0,2.03,0.02,0.44,-149.93,0.28,3.43,0.11,0.16,0.33,1.23,2.11,1.51,-116.02,12.7,8.45,0.16,0.06,0.48,0.58,0.11,3.12
0.11,-107.67,67.43,175.84,0.42,1.51,-0.06,2.09,0.17,0.21,-99.58,80.46,186.37,0.05,1.19,0.12,2.06,0.27,0.87,-149.5,0.31,3.5,0.06,0.26,0.62,1.26,1.66,2.1,-115.45,12.51,7.84,0.27,0.18,0.27,0.16,0.43,3.3
0.12,-107.05,65.32,176.1,0.35,2.02,-0.0,1.56,-0.04,0.34,-99.49,78.98,190.96,0.22,1.48,0.07,2.13,-0.05,0.9,-148.3,0.88,3.34,0.23,0.19,0.55,0.97,1.37,2.28,-115.29,12.29,7.57,0.15,0.19,0.37,0.12,0.31,3.89
0.13,-106.56,63.53,176.33,0.23,1.94,0.07,1.56,-0.27,0.46,-99.35,77.65,195.22,-0.07,1.73,0.03,2.62,0.11,0.75,-147.58,0.97,3.07,0.04,0.3,0.6,0.68,1.11,2.5,-115.11,12.25,7.28,0.1,0.27,0.23,0.24,0.17,4.27
0.14,-106.6,61.38,176.74,-0.07,1.84,0.09,1.31,0.26,0.6,-99.07,75.92,198.58,0.03,1.8,-0.06,3.92,0.52,0.57,-146.65,1.02,3.07,0.15,0.2,0.63,0.53,0.94,2.74,-114.74,11.94,7.07,0.27,0.14,0.28,0.21,0.38,3.83
0.15,-106.57,59.18,177.08,0.07,1.82,0.22,0.65,0.29,1.03,-99.13,74.25,200.96,0.04,1.85,0.14,4.22,0.33,0.72,-146.03,1.39,2.61,0.24,-0.12,0.48,0.84,0.56,3.16,-114.63,11.88,6.73,0.15,0.18,0.4,-0.05,0.09,3.71
0.16,-106.85,58.03,177.59,0.16,2.05,-0.04,0.53,0.11,0.43,-99.2,71.76,203.02,0.11,2.03,0.2,3.57,0.26,0.41,-145.6,1.45,2.5,0.34,0.26,0.48,0.83,0.66,3.32,-114.21,11.78,6.62,0.15,0.19,0.38,0.46,0.26,3.65
0.17,-106.94,56.91,177.52,0.01,2.05,0.13,0.07,0.19,0.11,-99.47,69.55,205.27,0.25,2.44,-0.04,3.19,0.06,-0.01,-145.45,1.53,2.41,0.12,-0.08,0.67,0.9,0.13,3.3,-113.97,11.76,6.46,0.2,0.07,0.56,0.4,0.37,3.5
0.18,-107.3,54.84,177.9,0.1,1.89,-0.06,0.72,0.04,0.09,-99.54,66.96,206.77,0.4,2.57,0.09,2.8,0.11,0.21,-145.04,1.64,2.08,0.4,-0.07,0.5,0.8,0.54,3.72,-113.43,11.69,5.88,0.49,0.25,0.27,0.54,0.48,3.66
0.19,-107.44,52.82,178.18,-0.02,1.78,0.03,0.2,0.42,0.9,-99.71,61.77,209.08,0.42,2.43,-0.02,2.9,-0.19,0.74,-144.35,1.63,1.88,0.37,0.4,0.67,0.8,0.41,4.19,-112.85,11.58,5.51,0.3,0.19,0.35,0.11,0.64,3.46
0.2,-107.31,51.81,178.05,0.12,1.98,0.08,0.28,0.68,1.5,-99.65,58.79,210.24,0.33,2.57,0.15,2.26,0.42,0.44,-142.94,2.07,1.08,0.2,0.15,0.64,0.38,0.74,3.54,-112.44,11.27,5.14,0.33,0.22,0.27,0.14,0.26,2.83
0.21,-107.15,49.52,178.03,0.16,1.87,-0.01,0.13,0.33,1.39,-99.9,57.35,210.61,0.12,2.61,0.09,1.54,0.18,0.65,-142.12,2.21,0.84,0.16,0.05,0.83,0.64,0.63,3.31,-112.34,11.09,4.86,0.11,-0.0,0.17,0.07,0.29,2.46
0.22,-106.81,47.48,178.29,-0.16,1.99,0.02,0.72,0.08,0.99,-99.25,54.42,211.0,-0.01,2.47,0.06,1.83,0.16,0.18,-140.47,2.45,0.41,0.1,0.23,0.31,0.66,0.39,3.33,-111.97,11.17,4.5,0.22,0.08,0.22,0.2,0.24,1.66
0.23,-106.35,45.37,178.23,0.04,1.74,-0.05,2.48,0.47,0.5,-98.94,51.8,211.43,0.16,2.67,0.18,0.48,0.32,0.35,-140.07,2.45,0.13,0.35,-0.06,0.31,-0.1,0.08,2.82,-111.69,10.91,4.09,0.28,0.27,0.38,0.15,0.21,1.41
0.24,-109.9,43.16,178.17,0.05,2.11,0.23,2.38,0.12,0.77,-98.69,48.71,211.9,0.09,2.9,0.19,0.18,0.42,0.56,-139.68,2.44,0.11,0.13,0.21,0.63,0.23,0.55,2.3,-111.03,10.67,3.76,0.35,0.08,0.47,0.16,0.21,0.13
0.25,-110.11,41.19,178.03,0.12,1.57,-0.12,0.28,0.33,1.98,-98.35,45.5,212.28,0.1,2.75,-0.19,0.54,0.35,0.89,-139.1,2.37,0.04,0.06,0.05,0.69,0.05,0.58,2.13,-110.74,10.67,3.15,0.36,0.12,0.58,0.17,0.34,0.5
0.26,-110.04,39.51,178.15,0.13,1.05,0.09,1.6,0.52,1.94,-98.45,42.53,212.79,0.3,2.89,-0.16,0.25,0.08,0.28,-138.11,2.44,0.03,-0.05,0.08,0.86,0.18,0.02,0.69,-110.08,10.85,2.66,0.42,-0.08,0.5,-0.0,0.03,0.65
0.27,-109.82,38.09,178.18,0.05,1.51,0.06,2.66,0.16,0.52,-98.44,39.62,213.23,0.19,2.87,-0.03,0.85,-0.09,0.08,-137.5,2.37,0.23,0.11,0.16,0.6,0.29,0.15,0.23,-110.13,10.6,2.34,0.07,0.16,0.06,0.17,0.11,0.63
0.28,-109.8,36.15,178.33,0.01,1.97,0.01,3.53,0.6,0.79,-98.21,34.2,214.08,0.26,2.2,0.19,0.0,0.26,2.79,-137.0,2.16,0.01,-0.15,0.2,0.41,0.44,0.03,0.31,-110.27,10.82,1.73,0.13,0.02,0.05,0.56,0.76,1.69
0.29,-109.84,34.06,178.55,-0.07,2.04,0.19,2.12,1.13,0.63,-98.33,32.02,214.13,0.28,1.8,0.12,0.15,0.59,2.66,-136.43,1.85,0.1,0.06,0.19,0.45,0.71,0.23,0.33,-110.34,11.2,1.6,0.1,0.29,0.09,0.31,1.23,1.48
0.3,-109.85,32.58,178.49,0.01,0.9,-0.03,1.1,0.67,1.16,-98.1,29.23,214.42,0.14,2.53,0.15,1.09,0.84,0.24,-135.7,1.33,0.05,0.02,0.19,0.4,0.74,0.52,0.64,-110.35,11.3,1.37,-0.0,0.4,0.09,0.2,0.98,1.26
0.31,-110.1,31.53,178.42,-0.07,1.02,0.18,1.85,0.28,1.27,-98.15,26.86,214.36,0.09,2.29,0.2,1.88,0.64,0.06,-135.78,1.34,0.16,0.08,0.45,0.39,0.68,0.27,0.91,-109.83,11.62,1.37,-0.12,0.25,0.36,0.84,0.37,1.68
0.32,-110.36,30.63,178.12,0.08,1.51,0.08,1.93,0.2,1.06,-98.07,25.44,214.34,0.15,2.07,-0.02,1.65,0.74,1.01,-135.36,1.27,0.17,0.06,0.36,0.27,0.75,0.15,1.36,-109.78,11.62,1.33,-0.1,0.34,0.27,1.03,0.4,1.58
0.33,-110.49,29.92,178.03,0.39,1.57,0.18,1.87,0.15,0.52,-98.01,24.58,214.29,0.03,1.98,0.29,0.98,0.43,1.63,-135.44,1.26,0.27,-0.04,0.24,0.37,0.83,-0.04,1.76,-109.5,11.97,1.21,-0.0,0.19,0.41,1.04,0.53,1.42
0.34,-110.62,27.89,178.09,0.05,1.45,0.06,2.11,0.25,0.69,-97.77,23.49,214.52,0.08,1.51,-0.04,1.13,0.19,1.05,-134.93,0.78,0.57,0.24,0.31,0.52,0.55,0.56,0.94,-109.19,12.18,1.15,0.01,0.32,0.37,0.6,0.54,1.4
0.35,-110.45,26.57,177.91,0.34,1.14,-0.16,1.37,0.03,0.1,-97.77,21.76,214.53,0.09,1.6,-0.2,1.01,0.1,0.83,-134.38,0.48,0.64,0.27,0.18,0.78,0.95,0.33,1.06,-109.0,12.51,1.35,0.1,0.19,0.34,0.65,0.19,2.12
0.36,-110.55,25.35,177.72,0.3,1.08,-0.15,1.45,0.64,0.67,-97.63,19.75,214.63,-0.07,1.7,0.26,1.39,0.81,1.11,-133.5,0.16,0.92,0.17,0.39,0.81,1.26,0.51,1.12,-108.31,12.57,1.25,0.14,0.15,0.29,0.8,-0.06,2.41
0.37,-110.38,24.08,177.38,0.1,1.4,0.1,1.91,0.36,1.26,-97.73,17.86,214.8,0.09,1.43,0.08,0.89,0.45,1.96,-132.39,0.14,1.11,0.19,0.13,0.85,0.59,0.36,1.42,-108.18,12.83,1.02,0.0,0.08,0.2,0.71,0.17,2.68
0.38,-110.68,21.18,177.66,0.2,0.77,0.04,1.61,1.39,0.48,-97.66,16.25,214.76,0.04,1.33,0.03,0.18,0.37,1.97,-131.44,0.43,1.35,0.34,0.23,0.55,0.55,0.38,1.69,-108.38,12.93,1.1,-0.05,0.08,0.13,0.65,0.31,4.0
0.39,-110.75,20.47,177.96,0.1,0.74,0.05,1.5,0.25,0.1,-97.89,15.06,214.82,-0.21,1.5,0.07,1.02,0.47,1.28,-130.87,0.5,1.65,0.41,0.12,0.34,0.85,0.18,2.26,-108.99,12.91,1.05,0.05,0.1,0.27,1.0,0.55,3.5
0.4,-110.98,19.32,178.08,0.26,0.85,0.15,1.38,1.39,0.13,-97.89,11.89,215.01,0.15,1.12,0.16,1.39,0.35,2.3,-130.38,0.84,2.11,0.43,0.29,0.54,0.85,0.1,2.33,-108.99,12.78,1.18,0.32,-0.04,0.41,0.59,0.24,3.15
0.41,-110.94,18.6,178.48,-0.03,0.96,0.12,1.38,0.92,0.59,-98.07,10.98,215.18,0.15,0.64,0.14,0.77,0.1,2.06,-130.08,1.01,2.17,0.11,0.22,0.23,0.79,0.44,2.75,-109.39,12.86,1.76,0.19,0.09,0.35,0.33,0.04,3.68
0.42,-111.23,17.6,178.29,0.11,0.55,0.04,1.62,0.11,1.3,-97.89,10.22,215.47,0.03,0.67,0.04,0.67,0.45,2.73,-129.43,1.6,3.14,0.62,0.13,-0.04,0.82,0.79,4.0,-109.99,12.86,1.75,0.25,0.1,0.24,0.66,0.24,3.73
0.43,-111.35,17.1,178.18,-0.08,0.59,0.09,1.36,0.09,0.48,-97.77,9.54,215.31,0.14,0.63,0.12,0.49,0.35,1.14,-129.3,1.51,3.43,0.58,-0.04,-0.04,0.78,0.8,2.9,-110.07,12.68,2.15,0.41,0.13,0.28,0.27,0.23,3.51
0.44,-111.31,16.57,178.03,0.16,0.39,0.14,1.29,0.26,0.89,-97.77,8.7,215.44,-0.04,0.42,0.03,0.5,0.08,1.06,-129.55,1.86,3.95,0.51,0.01,0.18,0.33,0.78,3.16,-110.33,12.88,3.07,0.3,0.29,0.08,0.07,1.56,3.53
0.45,-111.48,16.34,178.35,0.32,0.05,0.12,0.91,0.18,0.64,-98.06,8.27,215.59,0.24,0.3,-0.02,1.1,0.19,2.36,-129.39,2.12,4.6,0.29,0.02,-0.12,0.68,0.42,3.42,-110.27,13.27,3.09,0.21,0.34,0.4,1.05,3.81,4.26
0.46,-111.3,16.12,178.57,-0.05,0.42,-0.11,1.83,0.87,2.27,-97.94,8.08,215.72,0.03,-0.09,0.01,0.49,1.45,3.2,-129.51,2.01,4.67,0.1,0.03,-0.0,0.49,0.37,3.17,-110.62,13.27,3.41,0.35,0.51,0.78,1.07,2.4,4.12
0.47,-111.82,15.91,178.73,0.08,0.13,0.01,1.48,1.05,1.72,-97.98,8.31,215.5,-0.07,0.34,0.1,0.13,1.44,3.12,-129.62,1.9,4.93,0.35,0.08,0.24,0.21,1.33,3.49,-112.67,14.01,4.68,0.11,-0.09,0.35,0.62,1.93,3.02
0.48,-111.89,15.75,178.37,-0.01,0.29,0.35,1.2,0.79,1.28,-98.08,8.41,215.4,0.07,0.06,-0.12,0.43,0.85,2.43,-129.83,2.07,5.03,0.13,0.21,0.07,0.13,1.26,3.48,-112.68,13.9,4.8,0.18,0.2,0.44,0.59,0.97,2.75
0.49,-111.75,15.84,178.34,0.22,0.2,0.15,0.77,0.27,0.71,-97.91,8.35,215.45,0.23,0.36,0.13,0.26,0.31,2.04,-129.79,2.16,5.15,0.01,0.12,0.31,0.41,1.4,3.22,-112.91,14.15,4.89,0.17,-0.02,0.24,0.85,0.38,2.46
0.5,-112.17,16.56,177.72,0.16,0.29,0.2,1.15,0.36,0.87,-97.79,8.67,214.94,0.19,0.18,-0.13,0.63,0.11,0.66,-130.77,2.21,5.34,0.37,0.43,1.04,0.22,1.71,3.83,-113.35,14.2,5.48,0.11,0.36,0.69,0.21,2.97,2.39
0.51,-112.23,16.86,177.88,0.01,0.01,0.01,1.18,-0.08,2.08,-97.85,9.18,214.91,-0.09,0.51,-0.12,0.22,0.49,2.58,-131.68,2.49,5.39,0.13,0.45,1.05,-0.02,1.92,3.82,-113.76,14.63,5.75,0.39,0.48,0.24,0.78,0.68,3.12
0.52,-112.08,16.78,177.84,-0.06,0.07,0.01,1.42,0.11,2.06,-97.63,9.59,214.59,0.01,0.43,-0.02,1.19,0.09,2.68,-133.57,3.21,5.49,0.14,0.25,0.69,0.57,1.05,2.35,-113.25,15.01,5.85,0.24,0.3,0.32,0.98,2.73,3.94
0.53,-112.06,16.72,177.66,0.17,0.0,0.14,1.26,0.67,1.51,-97.66,9.66,214.97,-0.0,0.34,0.07,0.39,0.04,1.47,-134.16,3.41,5.18,0.36,0.07,0.42,0.54,0.95,1.94,-113.16,15.49,6.33,0.12,0.29,0.45,0.98,1.47,4.17
0.54,-112.04,16.95,177.81,0.25,0.18,0.09,1.32,0.26,0.49,-97.7,10.12,214.85,0.21,0.08,0.01,1.0,0.04,1.67,-134.55,3.33,5.26,0.43,0.19,0.27,0.19,0.34,2.76,-113.25,15.88,6.53,0.17,0.31,0.04,0.72,0.64,3.66
0.55,-112.22,17.09,177.97,-0.06,0.41,-0.15,1.26,0.08,0.38,-97.76,9.93,215.02,0.13,0.18,0.03,1.32,0.36,2.54,-134.83,3.15,4.92,-0.06,-0.14,0.06,0.03,0.47,3.28,-113.17,16.18,7.02,0.28,0.01,0.23,0.11,0.42,3.19
0.56,-112.08,17.45,177.84,-0.09,0.29,0.06,2.09,0.18,1.29,-97.74,10.27,215.44,0.11,0.54,0.07,0.52,0.49,2.12,-134.79,3.45,4.61,0.15,0.14,0.15,0.53,1.58,3.87,-112.83,16.51,7.36,0.54,0.11,0.39,0.41,1.33,2.99
0.57,-112.32,18.12,177.77,0.37,0.73,0.0,1.37,0.31,1.05,-97.55,11.5,215.41,0.23,0.43,-0.03,1.0,0.49,2.03,-135.35,3.68,4.72,0.28,0.06,0.85,0.89,2.35,4.08,-112.32,16.81,7.79,0.45,0.77,0.25,0.19,1.03,2.74
0.58,-112.4,18.91,178.05,0.31,0.56,-0.06,1.05,0.47,0.1,-97.75,11.97,215.72,0.13,0.62,0.05,0.59,0.06,1.64,-136.1,3.69,3.88,0.42,0.32,0.73,1.01,-0.02,3.8,-111.8,17.44,8.52,0.56,0.49,0.51,0.36,0.51,2.72
0.59,-112.67,19.29,178.15,0.26,0.57,0.09,1.57,0.46,-0.04,-98.1,13.73,216.18,0.11,0.71,0.26,0.41,0.37,1.17,-136.39,3.72,3.51,0.37,0.05,0.14,0.8,0.49,3.02,-111.29,18.33,9.34,0.7,0.54,0.35,0.87,0.1,2.36
0.6,-113.05,20.98,177.95,0.04,0.61,0.15,1.75,-0.21,0.12,-97.9,14.86,216.11,-0.14,0.93,-0.0,0.51,0.4,2.01,-136.08,3.59,2.79,0.52,0.2,0.44,0.9,0.06,2.53,-110.9,19.02,9.47,0.53,0.69,0.33,0.72,-0.01,2.09
0.61,-113.44,21.77,178.05,0.23,0.73,0.01,2.13,0.23,0.47,-98.33,15.81,216.2,0.05,0.88,0.07,0.59,0.17,1.26,-135.58,3.39,2.17,0.61,0.19,0.24,0.49,0.6,2.22,-110.17,19.92,10.2,0.61,0.49,0.52,0.72,0.33,1.5
0.62,-113.45,22.89,177.93,0.03,1.12,-0.0,1.22,0.87,0.35,-98.07,16.85,216.17,0.1,1.06,0.11,0.75,0.42,0.49,-135.26,3.41,1.7,0.55,0.16,0.17,0.03,1.08,2.7,-109.98,20.43,10.91,0.47,0.57,0.23,0.64,0.32,1.96
0.63,-113.25,24.28,177.52,0.55,1.11,-0.14,0.92,1.23,0.36,-98.34,18.11,216.12,0.13,1.24,-0.03,0.11,0.85,1.28,-135.29,2.94,1.02,0.35,0.12,0.01,0.2,0.99,2.68,-109.95,21.48,11.8,0.61,0.52,0.25,0.36,1.58,1.17
0.64,-113.78,24.83,177.58,0.22,1.16,0.08,0.69,0.83,0.38,-98.4,18.77,215.84,0.28,1.18,-0.01,0.26,0.75,0.95,-135.29,3.27,0.98,0.31,0.14,0.09,0.26,0.68,2.06,-109.67,21.64,12.16,0.47,0.5,0.5,0.59,1.12,1.73
0.65,-113.65,25.54,177.09,-0.14,1.26,-0.15,0.4,0.99,0.49,-98.38,19.28,215.76,0.41,1.26,-0.06,0.43,0.82,0.63,-135.36,3.17,0.58,0.67,0.14,0.39,0.38,0.41,1.98,-109.34,22.18,12.2,0.63,0.67,0.93,0.67,0.68,2.29
0.66,-113.79,26.84,177.52,0.25,1.18,0.08,1.59,0.43,0.37,-98.27,20.64,215.57,0.11,1.17,-0.11,0.66,0.25,0.81,-136.0,3.4,0.09,0.34,0.18,0.49,0.24,-0.01,1.57,-108.16,24.28,12.96,0.57,0.95,0.36,0.3,0.51,1.32
0.67,-113.82,28.18,177.52,0.22,1.2,0.1,1.96,0.56,0.08,-98.25,23.56,215.21,0.08,1.24,-0.02,0.48,0.4,1.53,-136.69,3.57,0.32,0.38,0.17,0.67,0.09,0.55,1.65,-108.05,24.77,13.66,0.8,0.58,0.35,0.7,1.85,0.95
0.68,-113.87,30.98,176.66,0.18,1.38,-0.2,1.04,0.45,0.18,-98.11,25.07,215.09,0.03,1.45,0.17,0.48,0.23,1.36,-138.04,4.15,1.25,0.55,0.35,0.57,0.36,0.89,1.36,-107.52,25.89,14.15,0.58,0.96,0.91,0.56,0.45,2.02
0.69,-114.07,31.88,176.94,0.11,1.53,0.14,2.19,0.15,0.06,-97.95,26.86,214.91,-0.09,1.41,0.14,0.17,0.19,0.05,-137.81,4.59,1.77,0.39,0.28,0.08,0.29,0.2,1.41,-106.53,26.9,14.65,0.63,0.86,0.36,0.15,0.77,1.16
0.7,-114.03,33.56,176.7,0.27,1.77,-0.15,1.82,0.06,0.25,-98.18,28.6,214.78,0.0,1.45,-0.09,0.08,0.15,0.54,-138.56,5.35,2.53,0.64,0.33,0.23,0.24,0.93,1.21,-106.26,28.1,14.89,0.55,1.08,0.27,0.57,-0.04,1.3
0.71,-114.1,35.55,176.23,0.32,2.07,0.17,0.43,0.15,0.64,-98.19,30.38,214.56,0.02,1.66,0.01,0.17,0.35,0.22,-138.63,5.77,3.12,0.48,0.7,0.31,0.13,0.35,0.75,-105.69,29.37,15.58,0.69,1.14,0.45,1.07,0.08,1.52
0.72,-114.3,37.54,175.98,0.07,1.86,0.23,0.38,-0.03,1.12,-98.15,31.2,214.54,0.23,1.69,0.13,0.44,0.02,0.08,-138.9,6.35,3.52,0.4,0.81,0.28,0.54,0.06,1.44,-105.31,30.87,16.18,0.51,1.48,0.51,0.16,0.14,0.99
0.73,-114.41,39.53,175.96,0.16,1.68,0.21,1.2,0.13,1.61,-98.31,33.35,214.42,0.25,2.04,-0.02,0.4,0.09,0.27,-138.66,6.83,3.78,0.42,0.7,0.41,0.26,0.4,0.74,-105.08,32.47,16.91,0.5,1.51,0.24,1.31,1.58,0.31
0.74,-114.65,41.12,175.78,-0.08,1.79,0.06,1.37,0.41,0.8,-98.15,35.31,213.97,0.16,2.02,0.14,0.56,0.05,0.16,-139.28,7.77,4.46,0.3,0.35,0.21,0.63,0.93,0.15,-104.88,34.59,17.42,0.71,1.67,0.77,1.11,1.94,0.58
0.75,-114.44,43.45,175.87,0.05,1.87,0.03,0.49,0.71,1.58,-98.19,37.71,214.1,0.11,1.88,0.15,0.3,0.35,0.67,-139.4,8.42,4.6,0.24,0.63,0.04,0.89,0.79,0.38,-103.83,36.94,18.09,0.85,1.87,1.1,0.38,0.58,0.24
0.76,-114.52,45.61,175.41,0.14,2.0,0.12,0.27,0.96,1.72,-98.02,39.7,213.72,0.17,1.81,0.15,0.35,0.4,0.86,-140.38,9.23,4.43,0.0,0.95,0.67,0.25,0.1,0.09,-102.48,39.07,18.5,0.73,1.93,0.85,0.69,0.93,0.6
0.77,-114.35,47.76,174.95,0.28,2.06,0.19,-0.09,0.64,1.43,-98.09,42.09,213.42,0.12,2.2,0.18,0.35,0.56,0.49,-140.71,10.36,4.75,0.23,0.94,0.6,0.16,0.13,0.56,-102.06,41.5,19.56,0.56,1.89,0.44,1.02,0.8,0.87
0.78,-114.47,49.91,174.51,-0.01,1.99,0.27,1.37,0.42,1.0,-97.99,44.38,212.91,0.14,2.04,0.02,0.67,0.32,0.48,-141.45,11.4,4.52,0.12,0.96,0.54,0.22,0.12,0.06,-101.42,43.52,20.45,0.74,1.83,0.77,0.3,0.23,0.35
0.79,-114.73,52.25,173.96,0.34,2.0,0.04,1.48,0.29,1.28,-98.14,48.92,211.78,0.28,2.23,0.01,0.59,0.03,0.67,-142.18,12.85,4.49,0.1,1.29,0.73,0.64,0.98,0.42,-100.53,46.29,21.14,0.76,2.22,0.84,0.7,0.58,0.36
0.8,-114.98,54.77,173.63,0.25,2.07,-0.21,1.6,0.34,1.58,-98.05,50.43,211.48,0.43,2.21,-0.23,0.55,0.1,0.57,-142.23,13.35,4.46,0.21,1.25,0.65,0.3,0.86,0.37,-100.03,47.62,21.71,0.82,2.39,0.74,0.79,0.45,0.54
0.81,-115.14,57.2,173.16,0.14,2.21,-0.06,1.44,0.27,1.92,-97.77,51.49,211.11,0.09,2.38,-0.06,0.92,0.2,0.4,-142.54,14.09,4.28,0.05,1.33,0.54,0.37,0.86,0.92,-99.73,48.84,22.32,0.74,2.45,0.67,1.33,0.26,0.68
0.82,-115.16,59.34,172.7,0.4,2.03,0.05,0.75,0.03,1.95,-97.76,54.43,210.43,0.23,2.35,0.18,1.11,-0.06,0.85,-143.44,15.46,4.03,0.04,1.35,0.73,0.44,0.29,1.69,-99.03,51.75,23.78,0.92,2.3,0.64,1.13,0.2,0.57
0.83,-115.03,60.48,172.28,0.1,1.97,0.06,0.71,0.11,0.33,-97.63,56.85,209.88,0.28,2.1,-0.01,1.05,0.2,0.4,-144.52,18.63,3.16,0.4,1.35,0.33,0.88,0.83,2.4,-98.28,54.72,25.51,0.98,2.83,0.64,1.45,0.17,0.54
0.84,-115.07,62.63,171.44,0.05,1.93,-0.04,0.17,0.35,1.35,-97.51,59.2,208.89,0.29,2.16,0.18,1.14,0.19,0.64,-145.11,19.66,2.2,0.64,1.37,0.63,0.66,0.16,2.23,-97.74,57.54,27.56,0.86,2.84,0.36,1.68,0.7,1.23
0.85,-114.97,64.86,170.63,0.19,1.93,-0.01,0.54,0.08,0.97,-97.03,61.66,207.87,0.37,2.27,0.09,1.38,0.35,0.44,-145.89,21.21,1.1,0.42,1.3,1.02,1.51,0.27,1.56,-97.24,60.11,30.4,0.76,2.72,0.22,0.92,0.96,1.48
0.86,-114.82,66.75,169.5,0.21,1.8,0.1,0.99,0.48,0.67,-96.94,64.24,206.83,0.44,2.15,-0.12,1.97,0.39,0.75,-146.81,22.92,-0.03,0.73,1.44,1.16,1.28,0.29,2.17,-96.82,63.17,33.6,0.96,2.98,0.21,0.97,1.05,0.78
0.87,-114.97,68.85,168.43,0.25,1.72,0.28,1.17,-0.02,0.7,-96.48,66.17,205.54,0.24,2.08,0.09,2.15,0.67,0.68,-148.07,24.2,1.55,1.04,1.18,1.59,0.92,1.09,1.74,-96.54,66.01,37.66,0.99,2.94,0.39,1.16,0.31,1.94
0.88,-114.98,70.91,167.91,0.29,1.68,0.34,0.86,0.09,1.0,-96.41,68.61,204.21,0.22,2.04,0.04,2.01,0.34,0.63,-149.02,25.05,2.3,1.11,1.41,1.51,0.83,1.16,1.81,-95.94,68.87,37.42,0.95,3.04,0.28,0.78,0.52,1.76
0.89,-114.97,72.72,167.03,0.12,1.56,0.16,0.73,0.34,0.68,-96.56,70.76,202.77,0.21,2.05,0.03,1.46,0.42,0.6,-150.33,26.14,4.68,1.13,1.19,1.24,0.53,1.07,2.86,-95.27,71.47,44.3,0.87,3.0,0.35,1.42,1.03,1.04
0.9,-114.82,74.23,166.05,0.37,1.38,-0.03,1.89,0.13,-0.05,-96.29,72.59,200.75,0.26,1.8,-0.24,2.08,0.5,0.7,-151.32,27.45,6.7,1.45,1.21,1.45,0.3,1.79,2.65,-94.61,73.76,53.2,0.9,3.18,0.59,1.17,0.19,1.25
0.91,-114.59,75.43,164.41,0.14,1.29,0.17,1.61,0.15,0.46,-96.32,74.64,198.29,0.5,1.87,0.24,2.24,0.32,0.42,-152.86,28.66,9.08,1.67,1.39,1.28,0.55,2.14,2.41,-94.21,74.74,58.44,1.11,2.86,0.53,1.0,0.0,0.6
0.92,-114.78,76.8,163.2,0.22,0.91,0.11,0.58,0.86,0.08,-95.73,76.03,195.28,0.27,1.37,-0.05,1.16,0.3,1.39,-153.86,30.09,12.06,1.87,1.39,0.77,0.3,0.8,1.87,-93.17,76.63,58.58,1.06,3.02,0.64,0.73,0.58,1.16
0.93,-114.8,77.84,162.15,0.08,0.83,-0.07,0.49,0.56,0.21,-95.84,77.6,192.21,0.07,1.34,0.06,0.68,0.37,1.15,-154.72,31.03,15.08,2.01,1.3,1.22,0.29,1.11,1.44,-91.82,77.6,73.99,1.21,3.02,0.44,0.71,-0.02,1.65
0.94,-115.11,78.68,161.0,-0.0,0.83,0.24,1.07,0.48,0.97,-95.53,78.87,188.83,0.44,1.3,0.04,0.47,0.47,0.13,-155.45,32.52,18.48,1.65,1.61,1.3,0.32,1.66,1.91,-91.1,77.48,90.05,1.12,2.88,0.3,0.26,1.33,0.68
0.95,-114.88,79.83,159.26,0.29,0.9,-0.01,0.32,-0.18,1.11,-95.34,81.55,188.67,0.2,1.24,0.03,0.56,0.44,0.51,-156.45,33.64,21.72,2.24,1.47,1.26,-0.18,1.86,1.7,-90.29,76.48,104.08,1.04,2.86,1.07,0.24,0.62,0.12
0.96,-115.15,80.14,158.71,-0.15,0.82,-0.04,0.19,0.14,0.74,-95.14,81.52,187.17,0.24,1.02,0.06,0.35,0.68,0.84,-156.52,34.21,23.24,1.99,1.33,1.08,0.29,1.84,0.93,-89.44,75.81,110.66,1.02,2.92,1.09,0.05,0.36,0.16
0.97,-115.19,80.44,158.08,-0.07,0.53,0.11,0.18,0.27,0.75,-95.1,81.94,185.71,0.36,0.94,0.1,0.07,0.67,1.13,-156.97,34.62,24.92,2.18,1.59,0.84,0.62,1.87,0.09,-88.77,75.31,117.2,1.16,2.76,0.91,0.19,0.54,0.28
0.98,-114.67,80.85,156.98,0.05,0.66,0.04,0.17,0.48,0.78,-95.11,83.56,185.66,0.05,1.39,0.01,1.34,0.33,0.51,-157.59,35.68,28.91,2.34,1.62,0.7,0.89,1.19,0.33,-85.91,71.59,133.74,0.94,2.39,0.42,0.02,0.99,0.16
0.99,-115.37,82.13,154.31,0.11,0.61,-0.01,0.75,0.75,0.93,-95.17,84.28,185.64,0.16,1.0,0.19,1.42,0.63,1.07,-158.1,37.84,28.81,2.64,1.44,0.97,0.78,0.2,0.81,-84.95,69.45,133.69,0.81,2.19,0.71,0.16,0.37,0.4
1.0,-114.99,82.24,153.03,-0.04,0.44,0.19,0.65,-0.02,1.06,-95.52,84.53,185.77,-0.04,0.75,-0.01,0.85,0.56,0.31,-158.19,38.81,32.85,2.49,1.46,0.68,0.35,0.21,0.75,-81.01,66.18,143.13,1.14,1.53,0.9,0.37,0.31,0.49
1.01,-114.36,82.65,150.62,0.03,-0.04,-0.06,0.49,0.45,0.19,-95.34,84.69,185.76,-0.26,0.78,-0.07,0.62,0.39,0.08,-157.86,40.63,40.6,2.6,1.51,0.11,1.65,0.76,1.31,-78.7,64.81,146.65,0.76,1.47,0.83,0.85,0.51,0.18
1.02,-114.3,82.57,149.8,0.34,0.15,0.08,0.68,0.43,0.01,-95.57,85.01,185.67,0.32,0.8,0.08,1.27,0.5,0.29,-157.28,41.7,44.76,2.64,1.68,0.32,0.72,1.33,0.96,-76.76,63.53,149.43,0.86,1.17,0.77,1.01,0.31,0.12
1.03,-114.15,82.49,149.61,0.12,0.06,0.22,0.27,0.25,0.2,-95.67,84.93,185.66,0.07,0.88,-0.01,1.42,1.0,-0.01,-156.38,43.41,49.02,2.48,1.6,1.24,0.34,3.06,0.31,-75.5,62.47,152.22,0.61,1.01,0.83,1.16,1.31,0.18
1.04,-113.4,82.7,149.04,0.24,0.15,-0.18,0.2,1.18,-0.01,-95.83,85.13,185.4,0.18,0.54,0.12,0.44,1.69,1.03,-154.28,45.3,52.46,2.3,1.61,1.15,0.34,2.23,0.31,-73.78,61.45,154.56,0.61,0.96,0.74,1.17,2.05,0.29
1.05,-113.18,82.59,149.04,0.26,-0.07,0.03,0.28,1.44,0.67,-95.65,85.03,184.97,0.07,0.38,0.36,-0.02,1.63,1.33,-152.66,47.26,56.03,2.25,1.72,1.21,0.75,1.02,1.02,-71.82,60.41,155.62,0.67,0.88,0.67,0.98,1.25,2.12
1.06,-112.61,82.6,149.09,0.15,0.22,-0.1,0.32,0.94,1.2,-95.47,85.31,184.7,0.19,0.07,0.21,1.04,0.65,1.22,-150.39,49.3,59.66,2.05,1.64,1.54,1.36,0.52,0.12,-69.82,59.48,153.02,0.31,0.92,1.28,1.83,2.02,0.92
1.07,-112.28,82.11,149.94,-0.01,0.43,-0.07,0.19,0.19,1.19,-95.16,84.96,184.66,0.21,0.41,0.11,0.16,0.07,0.84,-148.33,51.45,63.57,2.43,1.59,1.4,1.44,0.83,0.32,-67.89,58.46,151.37,0.15,0.79,0.86,1.89,0.26,0.21
1.08,-112.07,81.77,151.13,0.2,0.51,0.08,0.21,0.76,0.99,-95.52,84.77,184.35,0.18,0.42,0.14,0.92,0.1,0.77,-146.12,53.46,67.51,2.0,1.61,1.13,2.23,-0.06,0.54,-67.69,57.99,150.69,0.19,0.92,0.21,0.75,3.42,1.25
1.09,-112.09,81.22,152.39,0.27,0.56,0.08,0.2,0.47,1.18,-95.57,84.85,184.14,0.06,0.25,0.23,0.6,-0.01,1.62,-144.18,54.97,71.48,1.84,1.54,0.95,2.69,0.26,0.73,-67.47,57.1,150.53,0.2,1.0,0.51,0.94,2.31,1.74
1.1,-112.67,80.81,154.39,0.48,0.53,0.12,0.56,0.45,1.37,-95.7,84.94,183.97,-0.11,0.11,0.22,0.53,0.4,0.58,-141.37,56.98,79.87,1.68,1.49,0.85,1.92,1.77,0.3,-66.37,55.99,149.58,0.11,0.96,0.83,1.63,0.96,0.64
1.11,-112.77,80.08,155.57,0.2,0.41,0.04,0.49,1.33,1.84,-95.78,84.77,183.79,0.09,0.15,0.18,0.29,0.21,0.33,-140.18,57.47,84.23,1.63,1.41,0.68,1.12,1.03,-0.12,-65.0,54.93,148.34,0.06,0.83,0.54,1.87,2.14,0.78
1.12,-112.92,79.79,156.03,0.18,0.62,0.19,0.3,1.44,1.78,-95.88,84.79,183.88,0.06,0.07,0.07,0.51,0.26,0.43,-139.78,57.92,86.71,1.66,1.44,0.28,1.18,0.74,0.41,-64.75,54.27,148.13,0.23,0.89,0.38,1.67,1.31,0.41
1.13,-113.14,79.5,156.36,0.09,0.6,0.04,0.28,1.59,1.35,-95.89,84.78,183.89,0.12,0.11,0.03,0.8,0.03,0.29,-139.5,58.08,89.09,1.72,1.63,0.23,1.0,0.32,0.89,-64.36,53.82,147.88,0.26,0.81,-0.04,1.59,0.85,0.13
1.14,-113.33,79.06,157.12,0.32,0.43,0.16,0.69,0.46,1.42,-96.19,84.65,183.57,0.18,-0.13,0.06,0.66,0.25,0.58,-137.79,58.29,93.49,1.58,1.34,0.49,1.85,1.25,0.28,-65.11,53.03,148.27,0.52,0.75,0.2,1.36,1.56,0.55
1.15,-113.21,78.43,157.53,0.49,0.56,0.05,0.25,0.54,1.37,-96.26,84.71,183.6,0.13,0.1,-0.05,0.49,1.13,0.43,-136.77,58.4,98.05,1.47,1.26,0.59,1.84,0.82,0.47,-65.9,52.56,148.58,0.47,0.56,0.39,1.66,0.42,1.73
1.16,-113.33,78.1,157.78,0.48,0.19,0.05,0.04,1.2,1.27,-96.4,84.87,183.84,0.14,-0.2,0.08,0.37,1.28,0.53,-135.2,58.99,102.52,1.49,1.34,0.84,0.6,0.43,0.32,-66.27,51.88,148.65,0.54,0.58,0.53,1.61,1.31,1.65
1.17,-113.57,77.82,157.87,0.17,0.02,0.02,0.31,1.81,1.43,-96.59,85.01,183.37,0.05,-0.18,0.25,0.06,1.05,0.99,-134.3,59.24,104.68,1.42,1.22,0.84,1.76,0.68,0.4,-66.93,51.15,148.68,0.37,0.66,0.19,2.0,0.64,1.12
1.18,-113.77,77.86,157.73,0.04,0.08,0.08,0.69,1.86,2.37,-96.8,85.01,183.37,0.32,0.17,0.16,0.61,1.16,1.41,-132.83,59.36,109.11,1.22,1.2,0.78,1.93,0.35,0.18,-67.82,50.86,149.1,0.49,0.24,0.19,2.34,1.45,0.41
1.19,-113.53,77.52,157.65,-0.04,0.17,-0.12,0.44,0.72,1.69,-96.76,85.25,183.55,0.11,0.14,0.14,0.16,0.91,0.97,-131.26,59.65,113.31,1.04,1.08,0.84,1.49,0.45,0.35,-69.12,50.58,149.61,0.63,0.34,0.56,2.59,0.73,1.34
1.2,-113.49,77.56,158.2,0.17,0.18,0.14,0.08,0.68,2.08,-96.87,85.09,183.46,0.12,0.32,-0.17,0.24,0.66,0.5,-130.37,59.81,116.82,1.02,1.29,0.85,1.48,0.98,0.23,-69.97,50.2,149.5,0.58,0.16,0.46,3.01,1.11,1.37
1.21,-113.78,77.07,159.05,0.37,0.41,-0.04,0.3,0.54,1.53,-96.89,84.99,183.61,0.15,0.03,-0.19,0.93,0.89,0.24,-129.47,59.44,120.51,0.76,1.07,0.75,2.08,0.34,0.16,-71.11,50.04,149.86,0.6,0.03,0.23,2.5,1.02,1.0
1.22,-113.95,76.71,159.81,0.21,0.61,-0.2,-0.05,0.6,0.92,-96.77,84.87,183.61,0.07,0.11,0.16,0.66,0.75,1.15,-128.05,59.36,123.74,0.63,1.1,0.61,3.05,0.06,0.65,-72.5,49.98,150.22,0.78,0.01,0.07,2.71,0.22,1.17
1.23,-114.59,76.31,160.94,0.29,0.38,0.09,0.77,0.4,1.3,-97.2,84.94,183.29,0.14,0.29,-0.04,0.37,0.58,0.92,-127.43,59.17,126.28,0.47,0.74,0.54,2.09,1.37,0.23,-73.6,49.97,150.77,0.57,0.21,0.3,2.85,0.74,1.53
1.24,-114.84,75.95,161.76,0.38,0.29,0.0,0.79,0.53,1.16,-97.19,85.21,183.19,-0.04,0.19,-0.03,1.02,0.4,1.09,-126.98,59.02,128.5,0.35,0.93,0.4,2.5,1.72,0.28,-75.06,49.95,150.93,0.64,0.15,0.0,2.7,0.41,1.07
1.25,-115.5,75.98,162.53,0.31,0.05,0.13,1.2,0.75,1.05,-97.11,85.35,183.27,0.09,0.19,0.1,0.86,0.38,0.1,-126.73,58.47,130.43,0.18,0.74,0.37,2.28,0.28,0.67,-76.16,49.74,151.51,0.48,-0.0,0.16,2.43,0.83,0.16
1.26,-116.08,75.98,162.98,0.26,0.06,0.28,1.14,0.92,1.43,-97.48,85.2,183.19,0.2,0.12,0.13,0.3,0.17,0.39,-126.51,58.39,131.75,0.14,0.57,0.32,1.64,0.53,0.13,-77.05,49.74,151.71,0.44,0.07,0.28,2.5,-0.11,0.28
1.27,-116.23,75.76,163.25,0.32,0.14,0.14,0.3,0.44,0.73,-97.83,85.34,183.07,0.13,-0.1,0.16,0.44,0.27,0.24,-126.77,58.26,133.16,0.05,0.58,0.27,1.09,0.87,0.32,-78.39,49.99,151.78,0.44,0.13,0.53,1.88,0.37,0.35
1.28,-116.43,75.59,163.29,0.24,0.1,0.3,0.46,0.61,0.51,-97.85,85.37,183.24,0.07,0.31,0.07,0.38,0.33,0.03,-126.95,58.14,133.5,0.1,0.57,0.3,1.34,0.88,0.63,-79.02,49.78,151.91,0.51,0.26,0.23,1.73,0.23,0.25
1.29,-116.56,75.2,163.08,0.01,0.21,0.12,0.6,0.75,0.2,-97.97,85.57,182.94,0.29,0.2,0.13,0.04,0.36,0.08,-126.94,57.99,133.78,0.08,0.31,0.15,1.29,0.72,0.74,-79.37,50.03,151.81,0.48,0.15,0.28,1.99,0.45,-0.12
1.3,-116.15,75.24,162.76,0.1,0.26,0.13,0.35,0.04,0.41,-98.07,85.83,183.09,0.2,0.25,0.06,0.37,0.13,0.52,-127.09,57.95,134.34,0.5,0.42,0.59,0.59,0.22,0.24,-80.72,50.17,152.17,0.43,0.39,0.06,2.25,0.94,0.66
1.31,-116.67,74.67,163.67,0.48,0.12,-0.09,1.87,1.13,0.31,-98.46,85.98,183.07,0.32,0.09,0.07,0.67,1.03,0.73,-127.64,58.26,134.97,0.24,0.07,0.55,0.93,0.1,0.29,-81.75,50.97,152.05,0.55,0.59,0.44,1.89,-0.02,1.01
1.32,-117.74,74.41,165.34,0.7,0.41,0.1,0.84,1.07,0.36,-98.69,86.3,183.03,0.5,0.06,0.0,0.99,0.99,0.18,-127.68,58.1,135.32,0.18,0.18,0.45,1.77,0.27,0.31,-82.7,51.52,152.29,0.54,0.53,0.09,1.53,0.6,0.91
1.33,-118.57,74.31,166.62,0.44,0.16,0.1,0.21,0.28,0.37,-99.47,86.67,182.81,0.61,0.54,0.05,0.25,0.74,1.31,-127.42,58.53,136.06,0.26,0.23,0.52,2.2,0.52,0.41,-84.4,52.17,152.66,0.62,0.56,0.04,1.04,0.34,0.27
1.34,-119.17,74.15,167.56,0.01,0.19,0.22,0.46,0.24,0.22,-100.04,86.76,182.86,0.31,0.36,-0.01,0.22,0.74,1.7,-128.2,58.52,135.95,0.34,-0.01,-0.0,1.28,0.68,0.32,-85.8,52.41,152.79,0.44,0.51,0.0,1.1,0.58,0.7
1.35,-119.27,73.83,168.41,0.22,0.41,0.27,0.77,0.31,0.6,-100.64,87.04,182.74,0.48,0.1,0.15,0.17,0.15,0.84,-128.64,58.7,135.34,0.41,0.01,0.02,0.5,1.69,0.54,-87.35,53.33,153.67,0.52,0.62,0.02,0.7,0.39,1.58
1.36,-120.39,73.67,170.12,0.68,0.33,0.37,1.12,0.38,0.33,-100.84,87.25,182.64,0.19,0.06,0.07,0.16,0.28,0.55,-129.53,58.89,134.57,0.12,0.13,0.67,0.44,1.05,0.9,-88.52,53.93,154.21,0.53,0.58,-0.02,0.08,0.26,0.45
1.37,-121.76,73.76,172.23,0.66,0.11,0.31,0.44,0.38,0.36,-101.25,87.42,182.89,0.26,0.49,0.15,0.21,0.3,0.22,-130.22,58.67,133.76,0.34,-0.03,0.06,0.35,0.29,-0.03,-89.82,54.63,154.67,0.61,0.54,0.14,0.42,0.74,1.29
1.38,-122.73,73.86,173.92,0.42,0.14,0.34,0.67,0.04,0.85,-101.48,87.78,182.64,0.16,0.11,0.31,0.44,0.88,0.43,-130.45,58.82,133.13,0.37,0.39,0.3,0.4,0.66,0.15,-90.29,54.78,154.53,0.31,0.59,0.1,0.64,1.24,0.84
1.39,-123.26,73.66,175.12,0.2,0.22,0.23,-0.07,0.16,-0.0,-101.7,88.12,182.54,0.19,0.54,0.26,0.65,0.85,-0.02,-131.2,59.02,132.68,0.45,0.18,0.03,0.06,0.33,0.24,-91.3,55.37,155.0,0.25,0.61,0.43,1.31,0.54,1.08
1.4,-124.16,73.69,176.31,0.24,0.24,0.29,-0.03,0.34,0.68,-101.9,88.22,182.44,0.31,0.54,-0.1,0.21,0.6,0.26,-131.47,59.68,132.2,0.18,-0.14,0.32,0.5,0.28,0.78,-91.64,56.22,154.77,0.42,0.52,0.35,0.91,1.38,1.17
1.41,-124.48,73.41,177.54,0.03,0.12,0.22,0.31,0.01,0.53,-102.05,88.15,182.59,0.08,0.47,0.04,0.19,0.72,0.96,-132.14,59.89,132.37,0.46,0.13,0.36,1.16,0.18,1.17,-92.97,56.73,154.78,0.45,0.38,-0.08,0.81,1.42,0.44
1.42,-125.03,73.34,178.29,0.28,0.17,0.1,0.01,0.25,0.61,-102.23,88.08,182.53,0.03,0.2,0.06,0.15,0.49,0.83,-131.92,59.85,132.25,0.44,0.04,0.39,0.52,0.18,0.13,-93.74,57.21,155.3,0.49,0.48,0.32,0.91,2.0,0.72
1.43,-125.31,72.9,179.0,0.04,0.21,0.33,0.84,0.39,-0.13,-102.29,88.09,182.74,-0.07,0.35,0.03,0.28,0.42,0.75,-131.95,60.29,131.83,0.28,0.02,0.35,0.21,0.55,0.49,-94.7,57.66,155.0,0.47,0.51,0.59,0.67,0.99,1.01
1.44,-125.31,72.77,179.37,-0.0,0.06,0.07,0.89,0.21,0.36,-102.16,88.0,182.81,0.1,0.1,0.06,0.08,0.36,0.47,-132.26,60.38,131.82,0.15,0.14,0.35,0.31,0.51,0.71,-94.91,58.07,155.17,0.32,0.43,0.49,0.43,0.72,1.04
1.45,-125.59,72.6,179.49,-0.06,0.38,0.1,0.73,0.16,0.49,-102.28,87.91,182.89,-0.08,0.33,0.0,-0.07,0.18,0.48,-132.5,60.47,132.05,0.11,0.25,0.32,0.54,0.25,0.62,-95.11,58.42,155.18,0.46,0.52,0.06,0.55,-0.11,0.77
1.46,-125.69,72.76,179.85,0.07,0.26,0.32,0.27,0.2,1.08,-102.31,87.97,183.15,0.33,0.42,-0.03,0.27,0.47,0.7,-132.2,60.91,132.08,-0.03,0.08,0.24,0.33,0.49,0.07,-95.97,58.66,155.58,0.41,0.36,0.06,1.47,1.18,0.99
1.47,-125.49,72.33,179.64,0.05,0.08,-0.01,0.2,0.32,0.26,-102.52,87.64,183.07,-0.07,0.3,0.18,0.33,0.17,0.66,-131.82,61.1,132.29,0.22,0.3,0.21,0.5,0.16,0.83,-96.72,59.14,155.62,0.31,0.32,0.69,0.73,0.77,1.22
1.48,-125.71,72.35,179.27,0.06,-0.08,-0.12,0.2,0.44,0.36,-102.51,87.45,183.22,-0.1,0.13,0.06,0.41,0.1,1.16,-131.94,61.28,132.16,0.13,-0.08,0.19,0.91,0.75,1.49,-96.78,59.53,154.65,0.43,0.5,0.38,0.34,0.83,1.44
1.49,-126.12,72.13,178.97,0.18,0.17,0.13,0.26,0.39,0.59,-102.56,87.3,183.15,-0.07,0.2,-0.04,0.14,0.07,-0.04,-131.33,61.69,132.76,0.27,-0.05,0.27,0.25,1.13,0.57,-97.81,59.58,154.62,0.29,0.39,0.31,1.02,1.77,1.08
1.5,-126.34,72.05,178.57,0.23,0.16,-0.01,0.32,0.19,0.62,-102.72,86.99,183.28,0.16,0.16,0.32,0.23,0.51,1.07,-131.24,61.9,133.31,0.08,-0.02,0.24,0.28,0.86,0.45,-98.54,60.06,155.02,0.37,0.43,0.13,0.43,0.64,1.17
1.51,-126.83,71.98,178.23,0.08,0.06,0.07,0.3,0.04,0.69,-102.64,86.81,183.51,-0.16,0.16,0.07,0.21,0.62,1.38,-131.04,62.31,133.51,0.27,0.02,0.28,0.76,1.34,1.3,-99.05,60.44,154.47,0.57,0.48,0.38,0.48,0.67,1.42
1.52,-126.9,71.49,177.84,-0.14,0.27,0.21,0.13,0.25,0.26,-102.74,86.5,183.47,-0.13,0.26,-0.02,0.12,0.09,0.27,-130.43,62.33,134.13,-0.05,0.23,0.5,0.52,0.49,0.55,-99.15,60.84,153.91,0.51,0.33,0.45,0.36,0.55,1.39
1.53,-127.07,71.66,177.18,0.26,0.47,0.23,0.35,0.22,0.5,-102.78,85.97,183.35,0.21,0.49,-0.07,-0.04,-0.02,0.5,-130.03,62.69,134.87,0.24,0.1,0.24,0.44,1.48,0.87,-100.8,62.11,154.94,0.49,0.65,0.09,0.55,0.41,1.65
1.54,-127.62,71.36,176.87,0.07,0.15,0.06,0.64,0.34,0.6,-102.72,85.57,183.48,0.17,0.35,-0.09,0.26,0.71,0.54,-129.61,62.76,134.95,0.12,0.0,-0.05,0.18,0.36,1.08,-101.68,62.56,155.05,0.65,0.48,0.36,0.4,0.5,1.93
1.55,-127.97,71.15,176.63,0.03,0.22,0.12,0.24,0.08,0.99,-102.83,85.24,183.66,0.08,0.42,0.15,0.37,0.38,1.2,-129.41,62.96,135.15,0.01,0.1,0.2,0.34,0.31,0.81,-102.35,63.03,155.27,0.34,0.4,0.26,0.13,0.27,1.01
1.56,-128.03,71.29,176.17,0.0,-0.01,0.27,0.1,0.42,0.86,-103.01,84.78,183.81,0.08,0.37,-0.08,0.36,0.44,1.16,-128.87,63.41,135.39,0.06,0.41,0.19,0.58,0.63,1.33,-103.03,63.57,155.59,0.42,0.67,0.18,0.33,0.62,0.87
1.57,-127.82,70.87,176.16,0.08,0.13,-0.01,0.03,0.28,0.28,-102.94,84.47,183.61,-0.1,0.38,-0.18,0.59,0.24,0.22,-128.92,63.54,135.32,-0.06,0.15,-0.13,0.83,1.18,1.31,-103.37,63.84,155.73,0.19,0.62,0.28,0.48,0.4,1.41
1.58,-127.83,70.75,176.21,0.12,0.02,-0.06,0.01,-0.06,0.35,-103.17,84.46,183.75,0.04,0.02,0.03,0.9,0.48,1.47,-129.21,63.54,134.95,-0.03,0.07,-0.02,0.17,1.0,0.47,-103.56,64.61,155.41,0.23,0.52,0.08,2.65,1.83,3.56
1.59,-127.81,70.71,176.21,0.02,0.15,-0.08,0.08,0.05,0.36,-103.22,84.14,183.77,0.03,0.06,0.1,0.19,0.03,0.37,-128.93,63.77,134.96,0.04,0.14,0.14,0.09,0.16,0.58,-104.01,64.64,155.74,0.17,0.09,0.19,1.4,2.54,0.78
1.6,-127.62,70.59,176.04,0.22,0.13,0.03,0.22,0.24,0.39,-103.07,84.3,183.68,-0.18,0.28,0.08,0.32,0.05,0.38,-128.97,63.91,134.92,-0.07,0.39,0.08,0.45,0.82,0.47,-103.9,64.72,155.78,0.08,0.1,0.4,1.0,2.26,0.74
1.61,-128.21,70.55,175.92,0.02,0.19,0.07,0.26,-0.01,0.1,-102.96,84.21,183.61,0.03,0.22,0.09,0.64,0.19,0.19,-129.07,64.09,134.79,-0.07,0.47,-0.03,0.88,1.24,0.07,-104.12,64.75,155.87,0.42,-0.08,0.18,0.37,1.81,0.9
1.62,-128.04,70.45,175.68,0.02,0.14,0.14,0.53,0.29,-0.03,-102.81,83.92,183.51,0.09,0.19,0.19,0.4,0.6,0.36,-128.96,64.33,134.56,0.22,0.13,0.06,0.94,0.68,1.72,-103.95,64.84,155.43,0.15,-0.03,-0.07,-0.02,0.25,1.18
1.63,-127.74,70.16,176.19,-0.01,0.25,0.2,0.24,0.07,0.81,-102.78,83.55,183.61,0.15,0.15,0.22,0.12,0.1,0.75,-129.22,64.25,134.09,0.04,0.12,0.29,0.29,0.53,0.5,-104.15,64.7,155.61,0.37,-0.07,0.21,0.15,1.09,1.78
1.64,-127.63,69.66,176.52,0.06,0.25,0.06,0.4,0.12,1.2,-102.51,83.8,183.36,0.16,0.45,-0.0,0.09,0.13,0.99,-129.41,64.15,133.93,-0.14,0.17,0.17,0.93,1.54,0.43,-104.32,64.78,154.97,0.28,0.09,0.52,0.01,1.0,1.92
1.65,-127.54,69.77,176.81,-0.02,0.21,0.16,0.55,0.17,0.72,-102.41,83.87,183.15,0.05,0.01,0.05,0.29,0.4,1.3,-129.12,64.54,134.16,0.18,0.63,0.77,-0.03,1.45,0.5,-104.31,64.73,154.45,0.23,0.04,0.18,0.77,0.67,2.13
1.66,-127.57,69.7,176.56,0.09,0.05,-0.09,0.18,0.2,0.23,-102.16,84.15,183.19,0.16,0.28,0.25,0.16,0.59,0.44,-127.74,65.61,134.75,0.23,0.42,0.2,0.12,0.52,1.28,-104.09,64.79,153.64,0.14,-0.0,0.47,0.9,1.27,2.6
1.67,-127.64,69.73,177.03,0.1,0.23,0.13,0.21,0.33,0.46,-102.03,84.43,182.84,0.02,0.33,0.02,0.32,0.24,1.36,-126.77,66.31,135.36,0.2,0.41,0.28,0.47,0.78,2.03,-103.99,64.71,152.48,0.42,-0.14,0.49,0.66,1.61,2.39
1.68,-127.35,69.81,177.44,0.1,0.03,0.09,0.02,0.4,0.39,-101.79,84.81,182.93,0.22,0.42,0.17,0.64,0.38,0.92,-126.24,66.6,135.34,0.32,0.27,0.34,0.24,0.08,1.21,-104.09,64.46,152.52,0.05,0.09,0.08,0.56,1.08,2.61
1.69,-127.33,69.98,177.84,0.02,0.14,0.19,0.02,0.25,0.21,-101.58,85.13,182.86,0.11,0.44,0.11,0.65,0.36,1.22,-125.58,66.98,135.85,0.26,0.4,0.3,0.37,0.47,1.48,-104.21,64.21,153.48,0.26,0.28,0.51,0.94,0.84,2.33
1.7,-127.19,70.33,177.74,-0.05,0.28,0.17,0.18,0.09,0.27,-101.37,85.43,182.83,0.05,0.32,-0.07,0.22,0.86,0.63,-124.94,67.36,136.24,0.06,0.28,0.08,0.66,2.87,1.94,-104.77,63.82,155.11,0.02,0.08,0.36,2.29,0.18,3.03
1.71,-127.29,70.61,178.15,0.09,0.22,0.1,0.0,0.68,0.53,-100.96,86.11,182.61,-0.11,0.37,0.15,0.2,1.47,0.46,-125.0,67.55,135.45,0.19,0.16,0.18,0.73,2.19,2.04,-104.79,63.85,155.29,0.46,0.02,0.42,2.4,0.88,2.88
1.72,-126.92,70.68,178.73,-0.03,0.04,0.23,0.26,0.55,0.14,-101.01,86.06,182.25,0.19,0.44,0.0,0.03,1.16,0.74,-125.3,67.39,134.65,0.22,0.33,0.21,0.73,1.01,2.15,-102.88,63.47,155.34,0.66,0.05,0.36,2.31,0.07,2.84
1.73,-126.48,70.74,180.0,0.11,0.25,0.35,0.0,0.59,0.11,-101.16,86.71,182.17,-0.01,0.42,0.14,0.89,0.62,1.94,-125.3,67.5,133.87,0.12,0.12,0.41,1.59,1.42,2.43,-102.17,63.7,155.17,0.6,0.17,0.09,3.63,0.43,2.03
1.74,-125.65,71.3,177.94,0.11,0.13,0.11,0.06,0.22,0.56,-101.01,87.29,182.25,0.02,0.46,-0.17,0.81,0.75,1.34,-125.74,67.46,132.24,0.03,0.59,0.5,2.18,2.68,1.97,-100.76,63.6,154.26,0.69,-0.0,0.19,3.84,1.45,3.08
1.75,-125.28,71.71,176.8,0.08,0.25,0.28,0.1,0.42,0.42,-101.06,87.44,182.15,0.02,0.51,0.16,0.86,0.4,0.24,-126.45,67.43,130.02,0.08,0.4,0.72,2.31,2.38,2.12,-100.23,63.48,154.35,1.1,0.03,0.61,3.28,0.15,3.01
1.76,-125.09,71.76,176.05,0.23,0.14,0.44,0.41,0.54,0.3,-101.11,87.35,181.97,0.11,0.41,0.05,0.84,0.22,0.85,-126.47,67.43,128.91,0.2,0.42,0.78,1.72,1.66,1.96,-99.87,63.4,154.38,1.37,0.14,0.71,2.9,0.28,2.87
1.77,-125.11,71.77,175.38,0.22,0.36,0.44,0.25,0.48,0.19,-100.95,87.26,181.82,-0.03,0.08,0.1,0.74,0.09,1.7,-127.09,67.37,127.76,0.05,0.42,0.68,1.36,1.33,1.85,-99.23,63.35,154.69,1.35,0.09,0.9,2.83,0.57,2.66
