0.01,-108.44,75.56,163.9,0.24,0.46,0.24,0.52,0.39,1.22,-97.69,82.02,122.53,0.35,-0.05,0.0,0.33,0.21,0.15,-148.12,1.77,4.75,0.12,-0.01,0.2,-0.07,0.14,-0.08,-119.85,9.46,8.16,0.17,0.1,0.02,1.05,0.44,0.24
0.02,-109.34,75.51,165.04,0.38,0.63,0.13,0.27,0.14,1.45,-97.94,81.53,122.85,0.2,-0.05,0.06,0.2,0.2,0.51,-148.27,1.57,4.82,0.03,0.18,0.27,-0.04,0.01,-0.21,-119.86,9.43,8.17,0.1,0.1,0.15,1.05,0.48,0.26
0.03,-109.59,74.9,166.08,0.12,0.61,-0.14,0.43,0.2,1.59,-98.22,81.46,123.39,0.24,0.17,0.16,0.29,0.17,0.4,-148.33,1.67,4.89,0.21,0.05,0.11,0.31,0.02,0.0,-119.56,9.4,8.32,0.23,-0.04,0.09,1.23,0.4,0.12
0.04,-109.6,73.76,167.04,0.18,0.62,0.18,1.35,0.69,1.33,-98.49,81.52,124.13,0.27,0.16,0.01,1.39,0.22,-0.05,-148.39,1.61,4.59,0.05,-0.02,0.21,0.18,0.11,0.07,-119.35,9.57,8.4,0.08,-0.17,0.23,1.38,1.08,0.47
0.05,-109.27,73.19,167.88,0.1,0.6,0.03,1.2,0.68,0.83,-98.62,80.49,124.31,-0.04,1.23,0.14,1.12,0.65,0.08,-148.13,1.79,4.84,0.03,-0.02,0.15,0.19,0.21,0.14,-119.37,9.4,8.29,0.08,0.05,0.1,1.54,0.78,0.7
0.06,-109.02,71.39,169.15,0.21,0.97,0.04,1.52,0.22,1.07,-98.54,79.59,129.58,0.06,1.13,0.12,2.05,0.5,-0.05,-148.42,1.78,4.73,0.0,0.19,-0.08,0.0,0.18,0.01,-119.09,9.29,8.42,-0.09,-0.12,0.3,1.5,0.41,1.59
0.07,-108.54,70.15,169.7,0.34,1.05,0.15,1.72,0.42,0.9,-98.7,77.85,138.2,0.13,1.47,0.19,2.25,0.24,-0.03,-148.4,1.87,4.69,0.08,-0.01,0.13,0.07,0.04,0.29,-118.99,9.25,8.13,0.1,0.2,0.07,1.27,0.47,2.17
0.08,-108.27,69.03,170.44,0.11,1.14,-0.11,1.98,0.28,0.7,-98.45,76.47,142.78,-0.15,1.88,0.23,2.32,0.27,0.13,-148.36,1.93,4.71,0.0,0.22,0.16,0.02,0.12,0.16,-118.79,8.97,8.22,0.01,-0.06,0.28,0.81,0.42,2.44
0.09,-107.83,67.39,171.07,0.26,1.52,0.15,2.38,0.3,0.74,-98.49,74.81,146.66,-0.18,1.88,0.19,3.0,0.35,0.4,-148.2,2.08,4.88,0.11,0.02,-0.03,0.29,-0.02,0.13,-118.48,9.24,7.95,0.18,-0.02,0.24,0.69,0.22,2.89
0.1,-107.79,65.87,171.74,0.05,1.67,-0.01,1.79,0.38,0.03,-98.19,72.95,149.95,-0.03,1.81,0.38,3.62,0.58,0.18,-148.26,1.85,4.77,-0.22,0.13,0.03,0.06,0.14,0.0,-117.96,9.05,7.8,0.04,0.11,0.41,0.45,0.39,3.18
0.11,-107.58,63.9,172.81,-0.01,1.7,0.27,1.91,0.18,0.35,-98.27,70.87,153.07,0.1,2.28,-0.04,3.79,0.45,0.49,-148.29,2.05,4.96,0.1,0.05,-0.01,0.15,0.14,-0.06,-117.31,9.01,7.4,0.22,0.03,0.45,0.21,0.29,3.93
0.12,-108.27,60.03,174.68,0.4,1.87,0.04,1.45,0.27,0.92,-98.35,68.49,155.55,0.1,2.38,0.21,3.4,0.49,0.56,-148.03,1.97,4.74,0.08,0.33,0.06,0.26,0.17,-0.12,-116.64,9.02,7.43,0.3,0.11,0.32,0.0,0.33,4.51
0.13,-108.72,57.84,175.38,-0.02,1.6,0.17,0.97,0.34,0.7,-98.23,65.38,157.44,0.38,2.7,0.02,3.3,0.42,0.53,-148.03,1.92,4.93,-0.03,0.08,0.15,0.18,-0.1,0.01,-116.52,8.74,6.94,0.22,0.38,0.31,0.13,0.25,4.75
0.14,-109.45,54.2,176.87,0.3,1.97,0.22,0.21,0.19,0.77,-98.52,59.73,160.68,0.37,2.6,0.09,2.27,0.82,0.47,-148.06,1.78,4.87,0.11,-0.09,0.1,0.0,-0.01,0.05,-116.2,8.58,6.58,0.18,0.2,0.43,-0.08,0.43,4.92
0.15,-110.14,51.89,177.48,0.15,2.11,0.17,1.07,0.43,0.82,-98.87,56.77,162.03,0.48,2.67,0.09,2.0,0.16,0.12,-148.05,2.18,4.95,-0.04,-0.04,0.0,0.12,0.05,-0.07,-115.21,8.42,6.31,0.36,0.21,0.5,0.06,0.75,4.61
0.16,-109.75,49.86,177.77,0.41,1.45,0.17,1.36,0.84,1.11,-98.48,50.58,163.78,0.17,2.73,0.15,1.73,0.51,0.36,-148.06,2.01,4.98,-0.0,0.11,0.05,0.06,-0.08,0.04,-114.25,8.52,5.45,0.32,0.12,0.37,0.47,0.31,3.98
0.17,-108.22,48.09,177.16,0.46,1.65,-0.09,0.34,0.62,0.6,-98.5,47.81,164.78,0.36,2.78,0.03,0.53,0.48,0.55,-148.16,1.96,4.95,0.03,0.11,0.2,0.37,-0.02,0.13,-113.77,8.17,4.96,0.43,0.24,0.5,0.37,0.65,3.24
0.18,-107.91,46.27,177.19,0.07,1.54,-0.05,0.35,0.14,0.88,-98.75,44.41,165.55,0.08,3.01,0.01,0.07,0.26,0.65,-148.24,1.97,4.85,-0.1,0.02,-0.01,0.18,0.07,-0.0,-113.13,8.11,4.62,0.25,0.01,0.52,0.42,0.73,2.56
0.19,-107.81,44.52,177.34,0.13,1.54,0.22,1.71,0.52,1.85,-98.64,41.05,165.74,0.15,2.82,0.13,0.24,0.14,0.51,-148.19,2.09,4.8,0.1,0.17,0.06,-0.0,0.02,-0.05,-113.03,8.07,4.08,0.53,0.19,0.12,0.47,0.37,1.58
0.2,-107.55,38.87,177.02,0.12,1.61,0.12,0.2,0.2,1.89,-98.4,35.16,166.43,0.18,2.67,0.06,-0.04,0.38,0.28,-148.05,2.07,4.65,0.24,0.03,0.05,-0.01,0.07,-0.0,-113.45,7.72,3.22,0.51,0.13,0.27,0.37,0.37,0.34
0.21,-107.78,37.86,176.98,-0.01,1.34,0.13,2.0,0.29,1.36,-98.07,29.53,166.89,0.01,2.52,0.08,1.37,0.18,0.52,-148.03,2.07,4.61,0.15,0.16,0.2,0.1,-0.02,-0.06,-113.27,7.94,3.03,0.42,0.05,-0.08,0.62,-0.02,0.63
0.22,-107.73,33.89,177.5,0.01,1.59,-0.12,1.81,0.21,0.39,-97.98,26.97,167.16,0.18,2.28,-0.02,1.51,0.43,0.5,-148.07,2.29,4.82,0.15,0.16,0.16,0.09,0.01,-0.08,-113.37,7.83,2.38,0.34,0.02,0.22,0.74,0.1,0.8
0.23,-108.09,33.08,177.33,-0.09,1.38,0.29,2.73,0.16,0.27,-97.85,22.23,167.6,0.03,1.72,-0.03,0.39,1.1,1.92,-147.76,2.32,4.72,-0.08,-0.03,0.16,0.0,0.03,-0.04,-113.02,7.99,2.04,0.32,0.29,0.17,0.49,0.07,0.04
0.24,-108.48,31.55,177.66,0.35,1.17,0.04,2.63,0.09,1.21,-97.8,20.47,167.76,0.08,1.87,-0.09,1.29,0.18,0.91,-147.82,2.26,4.88,0.22,0.31,0.22,0.19,0.17,0.16,-112.47,8.3,1.19,0.2,0.22,0.21,1.18,0.09,1.09
0.25,-108.48,30.26,177.91,0.12,0.93,0.09,1.01,0.1,1.1,-97.7,18.3,167.94,0.02,1.91,-0.2,1.71,0.67,2.06,-147.64,1.97,4.85,0.0,0.18,0.06,-0.09,0.14,0.03,-112.2,8.75,1.29,0.17,0.03,0.34,1.22,0.14,1.01
0.26,-108.94,29.34,177.87,0.1,1.37,0.15,1.54,0.55,0.96,-97.76,16.05,167.98,-0.09,1.89,0.08,1.65,0.22,1.91,-147.72,2.06,4.85,-0.12,-0.02,0.14,0.09,0.05,0.12,-112.08,8.86,1.02,0.08,0.18,-0.03,1.52,0.99,2.13
0.27,-108.95,27.87,177.59,0.09,1.14,0.21,2.89,0.94,1.33,-97.56,14.22,168.17,0.05,1.83,0.17,1.53,1.29,2.15,-147.72,2.16,5.12,0.13,0.03,-0.05,0.08,-0.14,0.09,-111.65,8.93,0.78,0.04,0.11,0.28,1.31,0.67,2.59
0.28,-109.18,25.77,177.37,0.37,0.91,0.24,2.14,0.51,1.02,-97.86,12.23,168.4,0.4,1.49,0.12,0.94,0.84,3.89,-147.73,1.98,4.9,0.09,0.04,0.12,0.32,0.09,0.07,-111.17,9.05,0.59,0.02,0.02,0.53,1.89,0.21,2.57
0.29,-109.23,24.87,176.93,0.26,0.69,0.14,2.13,0.61,1.07,-97.69,10.79,168.46,0.01,1.28,-0.08,0.92,0.15,3.8,-147.62,2.17,4.82,0.01,0.09,0.22,0.11,-0.04,0.28,-110.56,9.21,0.48,0.05,0.16,0.54,1.57,0.29,3.16
0.3,-109.44,23.96,177.0,0.01,0.58,0.16,1.94,0.0,0.56,-97.91,8.84,168.3,0.06,0.84,0.13,1.66,0.31,2.69,-147.85,2.05,4.83,0.27,0.24,0.04,0.03,0.04,0.1,-110.39,9.02,0.25,-0.2,-0.0,0.28,1.17,0.53,4.54
0.31,-109.58,23.46,177.37,0.16,0.23,0.01,2.11,0.47,1.01,-97.87,7.71,168.78,0.12,0.74,0.02,1.38,0.22,3.16,-147.88,2.06,5.2,0.25,-0.19,0.06,0.11,-0.03,0.12,-109.89,9.16,0.07,-0.0,0.05,0.35,1.17,0.4,3.75
0.32,-109.68,23.42,177.34,0.19,0.05,0.08,1.72,0.98,1.75,-97.84,7.11,168.98,0.03,-0.08,0.07,0.26,0.79,2.42,-147.8,2.16,5.06,0.24,0.1,-0.16,-0.11,0.11,-0.09,-109.92,9.12,0.25,-0.09,0.06,0.23,1.33,0.39,4.55
0.33,-109.64,23.37,176.89,0.02,-0.06,0.29,1.08,0.1,1.17,-97.84,7.36,168.93,-0.08,0.06,-0.12,0.58,0.58,2.45,-147.9,2.28,5.21,-0.05,-0.09,0.07,-0.12,0.13,-0.09,-109.34,8.92,0.3,0.21,-0.06,-0.14,0.81,1.08,4.77
0.34,-110.02,23.2,177.0,0.05,0.18,-0.04,1.05,0.42,0.93,-97.68,7.16,168.9,-0.1,0.1,0.05,1.37,0.09,1.38,-147.94,2.24,5.13,0.39,0.04,-0.12,0.11,0.04,0.03,-109.75,8.75,0.6,0.25,-0.07,0.42,0.27,0.02,4.06
0.35,-110.23,23.61,177.06,0.27,-0.07,0.11,1.94,-0.14,1.14,-97.88,7.19,168.93,0.05,0.26,0.02,1.11,0.11,1.68,-147.89,2.02,5.29,0.09,-0.06,0.14,0.09,-0.12,0.07,-111.33,8.63,1.84,0.5,-0.18,0.65,0.09,0.74,3.47
0.36,-110.55,23.8,177.1,0.25,0.09,-0.06,1.83,0.82,1.77,-98.04,7.61,169.21,0.22,0.41,0.1,0.26,0.45,3.56,-147.86,2.35,5.1,0.11,0.01,0.17,-0.05,-0.18,-0.06,-111.47,8.78,2.26,0.26,0.2,-0.04,1.2,1.08,3.66
0.37,-110.6,24.17,176.9,0.01,0.19,0.07,2.03,0.14,0.58,-98.27,8.05,169.25,0.36,0.32,0.24,0.02,0.67,2.8,-147.9,2.17,5.1,0.25,0.06,-0.05,0.21,0.13,-0.16,-111.42,8.87,2.66,0.17,0.08,0.27,1.14,2.37,4.39
0.38,-111.13,24.52,176.9,0.11,0.5,0.12,1.96,0.62,0.53,-98.28,9.1,169.33,0.13,0.69,-0.11,1.23,-0.02,1.81,-147.96,2.16,4.85,0.15,0.11,0.14,-0.07,-0.05,-0.01,-111.2,9.37,2.93,0.32,0.06,0.07,0.3,2.17,4.32
0.39,-111.66,26.75,176.95,0.14,0.99,0.12,2.17,0.54,0.06,-98.71,11.59,169.61,0.04,1.12,0.1,0.83,0.96,2.26,-147.78,2.3,5.17,0.0,-0.08,-0.0,-0.23,0.07,0.07,-114.12,9.53,4.66,0.73,0.29,1.72,1.67,2.01,4.24
0.4,-111.76,27.74,176.98,0.2,1.08,-0.1,1.51,-0.0,0.66,-98.58,13.08,169.95,0.01,0.98,0.27,0.91,0.16,1.87,-148.03,2.18,5.1,0.21,-0.02,0.18,-0.09,-0.0,0.05,-115.17,9.85,5.52,0.48,0.42,0.66,2.31,-0.04,5.64
0.41,-112.16,28.9,176.66,0.27,1.06,0.28,1.94,0.04,0.83,-98.59,14.16,169.61,0.15,1.24,0.05,1.33,0.39,2.27,-148.05,2.35,4.67,0.09,-0.0,0.01,0.07,0.13,0.04,-116.14,11.28,6.61,0.71,0.95,0.95,1.38,1.3,4.4
0.42,-112.22,30.15,176.5,-0.05,1.18,0.11,1.81,0.02,0.03,-98.18,15.67,169.88,0.05,1.42,-0.01,0.93,0.13,2.16,-148.03,2.07,4.96,0.07,-0.12,0.0,0.31,0.18,0.14,-117.53,12.35,7.82,0.75,1.15,1.06,1.6,1.17,4.11
0.43,-112.85,31.39,176.47,0.33,1.23,-0.06,1.55,0.03,0.64,-98.31,17.2,169.71,0.12,1.35,0.22,0.73,0.07,1.09,-148.1,2.06,5.0,0.22,-0.12,-0.05,0.87,0.06,0.49,-118.12,13.04,8.69,0.8,1.01,0.36,1.86,0.78,4.38
0.44,-112.94,34.7,175.99,0.16,1.5,-0.07,1.63,0.17,0.3,-98.33,18.49,169.53,0.01,1.52,-0.04,1.08,0.03,0.97,-148.02,2.16,4.77,0.14,0.24,0.09,0.59,0.17,0.27,-118.18,14.34,9.29,0.58,0.9,0.19,0.89,0.32,3.7
0.45,-113.08,36.36,175.82,0.14,1.57,0.05,1.73,0.17,0.13,-98.37,20.37,169.49,0.0,1.72,0.1,1.15,0.05,1.69,-147.99,2.13,4.89,-0.03,0.17,0.28,0.67,0.59,0.32,-118.53,15.32,10.14,0.56,0.89,0.57,0.44,0.54,3.54
0.46,-113.49,40.07,175.24,0.24,2.01,0.11,1.42,0.26,1.07,-98.71,24.35,169.14,0.25,1.98,-0.12,0.56,0.74,1.12,-148.02,2.16,4.69,0.08,0.06,-0.09,0.67,1.42,0.26,-119.46,16.21,10.92,0.38,0.96,0.6,1.61,1.02,3.52
0.47,-113.45,42.32,174.93,0.2,2.01,0.0,0.99,0.24,1.21,-98.6,26.51,168.76,0.18,1.95,-0.11,0.31,0.52,0.48,-148.0,2.34,4.6,-0.05,0.23,0.15,0.9,1.38,0.24,-119.74,17.3,11.8,0.62,0.94,0.15,1.71,0.61,3.29
0.48,-113.35,44.67,174.46,0.34,2.14,0.22,1.38,-0.09,0.98,-98.54,28.52,168.18,0.44,1.93,0.02,0.54,0.05,0.02,-147.93,2.46,4.5,0.14,0.04,0.16,1.25,1.81,0.19,-119.4,18.2,12.32,0.44,1.05,-0.21,1.51,0.69,3.38
0.49,-113.63,46.93,173.98,0.09,2.21,0.01,1.31,0.46,1.48,-98.64,30.74,167.73,0.31,1.95,-0.17,0.73,0.26,0.52,-147.55,2.37,4.32,0.17,0.18,0.19,1.35,1.56,0.79,-119.57,19.58,12.96,0.4,1.02,0.18,0.82,0.75,2.91
0.5,-113.63,49.09,173.52,-0.04,2.15,0.03,1.18,0.27,1.34,-98.66,32.97,167.34,0.22,2.14,0.05,0.9,0.22,-0.03,-147.02,2.61,4.09,0.23,0.1,0.29,1.23,1.19,2.02,-119.82,22.17,14.94,0.73,1.2,0.16,0.85,1.81,2.47
0.51,-114.39,51.62,173.27,0.17,2.15,0.16,1.03,0.17,1.21,-98.39,35.71,167.03,0.21,2.33,0.08,0.89,0.35,0.66,-146.58,2.68,3.79,0.49,0.21,0.36,1.34,1.15,2.11,-120.42,23.73,16.23,1.09,1.68,0.07,0.89,1.7,2.05
0.52,-114.83,54.01,172.81,-0.13,2.29,0.13,0.5,0.08,2.3,-98.56,38.36,166.7,0.06,2.37,0.08,0.38,0.48,0.24,-146.21,2.77,3.5,0.23,0.14,0.51,0.93,1.34,2.24,-119.98,27.62,18.96,1.19,2.05,0.07,0.86,0.44,1.33
0.53,-115.73,59.17,171.83,-0.03,2.33,0.13,0.05,0.19,1.2,-98.63,39.58,166.3,0.18,2.45,-0.1,0.34,0.14,0.05,-145.44,3.16,3.07,0.21,0.18,0.61,0.8,1.31,3.02,-120.25,29.55,20.99,1.11,1.85,0.05,1.11,0.63,1.15
0.54,-115.58,61.84,170.93,0.38,2.0,0.06,-0.02,0.5,1.3,-99.01,42.32,165.75,0.21,2.47,0.1,0.41,0.06,0.16,-144.58,3.27,3.02,0.14,0.06,0.52,1.09,1.24,3.16,-120.47,31.8,23.01,1.55,2.28,0.55,0.93,1.8,0.69
0.55,-114.96,65.98,168.15,0.28,1.85,-0.2,2.33,0.32,1.73,-95.86,47.97,164.2,0.29,2.86,-0.03,0.61,0.1,0.51,-143.84,3.56,2.59,0.42,0.14,0.79,0.92,0.3,3.97,-120.68,32.91,24.08,1.33,2.41,0.04,0.65,1.22,-0.08
0.56,-114.75,67.79,166.85,0.21,1.74,0.04,1.53,0.12,0.99,-95.98,51.31,163.23,0.43,2.89,0.23,0.79,0.19,0.04,-142.83,3.53,2.29,0.33,0.16,0.72,1.06,0.5,4.36,-120.68,35.27,26.18,1.28,2.42,0.09,0.24,0.54,0.61
0.57,-114.35,69.36,165.65,0.08,1.46,0.14,0.94,0.26,0.1,-95.99,57.78,161.2,0.23,2.83,0.23,2.21,0.07,0.76,-142.23,3.8,1.84,0.39,0.26,0.89,0.61,0.61,4.44,-120.8,37.41,28.76,1.43,2.4,0.21,-0.17,1.05,0.73
0.58,-114.18,72.46,162.43,0.25,1.35,0.09,1.98,0.16,0.39,-95.44,64.18,158.01,0.64,3.03,0.16,3.27,0.53,0.6,-139.46,3.67,1.04,0.21,0.31,0.89,0.29,0.4,4.68,-121.49,44.17,31.45,1.68,2.58,-0.1,0.65,0.24,0.69
0.59,-113.76,73.78,160.48,0.39,1.13,0.17,1.35,0.39,-0.04,-95.08,67.45,155.44,0.46,2.66,0.09,3.28,0.61,0.82,-138.39,3.97,0.7,0.12,0.12,0.99,0.03,0.15,3.57,-121.31,46.06,34.87,1.65,2.74,0.01,0.18,0.27,1.04
0.6,-113.41,74.74,158.43,0.34,1.15,0.07,1.34,0.54,0.33,-94.47,70.19,153.16,0.35,2.43,0.2,3.76,0.67,0.49,-137.5,3.76,0.53,0.14,0.1,0.33,0.52,0.72,2.24,-121.44,48.22,39.02,1.32,2.63,0.07,1.38,0.05,0.49
0.61,-112.91,76.67,153.72,0.4,0.81,-0.03,1.3,0.47,0.6,-94.26,72.71,150.1,0.58,2.44,0.25,3.12,0.34,0.64,-137.12,3.71,0.9,0.03,0.22,0.13,0.44,0.65,1.82,-121.69,50.39,43.61,1.84,2.8,0.05,1.21,0.19,0.05
0.62,-112.04,77.46,151.09,0.48,0.69,0.21,0.72,-0.04,0.0,-94.2,75.26,146.55,0.47,2.33,0.11,2.75,0.46,0.49,-136.95,3.44,0.99,0.04,0.31,0.07,0.79,0.23,0.14,-121.64,51.97,48.53,1.79,2.57,0.15,0.92,0.58,0.55
0.63,-111.27,77.96,148.88,0.6,0.42,0.23,0.23,0.34,0.29,-93.78,78.99,146.46,0.37,1.67,0.07,1.71,0.19,0.22,-136.51,3.21,1.07,0.07,0.1,0.46,1.03,0.11,0.43,-121.17,53.85,53.88,2.1,2.61,0.22,1.06,1.92,0.29
0.64,-111.0,78.48,148.09,0.14,0.26,-0.04,0.56,0.32,0.01,-93.56,80.59,139.85,0.48,1.56,0.18,1.22,-0.03,1.02,-136.13,2.95,1.09,-0.03,0.32,0.58,0.77,0.9,1.23,-120.58,55.57,59.96,2.01,2.81,0.33,1.23,1.98,0.24
0.65,-110.67,78.6,147.95,0.01,0.12,-0.04,0.52,1.12,-0.12,-93.42,81.82,132.49,0.44,1.45,0.07,0.86,0.04,0.86,-135.22,2.61,1.2,-0.02,-0.04,0.72,0.66,0.79,0.4,-119.93,56.89,66.16,1.91,2.8,0.39,1.47,1.63,0.01
0.66,-111.16,78.55,148.23,0.03,0.12,0.16,0.92,1.04,0.22,-92.91,82.79,123.29,0.45,1.38,0.07,0.63,0.85,0.11,-134.57,2.52,1.36,0.32,0.2,0.81,0.77,0.54,0.07,-119.45,58.32,73.02,1.92,2.73,0.46,0.69,0.42,0.42
0.67,-110.76,78.7,149.07,0.11,-0.04,0.0,1.3,0.93,0.32,-93.09,83.58,123.44,0.27,1.56,0.07,0.68,0.92,0.47,-132.64,1.7,1.68,0.09,0.18,0.7,1.1,0.94,0.83,-117.76,59.4,73.06,2.18,2.75,0.59,1.41,0.22,-0.05
0.68,-111.01,78.44,150.17,0.23,0.25,0.04,0.66,0.33,0.2,-92.89,84.05,123.36,0.1,1.1,0.22,0.07,0.62,1.2,-131.86,1.38,1.89,0.22,0.4,0.79,1.25,0.88,1.74,-116.86,59.69,73.21,2.18,2.79,0.57,1.74,0.23,0.28
0.69,-111.39,78.1,151.52,0.05,0.63,0.15,0.73,0.09,0.19,-92.76,84.25,123.64,0.01,1.0,0.12,0.22,0.83,0.48,-131.27,1.02,1.99,0.4,0.41,0.28,1.49,0.32,2.55,-113.1,58.98,72.96,1.99,2.45,0.55,0.88,0.07,0.21
0.7,-110.68,76.68,154.06,0.24,0.54,-0.03,0.74,1.42,0.86,-92.98,84.25,123.65,-0.0,0.94,0.38,1.15,0.31,0.36,-130.71,0.74,2.56,0.13,0.22,0.62,0.85,0.52,2.31,-112.28,58.23,73.45,1.85,2.53,0.53,1.34,0.76,0.04
0.71,-109.95,76.5,154.76,0.53,0.39,0.16,0.55,1.73,0.23,-92.88,83.97,123.79,0.12,0.72,0.29,1.29,-0.03,0.33,-130.14,0.67,2.6,0.31,0.32,0.62,1.36,0.32,2.56,-111.11,56.96,78.57,1.6,2.34,0.41,1.66,0.23,0.45
0.72,-108.77,75.3,156.22,0.35,0.42,0.13,1.8,0.05,1.09,-93.1,83.83,124.05,0.36,0.41,0.22,1.92,0.51,1.05,-129.46,0.46,2.78,0.18,0.24,0.54,1.59,0.52,3.69,-110.27,55.75,83.14,1.57,1.9,0.37,1.67,-0.01,0.14
0.73,-108.14,74.89,156.67,0.12,0.32,0.07,1.3,0.34,1.71,-92.83,84.12,124.33,0.5,-0.03,0.11,1.12,0.45,1.08,-128.94,0.16,3.02,0.4,0.12,0.28,1.66,0.66,3.89,-108.99,54.73,87.35,1.2,1.83,0.86,2.02,1.11,0.05
0.74,-107.96,74.58,157.1,0.22,0.19,0.32,0.47,0.34,1.15,-93.08,84.49,124.4,0.19,0.22,0.15,0.76,0.64,0.92,-128.72,0.11,3.39,0.27,-0.12,0.22,1.41,1.19,3.77,-107.58,53.99,91.12,1.04,1.38,0.71,2.59,0.37,1.26
0.75,-107.88,74.16,156.89,0.03,0.2,-0.01,-0.09,-0.16,0.82,-92.77,84.33,124.71,0.31,0.15,-0.0,0.6,0.6,0.04,-128.72,0.39,3.53,0.15,0.05,0.17,1.24,1.21,4.51,-107.78,53.74,92.32,1.2,1.14,0.4,2.47,0.11,1.25
0.76,-107.6,73.69,156.76,0.14,0.41,0.18,0.5,0.68,0.89,-93.23,84.37,124.6,0.01,0.02,0.13,0.42,-0.15,0.78,-129.09,0.23,4.16,0.21,0.06,0.74,0.97,1.73,4.33,-104.65,51.61,98.08,0.85,1.06,0.44,3.4,1.51,1.39
0.77,-107.39,73.09,157.07,0.04,0.42,-0.05,0.3,0.38,1.5,-93.61,84.27,124.71,0.27,-0.08,0.13,0.61,0.26,0.58,-130.17,-0.11,4.53,0.04,0.07,0.2,0.64,0.08,3.37,-104.04,49.78,101.36,0.59,0.99,0.34,3.5,0.52,2.38
0.78,-107.61,72.85,157.65,0.47,0.28,0.0,0.46,0.17,1.8,-93.74,84.54,124.5,0.35,0.21,0.09,1.05,0.28,0.95,-130.49,0.24,4.63,0.07,0.2,0.23,0.26,0.19,3.17,-103.39,49.24,102.87,0.48,0.7,0.45,3.48,0.89,1.79
0.79,-107.87,72.2,158.26,0.26,0.36,0.02,0.32,0.3,1.85,-93.98,84.4,124.81,0.28,0.2,-0.05,0.62,0.73,1.36,-130.77,0.31,4.71,0.46,-0.05,0.57,0.24,0.47,3.75,-102.58,48.77,104.14,0.48,0.58,0.47,3.41,0.79,0.03
0.8,-108.15,71.94,158.61,0.47,0.23,0.09,-0.05,0.43,1.77,-94.4,84.83,124.65,-0.07,0.27,0.16,-0.01,0.72,0.28,-131.34,0.07,5.14,0.3,0.06,0.33,0.03,1.77,4.24,-101.85,48.42,105.21,0.34,0.79,0.33,3.3,0.33,0.65
0.81,-108.37,71.89,159.06,0.44,0.04,0.01,0.16,0.58,1.44,-94.35,84.68,124.83,0.01,-0.03,0.03,0.38,0.6,0.7,-132.34,0.06,4.93,0.17,0.47,1.21,0.14,2.66,4.42,-101.57,48.1,105.96,0.1,0.42,0.0,2.99,0.4,1.16
0.82,-109.11,71.54,159.5,0.39,0.11,-0.06,0.39,0.97,1.53,-94.45,84.78,124.92,0.1,0.12,-0.05,0.86,0.52,0.46,-133.54,0.31,5.12,0.45,0.03,1.45,1.0,0.3,3.12,-101.07,47.52,106.31,0.2,0.24,0.06,2.84,0.48,1.33
0.83,-109.55,71.24,160.29,0.25,0.19,-0.04,0.37,0.54,1.73,-94.93,84.87,124.84,0.06,0.38,0.1,0.29,0.35,1.35,-135.23,0.64,5.03,0.08,0.28,0.96,0.72,1.3,4.31,-100.81,47.41,106.77,0.1,0.09,0.31,2.33,0.52,0.66
0.84,-109.8,71.12,160.63,0.21,0.36,-0.01,0.0,0.04,1.89,-95.24,85.01,124.83,0.2,0.18,0.02,0.04,0.35,0.57,-137.01,0.72,4.96,-0.16,0.29,1.03,0.6,0.57,4.74,-100.86,47.57,107.34,0.34,0.28,0.38,2.51,0.73,0.1
0.85,-110.39,71.06,161.15,0.43,0.08,0.04,0.02,0.04,2.32,-95.34,85.05,124.9,0.2,0.07,0.09,0.13,0.4,1.37,-138.15,1.24,4.97,0.31,0.44,1.0,0.73,0.25,4.29,-101.38,48.14,107.19,0.18,0.14,0.37,2.18,0.39,0.56
0.86,-110.95,70.72,161.65,0.32,0.15,0.0,0.1,-0.03,2.95,-95.51,85.15,124.8,0.16,0.22,-0.1,0.43,0.53,2.03,-138.9,1.53,4.97,0.05,0.33,0.82,0.2,0.86,3.85,-101.87,48.64,106.94,0.24,0.31,0.5,2.4,0.56,0.29
0.87,-112.8,70.77,163.3,0.37,0.06,0.13,0.95,1.12,2.07,-95.73,85.12,124.77,0.03,0.47,0.12,0.1,0.26,1.7,-140.06,1.66,4.86,0.17,0.5,0.39,0.06,0.54,3.78,-102.27,49.02,106.92,0.5,0.24,0.34,1.84,0.81,0.07
0.88,-113.57,70.46,164.12,0.46,0.09,0.01,1.63,1.42,0.64,-95.89,85.47,125.08,0.14,0.27,0.07,0.32,0.39,2.04,-140.31,2.06,4.85,0.22,0.48,0.73,0.13,0.32,3.62,-102.57,49.31,106.8,0.29,0.29,0.38,1.42,0.15,0.34
0.89,-114.96,69.96,164.52,0.22,0.41,0.28,0.14,0.37,1.12,-96.3,85.84,125.11,0.13,0.09,0.23,0.08,0.63,1.42,-141.11,2.41,4.47,0.29,0.5,0.29,0.28,0.12,3.33,-103.18,49.84,106.57,0.64,0.12,0.49,1.59,0.56,0.05
0.9,-115.17,69.49,164.15,0.42,0.52,0.11,-0.12,1.36,0.23,-96.57,85.96,125.34,0.17,-0.04,0.07,0.66,0.18,1.42,-141.35,2.62,4.23,0.26,0.5,0.38,0.3,0.87,3.36,-103.86,50.15,106.45,0.79,0.36,0.44,1.45,0.59,-0.08
0.91,-115.95,68.63,164.73,0.69,0.64,0.25,0.17,1.59,0.01,-97.16,85.68,125.01,0.45,0.2,0.25,1.36,0.32,0.36,-141.81,3.09,4.31,0.23,0.27,0.38,0.36,0.43,3.05,-104.14,50.73,106.07,0.44,0.4,0.4,1.58,0.51,-0.19
0.92,-116.75,68.15,165.48,0.54,0.17,0.14,0.33,0.34,0.45,-97.69,85.63,125.04,0.2,-0.06,-0.0,0.68,0.41,0.11,-142.61,4.09,4.22,-0.02,0.56,0.63,0.57,0.97,2.06,-105.26,52.04,105.5,0.84,0.37,0.67,1.08,0.48,0.21
0.93,-117.92,67.8,166.42,0.53,0.07,-0.01,0.64,0.74,0.77,-97.73,85.52,124.77,0.29,0.18,-0.01,1.28,0.47,0.24,-143.33,4.74,4.32,-0.04,0.55,0.62,0.56,1.0,1.82,-106.18,52.78,105.35,0.64,0.45,0.82,1.02,0.47,0.29
0.94,-118.74,67.87,167.12,0.52,0.1,0.09,1.04,0.91,0.41,-98.2,85.52,124.98,0.29,0.33,-0.14,-0.05,0.85,0.7,-144.61,5.64,5.11,0.58,0.78,0.79,0.71,0.17,0.94,-106.82,53.59,105.17,0.88,0.5,0.83,0.51,0.81,0.48
0.95,-119.71,67.71,167.98,0.64,0.02,0.0,0.69,0.08,0.19,-98.67,85.63,125.03,0.46,0.27,-0.04,0.12,0.6,1.08,-145.08,6.66,5.62,0.58,0.57,0.56,0.61,0.16,0.32,-108.21,54.55,104.88,0.8,0.52,0.74,0.21,0.68,0.92
0.96,-121.8,67.41,170.13,0.44,0.26,0.11,0.29,0.37,0.21,-99.53,85.66,125.33,0.46,0.42,0.04,0.94,0.39,1.12,-146.27,8.04,7.41,0.62,1.18,0.47,0.66,0.07,-0.06,-109.63,56.01,103.85,1.06,0.36,0.66,1.39,0.73,0.79
0.97,-123.61,66.67,172.41,0.31,0.22,0.11,0.61,0.12,0.34,-99.91,85.21,125.18,0.24,0.6,-0.02,0.12,-0.06,0.4,-147.12,9.35,8.64,1.12,0.87,0.63,0.39,0.64,-0.02,-111.53,56.73,103.59,1.01,0.4,0.33,1.02,0.39,1.07
0.98,-124.06,66.63,173.28,0.15,0.16,0.25,0.76,0.19,0.17,-100.16,85.11,125.52,0.09,0.34,0.27,0.24,0.19,1.35,-147.81,10.39,10.18,1.3,1.02,0.69,0.68,0.99,0.08,-112.03,57.38,103.23,0.85,0.5,0.6,2.61,0.63,2.61
0.99,-124.16,66.25,174.05,0.08,0.17,0.33,0.63,0.36,0.15,-100.67,84.73,126.01,0.02,0.16,0.22,0.17,0.96,0.82,-148.28,11.43,11.53,1.49,1.14,0.61,0.63,0.63,0.75,-113.25,58.08,103.06,0.6,0.19,0.67,4.77,1.2,2.98
1.0,-124.17,66.36,174.7,0.1,-0.05,0.33,0.18,0.74,0.36,-100.74,84.69,126.0,-0.05,0.21,0.2,0.09,-0.17,2.01,-150.15,13.95,15.5,1.67,1.36,0.91,0.35,0.52,0.87,-113.04,57.21,104.49,0.27,0.41,0.3,0.76,1.33,0.41
1.01,-124.46,66.14,175.09,0.23,0.12,0.55,0.45,0.51,0.52,-100.82,84.92,126.38,-0.14,0.3,0.09,0.21,0.15,0.25,-151.0,14.93,17.94,1.72,1.23,0.69,1.01,0.5,1.8,-113.47,56.93,104.61,0.18,0.12,0.47,0.05,0.32,1.33
1.02,-124.32,66.14,175.83,0.08,0.05,0.2,0.16,0.58,0.35,-101.22,84.77,126.46,0.26,0.17,0.14,0.08,0.29,0.83,-151.73,17.27,22.6,1.94,1.27,0.51,0.92,0.82,1.58,-114.43,57.86,106.15,0.7,0.32,0.67,1.51,1.9,1.25
1.03,-124.56,66.09,176.17,0.16,-0.01,0.24,0.58,0.67,0.16,-101.31,84.28,126.43,0.13,0.33,0.07,0.2,0.1,0.99,-151.96,18.64,25.09,2.06,1.35,0.17,0.16,1.46,1.78,-113.85,59.08,108.23,0.38,0.37,1.02,2.84,1.83,2.52
1.04,-124.86,66.1,176.89,0.03,0.05,0.28,0.27,0.67,0.13,-101.32,84.15,126.51,0.07,0.21,0.03,0.32,0.38,1.09,-152.59,19.75,27.95,2.2,1.51,0.26,0.21,1.58,2.65,-113.97,59.77,109.32,0.79,0.18,1.03,0.57,3.61,0.2
1.05,-125.28,65.92,177.53,0.26,0.24,0.33,0.26,0.48,0.15,-101.8,84.06,126.71,0.02,0.05,-0.01,0.4,0.24,1.84,-152.66,21.07,30.8,2.09,1.52,0.23,0.44,1.0,2.69,-113.91,59.95,109.5,0.41,0.13,0.16,0.32,0.47,0.81
1.06,-125.63,65.87,177.74,0.15,0.01,0.19,0.03,0.27,0.6,-101.96,84.1,126.88,-0.04,0.09,0.18,0.61,0.44,0.06,-152.77,21.73,31.84,2.17,1.73,0.32,0.47,0.99,2.76,-115.08,60.1,108.8,0.41,0.11,0.04,0.19,1.07,1.45
1.07,-126.02,65.81,178.44,0.12,-0.08,0.19,0.18,0.34,0.29,-101.71,83.99,127.17,0.03,0.15,0.24,0.28,0.22,2.04,-153.52,22.92,35.0,2.26,1.9,0.31,-0.12,0.39,2.0,-115.63,60.34,108.72,0.44,-0.05,0.43,0.13,0.9,0.99
1.08,-126.22,65.68,179.01,-0.07,0.06,0.3,0.51,0.27,0.37,-101.88,83.94,126.99,0.07,0.15,0.38,0.4,0.21,0.66,-153.49,24.33,38.09,2.26,1.82,0.25,0.18,0.23,2.36,-115.97,60.61,108.97,0.53,0.1,0.57,0.33,1.29,1.13
1.09,-126.48,65.71,179.26,0.37,-0.03,-0.02,0.11,0.41,0.2,-101.95,84.08,127.26,-0.02,-0.07,0.23,0.18,0.09,0.55,-154.11,27.23,38.06,2.32,1.69,0.03,0.07,0.21,1.27,-116.58,60.96,109.75,0.28,0.02,0.54,1.33,1.54,2.58
1.1,-126.97,65.77,179.81,0.35,-0.02,0.27,0.26,0.57,0.17,-101.89,83.98,127.41,-0.13,0.04,0.09,0.14,0.73,0.88,-154.28,28.41,41.49,2.49,1.81,0.01,-0.1,0.86,0.82,-116.58,61.23,110.28,0.12,-0.03,0.32,0.18,0.32,1.47
1.11,-127.31,65.72,179.88,0.22,-0.02,0.03,0.46,0.22,0.47,-101.99,84.2,127.33,0.09,0.15,0.06,-0.06,1.05,1.01,-153.9,31.27,48.05,2.27,1.54,0.4,0.49,0.63,0.33,-117.33,61.45,110.13,0.2,0.23,0.3,1.05,1.46,1.6
1.12,-127.6,65.98,179.43,0.1,0.17,0.08,0.13,-0.05,-0.03,-102.16,84.43,127.65,0.1,0.2,0.32,0.2,0.51,0.94,-153.75,32.24,51.44,2.24,1.79,0.06,0.17,0.59,0.31,-117.08,61.76,110.44,0.5,0.17,0.37,2.01,1.11,1.27
1.13,-127.86,65.96,179.22,0.3,0.25,0.06,0.02,0.34,0.21,-102.12,84.75,127.67,0.11,-0.03,0.22,0.05,0.23,0.82,-153.54,33.44,54.66,2.44,1.62,0.59,0.18,1.13,0.07,-117.34,62.16,110.56,0.43,0.38,0.24,1.79,0.43,0.88
1.14,-128.02,66.16,179.23,0.19,0.01,-0.17,0.14,0.19,0.36,-102.25,84.61,127.93,-0.03,0.13,0.27,0.2,0.3,0.37,-153.15,34.63,58.15,2.05,1.6,0.38,0.0,0.42,0.16,-117.56,62.42,110.72,0.23,0.61,0.42,1.12,0.25,0.86
1.15,-127.88,65.86,179.22,0.31,-0.04,0.11,0.53,0.39,0.1,-102.15,85.51,128.08,0.09,0.27,0.17,0.3,0.4,0.21,-152.03,37.18,65.22,2.09,1.55,0.42,0.36,0.03,0.17,-117.23,63.51,112.21,0.16,0.28,0.33,1.12,1.16,1.43
1.16,-128.01,66.22,179.12,0.03,0.37,0.07,0.28,0.25,0.2,-102.07,85.7,128.18,0.25,0.24,-0.04,0.43,0.2,-0.0,-150.7,39.51,72.05,1.7,1.38,1.06,2.1,0.62,0.21,-116.91,63.72,112.44,0.26,0.51,0.26,1.05,1.73,2.29
1.17,-128.5,66.63,178.85,0.09,0.11,0.02,0.52,0.05,0.25,-101.92,85.76,128.11,-0.05,0.08,0.16,0.33,1.02,0.25,-149.9,40.52,74.87,1.66,1.14,0.81,2.75,0.23,0.01,-116.56,63.82,112.3,0.14,0.13,0.02,0.49,1.85,2.27
1.18,-128.59,66.58,178.77,-0.08,0.02,0.19,0.45,0.24,0.34,-101.89,85.76,128.18,0.17,0.03,-0.16,0.27,1.45,0.23,-147.61,43.26,80.98,1.48,1.19,0.82,2.81,1.78,0.97,-117.12,63.96,111.75,0.05,0.09,0.41,1.38,1.95,2.61
1.19,-128.7,66.46,178.78,-0.04,0.14,-0.03,0.17,0.41,0.28,-102.17,85.98,128.1,0.32,0.05,-0.06,0.49,0.87,1.08,-146.96,43.99,83.86,1.42,1.38,0.46,2.5,1.85,0.58,-117.16,63.61,110.89,0.18,0.04,0.73,1.83,2.18,3.75
1.2,-128.68,66.58,178.75,0.05,0.07,0.05,0.34,-0.06,-0.08,-101.85,86.18,128.04,0.36,0.22,0.05,0.21,0.6,1.89,-146.34,44.59,86.75,1.1,1.12,0.36,2.18,1.02,0.73,-117.61,63.11,109.62,0.78,0.52,1.33,2.76,1.31,3.42
1.21,-128.1,66.88,178.81,0.08,0.16,0.18,0.28,-0.01,-0.01,-101.35,86.34,127.93,0.42,0.09,0.14,0.1,0.6,1.24,-146.41,44.75,89.18,1.12,0.97,0.37,1.77,-0.16,1.22,-117.41,62.1,108.53,1.02,0.28,1.32,3.15,0.52,2.49
1.22,-128.11,66.79,179.04,0.24,0.11,0.11,0.4,0.53,0.15,-101.04,86.48,127.81,0.07,0.12,0.26,0.35,1.96,1.25,-146.25,44.97,91.24,0.97,0.86,0.41,1.66,0.55,1.54,-116.34,61.76,108.23,1.14,0.46,0.81,3.85,0.98,3.76
1.23,-127.55,66.8,179.66,0.28,-0.03,0.23,0.32,0.9,0.31,-101.28,86.59,127.95,0.49,0.4,0.15,0.72,1.04,1.14,-145.3,45.38,93.48,0.87,0.91,0.35,1.49,0.45,1.65,-115.88,61.22,108.59,1.4,0.84,0.45,4.62,1.58,5.64
1.24,-127.09,67.06,179.66,0.4,0.22,0.13,1.16,0.89,0.65,-101.35,86.71,127.37,0.08,0.26,0.32,0.95,0.25,2.01,-144.44,46.11,95.41,1.06,0.32,1.01,0.95,0.69,0.93,-114.17,60.19,109.59,1.53,1.01,0.29,4.58,0.72,5.08
1.25,-126.7,67.57,178.88,0.14,0.17,0.21,1.7,0.91,0.11,-101.27,87.05,127.65,-0.02,0.27,0.13,1.47,0.81,0.31,-142.53,47.82,99.8,0.86,0.68,0.93,1.93,0.05,0.62,-112.06,59.11,111.51,1.81,0.85,0.33,4.19,0.66,4.81
1.26,-126.18,68.15,177.67,-0.03,0.23,0.2,0.95,-0.1,0.49,-101.05,87.15,127.07,-0.1,0.41,0.36,1.56,0.51,0.18,-141.09,48.35,101.71,0.59,0.91,0.74,2.0,0.6,0.55,-109.5,58.03,112.81,1.86,0.68,0.49,3.43,0.14,4.54
1.27,-126.06,68.32,176.79,0.03,0.4,0.39,1.77,0.65,-0.09,-100.74,86.81,126.77,0.09,0.09,0.26,0.67,0.26,0.68,-140.15,48.89,104.01,0.86,0.61,0.66,1.57,0.85,0.22,-106.56,57.22,114.26,1.92,0.27,0.23,3.8,0.74,3.75
1.28,-125.23,68.89,175.35,0.37,0.43,0.44,1.09,0.64,0.12,-100.52,86.36,126.18,0.22,0.05,0.35,0.22,0.4,1.04,-139.0,48.97,107.8,0.46,0.91,0.28,1.5,0.43,0.77,-103.75,57.05,116.26,1.55,-0.03,-0.08,3.5,0.36,3.71
1.29,-123.93,69.71,173.21,0.58,0.54,0.64,0.61,0.28,0.14,-100.05,85.85,125.66,-0.01,0.21,0.37,0.41,0.55,1.53,-139.25,49.25,109.5,0.48,0.62,0.35,1.7,0.1,0.86,-103.88,57.24,121.13,1.16,0.02,0.57,2.89,0.4,3.6
1.3,-122.01,70.04,170.44,0.93,0.4,0.57,0.23,0.12,0.36,-99.37,85.38,125.44,0.3,0.11,0.38,0.37,0.43,0.76,-138.58,49.49,110.74,0.46,0.54,0.65,1.52,0.51,0.45,-101.36,57.75,123.1,1.46,0.64,0.22,3.08,0.39,2.41
1.31,-120.51,70.49,168.31,0.71,0.44,0.43,0.72,0.31,0.7,-98.67,84.84,125.0,0.23,0.46,0.37,0.25,1.03,0.64,-138.0,49.72,112.25,0.42,0.44,0.61,0.43,0.87,-0.05,-99.83,58.73,122.82,1.15,0.81,0.76,2.72,-0.0,2.37
1.32,-119.85,70.79,167.39,0.17,0.18,-0.16,2.05,0.12,0.19,-97.9,84.52,124.72,0.33,0.34,0.25,0.21,0.22,0.37,-137.64,50.03,115.22,0.27,0.63,0.65,0.96,1.08,0.28,-99.83,59.75,121.8,0.87,1.37,1.49,2.45,0.39,1.66
1.33,-119.21,70.84,166.28,0.21,0.08,0.19,2.25,0.62,0.66,-97.26,83.89,124.54,0.28,0.36,0.21,0.62,0.59,0.17,-137.67,50.21,116.65,0.13,0.5,0.56,0.63,1.39,0.23,-99.18,61.21,119.27,0.87,1.85,1.36,2.67,0.41,0.51
1.34,-118.32,71.32,164.73,0.15,0.22,0.18,0.79,1.28,1.0,-96.49,83.01,124.28,0.47,0.5,0.38,2.06,0.79,0.02,-136.15,51.02,119.08,0.02,0.4,0.59,0.11,0.81,0.43,-100.4,65.59,111.44,0.27,2.67,1.53,2.19,0.95,1.54
1.35,-117.99,71.26,164.49,0.51,0.03,-0.05,0.6,1.46,1.12,-95.86,82.65,125.02,0.62,0.23,-0.08,0.68,1.52,0.08,-136.35,51.05,120.19,0.11,0.35,0.61,0.42,0.36,0.89,-101.15,68.42,111.45,0.07,2.76,1.24,1.67,0.62,0.92
