0.01,-369.1364628166282,43.413769712733206,167.8593265142907,0.2162214730287834,2.1350405720236587,0.4595203221384979,0.0639730395689529,0.6940437119145559,1.593843357141985,-153.17625937458672,84.82652997951988,4.601033538795325,0.0776904496102716,0.0972508752386857,0.0714450508338626,0.093780328265268,0.0572718700996742,0.3257053445923196,-184.2382739452711,3.2059830839509704,11.47205521288125,0.1483717735962763,0.085197574032757,0.5171842046901582,0.181390958738611,0.0645627879607971,1.1206916417272963,-161.49550950633002,15.23035774860229,17.621152151457682,0.0098084209675897,0.0100451829555916,0.0179481678553969,0.0152437482412335,0.1093044630792238,0.0028860627423158
0.02,-369.6791405884265,42.15449354422152,167.794445867881,0.2508927890056875,2.1647300548427557,0.429439946860994,0.4773160067806843,0.8107214101390268,1.7681362845228927,-153.3471120965325,85.16948982793215,4.174943738300723,0.0767768182174984,0.1662193985078728,0.0567870417487141,0.0385107667798169,0.0744898089766119,0.3605831905294029,-183.47174980094024,3.291248926115736,10.979732002766536,0.1835949238319561,0.0890019400662781,0.5926432696280984,0.2655386869760821,0.1368069487286691,1.6825377813525886,-161.52888406381803,15.224540899914851,17.617128468903655,0.0112266085700448,0.0123393180333265,0.0192518499738301,0.0187032605899371,0.1083137103003524,0.0031431940876181
0.03,-370.26888647509327,41.02615841889386,167.76925824729108,0.2842444338672866,2.1960262770041714,0.4044202721272246,0.8706543654722195,0.92462007203426,1.927034277683824,-153.51530596601137,85.50223141358131,3.7851901853300647,0.0759235129334059,0.2385489871588363,0.0436852317946693,-0.0038768229234235,0.0935110915961841,0.3952578557617575,-182.69637606944403,3.3731776809075087,10.490251690097482,0.2175962395451904,0.0925796009740896,0.6622625291246438,0.3488758863210253,0.2100827888015222,2.2114059164934807,-161.56118599439944,15.21989757954341,17.611977836277738,0.0127788505503367,0.0145989363504139,0.0208602627528222,0.022183995904371,0.1069732733337204,0.0049022078036433
0.04,-370.9298398204435,40.16625229938542,167.82078495603605,0.3154172379421033,2.228955198320054,0.3877396460287247,1.2247508414728725,1.0334909877158265,2.055926274235928,-153.66943794385622,85.77816890318928,3.482980772121958,0.0754311014419554,0.3171979893860503,0.0333241262625,-0.023843730478622,0.1147038880183327,0.4309419205467072,-181.90083567974244,3.452046369985012,10.01308401225202,0.2489936228779673,0.0957979641415227,0.7221618678771672,0.4301516655576362,0.2845668336822595,2.679188148470033,-161.59012092586994,15.216261207777274,17.604221455568812,0.0145114921212251,0.0168084456930463,0.0229552333037839,0.0256945991035029,0.1050800134060593,0.0086607170382131
0.05,-371.6743903108192,39.69043525947727,167.98184343274812,0.343515057792612,2.262322329801169,0.38170627922489,1.5240723268314231,1.135076032701228,2.142733294258995,-153.79795907247328,85.95093395252854,3.317200575670403,0.0755413448508566,0.4046439013148833,0.0266930164712755,-0.0130013377539812,0.1381585622116549,0.468370889309178,-181.07765858676896,3.528655370446928,9.55864000640802,0.276691157927058,0.0984448650632257,0.768922538043405,0.5077010485785939,0.3597288693659054,3.0620689217215054,-161.61347747488767,15.213474873127486,17.592505454034235,0.0164468584849807,0.0189400186476792,0.0256659571580718,0.0292767404308089,0.102497430720999,0.0148163009771038
0.06,-372.49971442547945,39.68356212650046,168.27818235142394,0.3676393957633258,2.2935216926176696,0.3874025927044052,1.758091331841907,1.2271598833419797,2.1789885560071123,-153.8897194995229,85.97628636035637,3.332102710484281,0.0764387213714722,0.5026310431879816,0.0245273381294636,0.0353720041875515,0.1636480452496843,0.5076528433110046,-180.22444749650447,3.6043468749648446,9.138199601319116,0.2999902322446192,0.1002373512201463,0.799790795833901,0.5794425254150584,0.4341684366787776,3.3421301136231008,-161.62923925362148,15.21137123685192,17.575693546721908,0.0185776763092997,0.0209497579706691,0.0290452018719121,0.0329932320586302,0.0991695855573234,0.0235947547942143
0.07,-373.3862666233824,40.193709036102256,168.72601970376527,0.3869708082977704,2.318685675329755,0.4045780943450904,1.9220780623953413,1.307719811731766,2.160606887033277,-153.93455358008674,85.81404192473137,3.5648830966808944,0.0782571832963302,0.6119748146995921,0.0272615431348077,0.125825808499307,0.1906115031202513,0.5482370741435593,-179.3444213398738,3.6809396873442353,8.763580067747302,0.3186472615745955,0.1008573473726709,0.8129178223764669,0.642999322043436,0.5055945994775171,3.5084990290459204,-161.6356986269737,15.209735494194812,17.552951083043876,0.0208635568531495,0.0227778714672967,0.0330528804568808,0.0369108693485077,0.0951262292193616,0.0349805936674404
0.08,-374.29854242764446,41.22980035640653,169.33014644608474,0.400886154774289,2.333140146687506,0.4317075577751498,2.017244758173805,1.3751332190081005,2.088225051166143,-153.92388241177645,85.42995923244119,4.043246333760384,0.0810901850599378,0.7324379363472178,0.0349970418585156,0.2602713612078794,0.218168613793524,0.5890066605893922,-178.44618752848478,3.760578623498385,8.446549725376808,0.3328669540437341,0.100009671944988,0.8076006308529527,0.6959442126906003,0.5709730915383464,3.557941718467295,-161.6315669540362,15.208256071083358,17.523815796042985,0.0232302666568356,0.0243531898510273,0.0375491499844871,0.0410784636170671,0.0904777825427199,0.0486564824303687
0.09,-375.1881402292756,42.76302337882484,170.08271207644646,0.4090877691493756,2.332061118713103,0.466205123213217,2.050174653064796,1.4283795565450574,1.9670226836315543,-153.85129987050257,84.79749922557548,4.7831516253483,0.0850024457575323,0.8626868132802415,0.0474889955496259,0.4375973115316676,0.2451721016492724,0.6284838197456405,-177.54275217541343,3.845508855939826,8.198044121400494,0.3432304057050346,0.0974926310224434,0.7844691933055055,0.7361371908679266,0.626842524080305,3.494853881398901,-161.61607340784943,15.20647134674777,17.48824996885442,0.0255725642615985,0.0256015072689321,0.0422984411307522,0.045500877961108,0.0853999612901697,0.0639587806381448
0.1,-375.9987888555079,44.73171036014933,170.96276984889914,0.4117132837947311,2.311191859180292,0.5047587942311951,2.031598714611552,1.46717526806944,1.8060146524513845,-153.7130993254702,83.89934898612967,5.787001500813135,0.0900426024048031,1.000328277215524,0.0641555517008425,0.6534256851293326,0.2703031949845861,0.6651220844364502,-176.64988559361834,3.937795886049222,8.027284945054312,0.3505697653005624,0.0932682274593375,0.7455599738983656,0.7620931722267744,0.6697714505936337,3.330661380382747,-161.5890424740978,15.203724327471358,17.446668394368498,0.027761142875331,0.0264563190674075,0.046984815784201,0.0501109287028336,0.0801095815501162,0.0798571139386722
0.11,-376.6726167579948,47.04889497867919,171.9366301898167,0.4093953580557671,2.267480917425442,0.5437312870975787,1.974728007722583,1.491999687979075,1.6169190208980586,-153.50869388205132,82.72858871735083,7.042581984959868,0.0962560682999021,1.1420205355737894,0.0841122652312788,0.9000787890691664,0.2922082160352253,0.697641494042148,-175.78406050528778,4.039020010175039,7.940927624116953,0.3558123326368571,0.0875185581901696,0.6942276934385623,0.7732961242845842,0.6968931440973708,3.082700743771697,-161.55093981083505,15.199140175411008,17.399937161751925,0.0296536253492028,0.026869812162562,0.0512376964530153,0.0547426628225321,0.0748350568703976,0.094966516871394
0.12,-377.1566406648018,49.61146039856571,172.95904414174956,0.4032484504352272,2.199535983566737,0.5795670335818425,1.893437067351056,1.503997366772542,1.412795055388001,-153.24088372110728,81.28937862550302,8.52305803716942,0.1036965737604149,1.2836493854618645,0.1062326208033787,1.1668271460017867,0.309667343826923,0.7253404338463627,-174.9602544320245,4.149978879832161,7.942367289656123,0.3598236037385691,0.080677368421078,0.6348742573469669,0.7703800180138599,0.7064231986741895,2.772692989372737,-161.50287817525304,15.19164264998638,17.34934017911965,0.0311087703938479,0.0268217054035211,0.0546653955860374,0.059111135690941,0.0697864190383795,0.1076004951106888
0.13,-377.408413530513,52.30973879926653,173.9752070343912,0.3947732194971713,2.1078379565630847,0.609151796618206,1.8005935916242144,1.504771853425029,1.2066732243581284,-152.91592982496132,79.59705036416528,10.188249502082812,0.1124333541527826,1.420561336092354,0.1292325630474044,1.4404686762952086,0.3217816829312458,0.7483025671524193,-174.18994026142025,4.27043138514933,8.031313158020753,0.363278616778374,0.0734301144491698,0.5725115625880466,0.7551288836058047,0.6980517483741019,2.424945762184615,-161.44657968463252,15.180023705625572,17.296513183072236,0.0320023179314398,0.0263239036175794,0.0568924246656588,0.0628047412984871,0.0651295324205209,0.1158716117036871
0.14,-377.4000399752071,55.03654530513942,174.92353540301738,0.3856867180052744,1.9947070524819956,0.6300876290330261,1.7067672252076662,1.496109058590473,1.0103649395057597,-152.54340383986894,77.67751081029546,11.987248110859788,0.1225497138052631,1.547845810788726,0.1517728732165502,1.7062453743974817,0.3281618269532956,0.7674315840716404,-173.4795679130716,4.398910119298507,8.203701048758376,0.3665832728312073,0.0666805399667744,0.5122138061278662,0.7302956478727465,0.6731209714377625,2.06442750690812,-161.38429638427124,15.163075272441436,17.243348304968688,0.0322424099644548,0.0254198705596381,0.0575960025162614,0.0652959599769132,0.0609677935154577,0.1178426523590732
0.15,-377.1201959290838,57.6948535444267,175.73912741338506,0.3777048992618555,1.8640494555061184,0.6408648095136852,1.6194615538715371,1.479681279292297,0.8335694429275141,-152.13579759680388,75.56591356595703,13.862204364130566,0.1341287351736258,1.660655605915872,0.1725688106769229,1.9490372949409391,0.3290969324898237,0.7842967696505101,-172.82976151615188,4.532620085427037,8.451960797472108,0.3698541125130302,0.0614853747628748,0.4585425682294231,0.6992812421447202,0.6345489554570972,1.7148672114303618,-161.31869562589986,15.139784052131375,17.191875432795474,0.0317823803870831,0.0241788878531283,0.0565380110510957,0.0659748699868233,0.0573332405730968,0.1117262731286192
0.16,-376.57418299067984,60.2035870914125,176.3577585839372,0.3723158721414748,1.7209379531819988,0.6409260774811268,1.5429162675227908,1.4567906176039778,0.6833198714723241,-151.70789145002874,73.30463204937803,15.752875953308171,0.1472236809598257,1.7545475005077042,0.1904931604846555,2.154698883645044,0.3256769534580079,0.8008336082652611,-172.23533357573817,4.667432152539998,8.765601988353174,0.372950730822441,0.0589615249240256,0.415035403434091,0.665736414067815,0.5865237356457939,1.397046210015581,-161.25271837243216,15.109580048852024,17.144129068879145,0.0306290108432498,0.0226865771266149,0.0535905863268315,0.0642070967426007,0.0541884834195427,0.0961248106818649
0.17,-375.7823200038621,62.50127468397806,176.72017741684968,0.3705819986878584,1.571096586314655,0.6306252790996159,1.4784292397556498,1.4282116166646075,0.5637545451948957,-151.27589971356832,70.94067042382802,17.601366392501944,0.161814297609473,1.825815392211229,0.2046587368275045,2.3113497763056428,0.3198373978495356,0.8189821622345205,-171.68608035648094,4.797974484392528,9.13203915930744,0.3755441604409443,0.0601730818838039,0.3838354877514504,0.6331486723764566,0.5340395914515425,1.127448502931132,-161.18941701959602,15.072618969118432,17.102010867173856,0.0288451498324035,0.0210338793714469,0.0487555791341485,0.0594146132679339,0.0514408385840296,0.0702953397861706
0.18,-374.77713205831066,64.54757234266124,176.77635994524488,0.3729985064227205,1.420367292261063,0.6110884602624582,1.4250635045935574,1.394177246838602,0.4761697995598982,-150.8564376488314,68.5227493245801,19.356446012166124,0.1777559057004705,1.87178104802448,0.2144707235681275,2.4104315961317138,0.3143026926689076,0.8403517968912745,-171.1682046162435,4.917823631459163,9.537552021349905,0.3771997769178205,0.0660087789199828,0.365512670200762,0.6044670571330282,0.4823651520369682,0.9174037426328182,-161.13177600784564,15.030069050733008,17.06715844938503,0.0265467526097611,0.0193069260108637,0.0421792186206991,0.0511744711848418,0.0489695494255176,0.0344186928140944
0.19,-373.5998594162804,66.3228676135458,176.48930326780098,0.3794236723052883,1.2742284614129322,0.5839964180395001,1.3805491375521473,1.354518589497888,0.4193001488617455,-150.46538631825825,66.09836501237753,20.9769391897417,0.194734618453377,1.8910081780771175,0.2196465532468866,2.4473971097000726,0.3124205845421191,0.8659848706169034,-170.66613462354675,5.019795702824128,9.968267287945986,0.377454890830922,0.0770631338069142,0.3590933815185499,0.5818082829430044,0.4365225409581323,0.7727893608373966,-161.0825157298358,14.984365493374291,17.04083038581077,0.0238955462216047,0.017579905119159,0.0341630342846617,0.0393273937354447,0.0466654116505198,-0.010154568801146
0.2,-372.2967837323949,67.82632479280538,175.83793848084483,0.3890862439264824,1.137408279792867,0.5513225653992928,1.3421798502281963,1.308928065491392,0.3897719144878153,-150.1167597119618,63.71111505991902,22.43384482358974,0.212245740033028,1.883417080322726,0.220207591039661,2.421979496844938,0.3178978284761006,0.8962630818708405,-170.16447812545368,5.096333365856212,10.411054776257274,0.3758776602138559,0.0935354969802558,0.3622848865762039,0.5662799644824641,0.4008333884512481,0.6942725706747275,-161.04388015393832,14.939391311639294,17.023815491189687,0.021089203302582,0.0159122792501427,0.0251707691139199,0.0240854664426275,0.0444797480269779,-0.0607127548565643
0.21,-370.9157721194836,69.07279470742822,174.8188387897771,0.400669173384721,1.0136033771206765,0.5150714211405202,1.307539020594374,1.2572792867620024,0.3826800255790985,-149.82169235211933,61.39851401884162,23.71107808572246,0.2296101600878418,1.8502956809698317,0.2164499165728871,2.3380622372961577,0.3344593390886356,0.9309602947882556,-169.6498614439713,5.139975249064112,10.854249838802073,0.3721025196460045,0.1151604602310808,0.3718531264722422,0.557943609884785,0.3785644531506432,0.6779966215078044,-161.01741192093647,14.900542920422382,17.016372198403648,0.0183508500527587,0.0143507828676191,0.0158293928354642,0.0061262788711136,0.0424772997322791,-0.1130800012963216
0.22,-369.5033019942114,70.08901561794241,173.4465529998882,0.4124619935067929,0.9052968778618766,0.4770633606573569,1.2749536665535544,1.1999116386654558,0.3922359524247062,-149.5876613767326,59.190422114587776,24.804927180324132,0.2460354692974529,1.7942185685450749,0.2089012721647083,2.2032157907356105,0.3654580990459722,0.9694013122658098,-169.11244649226697,5.1438822248883,11.288143914584726,0.3658450614354486,0.1411808249930518,0.3840959228241786,0.5559181087852775,0.371689096422055,0.7165709345438128,-161.00372452231767,14.87464308787448,17.018201143343184,0.0159190134447843,0.0129357239981417,0.0069211422604552,-0.0133399142165075,0.0408860277082756,-0.1616340891266506
0.23,-368.1020895701789,70.90950526949476,171.7525534673625,0.4225657430895935,0.813674760017032,0.4387975464183151,1.2436486787136332,1.1377881301979906,0.4124257022991633,-149.41803667967784,57.108117068908825,25.72247072749787,0.2607171306916042,1.7188906240075772,0.198269557386887,2.027985013011683,0.4134661430892589,1.0106522329734384,-168.54698014206951,5.10238277439193,11.705220302871624,0.3569043076790276,0.1703706380362616,0.3953452662434421,0.5585985826843534,0.3807706040449299,0.8002160013575144,-161.00228755749131,14.86967400627332,17.028451482053992,0.0140380870621009,0.0117103446927804,-0.0006367382813637,-0.0325429660322417,0.040136323375414,-0.1994720320183575
0.24,-366.74933612682986,71.57250805484382,169.78292120883032,0.4291253344778158,0.7386487548837717,0.401401697183564,1.213644315466275,1.07247274999871,0.4376091563848749,-149.31201796397252,55.16397463627424,26.47928398656444,0.2729632417152495,1.6289276274012203,0.1853863016364922,1.825009251111643,0.4798834529126984,1.0536615730639032,-167.95330019294252,5.011489731720043,12.100147828705811,0.3451619951584355,0.2011105284977297,0.4024325919900027,0.5639459065690541,0.4049660172813294,0.9179287575484756,-161.0112459582399,14.894319326165542,17.045759024238,0.0129484890188454,0.010731388940725,-0.0058271544013347,-0.0491766776671807,0.0408825085318155,-0.2187403781342229
0.25,-365.4755457945777,72.11631386718187,167.5949990160024,0.4305575613952822,0.6789901491961066,0.3656543316633288,1.1854929257545788,1.0059393754003998,0.4629968317984005,-149.26496994152555,53.36168905153952,27.09677975775138,0.2823171757088394,1.5295820569394896,0.1711470186592332,1.6080470370473552,0.5646117703822021,1.097300519415594,-167.33629189894486,4.869335224244887,12.469575972063948,0.3305871562462572,0.2315108353784321,0.4030580850587073,0.5697959179103623,0.4421427676917714,1.058558236739671,-161.027296496189,14.957325093474005,17.06831211587184,0.0128752193767122,0.0100786062835377,-0.0075844392411293,-0.0604817267022496,0.044000490868428,-0.2111331642557938
0.26,-364.3038515141262,72.57619861890852,165.25332797487724,0.4257417719786396,0.6325623825522425,0.3320514135462336,1.1599681664647752,0.94028483289396,0.4849611375660896,-149.26911032149903,51.69695050686695,27.59949807840289,0.2886487840770843,1.4264253225599446,0.1564498752149603,1.3909696720244809,0.6658471873903737,1.140305843393124,-166.70535238271574,4.676471400407091,12.811797103406528,0.3132506090504356,0.2595707294770142,0.3960189683268784,0.57414283425047,0.4890944802215329,1.2117078775113213,-161.04564511348264,15.0667139225981,17.093939450779796,0.0140136607418258,0.0098607525095845,-0.0048613089554292,-0.0633914070255869,0.0505569608494412,-0.1685427523832585
0.27,-363.2497922330787,72.98215307087986,162.82523327902138,0.4141461660756564,0.5966241794543545,0.3008878587906262,1.1377965350127652,0.8774420035414108,0.5011695834085759,-149.31444874017944,50.1584908194,28.012597312492854,0.2921890213667449,1.3250057347320878,0.1421348280995849,1.1867863217640144,0.7800410073989312,1.181183186157866,-166.07347088789174,4.435992858685536,13.126351564777853,0.2933487669869909,0.2833555079971827,0.3812727773773582,0.5753618307407472,0.5418356624575761,1.3684061210780754,-161.0600669381492,15.228912521793545,17.12021283164878,0.0165122122696328,0.0102158535086955,0.0032908440075955,-0.0547383896782365,0.0617476546598749,-0.0838281392247883
0.28,-362.3214943409808,73.35747768956338,160.3764320135279,0.3958742483623058,0.5681666106365445,0.2723313421006247,1.1194767409566382,0.8189710573609574,0.5105547724420564,-149.38983265633593,48.72940455040577,28.35972614769829,0.293494922268985,1.2305063390651887,0.1289267649958727,1.00676407024011,0.9020599924925488,1.2181528976470215,-165.45606287757883,4.15345239749019,13.413647816398878,0.2712304571873972,0.3011713108294071,0.3598383910731489,0.572347073299236,0.595948344014382,1.5215082801086035,-161.0630866665791,15.447877494736028,17.144557523627032,0.0204525661678421,0.0113041781367837,0.017632923028277,-0.0315139481982183,0.0788051063086954,0.0483566287803995
0.29,-361.5202135104863,73.71823606937626,157.96700430679948,0.3716295088167781,0.5442448326271958,0.2464751942938783,1.1051966276222314,0.7659678305346282,0.5131529727303604,-149.4839436129002,47.38865298278781,28.66138522928946,0.2933491399899451,1.1474236682778454,0.1173875900843984,0.8597040310628264,1.0255467908360647,1.2492031969627602,-164.86969956440606,3.8365629122001184,13.674653348781112,0.2474159601516838,0.3117173890389312,0.3335646580048702,0.5645556648915655,0.6469514304197871,1.6658145864128708,-161.04628929690284,15.72432483300048,17.164363279107274,0.0258298646874971,0.0132935127060385,0.0386475397885118,0.0088366560055751,0.1028800517304056,0.2307520600757337
0.3,-360.8411878396564,74.07348313867382,155.64801507036802,0.3426088073435933,0.5222659255140465,0.2233654599113759,1.094841550217669,0.7190879435576716,0.5098518119823006,-149.58611217583217,46.11266625684535,28.933827220113475,0.2926153787579919,1.0792814479291442,0.1078830791954779,0.7514250901031977,1.1434453088464385,1.2722669953892765,-164.3308535049766,3.494702219920206,13.910686343130456,0.2225966237496321,0.3141998860722371,0.3048158957694324,0.5519664169795252,0.6906676150584488,1.7979209198353832,-161.00075960128484,16.055180318049587,17.177090320175424,0.03253627477178,0.0163377620476711,0.0664564547840192,0.0681069216914862,0.1349049990022024,0.4627951264386622
0.31,-360.2747407768044,74.42612223572296,153.4590066269423,0.3103447963876763,0.5001999963755271,0.203004004745645,1.0880830307901468,0.6786533358934885,0.5020920285425324,-149.68687667510497,44.87697348641777,29.188498082858665,0.2920818050100435,1.0283900301497924,0.1005699433791205,0.684490062719211,1.2486250233035865,1.2854861329941696,-163.85474736383728,3.138261867383532,14.123309945243625,0.1976075207346574,0.308396090531091,0.2761297802746509,0.5349797144707478,0.7235676408307224,1.915860180840204,-160.91763405712945,16.43336611239577,17.18036660571717,0.0403523341035357,0.0205513144125165,0.1007570985860901,0.1470413697749411,0.1754526561834988,0.7401350245542675
0.32,-359.80755559188674,74.77420328628232,151.42650713766935,0.2765237380841544,0.4766931586360463,0.1853346780743562,1.0845334760149783,0.6447897020862716,0.491567104774996,-149.77828005490352,43.65780595591287,29.43198816977866,0.2923248700227142,0.9956662501945108,0.0954062136476089,0.6581898080753645,1.334522638875126,1.2874963714444032,-163.45436274419637,2.7779034475837032,14.314307899871356,0.1733733423009021,0.2946629717330298,0.2498964146265894,0.5142919746629955,0.7430704535847531,2.0186291042450244,-160.7887330771086,16.84801775864736,17.172075647978737,0.0489504563672947,0.0259827269284657,0.1407889502069267,0.2451033512925136,0.2246048586937445,1.054457952640208
0.33,-359.4240283110814,75.11245603324986,149.56362337592506,0.2428056481411747,0.451075199691494,0.170221721827464,1.08395190995053,0.6175425168097264,0.4799564512528901,-149.85395489593105,42.43362754819511,29.666433544490523,0.2936165083171771,0.9805363327237132,0.0921840154906322,0.6687850172350437,1.3957194598953186,1.2776669918147292,-163.13964783371014,2.423803088476479,14.485707064748016,0.1508353216692698,0.273888850684304,0.2280927839299144,0.4907723088971427,0.7477718352063409,2.10570958693894,-160.6072265947495,17.285180134689664,17.150437734820837,0.0579140401895293,0.0325919697015486,0.1853379896050245,0.3603347201473794,0.281848704140277,1.393692381551341
0.34,-359.10760049663537,75.43385768939481,147.8707168942377,0.2106690209107363,0.4232698721565399,0.1574287558548263,1.0864817632322847,0.5969354032863197,0.4687154605930276,-149.9090706918335,41.18654344702884,29.89028100388208,0.2958839422791227,0.9809494802936276,0.0905794059780372,0.7099928744514145,1.4283837157909365,1.2562486912079116,-162.91695219559358,2.0849709519419486,14.639809838628226,0.1308709418996867,0.2473937521112955,0.2120910708113239,0.4653569903224109,0.7375729709437717,2.17668009731426,-160.36827483713793,17.728956786439788,17.11409103332237,0.0667736449215568,0.0402356109729291,0.2327824155251928,0.4893376868570455,0.3460155804979496,1.7426251798182155
0.35,-358.8419801980866,75.73106256693077,146.33709620879347,0.181295262999661,0.3936320410889318,0.1466047119713143,1.0928840685512822,0.5829616866834872,0.4589330074448747,-149.94021025273693,39.90352093631286,30.099305743045377,0.2987204993022455,0.9935249660969544,0.0902108691137492,0.7736894024510789,1.4305302974753027,1.224406339703217,-162.78870400183445,1.7687231259580387,14.77920539668322,0.1142178129484423,0.2167922954537536,0.2025473437196385,0.4389687758185827,0.7136905689942428,2.2309824142224004,-160.06958124347267,18.162990625614864,17.062181903615596,0.0750587691126733,0.0486637853837248,0.2811761281347359,0.6273961232681238,0.4152753472196788,2.0839049853732887
0.36,-358.6121759589984,75.99756852870445,144.9435833552957,0.1555012110390158,0.3627501405163833,0.1372818141007477,1.1047042868940014,0.5755272521361012,0.4512554581875371,-149.94522069313877,38.57733214340907,30.28775636845183,0.3014409922256848,1.0138380832922274,0.090697071126102,0.8507716311754924,1.4020875413680003,1.1841345351063377,-162.75332603402043,1.4803587898305075,14.906739595278118,0.1014105718331995,0.1838397218979264,0.1993702115755588,0.4124650172812304,0.6785481328193091,2.267876338418675,-159.7117983499139,18.57206340812753,16.99447456173888,0.0823601797011913,0.0575314317323368,0.3283608131231855,0.7687355003695843,0.4871919300888112,2.3993509394602888
0.37,-358.4052900955852,76.2285519562942,143.66573295346114,0.1337222185274587,0.3312573719040335,0.1288896960440235,1.1243042662768352,0.5743771398074985,0.4458678944884037,-149.92306650869085,37.207114607940376,30.449505307065145,0.3031735013986809,1.0368244992712203,0.0917052465502114,0.9320898347971642,1.344799231280973,1.1380780088969085,-162.80536913761475,1.2230623658094308,15.0254372762226,0.0927372562298634,0.1502829538231255,0.2017658071165766,0.3866154792944786,0.6355644012284045,2.2865851261282693,-159.29873963995962,18.94356013039903,16.911486572913393,0.088394077131661,0.0664241567547177,0.3720959879973896,0.9069023630132368,0.5588392276997147,2.671433731433228
0.38,-358.2110409769782,76.42135681110928,142.4774148832382,0.1160423905070796,0.2996879687131822,0.1207876555694078,1.1547162170710463,0.5790334365844756,0.4425206242290023,-149.87370185304616,35.79845767673399,30.57910120363287,0.3029769470902986,1.0572586729460978,0.0929836473070737,1.0093338851850666,1.262009838223829,1.0893006658289612,-162.93583444695548,0.9980171559054004,15.138385507129756,0.0882195776621905,0.1177339358637443,0.2083538820078464,0.3621047108456118,0.588862630032199,2.286604694583314,-158.8373666969583,19.26857662219824,16.81464614548699,0.0930566321891464,0.0748964946578379,0.410198947220666,1.0352305202540066,0.6269697303825349,2.884764240226724
0.39,-358.0220092296848,76.57566580092156,141.354435309019,0.1022626316444273,0.2684008103378048,0.1123139326945821,1.1993157583642946,0.5887563751031714,0.4405913967992455,-149.79796865465707,34.36296526663577,30.672641929062976,0.2999700728929903,1.070249585131798,0.0943746482062211,1.0757592803527414,1.158376045435735,1.0410503218527212,-163.13265949818677,0.8046905604518547,15.24859846506517,0.0876189143340449,0.0875751028938182,0.2173474699996659,0.3395482951042594,0.5429237370492064,2.2681213136622613,-158.33753700352614,19.54253523273373,16.706450679677175,0.0964568026342484,0.0825178515748178,0.4406892777108877,1.1473531863581647,0.688223506499977,3.0274207501954504
0.4,-357.833628378248,76.69340980956613,140.27786850087386,0.0919924596298304,0.2375778307275964,0.1028482998876717,1.2613422801454497,0.6025299011647075,0.4391758597836987,-149.69751156816343,32.91731041563179,30.728402998759023,0.2934543523274332,1.0716974551446927,0.0958089754019327,1.1266750130701155,1.039530192676165,0.9965477877657136,-163.38135007817186,0.6412349106981327,15.358889597410714,0.0904663294184472,0.0609002600923032,0.226782998624832,0.3195114971758598,0.5022047531081723,2.232462741558239,-157.8115126468923,19.765272663388515,16.59058885406764,0.0989176517136138,0.0889196493745194,0.461932448736872,1.2377161873255105,0.7393616382976934,3.091967663305313
0.41,-357.6439630855778,76.77848392233744,139.2368026043809,0.0847491655371993,0.2072904121841171,0.0918831398497581,1.343316270022487,0.6190737577602479,0.4371960857176243,-149.57468630297274,31.48187121823772,30.74716968096629,0.2830133173040443,1.0586615537147588,0.0972852648099517,1.159668264470917,0.9117074946263892,0.9588081361767212,-163.6657386956195,0.5049429788931314,15.471771924706992,0.0961111625470675,0.0384898560943769,0.2347784249821283,0.3025214553645354,0.4707484187431142,2.182500409330756,-157.27324619842784,19.940645502394897,16.47197777084161,0.1009415078902161,0.0938365027598182,0.4727746223907516,1.3020452144738408,0.777506731345861,3.076060604381938
0.42,-357.4533342450449,76.83633291667455,138.23026888442604,0.0800483039333225,0.177613634626354,0.0790979764167032,1.4464268254807575,0.6368878510116145,0.4335121142606539,-149.4324360166378,30.079106433921574,30.73224379628757,0.2685749493726771,1.0295972939533091,0.0988415886072923,1.1745804355223646,0.7813465829397954,0.9304960913548866,-163.9688375755571,0.3927021726473653,15.589394952277209,0.1037798176905134,0.0208169434964017,0.239787277797904,0.2890662259663955,0.451819059828339,2.1229209273152234,-156.7374785851612,20.075753815487413,16.35666741511467,0.1031411602487984,0.0971348094769721,0.4726582983022067,1.3377202778334871,0.8003760340077933,2.9825889374007635
0.43,-357.2638581317074,76.87344909890228,137.2682217642422,0.0774726086363589,0.1487596812505595,0.064432028389536,1.5699851541830268,0.6543305632094459,0.4270229376623794,-149.27412480850404,28.73187279638324,30.689134879163383,0.2504303560620827,0.9844352014075208,0.1005257196518111,1.173266057952951,0.6546809693052215,0.9138220794963612,-164.27373482087694,0.3014035479121248,15.713512229823207,0.1126354337258482,0.0080779661100936,0.2408118777344252,0.2795753318849416,0.4476056826372468,2.060290148968749,-156.21870435819383,20.179912828603136,16.25157861730391,0.1061463332491416,0.0988239265392231,0.4617060163655057,1.3440148430709256,0.806498275072969,2.819368481535089
0.44,-357.0789674792824,76.8968009078793,136.37154506958024,0.0767117030433293,0.1212020073474146,0.0481484360975605,1.7110444967099276,0.6697214885142734,0.4167539313232198,-149.1033391283801,27.46188539197484,30.624992141355005,0.2292084048080001,0.9244987825721168,0.1023690140816576,1.159173846901295,0.5373501858779712,0.910487379920431,-164.5644674726389,0.2282774842437184,15.845462967576443,0.1218309758103197,0.0002406142928064,0.2375427345745946,0.274380385460636,0.4590284640834511,2.002846721704187,-155.7300812513821,20.26351088379139,16.16406649803319,0.1105002478628406,0.0990481246406497,0.4407566924608893,1.322167242761895,0.7954059307325353,2.598449613884451
0.45,-356.9029774944776,76.91319328549687,135.5711515768676,0.0775712099728207,0.0957700582383914,0.0308828201071821,1.8642664119997607,0.6814504756244512,0.4019380632264716,-148.9236835544701,26.288473163432272,30.547871346218884,0.2058116291405527,0.8522852026431366,0.1043664573128698,1.1367992292326925,0.4340652567459046,0.9216820238673868,-164.82680092165103,0.1711436104928527,15.986147692368824,0.1305526273224077,-0.0029000755389899,0.2304020495464696,0.2736622940248812,0.4856706173651418,1.9599902203922852,-155.2823815807493,20.33688201339426,16.101334876207734,0.116563655108701,0.0980614566590176,0.4113379743550818,1.2752675960954318,0.7677839959414301,2.335134405940043
0.46,-356.74075053171725,76.9285565299009,134.90630345699543,0.079955684785501,0.0737049018086869,0.0136684321401016,2.0220762810990203,0.6880753351010132,0.3820977911040108,-148.73859988833428,25.227701791365764,30.46594655290288,0.1813235062473659,0.771151252974404,0.1064637575387583,1.1110710982631529,0.3483603327378535,0.9481314651594396,-165.04884977783962,0.1285754296335929,16.135982125519977,0.138055510043752,-0.0016658488191242,0.2204840259307643,0.2773993000744655,0.5258403105491926,1.9414703803438904,-154.8830985873068,20.40929791007042,16.069761255322934,0.1244425985319426,0.0961915541229869,0.3755621296409274,1.2079625899186837,0.7255390240080918,2.0467989519311285
0.47,-356.5974991573523,76.94716887231246,134.422308938591,0.0838341720696968,0.0566741808434025,-0.0020692777721949,2.1751089077872066,0.6883983030320214,0.3571252777469923,-148.55123126198362,24.29185563044802,30.38677031391776,0.156899910458609,0.6849535299692409,0.1085512335295832,1.0867487823063926,0.2824523543389899,0.9901817128899576,-165.2214884895338,0.0999881593666456,16.29482324889878,0.1436973897309843,0.0035536801949057,0.2094004096020928,0.2853318240104007,0.576750836448124,1.9563338594037565,-154.53582385520514,20.488152738064645,16.07421770066487,0.133951777770104,0.0938006012534433,0.3359448527988865,1.1260012293076234,0.6717436461467644,1.751607132600695
0.48,-356.4787479642715,76.97083580509847,134.16775036589462,0.0891993553955765,0.0467484491510538,-0.0145544251998695,2.312907465920001,0.6815213134044568,0.3273519484220662,-148.36434336525895,23.48921391162277,30.31666510436569,0.1336576075060902,0.5976872483221812,0.1104635500055433,1.067909463591745,0.2372165350142294,1.0479091234303644,-165.33852081654464,0.0856611269873502,16.461873196781045,0.1469764503272845,0.0123388514543771,0.1990539639139389,0.2969548587343629,0.6347928742400518,2.011738624206426,-154.2399950726006,20.578382379785943,16.117482192327873,0.1446190168815309,0.0912512002536433,0.2951639054414129,1.0356663833696278,0.610426317028915,1.4671983683833478
0.49,-356.3904505864055,76.99807158883476,134.19138267439527,0.0960307252503636,0.0463407022663173,-0.0217424728614153,2.4248117511611413,0.6668888920424552,0.293600851674033,-148.18030650016004,22.82403590590348,30.260301200125696,0.1125716068602603,0.5131564336122988,0.1119846872313055,1.057591130095192,0.2122705846690342,1.1212379642517962,-165.3966061022051,0.0867047338239699,16.63557606686101,0.1475762344336469,0.0242653289545694,0.1913727683878927,0.3115407628671914,0.695863871752135,2.1117930779645664,-153.9910744612503,20.68213349992768,16.199824867562604,0.1557295030038366,0.0888818869265139,0.255791483333313,0.943157627874103,0.5462127860584725,1.209442408316593
0.5,-356.33923273229175,77.0233502909266,134.53882707052836,0.1042691911455315,0.0581084799343508,-0.0214429523239011,2.500952442315128,0.6443315231954244,0.257221599055383,-148.00113377691855,22.29668317725877,30.22048605435197,0.0943923531971791,0.4346966750502463,0.1128588197030472,1.0576242204835444,0.2061477580022732,1.210042046943093,-165.39497333060757,0.1049787151455198,16.813526975414007,0.1454156800453609,0.0389179269588437,0.1880421697902518,0.3281888741048331,0.7557199033521957,2.256601056258222,-153.78116297587837,20.79867993506039,16.318827598243317,0.1664027712216283,0.0869931741249115,0.2200435076509723,0.8540044269359176,0.4838670654803418,0.9913686448683386
0.51,-356.332707890693,77.03651090905339,135.24918503835005,0.1138062509804064,0.084815723816729,-0.0114803766452561,2.5332501503047844,0.6141167325677254,0.2201102167273654,-147.8285612026262,21.90384058111261,30.19816020444993,0.0795921874937598,0.3649655852473926,0.1128087373259843,1.068650854298069,0.2165296962577491,1.3141964564275732,-165.3349824927096,0.1429656547170265,16.99241072390674,0.1406968654086488,0.0558952706161938,0.190269017300145,0.3458940561854569,0.8103225867036787,2.4416853544538366,-153.59999546824608,20.92457326599422,16.46946170963622,0.175692201769349,0.0858415314439373,0.1895865296046934,0.7725872207843252,0.4278052219830204,0.8223764133544986
0.52,-356.3797921447074,77.02241106758244,136.35171304668629,0.1244867056059113,0.1291519908359886,0.0101138707867177,2.5163035464530523,0.5769999274835913,0.1847141216308223,-147.66414663454557,21.63883207504299,30.19256873667852,0.0683468146098317,0.3058134272519203,0.1115628267624216,1.0903022080580365,0.2405061585571775,1.4335379335276697,-165.21960821523757,0.2036034932582061,17.16798047797864,0.1339396632104844,0.0748086219010769,0.1986066962624685,0.3636225417383723,0.8561617483474243,2.6579246965060603,-153.43620934202713,21.054007727698504,16.644415439503994,0.1826960431295624,0.0856363957560204,0.1654301350205325,0.7018251164616339,0.3816574408224207,0.7078049835388726
0.53,-356.4909309825046,76.96092477527473,137.86272296372937,0.1361212217988147,0.1935109431073085,0.0448907731284553,2.448051425485318,0.5342525384603212,0.1540186921977684,-147.50936024294114,21.492047721298864,30.201559674852614,0.0605520745729808,0.2582416612252038,0.1088893137948115,1.1214821161072297,0.2748313452347331,1.5676965875639988,-165.05292063139538,0.2900839513524508,17.335077772122883,0.1259924895372596,0.0952790607204913,0.2128613608035223,0.3803802326011019,0.8905408841555811,2.8920754429899653,-153.2787419452834,21.17937357492769,16.83463476143976,0.1866690582791514,0.0865348071876177,0.147915616564366,0.6430596810014317,0.3479380441844195,0.6488928927354739
0.54,-356.6781475402039,76.82737027493839,139.78290223135207,0.1485041831604466,0.2797374515843159,0.0937711523753837,2.330116719576923,0.4876436620108648,0.1315075697257407,-147.36564143196466,21.451499161815597,30.221953701444445,0.0558708532579244,0.2224483913232062,0.1046333724131321,1.1606899899068663,0.3161544387804754,1.7157854493121223,-164.83962793531632,0.4056295792184853,17.48768769151075,0.1180121379960383,0.1169376587910136,0.2320902495759573,0.3952592788975008,0.911817410935057,3.127857845692512,-153.11819449428432,21.29196565143685,17.03001999356414,0.1871232659799798,0.0886300770980277,0.1367960454141061,0.5961353101528175,0.32785944665422,0.6431016838191171
0.55,-356.9548311289537,76.59343347233867,142.09527419324672,0.1614325005452324,0.3888604490803531,0.1568531364260125,2.167782491451748,0.4393643277966677,0.1210835958926608,-147.2344055659198,21.503506349039665,30.24993254583974,0.0538008381270505,0.1979481461377004,0.0987502959465357,1.2063106626992046,0.3612117181535313,1.875979178542849,-164.58473002452095,0.553268255367941,17.619020266095955,0.1114121214467026,0.1394322717815598,0.2546929171293145,0.4074563106438355,0.9195904513282904,3.347477378525873,-152.9480051034776,21.38280468512059,17.220206677037286,0.1839052522899349,0.0919346160271133,0.1313908814293953,0.5596527540879879,0.321302202558145,0.6847346512532471
0.56,-357.33520800430966,76.22862167525298,144.76403042732196,0.174721369917586,0.5208340992071918,0.2332643567375743,1.969600168763336,0.391900217740281,0.126932738874061,-147.11699606789875,21.633497513699957,30.281403000433087,0.0537516117803886,0.1837423748046694,0.0913274852255763,1.2568046719515062,0.4069763071324672,2.045064492245132,-164.29331426933672,0.7356274405652731,17.721611316987495,0.1077851994653133,0.1624414742317315,0.2785873319544508,0.4162677038185364,0.9148215981839672,3.5333595403396854,-152.7653008231496,21.44351834875583,17.395353530409125,0.177238023023281,0.0963613108966668,0.1307890992451164,0.5313525664955497,0.3269328409791036,0.7657562107682154
0.57,-357.8334718218374,75.70224245748578,147.73445108365274,0.1882131204413102,0.6743120263123102,0.3210829850195965,1.7466775538547434,0.3478691470252553,0.153312444448152,-147.0145906699357,21.82688375052147,30.31230596899468,0.0551195195604985,0.178511247205795,0.0825898260429775,1.3107569365503349,0.4507682599581407,2.2180775793230394,-163.97050014661735,0.954769022824502,17.78744057801892,0.1088089971672962,0.1856918067637031,0.3014555714556045,0.4210770694553543,0.8998626908026787,3.669840814720509,-152.57134530427163,21.467218551053424,17.546863915738736,0.1677187901526623,0.1017110121442607,0.1340676310655089,0.508568929160498,0.3424442080598501,0.8767116571435335
0.58,-358.46259574791884,74.98585248763266,150.93408184187342,0.2017758427542097,0.846479659729813,0.4173464628462329,1.5117317466773363,0.3098414278928843,0.2042506851845198,-146.92808190679534,22.069949702215897,30.338852329019755,0.057350710485497,0.1807994221921264,0.0728863221397039,1.366785633963296,0.4903311630205922,2.3881445761712565,-163.62151029964105,1.212078837619332,17.808068595668136,0.1161431927759232,0.2089712804175507,0.3210364017280098,0.421353077136242,0.8783595477278878,3.7445902851386825,-152.37155745841093,21.44930207201795,17.667979982586676,0.1562702078082846,0.1076744797482886,0.140487903217051,0.4886849812824108,0.3648797308986215,1.0076523367744137
0.59,-359.2328967868387,74.05605909135019,154.275263011708,0.2152900906189485,1.0329703221948277,0.5181579125835152,1.2780195511141377,0.2801567866996409,0.2831539604378563,-146.85795856628826,22.35068366919058,30.35767877145621,0.0599861093451417,0.1891756910064747,0.0626595807782003,1.4233590338167807,0.5238811406582355,2.5466158482591896,-163.25182116549885,1.5082151575813865,17.774795926827487,0.1313245096885208,0.2321327993349977,0.3354323674423838,0.4166710471988032,0.855008162095114,3.74961362204001,-152.17513605320354,21.38809528602816,17.754208281894964,0.1440498592475416,0.1138549543232455,0.149635312947904,0.4695231323548617,0.3909955640130482,1.1489816926942318
0.6,-360.1504698191964,72.89748509758866,157.659013842426,0.2286246804264359,1.2278917222715702,0.6188898119743858,1.0582739784114052,0.2607451921134521,0.3923423051859298,-146.8042146289506,22.65946098518604,30.36592733926429,0.0626860427126747,0.2023541084821134,0.0524030764302233,1.4785963867529872,0.5501319825755395,2.683540726441869,-162.86733989932225,1.8431110515658984,17.678850493678258,0.1556636690425002,0.2550866268917172,0.3433886373370998,0.406761121747407,0.8351587361344045,3.6817813775093793,-151.99437260172462,21.285263212291596,17.80355812555133,0.1323293803758691,0.1198127735318886,0.1614770525387434,0.4496188293004384,0.4176154455935773,1.2921536034593375
0.61,-361.21564792364455,71.50563497964816,160.98016064226155,0.2416055784076479,1.4239882508731885,0.714473782615895,0.8637709060156507,0.2529563983817428,0.5325536550169839,-146.76630523394178,22.98950149983412,30.361261599424303,0.065235928278816,0.2192709782429098,0.0426131834555906,1.530132701474665,0.5682977743481215,2.78846964564276,-162.47457127295664,2.216019112364607,17.511612994658655,0.1901471484869872,0.2777882868135446,0.3444960728204691,0.3915743499932669,0.8242878250827446,3.5429030983801475,-151.84375985268207,21.14591202993112,17.816594515860388,0.122359027119018,0.1251274557459425,0.176331616730193,0.4283496657686741,0.4419428282741854,1.4301745163691382
0.62,-362.4216699910079,69.88934243187757,164.13345549376714,0.2539838173274822,1.6129575751597698,0.7997545846254756,0.7036162458158471,0.2574076028241722,0.7024808543174791,-146.74315817656623,23.33704771548279,30.34183892207092,0.0675368301987035,0.2391188945734314,0.0337431390293392,1.5751059481161334,0.5780716195112293,2.8515070840269354,-162.08076887689552,2.625585055364613,17.26489375510659,0.2353464107430069,0.3002324362309668,0.3392794662431102,0.3713533298946375,0.827382839780849,3.339423415287723,-151.73900266398914,20.978334464594447,17.796322347460915,0.1152350073498974,0.1294671619396191,0.1947629561243128,0.405917103659744,0.4618104607578519,1.557878982316757
0.63,-363.7537407173368,68.07245115259514,167.02027058468985,0.2654089768006624,1.7859258341619146,0.8698767921285987,0.5842899837261476,0.273867742770811,0.8984159604187271,-146.7332382399893,23.70124954282762,30.30626135909645,0.0695854297171051,0.2613448494567599,0.0261646507560599,1.610285794598193,0.5795778645495958,2.864487016712988,-161.69408885055736,3.069939941383202,16.931272457165807,0.2913388960932153,0.3224614191680235,0.3291553857942841,0.3466984513486928,0.8483015915004259,3.081837800612859,-151.69601757953097,20.793377699910412,17.747926453198026,0.1117854792995475,0.1326520602392754,0.2174262384033652,0.3832003575895567,0.4758617778059477,1.6719637639503806
0.64,-365.1886503284238,66.09439450164851,169.55529773710964,0.2754147889836885,1.9340648579148552,0.9206668860551828,0.509433577377509,0.3012035322376027,1.1140769887310324,-146.73465285150857,24.083783263560896,30.253526755870897,0.07144782167734,0.2856215462662054,0.0201407841413971,1.6323260165075133,0.5732999942864585,2.822107975171724,-161.32376301585865,3.54680907336518,16.50450143021171,0.3576478302443345,0.3445906386109515,0.316273973486439,0.3186267587665049,0.8891838774002638,2.783915721333714,-151.72997800021497,20.603449706122024,17.67839383696101,0.1124873484745307,0.1346977865566287,0.2448965660667127,0.3615187122904384,0.4836633459639471,1.7707882752091246
0.65,-366.695085458996,64.00940564817353,171.67257267722567,0.2834237097079442,2.049310583024426,0.9489740961697848,0.4798395416050123,0.3374103071950752,1.3406821840228629,-146.74528206927624,24.488263485984927,30.182996483505427,0.0732312680439247,0.3118003100949911,0.0158118259327726,1.6381048531480151,0.5599953913352169,2.722851743476045,-160.98027815209406,4.053646520145128,15.979955180507517,0.4332091251198975,0.3668452888592938,0.3032813394021298,0.2886188238803223,0.9500034286143948,2.461791073291818,-151.85443466554966,20.42121804632505,17.59604231051099,0.117420804542586,0.1358277143861656,0.2775083026733483,0.3423488298339689,0.4857420475881923,1.8539865332221384
0.66,-368.2347131927152,61.88421072301556,173.3301195532194,0.288777427760332,2.125119127976156,0.952939742945811,0.4935957119564376,0.3797392580710085,1.5673165087890168,-146.7629141428634,24.91952313263477,30.094387037969444,0.0750575202211014,0.3398542680139542,0.0131942200145408,1.625111547189342,0.540612840346492,2.569532820458797,-160.67550486942667,4.587812969321283,15.35509021899886,0.516371234920294,0.3895975956429954,0.2930453657655235,0.2586403902259305,1.0283492913445336,2.13295334079897,-152.08052336627114,20.25809275028462,17.50997648018505,0.1262628103703655,0.1364471796294477,0.3152251057244908,0.3270464415062191,0.483532610450601,1.921980283963139
0.67,-369.7640575702256,59.794226708604704,174.51260228704945,0.2907982808091128,2.157177941834424,0.9321731434198944,0.5463420971549094,0.4249164663202276,1.781604662547373,-146.78537001407784,25.38284252344252,29.98778253308891,0.0770404546294076,0.3698226995713876,0.012191367884262,1.5918280856805778,0.5162242401419568,2.3693896032053257,-160.42268911997394,5.146815873382553,14.629868009408302,0.6049287736380105,0.4133916898346141,0.2883801766859193,0.2311198268193168,1.1195046868248404,1.8151631799488095,-152.4162648332513,20.12261998583204,17.429490399898086,0.1383152341545603,0.137078395263369,0.3575523852249089,0.3166159307966901,0.4792211411104088,1.975512561654204
0.68,-371.2371062663594,57.8184899211954,175.23158254183724,0.2888800291430866,2.143973003764031,0.8878181772391441,0.6316106048752451,0.4694351476546575,1.9706622940486689,-146.81060541859856,25.88320873560304,29.86365740758181,0.079269989084602,0.4017675379383696,0.0126140726633555,1.5380466892190352,0.4879733917276427,2.133708914306029,-160.23622185841546,5.728621480978336,13.807094262243792,0.6961865142152293,0.4389442776296883,0.2917916121816957,0.2088672563776389,1.216846223478704,1.5253272653830532,-152.86596279691656,20.01894342892519,17.363438293069898,0.152558911270265,0.1382611524678577,0.4034961394107608,0.3115577702343365,0.4754830801940102,2.015315513712304
0.69,-372.6084798213974,56.033760556821406,175.5232985743981,0.2825955857548589,2.087103915186215,0.8224981830108687,0.7412359184783313,0.5098933152158349,2.122239938278684,-146.83678592652493,26.424678935069032,29.72289499758908,0.0818037297446545,0.4357477481256336,0.014207722394513,1.4650718078279434,0.4570391287148489,1.877039233291149,-160.1311402379616,6.332029271682461,12.89263812572325,0.7870499956404486,0.4671127802865224,0.3052551546161338,0.1949338569826365,1.3125283154453813,1.2783903212382342,-153.42971148000717,19.94551149524514,17.319601132211183,0.1677226712864623,0.14043093023184,0.4515666163454574,0.3118075351037018,0.4751354007114331,2.0419836174528743
0.7,-373.8368749984517,54.50844891044943,175.44424090266003,0.2717989176945921,1.9912544100573328,0.7401323767546489,0.8658442756500192,0.5433410328168607,2.2259146009373687,-146.8623364996129,27.009904881525813,29.566786971266552,0.0846669974085819,0.4718095132502306,0.0166829748175915,1.3757822516996665,0.4246090260871264,1.6160813499168083,-160.12237307827448,6.957075099592373,11.895510342931878,0.8741420191901391,0.4988280141631572,0.3300331950298729,0.1924214640210298,1.398366205568545,1.0863221750164949,-154.10303108486357,19.89421652734176,17.30408647192588,0.1823569815568238,0.1437916964126827,0.4998237489582577,0.3167665611895595,0.4807446856914357,2.056062003577691
0.71,-374.8883869090858,53.297130772714944,175.0651246677703,0.2566953782186917,1.8637838022364943,0.6456290197490339,0.9954362069619204,0.5675912351315329,2.2741516650636977,-146.8859721975616,27.639855507542297,29.396999233435206,0.0878604474180102,0.5099853838044016,0.019746705930973,1.2745582889128344,0.3918611951376264,1.3683583700110715,-160.22380411213783,7.60540585505651,10.82779736972445,0.9539473820332656,0.5349948727495422,0.3665409731096801,0.2042579858347613,1.4668011311429778,0.9572852917586636,-154.876658538781,19.85014281999869,17.320809408514716,0.1949054562787514,0.1482044994528137,0.5459636188929979,0.3254139398753489,0.494247947670769,2.058305405614164
0.72,-375.7392658131313,52.43639804948255,174.46405943832647,0.2378623594621381,1.7139944456542957,0.5444788042769068,1.1200698939412566,0.5814406077332313,2.263077781809024,-146.90672056179,28.31375756229549,29.21549084847448,0.0913729696212386,0.5502957933871437,0.0231302239766883,1.1670935130179876,0.3599533058387174,1.1507747823549124,-160.4472725039898,8.280551459100948,9.70446846799176,1.0229877702658334,0.5763708457092012,0.4142761262861806,0.2329549369221468,1.5118228243028222,0.8950643598225573,-155.73652962480358,19.79207145718141,17.37111077313486,0.2037733116850802,0.1531141634888017,0.5874487500091361,0.336479712070548,0.5166471877404879,2.0500308746862945
0.73,-376.3777111045851,51.94259760651097,173.71975375176817,0.2162164620975164,1.5522066281610771,0.4422908273936878,1.2306198591428947,0.5847526313427981,2.192864470251903,-146.9239487460438,29.02926213265104,29.02437404324468,0.0951966029323476,0.5927492617107424,0.0266120702767798,1.060108608724592,0.3300182359861088,0.9781821947927444,-160.80165233063707,8.988016242353442,8.543092001197548,1.078024180762989,0.6234377833129966,0.471829222237081,0.2803642915155228,1.5297265440845882,0.8988269133554712,-156.66399432376608,19.69384050603987,17.453571520594664,0.2073980054417539,0.157534248135989,0.6216864997281244,0.3486498762384016,0.5478291321544192,2.0334745777787666
0.74,-376.8044511339901,51.81168741826389,172.9054818755279,0.1929364573487954,1.3887943300215122,0.3443263131212085,1.3195384143657554,0.5783793031738005,2.0676916984722022,-146.93740896688877,29.782832965725323,28.8257068831302,0.0993397086929386,0.6373402655518583,0.0300330991070463,0.9609721728862304,0.3031630628508373,0.8620753331032986,-161.29214732752877,9.73512776673926,7.363507805219147,1.1162777788598015,0.676286090418775,0.5369872299444597,0.3474557676437875,1.519589261250731,0.96326060852788,-157.63630492920245,19.526590633733505,17.564077244638728,0.2043314144880637,0.1601044264616881,0.6462562519005141,0.360769959582074,0.5865394741019435,2.0120617794810327
0.75,-377.0320652882347,52.02107985835752,172.08433726181894,0.1693575177095942,1.2333043769528251,0.255087456831736,1.3815047936648888,0.5639358545699328,1.8953190135797413,-146.9473133829593,30.570336060357423,28.621217958181955,0.1038342929245537,0.6840450130488981,0.0333021657938194,0.8772253105589385,0.280463646474427,0.8095414168242179,-161.91990427850166,10.530616826565582,6.187498413925256,1.1356545041364223,0.7345307614737276,0.6069279597124324,0.4341408658485205,1.483373343900382,1.0790953312769649,-158.62740119232757,19.261842749863774,17.696171547045385,0.1933437898978554,0.1592251533852987,0.6591753195699427,0.3720189303751576,0.6305131486435113,1.990507415195384
0.76,-377.0832120959029,52.533047248046216,171.3060587125392,0.1468517145896354,1.0937324774323376,0.1780092541987858,1.413834977236166,0.5434795674753848,1.6863356035993862,-146.95444316913657,31.387786832065164,28.41197573807635,0.1087335882934307,0.7328153912138395,0.036391828424111,0.8160120603052964,0.2629446854224886,0.8225736638262076,-162.68199382272678,11.38394717523947,5.038485119709852,1.1349555352497585,0.7972739156656046,0.6784853527256055,0.5391708924275963,1.4256202314183992,1.2339690852918153,-159.6089849999291,18.875261915702783,17.841709424758136,0.1735577532382604,0.153263789880558,0.6591762720228761,0.3820360140577332,0.6767381063919298,1.97468489200552
0.77,-376.9880791334872,53.2990945212359,170.60548804212516,0.1267067723205998,0.9759922622260502,0.115283380175557,1.416559153386819,0.5191641195936161,1.4531914823866676,-146.96028628304794,32.232182932352416,28.198032645395894,0.1140975731115887,0.783570707381695,0.0393247977523711,0.7834389160511416,0.2515373276386344,0.8978316075587011,-163.57174440280082,12.30445301641474,3.9412531452845534,1.1140547888758427,0.8631198563920933,0.7484514394888376,0.6601281892877665,1.3527767665051538,1.4135446543687262,-160.55183212182192,18.350867107733485,17.991782609581186,0.1446161389570814,0.1408163677113724,0.6459515707402825,0.3909929261975926,0.7218148185698272,1.971231057108304
0.78,-376.7814397933217,54.26466823541937,170.00253327908163,0.1100129696364427,0.8835943591957105,0.067820614792021,1.392145640637031,0.4929374106982329,1.209126619508176,-146.96718611683363,33.102324465931794,27.978090177736732,0.1199670261059194,0.8361860818813662,0.0421531309476623,0.7839174707143627,0.2470117697136964,1.0268880616023908,-164.5793608795368,13.30036811600621,2.921690964770966,1.0740245802877506,0.9302400770876426,0.8138781567495711,0.7935146830386622,1.2722755805199073,1.602743763358034,-161.42724342313173,17.68535576468147,18.137844770099424,0.1068800521796039,0.1210012785969495,0.6203149767990273,0.3996096082204607,0.7623653779715281,1.9868889465277797
0.79,-376.4996897100106,55.37364617804032,169.50338450058138,0.0975673343519755,0.8175441354381688,0.0353381169843136,1.344932103201678,0.4663285836523528,0.9671112467156612,-146.9784724637503,33.99950979153341,27.749239753850585,0.1263300319662019,0.8904762695579223,0.0449332799235426,0.8195740384616391,0.249888069247091,1.1969494646383132,-165.69272784084794,14.377842869168148,2.0065164363025767,1.0171901769593843,0.9964807786536204,0.8723510222549514,0.9349272709436838,1.191537161258064,1.7869525424188015,-162.2085081679052,16.89213268940588,18.272926666516405,0.0616432215028266,0.0937557769003022,0.5842382201153787,0.4091138994462863,0.7954404405451607,2.0276246657786405
0.8,-376.1781629141127,56.57219791193892,169.10266069148187,0.0898036157387539,0.7764593504645336,0.0165441009351704,1.2803854215748192,0.4403420692468155,0.7388939393569489,-146.99854046339615,34.92800231410816,27.506830286528764,0.133087251362346,0.94617530562465,0.0477010597809861,0.8898271488265448,0.2603340607656722,1.3919787607500091,-166.89829254554573,15.540049017789515,1.2229573537822165,0.9470940435614414,1.059504550723488,0.9222190816787816,1.0793017193488836,1.1170631018065225,1.9530718883671088,-162.87224442372664,16.004575211231867,18.392808176974857,0.0113376239295326,0.0601031850861923,0.5407421917436329,0.4211484018664397,0.8188677960559976,2.0975940725074245
0.81,-375.8489261660045,57.81177991629512,168.7861448714505,0.0867550171772853,0.7568953476503307,0.0093861702138641,1.2043315034679452,0.4154543559408203,0.5342327434060792,-147.0328440179138,35.89519062994068,27.24449938006221,0.1400229608218772,1.0029157752125142,0.0504510659100654,0.9912268857875832,0.2780653637057289,1.5940967055787436,-168.18193660051946,16.786468650513278,0.5983515848014254,0.8683539785031934,1.116957843564276,0.9627726812139858,1.2212051903877892,1.0537569862150424,2.090326034887743,-163.39949403358764,15.078043578593537,18.49700757975894,-0.0403037449516565,0.02235749486174,0.4936472983827956,0.4376339420626158,0.8314841758499472,2.198076285570236
0.82,-375.5391509273206,59.05118913840478,168.5337767045312,0.0880543287047063,0.7538433144341022,0.0113292041706071,1.1222766506585848,0.3916957232523841,0.3603624121652949,-147.0877769655768,36.911401726223104,26.95438609101348,0.1467881433260396,1.0602145692231335,0.053124594296198,1.1176148152952126,0.3022675849207761,1.785101371794955,-169.5297668261403,18.112454106096543,0.1596245153444311,0.7864085637002197,1.1666537589535102,0.994359666901776,1.3551574843474097,1.0045567556762458,2.190782763993025,-163.77647975384502,14.19016957975274,18.58945645197604,-0.0881664164894032,-0.0157680252193937,0.4472123461733754,0.4606066314529048,0.8331988577719532,2.326523212762784
0.83,-375.2700860645348,60.25771789495926,168.3226060443804,0.092973054613855,0.7613423212877007,0.019631942923654,1.0388992134952528,0.3687904376881578,0.2217259137723139,-147.1704261736726,37.989362761721154,26.62752471233336,0.1529006272598347,1.1174717899191189,0.0556086718117766,1.2606072943028956,0.3315621027646437,1.947937867293789,-170.92877512722532,19.509126595023247,-0.0674137323324877,0.7071584500374952,1.2067551524415674,1.0184255633426706,1.4759591626019497,0.9704007138006546,2.2495712555856606,-163.9949790439853,13.439035356911338,18.678749148715134,-0.1257964232221303,-0.0491800658898273,0.4057112831991382,0.4920492575282987,0.8248663912347309,2.475890497310601
0.84,-375.056603922112,61.40752275560109,168.12946189086824,0.1004971320195456,0.7731295520911665,0.0315968434216908,0.9577435700096298,0.3463216287853825,0.1199698269684335,-147.2881939475162,39.143333582029086,26.254403415433973,0.1577657295058937,1.1739858713569644,0.0577467511865617,1.4103451995033995,0.3640329744485989,2.06797247181048,-172.36733171204708,20.963653344829243,-0.0590215011871113,0.6365305536589483,1.2359380801973106,1.0374603287029485,1.5790014710688247,0.9504872979552595,2.264813278225986,-164.05232607587143,12.93899126657388,18.777888595584635,-0.1455994692776713,-0.0715788219233113,0.3730080638740673,0.5337362084105985,0.8079974034260787,2.634415567379651
0.85,-374.90725993907495,62.4853490193809,167.93315539717022,0.1094318750659564,0.7832528171950636,0.0447748071552302,0.8811110614509371,0.3238838407980298,0.0541755847473264,-147.44830188235218,40.38795032573198,25.825658637020386,0.1607184944179446,1.2289842460735825,0.0593593044197333,1.556407608438913,0.3973246959579918,2.133966961972189,-173.83548749006638,22.4599079273564,0.2052128309255917,0.5800099787439391,1.253513216490323,1.05483762194539,1.660531736850952,0.942738219171253,2.237313887774647,-163.95110516506472,12.814055664918843,18.90349380468357,-0.139219339001707,-0.075800836684685,0.3521892394131004,0.587108551076074,0.7843865789132285,2.785986660153428
0.86,-374.82478284011376,63.48375555577472,167.71610757798703,0.1185238367084855,0.7865828628735669,0.0571141410488843,0.8101187444988692,0.3011922950943098,0.0212778113257897,-147.65720398463316,41.73683720131772,25.332865193474397,0.1610849216426857,1.281667751013973,0.0602702288517905,1.6887666581018734,0.428810875890555,2.1386936462491613,-175.32507223012493,23.979478603686587,0.7407983605161933,0.5421961476914479,1.2594855267314384,1.0745432819192584,1.717851609508154,0.944347556099542,2.170083965871591,-163.6986284935605,13.189085977221737,19.07448577989892,-0.0980975463201915,-0.0543283385008967,0.3453023069422903,0.6531936722702981,0.7557560087475791,2.911189405219098
0.87,-374.80689524907353,64.40197407357299,167.4653648094082,0.1265840521709453,0.779182723911672,0.0670503257906998,0.7448840372602258,0.2781335315966154,0.0166090148027932,-147.9199525191942,43.20106476911022,24.769373187744065,0.1582551140617544,1.331267387060595,0.0603333109042098,1.7986659268665444,0.4558231520762197,2.079170045657307,-176.82958430006192,25.502944518008984,1.5565500665447582,0.5264405233842753,1.2545407835698028,1.1008061513176577,1.7494352124851884,0.9523020308298044,2.067779951923708,-163.30629319893313,14.179197642379902,19.310323969767342,-0.0141905187639749,6.014918432117884e-05,0.353228694520677,0.7325761746500512,0.7234949273120163,2.989018905075996
0.88,-374.8473544880519,65.24452051664363,167.17303002518935,0.1325970082778748,0.75851250006711,0.0735390954098614,0.6847867907573143,0.2547608496178881,0.0345046450989994,-148.23957390204976,44.78755878331275,24.13113561056927,0.151757603080077,1.3771107199078596,0.0594529651849799,1.879327980960681,0.4759171987566815,1.9565263567377489,-178.34387285708175,27.01128816537018,2.652773285650773,0.5346113767627658,1.239959360396469,1.1376623362228169,1.7549686977599697,0.9637875814282848,1.9361407917256688,-162.78889526921753,15.878213115362474,19.62892351264385,0.1192081412857985,0.0935476146523554,0.3756980494926446,0.8254082910279188,0.6885402263365369,2.999116864482844
0.89,-374.9371019633184,66.01966176626084,166.83618798786054,0.1358028426714754,0.7234695013722608,0.0760400825709697,0.6287587084152394,0.2312518187536826,0.0689026702775721,-148.61652177066236,46.49758814113038,23.41746414936093,0.141322731181871,1.4186905845319917,0.0575955103799953,1.926429202363644,0.4871396794114162,1.7755533321877484,-179.86361645199398,28.487262518889224,4.019689877025692,0.5670085742623794,1.2174694372441055,1.188498784006287,1.7353259155730003,0.9764431380058796,1.781480634972915,-162.16395238494525,18.34721287914761,20.044441687993025,0.3066203839649694,0.2305177604063783,0.4114293242958156,0.9314248094357386,0.6514032644320052,2.9242645841028967
0.9,-375.0654164612696,66.7378338250632,166.45643556663313,0.1357455856783284,0.6742845569608682,0.0744619688072041,0.5755558874240637,0.2078500937613292,0.1138787869220759,-149.04827685215898,48.325476935602005,22.631644317280507,0.1269246655374409,1.4557232681612045,0.0547904918373003,1.938314031465164,0.4882518300395163,1.5440099553722595,-181.3846133455533,29.9165031800799,5.636378996254964,0.6224251564075195,1.189060327708312,1.2556307257806318,1.692497438850321,0.9884665075821124,1.6102673185069218,-161.45106317807964,21.604490118305502,20.5651730212344,0.5496125487837671,0.4128664641521679,0.4583669074415537,1.04991745102433,0.6123147497172362,2.752772446649046
0.91,-375.2209801925848,67.41010686069639,166.03914299123932,0.1322860687891224,0.6123116056778108,0.0690821618565188,0.5239843923309859,0.184811009781481,0.1640737772075731,-149.5291548575863,50.25769038723072,21.781335572044625,0.1087961968640724,1.488181604812178,0.0511243369025016,1.9159511847539128,0.4788683451233477,1.271791155815699,-182.9019281818321,31.28819166565536,7.470451272476899,0.6983309497875356,1.1567813250778385,1.3399690754076228,1.6294787849841,0.9986046589296064,1.428792037311935,-160.6713091213152,25.61832852432853,21.19182523880484,0.8462118552419619,0.6394844383290971,0.5139689180636344,1.179644222418469,0.5714330730210426,2.4803842764803403
0.92,-375.3927854905454,68.04678958824235,165.59257241489053,0.1255830758203982,0.539755418287177,0.0604538369994395,0.4730664767637421,0.1623636743536687,0.2149908147719729,-150.05036360656402,52.27243709178759,20.878681120724256,0.0874164237677762,1.5162928378485006,0.0467296999519634,1.8626591983120189,0.4594865891524914,0.9700601287660982,-184.40898535963373,32.595142669819666,9.478590343434837,0.7911418716114613,1.122553141015816,1.44082796509548,1.5501084934764875,1.0060697389884634,1.2429217550780165,-159.84668809594814,30.303970566413096,21.916452194955937,1.1906196940491685,0.9060048787501656,0.5755011074198547,1.318696924790824,0.5290479488749006,2.111365903643809
0.93,-375.5708342093304,68.65625436958213,165.12696747550845,0.1160495600307612,0.4593807191821454,0.049310895458111,0.4221493176824642,0.1406944835409944,0.263160860577448,-150.6003234008523,54.33990939047565,19.94006116101403,0.0634760843831835,1.5404997023795406,0.0417732294662075,1.783647941730243,0.431406140622554,0.6504365557280962,-185.8967467475025,33.83329378052552,11.608010916381613,0.8965369301458999,1.088018110086062,1.5559089652622868,1.4588437821468814,1.0104222913841463,1.0579243277511845,-158.99955727747724,35.525857697087204,22.72228659424715,1.5733120879564744,1.2048889620209284,0.6402935537129445,1.4643959159553028,0.4857194296440043,1.6585588167920486
0.94,-375.74660940669406,69.24404856539203,164.65370144991866,0.1042920025917546,0.3742376972278725,0.0364781751945198,0.3709651082083475,0.1199495128043363,0.3061881462701624,-151.16523770925576,56.42324529709531,18.98544796209621,0.0378267263009778,1.561391777380762,0.0364431865019577,1.6854367720965109,0.3965617986839757,0.3243047119119335,-187.35313984781092,35.00069564993661,13.798805726155685,1.0097898285904685,1.0544504993825945,1.681477351757208,1.3604773089020608,1.0114615679439647,0.8783622845209552,-158.15205904066482,41.10564822660889,23.58463506216508,1.981576481744504,1.5258831481660196,0.7059282698970751,1.613294241893964,0.442321767367169,1.14233440854173
0.95,-375.9133261634767,69.81234481130043,164.18453401227382,0.0910406515923365,0.2874269928719989,0.0227915048005111,0.3196514470553616,0.1002476736396497,0.3426951737738374,-151.72987938874067,58.48023531161622,18.037363025374518,0.0114187971378015,1.5796197561876462,0.0309374273296727,1.5752170761938629,0.3573043711772058,0.0022719488767457,-188.76289603865,36.0962065956076,15.987076306535087,1.1260898376993085,1.0227375580218443,1.8127184475068487,1.259821827759203,1.0091562773453435,0.7080541414344065,-157.32550664950932,46.83566479119639,24.47285898058682,2.4004685857245778,1.8568265688670929,0.7703435458315722,1.7613446293341308,0.3999955170675244,0.5885588808106046
