0.01,-351.15,68.81,173.97,-0.01,-0.04,0.03,0.21,-0.14,0.15,-144.44,80.69,21.34,-0.11,0.23,0.18,-0.06,0.03,-0.12,-157.74,3.24,3.2,0.2,-0.02,-0.07,-0.17,0.1,0.14,-349.36,11.2,22.92,-0.02,0.0,-0.02,0.11,0.17,0.02
0.02,-351.21,68.88,173.69,0.1,0.01,-0.15,0.14,-0.09,0.08,-144.5,80.78,21.13,-0.15,-0.05,0.03,0.12,0.01,0.34,-157.86,3.19,3.08,0.0,0.08,-0.1,-0.05,-0.01,0.07,-349.28,11.13,22.88,-0.04,0.09,0.02,0.08,0.16,0.06
0.03,-351.21,68.8,173.95,-0.05,0.14,0.14,0.18,-0.04,0.17,-144.45,80.5,21.28,0.12,0.18,-0.1,0.05,-0.05,0.22,-157.88,3.04,3.04,0.06,0.05,-0.03,0.08,0.22,-0.13,-349.22,11.27,22.92,-0.21,0.07,0.07,0.19,-0.08,0.01
0.04,-351.22,68.71,173.85,0.05,0.01,-0.04,-0.13,0.01,0.29,-144.53,80.8,21.38,-0.01,-0.1,-0.1,0.08,0.11,-0.12,-157.7,3.08,3.13,0.04,0.17,-0.01,0.03,0.17,0.12,-349.36,11.23,22.89,0.05,0.15,-0.04,0.11,0.06,-0.12
0.05,-351.35,68.67,173.87,0.03,0.17,0.12,-0.08,0.14,0.09,-144.52,80.62,21.25,0.04,-0.1,0.06,0.07,0.13,0.05,-157.96,3.05,3.09,0.2,0.0,0.0,0.1,0.08,-0.02,-349.31,11.28,22.94,-0.01,-0.2,0.05,0.06,0.32,0.08
0.06,-351.27,68.68,173.64,0.1,0.27,0.3,0.2,-0.07,0.08,-144.44,80.52,21.31,0.14,-0.04,0.09,-0.01,0.01,0.12,-157.87,3.11,2.94,0.05,0.07,0.18,-0.06,0.07,0.11,-349.19,11.09,22.93,0.01,0.13,0.03,-0.08,0.06,0.04
0.07,-351.2,68.78,174.01,0.22,0.06,-0.03,0.11,0.16,0.13,-144.54,80.71,21.24,0.06,-0.16,0.13,-0.05,0.01,0.03,-157.59,2.99,3.03,0.03,-0.08,-0.01,-0.06,0.05,0.01,-349.39,11.16,23.02,0.13,0.07,0.1,0.21,0.1,0.15
0.08,-351.31,69.03,173.91,0.08,0.12,0.27,0.17,-0.09,0.02,-144.49,80.76,21.34,-0.07,-0.01,-0.13,0.17,-0.12,-0.06,-157.75,2.8,3.06,-0.08,0.08,-0.06,-0.02,0.1,0.23,-349.32,11.16,22.92,0.06,-0.04,0.05,-0.08,-0.01,-0.08
0.09,-351.35,68.8,173.85,0.04,0.04,0.05,-0.07,0.02,0.09,-144.44,80.62,21.29,-0.01,-0.12,-0.06,-0.09,0.06,0.14,-157.83,3.02,3.06,0.21,0.15,-0.03,-0.0,0.1,0.03,-349.48,11.08,22.92,-0.0,0.04,-0.15,0.08,0.15,0.06
0.1,-351.03,68.7,174.17,0.24,-0.07,-0.08,0.01,0.11,-0.02,-144.5,80.82,21.26,0.09,0.08,-0.17,0.02,0.28,-0.05,-157.64,2.95,3.11,0.08,-0.07,-0.07,0.12,0.05,-0.01,-349.37,11.11,22.78,-0.01,-0.14,0.05,0.15,0.08,0.18
0.11,-351.13,68.66,173.67,0.16,0.17,-0.04,-0.02,0.18,0.16,-144.53,80.52,21.22,-0.06,-0.19,0.11,0.08,-0.19,0.05,-157.73,3.06,2.87,-0.04,0.24,-0.04,0.06,0.17,0.0,-349.29,11.21,23.03,0.01,0.0,0.08,0.04,0.06,0.0
0.12,-351.34,68.94,173.7,0.28,0.19,-0.04,0.15,-0.01,0.15,-144.52,80.62,21.26,-0.04,-0.1,0.1,-0.07,-0.02,0.05,-157.63,3.0,3.05,0.1,0.03,0.01,0.1,0.0,0.11,-349.33,11.12,22.79,0.01,-0.01,-0.04,0.1,-0.03,-0.1
0.13,-351.18,69.01,173.5,0.05,0.03,-0.08,-0.05,0.03,0.3,-144.12,80.49,21.33,0.06,-0.06,-0.05,0.07,0.18,0.4,-157.97,3.05,3.1,0.14,-0.14,0.05,0.16,0.07,-0.13,-349.34,10.97,22.89,-0.04,-0.22,0.06,0.14,0.14,-0.05
0.14,-351.28,68.91,173.7,0.17,0.13,0.12,0.1,0.09,0.23,-144.51,80.71,21.5,0.04,0.05,0.09,0.17,0.09,0.11,-157.92,2.91,2.95,-0.05,0.26,0.06,0.13,0.16,-0.01,-349.28,11.08,22.95,-0.1,-0.07,-0.16,-0.05,0.06,0.1
0.15,-351.41,68.91,173.66,0.07,0.01,0.17,-0.02,0.1,-0.1,-144.38,80.56,21.45,0.01,0.1,-0.27,-0.04,0.11,0.17,-157.75,2.9,3.18,0.05,0.06,-0.03,0.21,0.19,-0.13,-349.49,11.11,22.92,0.1,0.02,-0.13,0.08,0.01,0.14
0.16,-351.27,68.86,173.79,-0.08,0.1,0.17,-0.06,0.04,0.33,-144.64,80.65,21.64,0.03,-0.08,0.09,-0.02,-0.02,0.23,-157.83,3.12,3.36,0.08,-0.05,0.03,0.04,0.06,-0.04,-349.48,11.1,22.93,0.06,-0.0,-0.02,-0.05,0.21,0.14
0.17,-351.2,69.05,173.78,0.08,0.12,0.06,0.02,0.06,0.15,-144.53,80.7,21.59,0.0,0.08,-0.01,-0.06,0.02,0.05,-157.7,2.92,3.0,-0.06,-0.1,0.05,-0.05,0.03,0.08,-349.28,11.38,22.99,0.24,-0.13,0.06,-0.03,-0.06,0.08
0.18,-351.42,68.84,173.74,0.05,-0.03,0.31,-0.04,0.13,0.2,-144.5,80.55,21.5,-0.01,0.11,-0.06,-0.06,0.31,0.44,-157.81,3.02,3.2,-0.03,0.06,0.03,0.1,0.07,0.19,-349.44,11.09,22.99,0.09,-0.03,-0.13,-0.06,0.02,0.05
0.19,-351.6,68.88,173.1,-0.24,0.3,0.28,0.12,0.17,0.14,-144.59,80.6,21.56,-0.12,0.12,-0.16,0.18,0.05,0.13,-157.62,2.84,3.16,-0.01,0.03,0.02,0.09,-0.02,0.03,-349.42,10.82,22.96,0.1,-0.0,-0.06,0.06,-0.01,-0.01
0.2,-351.66,69.06,172.97,0.1,0.09,0.1,-0.08,-0.05,-0.1,-144.82,80.54,21.56,-0.1,0.0,-0.1,0.02,0.16,0.38,-157.78,2.94,3.07,-0.08,-0.07,-0.06,0.16,0.09,0.07,-349.51,10.99,23.0,-0.08,0.04,0.14,0.09,0.13,-0.04
0.21,-351.58,69.11,172.99,-0.09,-0.03,0.06,-0.11,0.02,0.02,-144.77,80.62,21.31,-0.04,-0.02,0.01,0.18,0.07,0.21,-157.95,2.98,3.11,0.07,-0.13,-0.0,0.04,-0.14,-0.06,-349.2,11.21,22.73,0.01,0.13,0.01,0.09,0.13,0.23
0.22,-351.53,68.9,172.89,-0.13,0.2,-0.06,0.21,0.15,0.2,-144.68,80.41,21.24,-0.12,-0.15,-0.02,-0.1,0.12,0.17,-157.74,3.03,3.08,-0.1,-0.02,0.02,0.01,0.03,-0.12,-349.25,10.88,23.03,-0.11,-0.06,0.13,0.19,-0.09,-0.02
0.23,-351.79,68.95,172.69,0.03,-0.06,0.08,0.03,-0.04,0.07,-144.59,80.65,21.43,0.14,0.07,-0.05,0.04,0.13,-0.04,-157.84,3.05,2.99,-0.08,-0.01,0.08,0.01,0.21,0.21,-349.34,11.03,22.72,0.0,-0.04,-0.07,-0.03,0.06,0.08
0.24,-351.78,68.83,172.55,0.09,0.2,0.11,-0.01,-0.14,0.27,-144.71,80.53,21.46,-0.15,-0.05,-0.04,0.07,-0.04,0.06,-157.7,3.19,2.91,-0.1,-0.05,0.07,0.19,0.23,-0.32,-349.3,11.12,23.21,0.25,0.12,-0.19,0.1,0.23,-0.02
0.25,-352.02,69.07,172.47,0.01,0.01,0.18,-0.01,0.19,0.26,-144.59,80.57,21.59,0.17,0.02,0.03,0.05,-0.02,-0.0,-157.68,3.13,3.17,0.17,0.12,0.02,0.04,0.15,0.03,-349.19,11.01,23.08,0.13,-0.07,-0.04,0.08,0.26,0.13
0.26,-351.95,68.86,172.19,0.19,-0.09,0.16,-0.0,0.18,0.17,-144.68,80.72,21.56,-0.02,-0.28,0.03,0.13,0.0,0.15,-157.75,2.89,3.08,-0.03,0.01,0.08,0.05,-0.09,0.05,-349.22,11.06,23.28,-0.08,-0.01,0.01,0.0,0.16,0.16
0.27,-351.97,69.0,172.06,0.21,-0.04,-0.0,0.09,0.2,0.0,-144.58,80.89,21.63,-0.03,0.1,-0.08,0.04,0.21,0.01,-157.7,2.94,3.32,-0.09,0.1,0.01,0.01,-0.28,0.2,-349.42,10.95,22.8,0.05,-0.04,0.06,0.08,-0.06,0.3
0.28,-352.09,69.05,172.28,0.07,0.03,0.08,-0.01,-0.04,0.18,-144.6,80.47,21.76,-0.01,0.01,0.18,0.12,0.04,0.21,-157.81,2.79,3.25,-0.15,0.11,-0.17,0.23,-0.07,-0.08,-349.31,10.96,23.02,-0.08,-0.06,-0.01,0.0,0.02,0.17
0.29,-352.14,69.01,172.34,0.16,0.04,-0.06,0.04,0.04,0.11,-144.69,80.63,21.85,0.09,-0.08,-0.03,0.05,0.05,0.14,-157.74,2.87,3.2,0.13,0.04,-0.14,-0.09,-0.03,0.02,-349.34,11.13,22.9,0.01,0.01,-0.02,0.28,0.09,-0.0
0.3,-352.01,69.06,172.22,0.02,-0.02,0.01,0.0,-0.06,-0.03,-144.5,80.65,21.77,0.17,0.07,-0.06,-0.06,-0.04,0.13,-157.84,3.09,3.01,0.01,-0.08,0.02,-0.08,0.02,0.35,-349.27,11.1,22.92,-0.14,-0.06,0.04,0.01,0.15,-0.06
0.31,-352.01,69.07,172.46,0.17,-0.02,-0.01,0.07,-0.05,0.19,-144.64,80.64,21.89,0.1,-0.12,-0.04,0.13,-0.03,0.06,-157.85,3.18,3.26,0.1,0.01,0.02,0.15,-0.04,-0.07,-349.33,11.04,22.86,-0.12,-0.09,0.35,0.05,-0.02,-0.01
0.32,-352.02,68.94,172.15,-0.1,-0.17,-0.03,-0.05,0.07,0.09,-144.59,80.84,22.04,0.05,-0.12,0.12,0.17,0.05,-0.04,-157.86,3.12,3.19,-0.02,0.12,-0.14,-0.01,0.08,0.06,-349.4,11.03,23.08,-0.03,0.11,-0.22,0.24,0.2,0.12
0.33,-352.11,69.11,172.46,0.07,0.04,0.02,-0.0,0.23,0.06,-144.7,80.73,21.87,-0.13,0.05,0.14,0.08,-0.0,0.3,-157.57,2.91,3.18,-0.11,-0.03,0.05,0.13,0.06,0.02,-349.37,11.14,22.86,0.19,-0.05,0.03,-0.18,-0.08,0.09
0.34,-352.22,68.96,172.62,-0.04,-0.02,0.11,-0.03,0.11,0.14,-144.62,80.66,21.79,-0.06,-0.16,0.03,-0.16,-0.15,0.14,-157.67,3.07,3.05,0.11,0.18,0.06,-0.19,0.18,0.06,-349.26,11.14,22.95,-0.09,0.21,0.04,-0.05,0.16,-0.05
0.35,-352.17,69.14,172.48,0.02,0.1,0.19,0.18,0.08,0.02,-144.67,80.62,21.78,0.06,-0.05,0.02,0.01,0.2,0.03,-157.68,2.95,3.04,0.05,0.11,0.06,0.05,0.08,-0.03,-349.48,11.14,22.97,0.08,0.24,-0.01,-0.05,0.16,0.02
0.36,-352.31,68.99,172.52,0.0,0.01,0.22,-0.1,0.19,-0.01,-144.73,80.75,21.52,-0.01,-0.02,-0.01,-0.07,0.18,0.12,-157.57,2.91,3.11,0.16,-0.1,0.15,-0.03,0.15,0.24,-349.28,11.2,22.98,0.03,0.04,-0.01,-0.16,0.09,-0.09
0.37,-352.35,68.97,172.6,-0.08,0.08,0.2,-0.02,0.08,0.19,-144.78,80.8,21.73,-0.08,0.08,-0.06,0.09,0.08,0.05,-157.65,3.06,3.12,-0.06,-0.04,0.07,0.03,-0.17,0.24,-349.42,11.02,22.98,0.08,-0.05,-0.01,0.06,0.29,-0.11
0.38,-352.39,68.79,172.52,0.11,0.06,0.03,0.13,0.21,0.07,-144.67,80.73,21.71,0.08,-0.12,-0.18,-0.01,0.06,-0.08,-157.64,2.86,3.35,0.18,0.29,-0.07,0.17,-0.09,0.06,-349.32,11.17,22.83,0.01,0.05,-0.02,0.02,0.09,0.3
0.39,-352.16,68.91,172.35,0.09,0.12,0.09,0.01,0.0,0.13,-144.49,80.59,21.65,0.17,0.31,0.0,-0.13,0.06,-0.08,-157.8,2.91,3.06,-0.13,-0.12,0.15,-0.04,-0.08,0.06,-349.18,11.18,23.01,0.11,-0.07,0.07,-0.05,0.06,0.24
0.4,-352.3,69.08,172.54,0.16,0.09,-0.12,0.07,0.02,0.06,-144.86,80.65,21.5,0.13,0.1,-0.0,0.04,-0.11,0.12,-157.77,3.07,3.27,0.23,0.11,0.09,0.12,0.01,-0.13,-349.15,11.05,22.9,0.02,0.17,0.06,0.06,0.11,0.1
0.41,-352.26,68.88,172.47,0.06,-0.1,0.08,-0.01,0.14,0.07,-144.78,80.87,21.65,-0.07,0.02,-0.04,-0.08,0.2,0.02,-157.8,3.07,3.42,-0.04,0.02,0.08,0.15,0.01,-0.16,-349.18,11.04,23.06,0.03,-0.06,-0.03,0.17,0.26,0.19
0.42,-352.55,69.15,172.33,0.18,0.16,0.07,0.01,-0.03,0.02,-144.85,80.74,21.56,-0.0,0.12,0.1,0.09,0.22,-0.07,-157.56,3.05,3.17,-0.01,0.07,0.07,-0.16,-0.06,-0.13,-349.23,11.21,22.89,0.03,0.02,0.0,0.06,0.01,0.1
0.43,-352.36,69.27,172.25,0.13,0.09,-0.12,-0.03,-0.12,0.28,-144.66,80.68,21.39,0.09,0.12,0.11,-0.09,0.14,0.06,-157.67,3.12,3.06,-0.08,0.1,0.11,0.09,-0.16,-0.01,-349.56,11.21,23.01,-0.04,-0.06,0.2,0.06,-0.09,-0.01
0.44,-352.37,69.07,172.19,-0.14,0.07,0.13,0.19,0.21,0.25,-144.79,80.59,21.43,-0.01,0.05,0.01,0.02,0.1,-0.04,-157.69,3.12,3.22,0.04,-0.09,0.24,0.06,0.03,0.1,-349.31,11.2,23.0,-0.07,-0.04,0.07,0.15,0.11,0.05
0.45,-352.44,69.17,172.12,0.01,0.25,-0.03,0.06,0.2,0.18,-144.86,80.63,21.27,-0.12,0.04,0.03,0.29,-0.03,0.13,-157.63,3.12,3.08,-0.05,-0.0,0.09,0.04,0.18,0.05,-349.25,11.0,22.71,0.07,0.08,0.07,0.13,-0.14,0.08
0.46,-352.51,68.85,172.16,-0.04,0.08,0.13,-0.02,0.17,0.19,-144.86,80.67,21.16,-0.03,0.05,-0.03,0.04,0.23,0.23,-157.54,3.01,3.19,-0.01,0.04,0.02,0.17,0.24,-0.03,-349.39,11.18,22.84,0.03,0.02,0.11,0.16,0.14,0.08
0.47,-352.58,69.04,171.92,0.09,0.03,-0.01,0.1,0.17,0.2,-144.81,80.43,21.42,0.16,0.02,0.01,0.13,0.13,0.23,-157.7,3.2,3.3,-0.05,-0.05,-0.06,0.07,0.21,0.2,-349.43,11.12,23.03,-0.05,0.01,0.2,0.02,0.05,-0.16
0.48,-352.33,69.38,172.21,0.04,0.15,0.03,-0.08,-0.01,0.13,-144.76,80.65,21.34,0.0,-0.07,-0.02,-0.15,0.11,0.19,-157.81,3.16,3.34,-0.08,0.05,0.08,0.01,0.07,0.16,-349.19,11.39,22.94,-0.08,0.01,0.05,-0.02,0.03,-0.01
0.49,-352.24,69.27,172.07,0.09,0.06,-0.02,0.18,0.08,0.24,-144.84,80.67,21.44,-0.1,-0.14,-0.05,0.03,-0.01,0.3,-157.9,3.01,3.08,0.1,0.11,0.13,0.12,0.08,-0.06,-349.13,11.25,23.04,0.09,-0.01,-0.02,0.08,0.11,0.07
0.5,-352.32,69.11,172.15,-0.02,0.03,0.1,0.12,0.24,0.21,-144.83,80.72,21.31,0.08,0.11,-0.07,0.29,-0.07,0.08,-157.92,3.03,3.19,0.02,-0.08,-0.09,-0.16,0.05,0.0,-349.17,11.15,22.83,-0.03,-0.01,0.06,0.03,0.02,-0.09
0.51,-352.41,69.29,172.01,0.17,-0.07,-0.07,-0.08,0.12,0.23,-144.73,80.62,21.34,0.04,0.01,-0.04,-0.03,0.05,0.18,-157.77,3.26,3.27,0.01,-0.14,0.07,0.17,0.15,0.16,-349.12,11.17,22.94,-0.08,0.09,0.12,0.06,0.18,0.18
0.52,-352.55,69.2,171.81,0.09,0.15,-0.01,-0.09,0.08,0.08,-144.86,80.45,21.33,-0.07,-0.07,-0.01,0.21,0.2,0.32,-157.84,3.22,3.23,0.11,0.19,0.05,0.09,-0.0,0.16,-349.28,11.05,22.9,0.04,0.17,0.04,0.21,0.28,0.23
0.53,-352.42,69.27,171.54,-0.11,0.02,0.18,-0.03,0.2,0.26,-145.08,80.6,21.39,0.18,-0.11,-0.21,0.05,-0.03,0.1,-157.74,3.26,3.25,0.05,-0.04,0.04,-0.07,0.04,0.14,-349.17,11.28,22.91,0.09,0.17,-0.13,0.37,0.02,-0.0
0.54,-352.51,69.25,171.52,-0.21,0.01,-0.07,-0.12,0.2,0.24,-144.86,80.67,21.25,-0.06,0.09,0.05,-0.06,0.08,-0.09,-157.87,3.34,3.17,0.08,0.04,0.06,0.05,0.29,-0.01,-349.21,11.26,22.93,0.06,-0.0,0.01,0.44,0.12,-0.0
0.55,-352.42,69.07,171.35,0.07,0.11,0.01,0.23,0.29,0.36,-144.92,80.57,21.66,0.01,-0.02,-0.01,-0.17,-0.03,0.05,-157.88,3.14,3.2,0.08,0.19,-0.03,0.1,0.04,-0.02,-348.91,11.32,22.86,0.16,-0.07,0.2,0.5,0.27,0.2
0.56,-352.75,69.11,171.49,-0.07,0.13,0.12,-0.04,0.21,0.37,-144.75,80.62,21.88,0.05,-0.05,0.21,0.12,-0.0,0.1,-157.8,3.17,3.36,0.15,-0.03,0.07,0.07,0.19,0.1,-348.8,11.37,22.74,0.27,0.21,0.25,0.4,0.45,0.18
0.57,-352.83,69.03,171.44,0.01,0.13,0.03,-0.02,0.21,0.26,-144.94,80.52,21.84,0.04,0.15,0.07,-0.08,-0.04,0.37,-157.82,3.16,2.99,-0.01,-0.0,0.15,0.08,0.13,0.08,-348.72,11.62,22.59,0.02,0.08,0.13,0.64,0.22,0.42
0.58,-352.51,69.06,171.61,0.08,-0.16,-0.02,-0.07,0.1,0.58,-144.7,80.81,21.94,0.03,0.04,-0.16,0.19,0.14,0.29,-157.81,3.27,3.08,0.05,0.06,0.03,0.18,-0.07,0.12,-348.67,11.74,22.56,0.16,0.04,0.11,0.29,0.38,0.08
0.59,-352.6,68.86,171.54,0.02,0.16,0.08,-0.0,0.14,0.49,-144.68,80.51,21.9,0.11,0.01,0.2,0.11,0.04,0.32,-157.71,3.33,3.3,0.15,0.05,0.04,0.01,-0.02,0.01,-348.6,11.58,22.32,0.11,0.08,0.19,0.43,0.06,0.49
0.6,-352.67,69.02,171.79,0.06,0.04,-0.07,-0.05,0.12,0.26,-144.77,80.66,22.29,0.06,0.01,-0.09,0.07,0.24,0.08,-157.74,3.16,3.3,-0.01,0.08,-0.1,0.28,0.02,0.02,-348.51,11.92,22.24,0.12,0.09,-0.12,0.38,0.29,0.31
0.61,-352.82,68.85,171.64,0.14,-0.08,-0.1,0.08,-0.02,0.18,-144.79,80.58,22.34,0.03,0.11,-0.12,0.13,0.14,0.16,-157.82,3.49,3.3,0.07,0.09,-0.1,0.13,0.21,-0.12,-348.62,11.87,22.19,0.05,0.12,0.02,0.31,0.85,0.37
0.62,-352.64,68.76,171.53,0.01,0.06,-0.02,-0.05,0.13,0.25,-144.77,80.79,22.46,-0.02,0.09,0.14,0.09,0.28,-0.01,-157.92,3.46,3.44,0.02,0.18,-0.06,0.03,0.13,0.08,-348.61,12.02,22.18,0.07,0.17,0.27,0.24,0.8,0.36
0.63,-352.79,68.83,171.92,0.13,0.23,-0.09,-0.02,-0.01,0.25,-144.7,80.96,22.83,-0.07,-0.02,-0.04,-0.28,0.07,0.06,-157.74,3.7,3.34,0.06,0.16,0.11,0.12,0.17,0.18,-347.84,12.37,22.22,0.11,0.29,0.58,0.65,0.79,0.24
0.64,-352.87,68.56,171.56,0.07,0.09,0.01,0.12,0.2,0.35,-144.57,81.24,23.25,-0.14,0.02,0.07,-0.08,0.21,0.2,-157.94,3.72,3.44,0.1,0.03,0.04,0.55,0.35,0.31,-347.14,13.01,22.17,0.06,0.01,0.73,0.73,-0.0,0.15
0.65,-352.8,68.69,171.62,0.06,0.12,0.12,0.08,0.12,0.27,-144.54,81.38,23.58,0.02,0.27,-0.12,0.13,0.19,0.06,-158.16,3.71,3.64,0.18,-0.13,0.03,0.29,0.69,0.35,-346.26,13.59,22.3,0.41,0.24,0.75,0.49,0.23,0.2
0.66,-352.83,68.61,171.85,0.04,0.07,0.08,0.13,0.23,0.44,-144.68,81.35,23.76,-0.15,0.07,-0.07,0.02,0.14,0.09,-158.28,4.03,3.87,0.11,0.13,0.11,0.55,0.5,0.34,-345.2,14.19,22.33,0.23,0.23,0.53,0.73,0.25,0.05
0.67,-352.72,68.29,172.11,0.36,-0.04,0.02,0.13,-0.09,0.54,-144.6,81.53,24.04,0.04,0.07,0.01,0.19,0.14,0.11,-158.5,4.45,3.88,0.26,0.15,0.2,0.22,0.4,0.26,-344.54,14.81,22.58,0.2,0.45,0.65,0.91,0.01,0.29
0.68,-352.82,68.21,171.94,0.09,-0.04,0.14,-0.08,0.14,0.39,-144.49,81.76,24.78,0.19,0.22,-0.02,0.2,0.07,0.21,-158.72,4.76,4.12,0.14,0.01,0.62,0.27,0.23,0.02,-344.08,15.44,22.63,0.25,0.43,0.41,0.74,0.35,0.48
0.69,-353.12,68.29,171.75,0.2,0.06,0.1,-0.11,0.07,0.54,-144.56,81.89,25.6,0.01,0.02,0.05,-0.02,-0.1,0.13,-158.73,5.0,4.46,0.16,0.29,0.17,0.21,0.3,0.08,-343.46,16.16,22.64,0.27,0.21,0.51,0.61,0.21,0.65
0.7,-353.11,68.09,171.91,0.11,0.01,0.08,0.16,0.04,0.4,-144.55,82.15,25.96,0.08,0.3,0.1,0.24,0.19,0.41,-159.38,5.68,4.44,0.33,0.07,-0.03,0.28,0.27,0.17,-343.25,16.74,23.04,0.29,0.41,0.31,0.55,0.03,0.6
0.71,-353.24,67.97,171.78,0.15,-0.17,-0.05,0.18,0.06,0.33,-144.69,82.37,27.22,0.04,0.3,0.03,-0.01,0.13,0.41,-159.32,5.8,4.99,0.26,0.32,0.33,0.07,0.27,0.02,-342.92,17.21,23.0,-0.02,0.48,0.28,0.69,0.31,0.95
0.72,-353.42,67.81,171.82,0.13,0.26,-0.05,0.31,-0.14,0.45,-144.66,82.83,28.61,0.09,0.37,0.01,0.11,0.0,0.17,-159.65,6.06,5.09,0.19,0.28,0.15,0.11,0.4,0.16,-342.52,17.83,23.21,-0.08,0.46,0.18,0.72,0.2,0.94
0.73,-353.43,67.74,171.71,0.2,0.12,-0.01,0.13,0.1,0.5,-144.79,83.15,28.64,-0.0,0.44,0.02,0.27,-0.08,0.28,-159.86,6.32,5.15,0.18,0.43,0.13,0.19,0.7,0.06,-342.6,18.35,22.78,0.09,0.47,0.03,0.48,0.26,0.8
0.74,-353.82,67.66,171.41,0.04,0.11,0.13,0.14,0.16,0.35,-144.83,83.42,28.61,0.08,0.5,-0.04,0.13,-0.02,0.1,-160.0,6.71,5.24,0.06,0.29,0.24,0.08,1.04,0.31,-342.78,18.72,23.15,0.15,0.25,-0.01,0.36,0.06,0.65
0.75,-353.93,67.23,171.38,0.3,0.21,0.14,0.49,0.13,0.44,-144.84,83.69,28.59,0.04,0.31,-0.1,0.17,-0.06,0.11,-160.2,6.83,5.43,0.15,0.5,0.49,0.32,0.9,0.11,-342.93,18.97,23.03,0.15,0.45,0.24,0.09,0.11,0.61
0.76,-353.92,67.22,171.42,0.2,0.14,0.21,0.26,0.05,0.51,-144.81,83.81,28.56,0.09,0.42,0.06,0.19,-0.08,0.16,-160.27,7.22,5.24,-0.09,0.23,0.19,0.04,1.0,0.42,-342.94,19.21,23.15,-0.1,0.51,0.25,0.13,0.28,0.84
0.77,-354.35,66.66,171.56,0.23,0.26,0.17,0.63,0.03,0.41,-144.94,84.41,28.67,0.23,0.38,0.01,0.41,-0.11,0.16,-160.54,7.9,5.29,-0.02,0.31,0.26,0.27,1.01,0.63,-343.39,19.43,23.03,0.25,0.4,0.42,0.07,0.11,0.56
0.78,-354.63,66.48,171.3,0.25,0.38,0.09,0.37,-0.03,0.15,-144.97,85.0,28.37,0.19,0.67,-0.0,0.63,0.02,0.2,-160.79,8.08,5.41,0.04,0.25,0.17,0.17,0.78,0.5,-343.96,19.58,22.9,0.24,0.26,0.39,-0.02,0.43,0.33
0.79,-355.01,66.0,171.41,0.15,0.47,-0.02,0.35,0.07,0.24,-145.29,85.55,28.48,-0.1,0.84,-0.11,0.24,0.28,0.02,-160.9,8.45,5.19,0.06,0.11,0.11,-0.01,0.97,0.46,-344.46,19.61,22.93,0.3,0.4,0.29,0.09,0.3,0.54
0.8,-355.65,65.4,171.52,0.41,0.68,-0.08,0.45,-0.08,0.27,-145.17,86.08,28.32,-0.12,0.75,-0.02,0.29,0.09,-0.05,-161.23,8.88,4.8,0.03,0.46,0.26,0.11,0.49,0.41,-344.7,19.91,22.99,0.19,0.51,0.11,0.17,0.3,0.56
0.81,-355.84,64.68,171.55,0.35,0.56,-0.13,0.25,-0.0,0.15,-145.39,86.65,28.3,-0.07,0.92,0.24,0.29,0.16,0.05,-161.27,9.02,4.3,0.04,0.36,0.23,0.11,0.63,0.39,-345.02,20.27,23.11,0.35,0.32,0.34,0.29,0.37,0.7
0.82,-356.3,64.25,171.2,0.26,0.55,0.14,0.35,0.14,0.18,-145.3,86.97,28.14,0.07,0.8,0.1,0.44,0.34,0.23,-161.57,9.42,4.19,0.05,0.28,0.29,0.45,0.44,0.38,-345.77,20.32,23.13,0.12,0.13,0.24,0.6,0.17,0.69
0.83,-356.95,63.55,171.18,-0.06,0.51,0.01,0.13,-0.08,0.18,-145.51,86.95,28.0,0.03,1.0,-0.11,0.3,0.08,0.4,-161.82,9.67,3.85,0.19,0.25,0.08,0.08,0.63,0.23,-345.95,20.63,23.35,0.07,0.11,0.23,0.4,0.27,0.56
0.84,-357.05,63.03,171.0,0.12,0.6,0.12,-0.06,0.07,0.09,-145.54,86.47,28.19,0.04,0.97,0.27,0.48,0.07,0.24,-162.09,9.95,3.46,0.08,0.35,0.29,0.17,0.6,0.43,-346.29,20.6,23.61,0.26,0.32,0.24,0.75,0.15,0.82
0.85,-357.6,62.34,171.11,0.14,0.68,-0.03,0.29,0.13,0.13,-145.35,85.92,28.35,-0.14,1.0,0.02,0.64,0.09,0.31,-162.13,10.16,3.29,0.24,0.06,0.09,-0.01,0.58,0.34,-346.71,20.79,23.6,0.13,0.23,0.01,0.49,0.34,0.82
0.86,-357.8,61.72,171.28,-0.03,0.47,0.18,0.42,0.39,0.32,-145.54,84.93,28.36,0.01,1.05,0.08,0.44,0.24,0.17,-162.21,10.07,2.86,0.0,0.17,0.1,0.02,0.39,0.46,-346.79,20.94,23.78,0.22,0.16,0.11,0.42,0.14,0.58
0.87,-358.34,61.04,171.29,0.11,0.59,0.19,0.36,0.08,0.19,-145.38,84.13,28.46,0.08,1.02,0.13,0.29,0.06,0.26,-162.06,10.35,2.83,-0.04,0.05,0.09,-0.16,0.15,0.54,-346.97,20.9,23.91,-0.04,0.21,0.06,0.49,0.49,0.88
0.88,-358.63,60.3,171.49,0.16,0.77,0.02,0.22,0.36,0.2,-145.47,83.13,28.62,-0.03,1.23,0.05,0.28,0.23,0.28,-162.29,10.41,2.58,0.16,0.18,-0.0,0.03,0.12,0.54,-347.13,21.1,23.68,0.13,0.14,-0.06,0.74,0.34,0.68
0.89,-358.6,59.72,171.46,-0.01,0.64,0.02,0.19,0.36,0.06,-145.49,81.97,28.52,-0.04,0.76,0.11,0.2,0.21,-0.04,-162.2,10.59,2.64,0.28,0.1,0.09,0.09,0.17,0.93,-347.38,20.99,23.66,0.07,0.15,0.2,0.9,0.33,0.65
0.9,-358.73,59.29,171.62,-0.04,0.55,0.01,0.23,0.25,0.25,-145.33,81.46,29.92,0.05,0.99,0.04,0.33,0.21,0.26,-162.12,10.58,2.43,-0.01,0.1,-0.05,0.24,0.33,0.9,-347.66,21.23,23.67,-0.07,0.16,0.29,0.66,0.39,0.78
0.91,-358.72,58.88,171.75,-0.01,0.65,0.18,0.1,0.22,-0.05,-145.4,81.06,31.15,0.05,1.06,0.0,0.36,0.14,0.1,-162.26,10.64,2.3,0.23,0.08,0.11,0.21,-0.03,0.89,-347.66,21.12,23.89,0.16,0.1,0.22,0.72,0.46,0.84
0.92,-358.82,57.92,172.16,0.06,0.98,0.05,0.35,0.32,0.07,-145.16,79.93,33.78,0.0,0.87,0.18,0.35,0.06,0.1,-161.97,10.85,2.38,0.05,0.01,-0.06,0.64,0.14,0.98,-348.1,21.18,23.8,-0.12,0.26,0.28,0.61,0.38,0.92
0.93,-359.59,57.06,172.04,0.22,0.86,0.03,0.38,0.16,0.46,-145.19,78.74,36.08,0.1,0.98,0.29,0.19,0.26,0.16,-161.98,10.66,2.37,-0.09,-0.0,0.15,0.63,0.01,0.99,-348.44,20.89,24.06,-0.09,0.16,0.41,0.7,0.14,1.19
0.94,-359.9,56.25,171.8,-0.02,0.85,-0.04,-0.03,-0.03,0.53,-145.25,77.45,37.18,-0.02,0.96,0.19,0.41,0.3,0.26,-161.62,10.71,2.41,0.07,-0.05,0.26,0.44,0.17,0.96,-349.02,20.92,24.1,0.22,0.06,0.54,0.82,0.18,1.09
0.95,-360.25,55.52,171.72,-0.07,0.66,0.17,0.25,0.06,0.39,-145.04,76.65,38.68,-0.03,1.1,0.1,0.12,0.13,0.1,-161.56,10.52,2.28,0.0,0.16,0.15,0.64,0.23,0.86,-349.35,20.73,24.17,0.1,-0.11,0.34,0.63,0.49,0.87
0.96,-360.78,54.47,171.64,0.08,0.85,-0.06,0.31,0.24,0.48,-145.07,75.31,39.76,0.05,1.17,-0.04,0.01,0.22,0.08,-161.26,10.37,2.29,0.11,0.2,0.06,0.55,0.36,1.09,-349.93,20.55,24.31,0.06,0.08,0.25,0.84,0.32,0.83
0.97,-361.38,53.6,171.61,0.13,0.79,0.43,0.68,0.03,0.72,-145.03,74.4,40.13,-0.02,0.86,0.22,0.16,0.34,0.3,-161.31,10.32,2.26,0.04,0.14,0.18,0.51,0.11,1.22,-350.45,20.19,24.34,0.12,0.09,0.27,0.79,0.11,0.66
0.98,-362.1,52.68,171.5,0.2,0.9,-0.04,0.68,0.09,0.77,-145.17,73.21,40.73,0.04,0.98,0.04,0.43,0.14,0.57,-161.4,10.17,2.4,-0.07,0.32,0.09,0.37,0.4,0.83,-350.78,19.96,24.34,0.2,-0.01,0.27,0.77,-0.04,0.62
0.99,-363.28,51.89,171.09,0.28,0.79,0.24,0.43,0.18,0.77,-145.21,72.08,41.44,0.06,1.15,0.02,0.39,0.28,0.61,-161.3,9.89,2.3,-0.03,0.05,-0.05,0.32,0.2,0.8,-350.94,19.64,24.35,0.15,0.24,0.16,0.71,0.21,0.24
1.0,-364.65,50.42,170.3,0.41,0.73,0.23,0.1,0.5,0.87,-145.05,70.85,42.02,0.23,1.26,0.32,-0.12,-0.09,0.42,-161.33,9.8,2.08,0.04,0.06,0.19,0.18,0.38,0.85,-351.41,19.3,23.87,0.25,0.35,0.24,0.73,0.59,0.17
1.01,-365.91,49.65,170.0,0.33,0.99,-0.0,0.41,0.67,0.83,-145.2,69.91,42.68,0.12,0.85,-0.01,0.13,-0.11,0.18,-161.2,9.42,2.1,0.05,0.39,0.12,0.52,0.35,0.83,-351.43,19.12,23.55,0.36,0.26,-0.04,0.09,0.74,-0.09
1.02,-367.03,48.86,169.55,0.33,1.12,0.23,0.63,0.79,0.61,-145.3,68.77,43.01,-0.08,0.94,0.08,0.36,-0.23,0.38,-160.93,8.92,1.91,0.02,0.23,0.3,0.5,0.08,0.71,-351.33,18.68,23.45,0.23,0.27,-0.03,0.51,0.42,0.26
1.03,-368.18,48.01,169.3,0.12,0.74,0.19,0.88,0.39,0.54,-145.14,68.13,43.19,0.01,0.72,-0.01,0.39,-0.01,0.31,-160.59,8.46,2.01,-0.0,0.51,0.51,0.46,0.25,0.38,-351.25,18.52,23.09,0.21,0.34,0.05,0.1,0.56,0.54
1.04,-369.11,47.11,169.21,0.09,0.53,0.19,0.46,0.31,0.45,-145.04,67.18,43.71,0.3,0.7,0.11,0.62,0.06,0.16,-160.06,8.16,2.0,0.1,0.41,0.55,0.31,0.43,0.21,-351.5,17.64,22.6,0.34,0.38,0.03,-0.06,1.03,0.74
1.05,-369.28,46.64,169.22,0.01,0.53,0.02,0.38,0.35,0.38,-145.0,66.63,43.87,0.12,0.85,0.12,0.35,0.28,0.33,-159.63,7.63,1.88,0.03,0.67,0.45,0.19,0.39,0.33,-351.2,17.58,22.54,0.37,0.39,0.01,0.12,0.99,0.81
1.06,-369.71,46.2,169.26,0.07,0.82,0.15,0.69,0.28,0.68,-144.95,66.08,44.22,0.1,0.99,0.18,0.21,0.21,0.37,-159.2,7.48,2.05,0.01,0.7,0.52,0.09,0.57,0.29,-351.21,17.57,22.4,0.16,0.29,0.28,0.0,1.09,0.87
1.07,-370.14,45.44,169.19,-0.03,0.63,0.14,0.23,0.5,0.44,-144.57,64.91,44.8,0.1,1.13,0.21,0.41,0.09,0.68,-158.36,6.84,1.79,-0.04,0.6,0.99,0.46,0.8,0.12,-351.14,17.16,21.73,0.5,0.11,0.18,0.21,1.05,0.65
1.08,-371.27,44.68,168.83,0.13,0.54,0.17,0.26,0.47,0.63,-144.25,64.24,45.32,0.27,0.94,0.05,0.27,-0.06,0.14,-157.81,6.25,2.12,0.13,0.38,0.69,0.49,0.91,0.2,-350.86,16.83,21.24,0.34,0.36,0.35,0.18,1.1,0.72
1.09,-371.55,44.08,168.92,0.07,0.77,0.06,0.43,0.52,0.46,-144.0,63.25,46.17,0.38,0.76,0.12,0.24,0.19,0.21,-157.14,5.56,2.03,-0.0,0.34,0.78,0.46,0.84,0.11,-350.52,16.33,20.61,0.17,0.42,0.23,0.36,1.19,0.74
1.1,-371.41,43.21,168.62,-0.11,0.58,0.25,-0.13,0.39,0.51,-143.42,62.46,45.78,0.05,0.62,0.12,0.15,-0.03,0.18,-156.51,4.86,1.85,0.03,0.52,0.75,0.44,0.68,0.06,-349.88,16.16,19.89,0.32,0.58,0.37,0.71,0.83,0.8
1.11,-371.42,42.37,168.73,0.02,0.65,0.3,0.05,0.34,0.33,-142.63,61.49,45.73,0.06,0.63,0.25,0.27,-0.05,0.13,-155.64,4.42,1.95,-0.06,0.16,0.47,-0.19,1.24,0.54,-349.58,15.7,19.79,0.29,0.61,0.53,0.39,0.69,1.04
1.12,-371.03,41.88,168.72,0.33,0.69,0.17,0.23,0.19,0.37,-141.83,60.6,44.76,0.15,0.81,0.18,0.05,0.23,0.19,-155.19,4.11,1.84,0.07,0.34,0.49,0.11,1.38,0.07,-348.58,15.35,19.09,0.29,0.7,0.66,0.28,0.6,0.75
1.13,-370.59,40.9,168.66,0.4,0.72,0.36,0.01,0.14,0.45,-140.92,59.69,44.24,0.3,0.78,0.37,0.17,0.07,0.25,-155.01,3.77,1.84,-0.01,0.41,0.35,0.12,1.59,0.08,-347.51,14.82,18.49,0.17,0.72,0.87,0.13,0.98,0.97
1.14,-370.07,40.22,168.86,0.31,0.67,0.37,0.53,0.06,0.18,-140.28,58.98,43.36,0.42,0.9,0.4,0.22,-0.02,0.32,-154.49,3.38,1.96,0.12,0.29,0.1,0.04,1.17,0.2,-346.35,14.9,18.18,0.17,0.56,1.1,-0.03,1.71,0.42
1.15,-369.83,39.58,169.11,0.27,0.68,0.28,0.7,0.44,0.36,-139.59,58.41,42.63,0.31,0.53,0.17,0.24,0.17,0.36,-154.26,3.07,1.89,-0.03,0.15,0.42,0.24,0.99,0.21,-345.3,14.46,17.56,0.38,0.47,1.13,0.0,1.29,0.41
1.16,-369.56,38.7,169.2,0.24,0.34,0.27,0.76,0.35,0.24,-138.44,57.56,42.25,0.51,0.64,0.27,0.26,0.1,0.07,-153.59,3.11,2.16,0.08,0.31,0.36,0.04,1.08,0.38,-344.14,14.29,16.86,0.24,0.39,0.94,0.07,1.7,0.16
1.17,-369.34,38.7,169.01,0.03,0.39,0.15,0.68,0.43,0.05,-137.77,56.64,41.6,0.3,0.62,0.02,0.39,0.2,-0.08,-152.93,2.66,2.35,0.36,0.21,0.56,0.05,1.17,0.04,-343.21,14.0,16.45,0.22,0.43,0.63,-0.02,1.05,1.06
1.18,-369.1,37.99,168.87,0.05,0.32,0.23,0.71,0.47,0.2,-137.16,55.94,41.34,0.29,0.64,0.13,0.69,0.3,0.16,-152.18,2.18,3.0,0.58,0.23,0.91,0.38,1.17,-0.12,-342.73,13.62,15.98,0.29,0.33,0.21,0.06,0.86,0.94
1.19,-368.69,37.53,168.61,-0.15,0.34,0.24,0.34,0.45,0.21,-136.39,55.33,41.2,0.02,0.61,0.08,0.59,0.04,0.32,-151.46,2.09,3.42,0.4,0.4,0.77,0.31,1.11,0.01,-342.7,13.34,15.79,0.2,0.23,-0.07,0.16,0.26,1.25
1.2,-368.7,37.29,168.59,0.21,0.4,0.51,0.42,0.49,0.15,-136.47,54.82,41.14,0.19,0.62,0.05,0.7,0.03,0.32,-150.9,1.67,3.53,0.36,0.29,0.69,0.36,1.41,0.11,-342.64,13.33,15.64,0.22,0.25,-0.07,0.33,0.35,1.38
1.21,-368.42,37.17,168.54,0.09,0.23,0.25,0.44,0.33,0.07,-136.09,54.36,40.95,-0.0,0.68,0.16,0.68,0.15,0.66,-150.38,1.63,4.07,0.26,0.3,0.59,0.34,1.3,0.26,-342.77,13.11,15.83,0.0,0.15,0.09,0.26,0.05,1.65
1.22,-368.25,36.61,168.39,0.12,0.4,0.22,0.84,0.15,0.38,-135.81,53.49,41.06,0.1,0.7,0.13,0.88,-0.2,0.41,-149.5,1.24,4.6,0.53,0.16,0.94,0.5,1.57,0.32,-342.38,13.08,15.58,-0.08,-0.03,0.0,0.8,0.46,1.41
1.23,-367.83,35.9,168.26,0.22,-0.03,0.28,1.04,0.1,0.49,-135.73,52.81,40.95,-0.15,0.83,0.19,1.12,-0.08,0.72,-149.27,1.07,4.97,0.51,-0.08,0.66,0.82,1.37,0.15,-343.02,13.1,16.09,0.22,0.0,0.54,1.15,0.57,1.99
1.24,-367.87,35.82,167.83,-0.03,0.16,0.21,1.46,0.23,0.65,-135.83,52.12,41.51,0.17,0.66,0.08,1.37,0.03,1.1,-148.91,0.74,5.7,0.56,0.37,0.25,0.78,0.99,0.11,-343.39,12.86,16.12,0.33,0.15,0.68,1.71,0.94,2.36
1.25,-367.83,35.75,167.85,0.09,-0.05,-0.17,1.87,0.29,0.92,-135.69,51.62,41.41,0.3,0.65,0.09,1.82,0.36,1.37,-148.71,0.69,6.09,0.54,0.38,0.09,0.94,1.33,0.78,-344.67,13.03,17.08,0.4,0.36,1.19,1.11,0.65,3.15
1.26,-367.85,35.73,167.68,-0.07,0.19,-0.15,1.57,0.37,0.71,-136.07,51.02,41.73,0.24,0.52,0.08,1.84,0.11,1.16,-148.59,0.33,6.49,0.57,0.34,0.01,0.68,1.43,0.82,-345.94,12.92,17.81,0.58,0.17,1.11,1.11,1.02,2.12
1.27,-367.99,35.91,167.68,-0.08,0.31,0.07,1.93,0.3,0.59,-136.45,50.32,41.88,0.15,0.51,0.2,2.07,0.27,1.99,-148.48,0.26,7.04,0.43,0.36,0.1,1.03,1.16,0.93,-346.78,12.96,18.6,0.64,0.05,1.0,0.99,1.26,1.03
1.28,-367.73,36.24,167.6,0.11,0.49,-0.01,1.45,0.25,0.65,-136.99,49.76,42.0,0.21,0.17,0.01,2.52,0.56,1.98,-148.72,0.04,7.5,0.26,0.19,0.28,1.31,1.07,1.26,-347.65,12.59,19.36,0.55,0.16,0.67,1.26,1.65,0.2
1.29,-367.91,37.08,167.44,-0.04,0.42,0.19,1.1,0.32,0.66,-137.15,49.8,42.25,0.19,0.12,0.11,1.9,0.14,1.44,-149.09,0.08,8.0,0.43,0.27,0.36,1.02,1.6,1.89,-348.39,12.46,19.93,0.29,0.06,0.67,0.24,2.03,-0.0
1.3,-367.94,37.56,167.47,0.04,0.53,0.03,1.21,0.06,0.59,-137.63,49.5,42.81,0.23,-0.08,0.14,1.28,0.21,1.06,-149.6,0.24,8.13,0.14,-0.01,0.68,0.69,2.24,2.64,-348.72,12.51,20.14,0.02,-0.1,0.32,0.16,2.75,0.47
1.31,-368.11,38.07,167.58,-0.28,0.35,0.11,0.37,0.4,0.41,-138.33,49.51,42.91,0.19,0.05,0.03,0.22,0.11,0.18,-150.38,0.08,8.48,0.22,0.3,1.13,0.59,1.72,2.99,-348.98,12.34,20.32,0.04,0.2,-0.03,0.05,0.6,0.71
1.32,-368.23,38.65,167.21,-0.11,0.41,0.1,0.39,0.16,0.17,-138.69,49.44,43.12,0.13,0.21,0.03,0.11,0.48,0.42,-152.13,0.59,8.55,0.03,0.6,1.54,0.38,0.16,2.49,-348.93,12.14,20.42,0.18,0.09,0.21,0.06,0.79,0.2
1.33,-368.36,39.14,167.77,0.21,0.26,0.26,0.43,0.18,-0.02,-139.28,49.31,43.42,0.08,0.18,0.18,0.28,0.61,0.44,-153.99,1.75,8.08,0.17,0.86,1.71,0.3,1.85,1.28,-348.59,11.99,20.56,0.03,0.13,0.05,0.37,1.0,0.09
1.34,-368.35,39.41,167.65,0.09,0.26,0.16,0.44,0.31,0.14,-139.59,49.3,43.92,0.12,-0.06,0.16,0.21,0.62,0.59,-155.53,2.94,7.88,0.4,0.94,1.44,0.15,2.52,1.15,-348.93,12.03,20.58,0.09,0.09,0.15,0.27,0.7,0.29
1.35,-368.5,39.62,167.63,0.18,0.33,0.11,0.65,0.57,0.29,-140.0,49.16,44.12,0.18,0.04,0.03,0.06,0.47,0.61,-155.99,3.37,7.79,0.58,0.71,0.93,0.2,2.32,0.95,-348.84,11.95,20.35,0.22,0.06,-0.03,0.08,0.57,0.16
1.36,-368.67,40.0,167.49,0.17,0.12,0.2,0.53,0.75,0.36,-140.43,49.35,44.34,0.16,0.19,0.09,0.12,0.17,0.45,-156.42,3.75,7.35,0.33,0.59,0.93,0.37,1.77,1.28,-349.01,11.94,20.46,0.06,-0.15,0.16,0.08,0.42,0.2
1.37,-368.53,40.21,167.52,-0.1,0.21,-0.0,0.34,0.62,0.28,-141.1,49.06,44.78,0.23,0.1,0.19,0.04,0.03,0.64,-157.0,4.53,6.73,0.39,0.19,0.31,0.45,1.24,0.66,-349.09,11.64,20.62,0.18,-0.08,0.14,0.34,0.22,0.26
1.38,-368.58,40.58,167.5,0.18,0.22,-0.0,0.13,0.49,0.15,-141.64,49.3,45.22,0.31,-0.08,-0.06,0.12,0.17,0.41,-156.82,4.41,6.57,0.29,0.15,0.17,0.6,-0.02,0.12,-349.42,11.76,20.59,0.14,0.08,0.35,0.24,0.47,0.31
1.39,-368.44,40.66,167.33,0.04,0.1,0.12,0.03,0.37,0.14,-142.28,49.03,45.51,0.11,-0.07,0.1,0.09,0.24,0.7,-156.62,4.71,6.07,0.27,0.28,0.65,0.28,0.62,0.71,-349.53,11.92,21.13,0.33,0.2,0.12,0.03,0.33,0.42
1.4,-368.12,40.66,167.76,0.26,0.21,0.18,0.18,0.05,0.07,-142.82,49.16,45.64,0.11,0.02,0.01,0.11,0.11,0.33,-156.37,4.61,5.89,0.42,0.09,0.15,0.2,1.08,0.64,-349.66,12.01,21.13,0.26,0.01,0.07,0.26,1.25,0.48
1.41,-368.36,41.03,167.83,0.16,0.24,-0.03,0.23,0.08,0.21,-143.16,49.24,46.0,0.06,0.13,0.21,0.4,0.32,0.51,-156.12,4.85,5.54,0.25,0.05,0.29,0.23,1.39,0.69,-349.74,12.02,21.5,0.16,0.09,0.24,0.01,1.23,0.16
1.42,-368.17,41.12,167.99,0.16,0.01,-0.23,0.05,0.26,0.36,-143.16,49.53,46.0,0.05,0.2,0.03,0.82,0.36,0.28,-156.07,5.06,5.41,0.48,0.26,0.19,0.54,0.83,0.46,-349.92,12.11,21.7,0.13,0.22,0.25,0.77,0.38,0.94
1.43,-368.16,41.16,167.86,0.05,0.21,0.14,-0.12,0.45,0.18,-142.96,49.49,46.03,0.03,0.1,0.15,0.88,0.06,-0.05,-156.42,5.01,4.81,0.21,0.21,0.3,0.19,0.61,0.57,-350.08,12.41,22.02,0.29,0.1,0.12,0.08,0.03,0.63
1.44,-368.27,41.4,168.06,0.2,0.15,0.11,0.65,0.41,-0.01,-142.58,49.42,45.75,0.03,0.12,-0.23,0.65,0.16,0.09,-156.59,5.47,4.62,0.4,0.13,0.15,0.1,0.39,0.63,-349.93,12.34,22.36,0.31,0.12,0.08,0.31,0.25,1.78
1.45,-367.99,41.55,168.51,0.11,0.07,0.16,0.78,0.21,0.05,-142.3,49.66,45.76,-0.01,0.15,0.1,0.93,-0.08,0.25,-157.13,5.65,4.36,0.24,0.21,0.3,0.2,0.7,0.36,-349.5,12.67,22.88,0.5,-0.01,0.23,0.35,0.51,1.58
1.46,-368.04,41.68,168.55,0.17,0.04,0.21,0.89,0.27,0.28,-141.93,49.6,45.41,0.16,0.28,0.07,1.34,0.37,0.07,-157.03,5.54,4.37,-0.12,-0.06,-0.01,0.25,1.0,0.06,-349.4,12.87,23.28,0.47,0.05,0.37,0.55,0.68,1.33
1.47,-368.0,41.67,168.65,-0.04,0.13,0.02,0.9,0.25,0.33,-141.46,49.7,45.56,0.06,-0.13,0.2,1.34,0.18,0.3,-156.95,5.77,4.35,0.01,0.07,0.08,0.1,1.09,0.0,-348.87,13.28,23.94,0.67,0.05,0.49,0.97,0.1,2.16
1.48,-368.07,41.77,168.75,-0.05,0.25,0.14,0.87,-0.09,0.42,-141.45,49.78,45.11,0.15,0.02,-0.01,0.94,0.18,0.43,-157.35,5.66,4.48,0.24,0.06,0.25,0.35,1.4,0.14,-348.08,13.73,24.52,0.76,0.16,0.38,1.17,0.65,1.81
1.49,-368.03,42.43,168.77,0.18,-0.08,0.08,0.59,0.07,0.05,-141.33,49.85,45.2,0.11,-0.14,0.01,0.64,-0.06,0.08,-157.32,5.77,4.71,0.38,-0.02,0.15,0.21,1.23,1.14,-347.65,14.19,25.42,0.77,0.37,0.45,1.33,0.93,1.75
1.5,-367.9,42.31,169.03,0.21,0.23,0.1,0.55,-0.07,0.17,-141.47,49.73,45.16,0.01,0.01,0.03,0.89,0.19,-0.05,-157.2,5.89,4.96,0.38,-0.04,0.14,0.32,1.35,1.18,-347.32,14.46,25.63,0.85,0.42,0.38,1.4,0.7,1.82
1.51,-367.74,42.46,169.06,0.09,0.11,0.24,0.49,-0.1,0.11,-141.51,49.71,45.33,0.06,-0.01,0.05,1.05,0.24,-0.0,-157.4,6.05,5.18,0.21,0.13,0.07,0.1,1.25,1.25,-347.11,14.68,26.39,0.81,0.47,0.72,1.32,0.47,1.72
1.52,-368.03,42.74,169.31,0.04,-0.02,0.21,0.47,0.04,0.12,-141.5,49.93,45.08,0.08,0.08,-0.07,0.83,0.45,0.53,-157.76,5.9,5.51,0.13,-0.01,0.24,0.17,1.21,1.22,-346.46,15.43,27.02,0.78,0.27,0.57,0.09,0.33,-0.05
1.53,-367.98,42.61,169.53,0.14,0.07,0.21,0.55,-0.11,0.13,-141.65,50.11,45.27,0.03,0.17,0.2,0.88,0.31,0.23,-157.73,6.27,5.97,0.35,0.29,0.22,0.12,1.23,1.14,-345.75,15.92,27.98,1.01,0.19,0.23,0.41,0.31,0.77
1.54,-368.05,42.86,169.77,0.01,0.38,-0.06,0.73,-0.0,0.1,-141.39,50.13,45.05,0.06,-0.02,0.24,0.57,0.57,0.33,-157.92,6.63,6.63,0.28,0.13,-0.1,0.17,0.81,0.86,-345.49,16.47,28.64,0.9,0.55,0.37,0.98,0.65,1.11
1.55,-368.17,43.22,169.74,0.15,0.44,0.0,0.63,0.49,0.36,-141.44,50.15,45.07,0.05,0.22,0.02,1.09,0.33,0.32,-158.12,6.62,7.08,0.42,0.34,0.26,0.21,0.6,0.69,-344.92,17.1,29.75,0.63,0.56,0.37,-0.18,0.42,1.13
1.56,-368.24,43.6,169.48,0.1,0.39,0.29,0.58,0.53,-0.09,-141.28,50.45,44.88,0.05,0.2,0.05,1.51,0.12,0.45,-158.28,6.88,7.58,0.58,0.31,0.11,0.11,0.3,1.36,-344.77,17.96,30.65,1.06,0.61,0.26,0.2,0.3,0.26
1.57,-368.13,43.86,169.71,0.23,0.19,0.0,0.69,0.35,0.02,-141.14,50.67,45.0,0.09,0.56,0.06,1.01,0.08,0.54,-158.6,7.31,7.97,0.17,0.11,0.27,0.24,0.07,0.98,-344.15,18.74,31.48,0.73,0.29,0.37,0.04,0.22,0.79
1.58,-388.7,44.27,169.66,0.1,0.44,0.08,1.22,0.08,0.06,-141.33,51.06,45.08,0.2,0.44,0.23,0.89,0.34,0.34,-158.44,7.6,8.52,0.46,0.34,0.22,0.26,0.5,0.51,-343.87,19.25,32.4,0.56,0.48,0.45,0.15,0.24,1.45
1.59,-388.19,44.59,169.64,0.19,0.56,0.06,1.05,0.23,0.07,-141.21,51.44,44.96,0.07,0.34,0.01,0.92,0.21,0.43,-158.87,7.84,9.11,0.31,0.25,0.25,0.46,0.98,0.96,-343.21,19.92,33.1,0.51,0.42,0.23,0.02,0.23,1.36
1.6,-387.36,45.23,169.92,0.15,0.51,-0.02,0.93,0.53,0.27,-141.31,51.8,45.04,-0.09,0.24,-0.15,0.91,0.43,0.15,-159.2,7.99,9.65,0.49,0.21,0.32,0.22,0.62,1.27,-343.03,20.39,33.72,0.73,0.4,0.18,0.86,-0.08,1.92
1.61,-386.64,45.76,170.29,0.22,0.33,0.04,0.53,0.16,-0.03,-141.0,52.37,45.04,0.13,0.52,0.01,0.62,0.19,0.18,-159.65,8.46,10.01,0.41,0.55,0.6,-0.04,0.15,0.77,-342.66,21.26,34.58,0.47,0.48,0.42,0.12,0.32,0.7
1.62,-385.93,46.31,170.46,-0.03,0.43,-0.17,0.11,0.16,0.1,-140.65,52.93,44.64,0.06,0.37,-0.12,0.63,0.13,0.01,-160.3,9.21,10.1,0.26,0.61,0.7,0.34,0.79,0.8,-342.43,22.17,35.18,0.61,0.43,0.31,0.15,0.11,0.42
1.63,-385.27,47.02,170.55,-0.03,0.67,-0.01,0.43,0.23,0.01,-140.65,53.28,44.8,0.15,0.45,-0.13,0.81,0.06,0.23,-160.7,9.69,10.61,0.21,0.36,0.43,0.09,0.53,0.59,-342.12,22.74,35.75,0.79,0.51,0.27,0.28,0.07,1.06
1.64,-384.78,47.68,170.83,0.02,0.54,0.33,0.54,0.37,0.06,-140.6,54.18,44.65,0.07,0.51,0.15,0.63,0.38,0.19,-161.23,10.15,10.89,0.57,0.28,0.43,0.27,0.72,1.09,-341.84,23.43,36.55,0.47,0.64,0.3,0.44,0.27,1.22
1.65,-384.09,47.89,170.69,0.11,0.5,0.17,0.71,0.24,-0.09,-140.71,54.44,44.59,0.08,0.6,-0.01,0.53,0.22,0.39,-161.46,10.3,10.92,0.23,0.39,0.42,0.19,0.84,1.08,-341.63,23.78,36.9,0.58,0.68,0.29,0.27,0.44,0.85
1.66,-384.18,48.29,170.97,0.01,0.71,0.21,0.63,0.36,0.07,-140.75,54.8,44.77,0.03,0.72,0.02,0.43,0.03,0.15,-161.7,10.77,11.51,0.36,0.31,0.54,0.39,0.87,1.21,-341.55,24.36,37.34,0.5,0.67,0.23,-0.14,0.19,0.57
1.67,-383.36,49.11,171.02,-0.05,0.57,0.31,0.37,0.14,0.2,-140.6,55.52,44.58,-0.0,0.69,0.19,0.65,0.13,0.22,-161.92,11.06,11.66,0.49,0.61,0.21,0.57,0.6,0.77,-341.6,24.78,37.95,0.68,0.62,0.16,1.02,0.77,0.66
1.68,-383.13,50.15,171.15,-0.05,0.8,0.17,0.03,0.04,0.08,-140.75,56.3,44.51,0.06,0.54,0.15,0.19,-0.03,0.11,-162.53,11.58,11.86,0.25,0.45,0.36,0.65,0.34,0.64,-341.36,25.8,39.1,0.73,0.58,0.24,1.63,0.74,1.25
1.69,-382.78,50.98,171.37,0.05,0.84,0.4,0.29,0.07,0.19,-140.87,56.97,44.6,0.08,0.67,-0.24,0.28,0.19,0.12,-163.09,12.16,12.06,0.13,0.39,0.57,0.55,0.41,0.37,-341.1,26.55,39.63,0.62,0.79,0.34,0.13,1.43,0.46
1.7,-382.14,52.12,171.57,0.12,0.68,0.45,0.48,0.13,0.18,-140.92,57.83,44.55,-0.06,0.9,0.04,0.15,0.22,0.37,-163.67,12.51,12.17,0.33,0.52,0.31,0.11,0.54,0.56,-340.83,27.28,40.75,0.77,0.66,0.33,0.57,1.16,0.8
1.71,-381.28,52.72,172.01,0.23,0.63,0.11,0.33,0.19,0.32,-141.26,58.85,44.64,0.03,0.71,-0.0,0.18,0.24,0.07,-164.24,13.19,12.13,0.11,0.46,0.67,0.14,0.71,0.29,-340.58,28.1,41.5,0.81,0.81,0.3,0.75,0.73,0.89
1.72,-380.63,53.53,172.0,0.24,0.68,0.21,0.25,0.14,0.3,-141.14,59.61,44.64,-0.05,0.71,-0.09,0.03,-0.01,0.34,-164.63,13.6,12.42,0.16,0.51,0.33,-0.07,0.6,0.62,-339.94,28.72,42.21,0.59,0.7,0.59,0.03,0.9,0.58
1.73,-380.34,54.39,172.51,0.16,0.94,0.23,0.4,0.2,0.22,-140.94,60.22,44.41,0.02,0.84,0.07,0.2,0.26,0.14,-165.79,14.33,12.25,0.05,0.44,0.59,-0.02,0.25,0.5,-339.4,29.92,42.91,0.8,0.45,0.44,0.24,0.1,0.41
1.74,-379.74,55.33,172.53,-0.0,0.85,0.09,0.53,0.21,0.13,-140.98,60.79,44.46,0.08,0.53,0.14,0.27,0.09,0.25,-166.35,14.77,12.13,0.02,0.59,0.68,0.58,0.03,-0.04,-339.23,30.2,43.38,0.66,0.7,0.5,0.94,0.68,0.75
1.75,-378.92,56.28,172.87,0.19,0.79,0.26,0.86,0.14,0.04,-140.87,61.35,44.5,0.11,0.66,-0.03,0.1,0.09,0.35,-167.28,15.47,11.85,0.04,0.7,0.64,0.43,0.19,0.27,-338.73,31.0,44.28,0.58,0.64,0.78,0.13,1.01,0.35
1.76,-378.35,57.08,173.24,0.16,0.51,0.33,0.82,0.07,0.2,-140.75,62.05,44.5,-0.12,0.88,0.1,0.2,0.03,0.35,-167.79,16.54,11.8,-0.05,0.62,0.56,0.12,-0.05,0.24,-338.17,32.14,45.36,0.75,0.63,0.44,0.12,0.27,0.24
1.77,-378.08,57.87,173.4,0.06,0.56,0.25,0.62,0.04,0.44,-140.93,62.79,44.34,0.1,0.79,0.24,0.32,0.18,0.03,-168.34,17.07,11.83,0.16,0.45,0.32,-0.1,0.08,-0.02,-337.73,32.96,45.81,0.66,0.7,0.63,0.68,0.56,0.19
1.78,-377.69,58.31,173.58,-0.05,0.63,-0.03,0.15,0.26,0.36,-140.99,63.85,44.5,-0.1,0.73,0.11,0.07,0.01,0.15,-168.78,17.81,11.61,-0.07,0.6,0.27,0.3,0.39,0.09,-337.22,33.66,46.55,0.77,0.59,0.6,0.86,0.54,-0.09
1.79,-376.98,58.9,173.82,0.21,0.66,0.11,-0.04,0.05,0.0,-140.83,64.56,44.7,-0.03,0.77,0.03,0.1,0.01,0.07,-169.21,18.43,11.55,0.15,0.78,0.44,-0.0,0.44,-0.07,-336.6,34.79,47.64,0.69,0.82,0.43,0.47,0.86,0.47
1.8,-376.99,59.35,173.86,-0.04,0.65,-0.17,0.17,0.17,-0.07,-141.21,65.05,44.65,0.13,0.61,0.08,0.31,0.24,0.32,-169.54,18.8,11.37,-0.0,0.78,0.46,0.14,0.17,-0.07,-336.22,34.89,48.29,0.77,1.02,0.61,0.3,0.57,0.56
1.81,-376.83,59.67,173.95,0.18,0.61,0.02,0.1,0.27,0.1,-141.08,65.54,44.83,0.14,0.69,0.15,0.22,0.2,0.1,-169.85,19.11,11.48,0.07,0.55,0.53,0.03,0.2,-0.07,-336.19,35.48,48.82,0.75,0.85,0.63,-0.08,0.23,0.7
1.82,-376.39,60.12,174.21,0.02,0.45,0.23,0.02,0.1,0.02,-141.1,66.06,44.99,0.1,0.64,-0.03,-0.06,0.1,0.29,-170.21,20.14,10.94,0.05,0.84,0.43,0.29,0.06,0.45,-335.67,36.63,49.8,0.75,0.74,0.42,0.2,0.19,0.21
1.83,-376.13,61.01,174.15,-0.01,0.72,0.19,0.44,0.18,0.04,-141.14,66.78,45.13,0.01,0.56,0.05,0.45,0.44,0.08,-170.6,20.75,11.02,0.08,0.67,0.57,0.31,0.06,0.78,-335.12,37.56,51.31,0.88,0.89,0.57,0.42,0.15,0.73
1.84,-375.64,61.45,174.47,0.13,0.38,-0.16,0.87,0.33,0.53,-141.37,67.56,45.25,0.1,0.63,0.13,0.13,0.36,0.39,-170.88,21.53,10.96,0.13,0.72,0.33,0.67,0.11,0.71,-334.95,38.72,52.61,0.81,0.9,0.4,0.13,0.38,0.53
1.85,-375.77,62.21,174.92,0.15,0.43,0.14,0.69,0.39,0.45,-141.23,68.38,45.23,-0.1,0.7,-0.2,0.07,0.79,0.58,-171.49,21.97,10.56,-0.01,0.78,0.38,1.09,0.48,0.78,-334.5,39.88,54.02,0.95,1.03,0.18,0.59,0.13,0.58
1.86,-375.44,62.6,175.0,-0.0,0.35,-0.01,0.04,0.34,0.3,-141.39,68.86,45.34,0.1,0.66,-0.12,0.4,0.43,0.37,-171.73,22.78,10.69,0.06,0.58,0.2,0.95,0.27,1.11,-334.11,40.72,55.45,0.82,1.07,0.33,0.59,0.41,0.56
1.87,-375.1,63.23,175.42,-0.0,0.62,-0.05,0.28,0.2,0.25,-141.63,69.56,45.36,0.18,0.5,-0.03,-0.0,0.22,0.07,-172.27,23.63,10.21,0.05,0.39,0.69,0.79,0.62,0.68,-333.83,41.47,57.0,0.93,0.96,0.49,0.9,0.3,0.62
1.88,-375.14,63.91,175.56,0.26,0.58,0.17,0.02,0.37,-0.15,-141.81,70.15,45.78,0.06,0.67,-0.13,0.41,0.19,0.09,-172.67,24.17,10.08,0.31,0.59,0.66,0.58,0.76,0.39,-333.18,42.43,58.59,0.93,0.84,0.45,1.37,0.31,0.8
1.89,-375.36,64.51,175.77,0.2,0.52,0.42,0.39,0.06,0.03,-142.19,70.99,45.77,0.2,0.49,0.2,0.32,0.12,-0.05,-173.69,24.84,9.65,0.17,0.67,0.81,0.06,0.42,0.22,-332.33,43.64,59.81,0.73,0.67,0.74,0.76,0.34,0.26
1.9,-375.17,64.77,175.74,0.06,0.46,0.11,0.29,0.27,0.07,-142.55,71.61,46.12,-0.03,0.75,0.11,0.25,0.15,0.3,-174.48,25.53,8.92,0.22,0.45,1.18,-0.06,0.19,0.18,-331.92,44.94,61.22,0.8,0.95,0.7,0.78,0.39,0.44
1.91,-375.44,65.36,175.56,0.2,0.36,0.02,0.12,0.34,0.21,-142.75,72.5,46.34,0.12,0.99,0.11,0.36,-0.0,0.64,-175.72,26.53,8.14,0.25,0.59,1.05,0.79,0.32,0.49,-331.02,45.81,62.56,0.87,0.78,0.6,0.59,0.73,0.76
1.92,-375.1,65.8,175.81,0.17,0.3,0.2,0.17,0.22,0.19,-142.97,73.22,45.9,0.09,0.81,0.13,0.26,0.16,0.18,-176.66,27.3,7.31,0.29,0.69,0.88,1.34,0.26,0.29,-330.27,47.05,63.94,0.78,1.02,0.79,-0.0,0.04,0.19
1.93,-375.17,66.58,175.95,0.07,0.48,0.11,-0.05,0.18,0.2,-143.2,73.92,45.6,0.1,0.81,0.17,0.23,0.08,0.23,-177.26,28.41,6.6,0.06,0.89,0.59,0.92,0.17,0.4,-329.47,48.23,65.42,0.86,0.94,0.6,0.03,0.14,0.43
1.94,-374.78,67.05,176.29,0.1,0.5,0.22,-0.01,-0.08,0.19,-143.1,74.75,45.46,0.26,0.48,0.02,0.09,0.03,0.23,-178.16,29.7,5.84,0.25,0.96,0.73,-0.0,0.13,0.52,-328.54,49.21,66.87,0.7,1.15,0.61,0.24,0.27,0.45
1.95,-374.81,67.52,176.32,0.19,0.39,0.15,0.09,0.13,0.09,-143.41,75.19,45.21,-0.01,0.68,0.2,0.29,0.22,0.19,-178.53,30.04,5.6,0.36,1.04,0.65,0.22,0.17,0.33,-328.21,49.92,67.97,0.72,1.06,0.71,0.37,0.25,0.23
1.96,-374.74,67.48,176.29,0.23,0.31,0.23,0.24,0.36,0.02,-143.08,75.43,45.15,0.11,0.76,-0.09,0.4,0.14,0.02,-178.55,30.76,5.14,0.36,0.95,0.68,0.3,0.23,0.12,-327.82,50.46,68.65,0.75,1.06,0.85,0.43,0.63,-0.01
1.97,-374.57,68.3,176.53,0.04,0.55,0.13,0.37,0.35,0.3,-143.43,76.39,44.74,-0.04,0.82,0.09,0.11,0.2,0.13,-178.84,31.72,4.69,0.68,1.17,0.58,-0.04,0.1,0.33,-326.9,51.59,70.4,0.8,0.94,0.71,0.59,0.42,0.12
1.98,-374.11,68.8,177.06,0.22,0.43,-0.07,0.62,0.19,0.3,-143.33,77.25,44.45,0.19,0.72,0.07,0.19,0.21,0.24,-179.6,33.11,3.67,0.41,1.15,0.33,0.18,0.19,-0.14,-325.95,52.64,72.22,0.74,0.91,0.7,1.26,0.57,1.14
1.99,-373.89,69.48,177.15,0.11,0.42,-0.01,0.89,0.1,0.25,-143.29,77.94,43.97,0.06,0.56,-0.15,0.08,0.16,-0.01,-179.94,34.36,2.93,0.55,1.15,0.61,0.18,0.55,0.11,-325.26,53.92,74.1,0.82,0.88,0.98,0.08,0.48,0.13
2.0,-373.22,69.74,177.44,-0.02,0.32,0.02,0.42,0.11,0.48,-143.25,78.79,43.77,0.15,0.72,0.18,0.35,0.17,0.29,-180.4,36.22,1.19,0.77,1.25,0.63,0.6,0.18,0.18,-324.02,55.09,75.99,0.67,0.88,0.98,0.07,1.2,1.01
2.01,-373.11,70.37,177.46,0.26,0.18,0.06,0.22,0.06,0.37,-143.17,79.51,43.65,0.11,0.78,-0.01,0.14,-0.01,0.23,-181.01,37.69,0.07,0.95,0.98,0.87,-0.0,-0.13,0.04,-323.1,56.61,77.84,0.43,0.92,1.17,0.29,0.39,1.19
2.02,-373.17,70.99,177.68,0.16,0.46,0.0,0.14,0.14,0.2,-142.85,80.29,43.25,0.16,0.64,-0.09,0.26,0.29,0.04,-181.61,38.83,1.81,0.89,1.25,0.8,0.36,0.24,0.63,-321.59,57.79,79.88,0.57,1.1,0.96,0.81,0.57,0.72
2.03,-372.99,71.45,177.67,0.06,0.39,0.09,-0.01,-0.08,0.03,-142.6,80.81,43.3,0.03,0.4,0.02,0.19,0.07,0.98,-182.22,40.06,3.56,0.99,1.22,0.68,0.11,0.36,0.44,-320.44,59.35,82.01,0.58,1.05,1.24,0.05,1.36,0.51
2.04,-372.44,71.83,178.21,0.22,0.43,0.1,0.32,-0.03,0.33,-142.49,81.55,42.66,0.18,0.56,-0.02,0.33,0.24,0.26,-182.52,41.17,4.92,0.76,1.18,0.6,0.03,0.39,0.29,-319.25,60.44,84.19,0.58,0.93,1.01,0.36,1.11,0.79
2.05,-372.21,72.12,178.76,0.31,0.27,0.05,0.6,0.08,0.57,-142.28,82.22,42.35,0.13,0.71,0.12,0.28,0.47,0.28,-183.2,42.5,6.88,0.77,1.24,0.91,-0.09,0.22,1.15,-317.22,62.0,86.97,0.86,1.03,1.36,0.62,0.68,1.2
2.06,-371.51,72.88,179.11,0.2,0.53,0.11,0.4,0.3,0.63,-142.09,82.83,42.3,0.21,0.69,0.11,-0.01,0.15,0.57,-183.93,43.59,9.09,0.93,1.18,0.86,0.04,0.19,1.07,-315.85,63.3,90.23,0.86,1.03,1.04,0.07,1.19,-0.0
2.07,-371.1,73.02,179.33,0.23,0.39,0.07,0.19,0.15,0.38,-141.75,83.78,45.99,0.08,0.72,-0.08,0.04,0.31,0.48,-184.69,44.6,10.9,0.74,1.32,0.92,0.19,-0.03,0.73,-314.3,64.49,94.03,1.22,1.26,0.97,0.54,0.25,-0.08
2.08,-370.74,73.46,179.96,0.29,0.1,0.11,0.16,0.13,0.24,-141.66,84.47,46.05,0.19,0.69,0.18,-0.04,0.01,0.0,-185.2,45.8,13.12,0.74,1.0,0.72,0.4,0.02,0.3,-312.64,65.34,97.92,0.92,1.06,0.9,0.32,2.09,0.72
2.09,-370.24,73.77,179.69,0.44,0.21,0.07,0.12,0.23,0.25,-141.04,84.62,46.03,0.27,0.41,0.13,0.05,0.15,0.33,-185.96,46.98,15.72,1.01,1.31,0.71,0.15,0.21,0.27,-310.83,66.18,102.07,0.81,1.11,1.21,0.05,0.73,0.92
2.1,-370.12,73.94,179.57,0.16,0.47,-0.01,0.21,0.17,0.43,-140.95,84.84,46.1,0.09,0.27,0.05,-0.01,0.12,0.1,-186.17,47.45,16.91,0.93,1.38,0.71,0.16,0.07,0.06,-309.97,66.76,104.38,0.91,0.92,1.16,0.17,0.81,0.67
2.11,-369.78,73.92,178.98,0.22,0.36,0.22,0.41,0.14,0.26,-140.8,85.21,46.26,0.25,0.37,0.01,0.13,0.37,0.23,-186.64,48.17,18.04,1.11,1.1,0.7,0.2,0.15,0.0,-308.98,67.23,106.71,0.92,1.13,1.2,-0.1,0.84,0.46
2.12,-369.39,74.27,179.25,0.39,-0.01,-0.02,0.28,0.51,0.62,-140.56,85.75,46.32,0.16,0.21,0.09,-0.19,0.13,0.41,-187.11,49.06,20.85,1.06,1.18,0.77,0.07,0.31,0.28,-307.36,68.06,111.18,0.8,1.13,1.02,0.47,0.84,0.72
2.13,-369.17,74.8,179.08,-0.04,0.3,-0.06,0.05,0.16,0.58,-140.15,85.99,46.32,0.23,0.29,0.24,0.07,0.18,0.33,-187.95,49.91,24.1,0.95,1.06,1.0,0.07,0.55,0.54,-305.82,68.59,115.74,0.88,1.11,1.16,0.85,1.61,0.89
2.14,-368.94,74.9,178.52,0.16,0.05,0.26,0.2,-0.07,0.34,-140.07,86.26,46.01,0.04,0.28,0.17,0.33,0.1,0.1,-188.4,50.62,26.95,1.21,1.0,0.81,0.24,1.52,0.05,-304.49,69.12,120.61,0.49,1.04,1.06,0.44,1.08,0.34
2.15,-368.6,75.22,178.11,0.12,-0.0,0.02,0.2,0.31,0.12,-139.68,86.47,46.25,0.34,0.27,0.05,0.14,0.37,0.38,-188.54,51.31,29.86,1.25,0.92,0.43,0.35,1.07,0.44,-302.55,69.86,125.25,0.61,0.95,1.35,1.3,1.97,1.45
2.16,-368.18,75.36,177.79,0.2,0.13,0.1,0.33,0.22,0.27,-139.72,86.66,46.11,0.14,-0.05,0.11,0.34,0.37,0.54,-188.58,51.81,32.6,1.39,0.76,0.52,0.81,0.63,0.32,-301.72,70.19,128.52,0.13,0.64,0.87,0.19,1.21,1.98
2.17,-367.97,75.4,177.55,0.29,0.26,0.09,0.35,0.24,0.04,-139.19,86.58,46.02,0.45,0.08,-0.06,0.13,0.33,0.61,-188.92,51.98,34.8,1.32,0.91,0.49,0.74,0.79,0.43,-300.8,70.37,131.73,0.23,0.43,0.88,0.82,1.86,0.54
2.18,-367.55,75.76,177.42,0.31,0.17,0.12,0.42,0.57,0.11,-139.12,86.69,46.06,0.29,0.15,-0.05,0.1,0.37,0.41,-188.62,52.36,36.88,1.45,0.66,0.53,0.55,0.92,0.51,-299.64,70.83,135.84,0.23,0.87,1.21,1.34,1.49,1.34
2.19,-367.19,75.81,176.56,0.18,0.27,0.02,0.44,0.08,0.25,-138.81,87.05,46.01,0.25,0.16,-0.0,-0.0,0.16,0.21,-188.45,52.31,39.63,1.54,0.65,0.37,0.6,0.27,1.28,-298.11,70.85,140.09,0.09,0.77,1.07,0.68,0.08,1.1
2.2,-366.75,75.73,176.14,0.15,0.28,-0.02,0.4,-0.1,0.28,-138.32,87.02,45.84,0.3,0.11,0.16,-0.01,0.25,0.28,-188.23,52.88,42.54,1.67,0.81,0.2,0.41,0.98,0.36,-297.46,70.92,143.51,0.17,0.79,0.61,1.43,2.24,0.48
2.21,-366.4,76.14,175.89,0.15,0.05,0.11,0.09,0.32,0.29,-138.1,87.11,45.81,0.28,-0.02,0.15,-0.09,0.31,0.35,-187.95,53.23,45.49,1.47,0.69,0.52,1.25,0.37,0.53,-296.77,70.32,146.71,0.31,0.82,0.45,0.69,1.8,1.29
2.22,-365.87,76.2,175.13,0.28,0.18,-0.06,0.07,0.24,0.04,-137.71,86.94,45.6,0.2,0.07,0.28,0.02,0.36,0.65,-187.93,53.37,47.9,1.3,0.64,-0.04,0.73,0.23,0.47,-296.0,70.07,150.26,0.37,0.98,0.74,0.79,0.36,0.06
2.23,-365.56,76.37,174.76,0.32,0.06,-0.08,0.19,0.35,0.22,-137.65,87.15,45.44,0.01,-0.13,0.02,0.25,0.29,0.38,-187.34,53.84,50.1,1.38,0.6,0.05,1.0,1.21,0.27,-295.12,69.43,153.4,0.34,0.95,0.3,0.11,0.16,0.41
2.24,-364.82,76.38,173.77,0.26,0.25,0.2,0.16,0.17,0.46,-137.32,86.95,45.49,-0.03,0.05,0.03,0.11,0.17,0.24,-186.51,54.34,52.07,1.29,0.8,0.16,0.83,1.54,0.17,-294.62,68.67,155.51,0.08,0.88,0.47,0.11,0.56,0.0
2.25,-364.62,76.38,173.83,0.22,-0.12,0.15,-0.05,0.07,0.39,-137.19,86.81,45.34,0.08,0.16,0.07,0.22,0.22,0.28,-186.39,54.59,53.23,1.22,0.8,0.19,1.21,1.48,0.24,-294.5,68.1,156.39,0.14,0.91,0.3,0.11,0.42,0.16
2.26,-364.58,76.51,173.71,0.18,-0.21,0.07,0.01,0.38,0.35,-137.16,86.82,45.24,0.21,0.07,0.1,0.05,0.37,0.59,-186.48,54.67,54.33,1.08,0.41,0.47,1.29,1.37,0.18,-294.32,67.95,157.57,0.36,1.01,0.33,-0.07,0.35,-0.01
2.27,-364.3,76.54,173.26,0.02,0.1,0.15,0.05,0.24,0.17,-136.91,86.64,45.16,-0.1,-0.02,0.12,0.13,0.21,0.54,-186.3,54.63,56.81,1.19,0.61,0.37,1.5,0.44,0.28,-293.92,67.1,159.06,0.38,0.75,0.39,-0.02,0.04,0.25
2.28,-363.93,76.51,172.56,0.08,0.16,-0.08,0.03,0.08,0.25,-136.54,86.5,45.02,-0.06,0.03,0.07,0.02,0.12,0.19,-186.39,54.52,59.31,1.36,0.25,0.66,0.24,0.41,0.46,-293.39,66.05,160.86,0.05,1.0,0.22,0.57,0.23,0.12
2.29,-363.67,76.48,171.73,-0.02,0.09,0.1,0.25,0.2,0.12,-136.62,86.28,44.99,0.13,0.42,0.16,-0.16,0.13,0.07,-185.97,54.23,61.28,1.1,0.39,0.4,0.27,0.55,0.66,-293.5,65.32,161.83,0.08,0.92,0.02,0.96,1.63,0.87
2.3,-363.61,76.78,171.86,0.28,0.23,-0.18,-0.13,0.26,0.29,-136.27,85.86,44.85,0.12,0.12,0.11,0.15,0.19,0.45,-185.92,53.91,63.23,1.19,0.58,0.48,0.13,0.79,0.59,-293.4,64.22,162.72,-0.07,0.81,0.18,0.51,1.24,-0.13
2.31,-363.37,77.11,171.34,0.15,0.12,0.04,0.23,0.09,0.51,-136.05,85.92,44.85,0.1,-0.01,-0.13,0.26,0.07,0.23,-186.01,53.94,65.92,1.19,0.7,0.19,-0.0,0.72,0.85,-293.49,63.72,163.83,-0.1,0.7,0.24,0.24,0.05,0.26
2.32,-362.92,76.9,171.02,0.04,0.13,0.12,0.08,0.03,0.49,-136.31,85.61,44.76,-0.09,0.3,0.05,0.16,0.31,0.65,-185.36,53.94,68.31,1.44,0.86,0.28,0.11,0.8,0.71,-293.69,62.79,164.15,-0.03,0.79,0.04,0.35,0.47,0.44
2.33,-362.9,76.9,170.8,0.2,0.16,0.02,-0.07,0.02,0.42,-136.14,85.27,44.75,0.26,0.23,0.03,0.39,0.25,0.33,-185.51,53.9,70.79,1.27,0.55,0.28,0.13,0.75,0.79,-293.82,62.4,164.43,0.29,0.62,0.06,1.13,1.9,0.17
2.34,-362.66,76.66,170.83,-0.09,0.06,0.09,0.03,0.18,0.22,-136.02,85.07,44.76,-0.13,0.37,-0.01,0.14,0.38,0.16,-184.89,53.88,73.09,1.31,0.61,0.15,0.31,0.98,1.13,-294.4,61.91,164.19,0.17,0.51,0.16,1.25,1.37,0.11
2.35,-362.57,76.63,170.42,-0.14,0.17,0.02,-0.05,0.09,0.45,-136.08,84.88,44.7,0.14,0.3,0.04,0.08,0.53,0.43,-184.28,54.45,75.6,1.11,0.66,0.15,0.1,0.76,0.77,-295.28,61.4,164.41,0.48,0.5,0.36,1.48,0.87,0.08
2.36,-362.44,76.83,170.26,-0.1,-0.1,-0.07,0.14,0.17,0.38,-136.43,84.66,44.92,-0.0,0.52,-0.05,0.06,0.2,-0.07,-183.52,54.29,78.16,1.47,0.67,0.18,0.19,0.22,0.7,-295.93,60.8,164.46,0.59,0.44,0.11,2.45,1.04,0.2
2.37,-362.58,76.57,169.78,0.19,0.05,0.01,-0.13,0.43,0.64,-136.43,84.38,44.99,-0.1,0.28,-0.25,0.08,0.23,0.19,-182.73,54.6,80.75,1.38,0.81,0.28,0.62,0.8,0.66,-297.01,60.49,163.99,0.58,0.36,-0.01,1.78,0.11,1.47
2.38,-362.8,76.57,170.32,0.04,0.25,0.04,0.15,0.38,0.82,-136.54,83.99,45.04,0.33,0.11,-0.11,0.31,0.24,0.28,-181.6,55.26,83.42,1.18,0.52,0.39,0.41,0.65,1.08,-298.12,59.94,163.52,0.56,0.41,0.06,1.89,1.52,1.44
2.39,-362.91,76.25,170.81,0.3,-0.11,-0.01,0.12,0.03,0.41,-136.87,83.75,44.93,0.28,0.44,-0.08,0.06,0.59,0.51,-180.1,55.87,85.71,1.36,0.61,0.38,0.8,0.84,0.32,-299.51,59.67,162.34,0.35,0.49,0.5,2.8,1.27,0.99
2.4,-363.11,76.36,170.97,0.15,0.14,-0.05,0.16,0.23,0.6,-136.95,83.54,44.91,0.0,0.62,0.09,-0.06,0.25,0.65,-179.43,56.01,86.96,1.33,0.62,0.46,0.8,0.77,0.28,-300.54,59.08,161.91,0.7,0.5,0.59,2.34,1.27,1.23
2.41,-363.08,76.18,170.9,0.19,0.09,0.14,0.32,0.11,0.37,-137.01,83.11,45.04,0.16,0.34,-0.04,-0.04,0.11,0.5,-178.91,56.32,88.0,1.25,0.77,0.56,0.96,1.06,0.46,-301.25,58.7,161.1,0.72,0.55,0.51,2.08,1.23,1.54
2.42,-363.33,75.8,171.11,0.09,0.0,0.05,0.34,0.21,0.1,-136.96,82.6,44.92,0.12,0.55,0.12,0.26,0.03,0.35,-177.35,57.27,90.46,1.23,0.55,0.53,1.01,0.78,0.55,-302.99,58.56,159.82,0.39,0.26,0.28,1.59,0.98,1.14
2.43,-363.36,75.83,171.07,0.09,0.26,0.09,0.27,0.41,0.09,-137.15,82.41,45.67,0.12,0.45,-0.09,0.31,0.19,0.17,-176.29,57.76,92.37,1.12,0.28,0.32,1.55,0.89,0.43,-304.63,57.94,158.69,0.54,0.39,0.77,1.15,0.07,1.87
2.44,-363.68,75.64,171.29,0.06,0.3,-0.09,0.05,0.24,0.23,-137.37,81.76,46.24,0.17,0.67,-0.05,0.15,0.32,0.23,-174.85,58.03,94.59,1.13,0.15,0.17,1.64,0.37,0.06,-306.66,57.41,157.19,0.63,0.03,0.76,1.49,0.14,1.36
2.45,-363.35,75.38,171.43,0.14,0.12,0.08,0.19,0.17,0.1,-137.6,81.14,46.81,0.25,0.43,-0.05,0.07,0.2,0.21,-173.74,58.14,96.01,1.05,0.25,0.3,2.27,0.07,-0.09,-308.47,57.23,155.61,0.61,0.18,0.53,1.05,0.71,1.39
2.46,-363.94,75.05,171.54,-0.0,0.2,0.1,-0.04,0.17,-0.1,-137.47,80.7,47.12,0.24,0.57,0.21,0.23,0.25,0.2,-172.68,58.85,97.42,0.91,-0.06,0.28,0.94,0.76,0.52,-309.98,57.02,154.03,0.62,0.21,0.49,1.38,0.31,0.88
2.47,-363.89,74.99,171.63,0.16,0.07,0.15,0.05,0.22,0.06,-137.76,79.58,47.35,0.1,0.79,-0.01,0.25,0.54,0.41,-171.54,58.75,98.48,0.91,-0.03,0.32,1.59,0.71,0.45,-311.54,56.89,152.59,0.46,0.22,0.37,0.25,1.27,1.3
2.48,-363.84,74.73,171.7,0.22,0.14,-0.0,0.38,0.37,0.06,-137.66,78.91,47.43,0.12,0.71,0.04,0.63,0.32,0.36,-170.46,59.1,99.37,0.76,0.22,0.21,0.17,1.58,0.81,-313.06,56.75,151.05,0.65,0.16,0.82,1.03,0.28,0.81
2.49,-364.01,74.74,172.07,0.13,0.21,0.04,0.51,0.31,0.12,-137.68,78.12,47.5,0.13,0.64,0.19,1.1,0.47,0.27,-169.52,59.29,99.9,0.7,0.29,0.06,0.54,1.68,0.19,-314.55,56.56,149.07,0.67,0.18,0.82,0.13,1.36,0.74
2.5,-364.55,74.71,172.55,0.16,0.16,0.08,0.52,0.38,0.22,-137.56,77.31,47.38,0.05,0.65,0.15,0.59,0.22,0.11,-168.83,59.25,100.53,0.86,0.24,-0.11,0.55,1.29,0.78,-316.07,56.49,147.33,0.44,0.26,0.63,0.04,0.69,0.01
2.51,-364.41,74.34,172.64,-0.02,-0.09,0.04,0.51,0.37,0.13,-137.43,76.59,47.26,0.05,0.73,0.1,0.59,0.12,0.41,-168.11,59.32,101.05,0.82,0.22,0.1,0.54,0.73,1.13,-317.37,56.4,145.78,0.37,0.17,0.76,0.3,0.45,0.36
2.52,-364.04,73.98,172.45,0.05,0.25,0.06,0.2,0.73,0.19,-137.36,75.94,47.37,0.08,0.71,0.06,0.12,0.72,0.33,-167.8,59.08,101.07,0.57,0.05,0.04,0.5,1.5,0.26,-318.71,56.1,144.01,0.3,0.05,0.79,1.03,0.19,0.56
2.53,-364.03,73.69,172.66,-0.06,0.32,0.14,0.55,0.63,0.14,-137.52,75.14,47.33,0.14,0.67,-0.09,-0.04,0.38,0.64,-167.4,59.11,101.07,0.44,0.23,0.14,0.27,0.83,0.17,-319.76,55.83,142.78,0.23,0.29,0.45,1.06,1.35,0.12
2.54,-363.87,73.72,172.85,0.32,0.08,-0.06,0.45,0.47,0.0,-137.3,74.24,47.62,0.15,0.62,0.01,0.28,0.6,1.21,-167.12,59.05,100.77,0.56,0.29,0.43,0.23,1.08,0.47,-320.73,55.53,141.49,0.34,0.25,0.47,0.69,1.95,0.58
2.55,-363.91,73.66,173.12,0.16,0.23,0.0,0.44,0.34,0.16,-137.24,74.0,47.76,0.12,0.61,0.2,0.38,0.41,0.94,-166.78,58.62,100.57,0.27,0.46,0.56,0.24,0.89,0.45,-321.03,55.6,141.0,0.47,0.2,0.31,0.74,1.3,0.35
2.56,-363.58,73.57,173.38,-0.08,0.15,0.02,0.31,0.43,0.19,-137.25,73.59,47.66,-0.03,0.83,0.04,0.38,0.3,0.21,-166.71,58.54,100.51,0.44,0.56,0.63,0.17,0.56,0.51,-321.26,55.3,140.32,0.31,0.34,0.33,0.55,0.98,0.56
2.57,-363.88,73.35,173.68,0.07,0.17,0.18,0.27,0.29,0.07,-137.12,72.91,48.07,0.2,0.59,0.07,0.32,0.49,0.63,-166.66,57.89,100.03,0.47,0.37,0.64,0.48,-0.14,0.38,-322.03,55.53,139.46,0.4,-0.04,0.37,0.35,0.55,0.4
2.58,-363.9,73.28,174.24,-0.01,0.1,0.33,0.29,0.04,-0.11,-137.09,72.44,48.02,0.06,0.24,0.05,0.21,0.13,0.61,-166.43,57.29,99.66,0.47,0.23,0.44,0.78,0.72,0.07,-322.78,55.13,138.47,0.46,0.12,0.51,0.14,-0.03,0.35
2.59,-364.04,72.79,174.6,-0.01,0.21,-0.05,0.32,0.5,0.21,-136.96,72.15,48.04,-0.04,0.54,0.06,0.24,0.13,0.23,-166.32,56.88,99.07,0.37,0.5,0.46,0.78,0.53,1.03,-323.78,54.84,137.62,0.35,0.27,0.22,0.2,0.14,0.73
2.6,-364.01,72.49,175.25,0.15,0.37,0.19,0.44,0.43,0.06,-136.77,71.55,48.39,0.16,0.45,0.1,0.06,0.33,0.73,-165.84,56.86,98.7,0.3,0.48,0.22,0.33,0.01,0.44,-324.5,55.06,136.78,0.16,0.25,0.49,-0.04,0.2,0.0
2.61,-364.26,72.09,176.11,0.11,0.27,0.0,0.49,0.52,0.47,-136.77,71.09,48.79,-0.02,0.42,0.13,0.05,0.29,0.27,-165.18,56.86,98.52,0.14,0.14,-0.02,0.19,0.22,0.08,-325.08,54.82,135.86,0.17,0.14,0.61,0.22,0.14,1.54
2.62,-364.26,71.66,176.65,0.05,0.27,-0.03,0.22,-0.1,0.05,-136.79,70.67,49.28,0.03,0.5,0.02,0.49,0.5,-0.04,-164.96,56.99,98.62,0.33,0.27,-0.05,0.06,0.35,0.23,-325.67,54.63,135.14,0.41,0.21,0.14,0.09,0.07,1.43
2.63,-364.38,71.67,177.0,0.05,0.28,0.13,1.05,0.34,0.14,-136.91,70.19,49.16,-0.0,0.53,-0.11,0.16,0.44,0.89,-164.14,57.35,98.3,0.14,0.12,0.35,0.27,0.2,0.44,-326.28,54.58,134.41,0.03,0.1,0.2,2.11,2.59,4.14
2.64,-364.43,71.36,177.37,0.07,0.41,-0.01,0.95,-0.0,0.52,-137.05,69.4,49.49,-0.02,0.75,0.14,0.57,0.19,1.16,-163.86,57.58,98.57,0.12,0.28,0.24,0.2,0.18,0.28,-326.78,54.56,133.74,0.25,-0.04,0.56,5.21,1.04,4.89
2.65,-364.4,70.67,177.47,0.12,0.41,0.24,-0.04,0.41,0.73,-136.84,69.13,49.59,0.08,0.22,0.0,0.58,0.27,0.37,-163.46,57.71,98.55,0.21,0.14,0.01,0.24,0.03,0.13,-327.15,53.84,134.03,0.31,0.54,0.26,1.01,2.98,0.31
2.66,-364.65,70.36,178.21,0.15,0.1,-0.03,0.21,0.23,0.58,-136.79,68.78,49.71,-0.08,0.18,0.04,0.62,0.22,0.15,-162.92,57.82,98.11,0.01,0.39,0.35,0.18,1.36,1.12,-327.51,53.51,134.02,0.59,0.58,0.77,0.09,1.59,0.5
2.67,-365.16,70.17,178.45,0.1,0.05,0.17,0.34,0.09,0.29,-136.91,68.8,49.76,0.17,0.2,-0.02,0.78,0.75,0.47,-162.89,58.16,97.94,0.25,0.23,0.31,0.87,0.75,0.56,-327.5,52.99,134.5,0.29,0.26,0.61,1.52,1.19,0.7
2.68,-365.58,69.88,178.74,0.35,0.39,-0.15,0.27,-0.05,0.17,-137.07,68.93,49.92,0.39,0.28,-0.01,1.38,1.12,0.67,-162.46,58.21,97.67,-0.06,0.2,0.16,0.38,2.69,0.77,-327.63,52.69,134.86,0.39,0.05,0.32,2.39,0.52,0.88
2.69,-365.76,69.41,178.96,0.13,0.18,0.21,0.42,-0.02,0.23,-137.65,69.21,50.0,0.19,0.31,0.04,0.24,0.38,1.67,-162.4,58.48,97.36,0.17,0.37,-0.02,0.11,3.48,0.73,-327.63,53.01,135.13,0.29,0.16,0.7,1.99,0.75,1.28
2.7,-365.71,69.49,178.97,0.14,0.14,0.17,0.54,0.32,-0.02,-137.7,69.12,50.21,0.11,0.37,0.04,0.17,0.59,1.45,-162.72,58.24,97.09,0.09,0.11,0.06,0.52,2.62,1.12,-327.42,53.18,135.01,0.21,0.03,0.3,1.73,0.97,0.99
2.71,-365.58,69.29,179.03,0.32,0.34,0.09,0.38,0.6,0.17,-137.78,69.32,50.32,0.15,0.16,-0.02,0.09,0.91,1.11,-163.0,58.1,96.82,0.13,0.11,0.26,1.62,1.94,1.36,-327.39,53.37,135.05,0.24,0.17,0.12,1.68,0.99,0.71
2.72,-365.43,69.15,178.95,0.3,0.29,0.01,0.61,1.3,0.04,-137.64,69.56,50.54,-0.07,0.16,0.25,0.04,1.26,0.87,-163.49,57.37,97.04,0.15,0.15,0.45,1.6,3.16,0.66,-327.52,53.63,134.9,0.14,-0.05,0.05,2.0,1.54,0.3
2.73,-365.01,69.02,178.52,0.12,0.04,0.21,0.12,0.37,0.02,-138.22,69.91,51.32,-0.18,0.45,0.11,0.99,0.45,0.49,-163.75,57.67,97.2,0.02,0.19,0.47,1.11,1.78,1.16,-327.84,53.56,134.56,0.43,0.0,0.15,2.06,1.38,3.2
2.74,-365.18,69.02,178.73,0.02,0.14,0.17,0.99,0.16,0.03,-138.23,70.34,51.44,-0.11,0.11,0.13,0.21,0.2,2.1,-163.5,57.61,97.16,0.16,0.01,0.52,0.17,0.31,1.66,-328.71,53.2,134.4,0.12,0.5,0.43,1.18,0.55,1.57
2.75,-365.22,69.08,178.85,0.02,-0.04,-0.23,1.78,0.33,0.25,-137.8,70.37,51.18,0.0,-0.01,0.18,0.6,0.05,1.02,-162.95,58.52,97.72,0.14,0.01,0.66,0.46,0.91,0.81,-329.68,52.53,134.37,0.17,0.29,0.44,0.9,0.23,2.0
2.76,-365.3,69.19,179.36,-0.12,-0.02,0.08,1.0,0.03,0.56,-138.18,70.65,51.22,-0.01,0.36,0.06,-0.03,0.0,1.73,-162.55,59.24,97.58,0.05,0.19,0.55,0.29,1.42,1.16,-330.71,51.89,134.1,0.19,0.28,0.47,0.59,2.28,1.41
2.77,-365.46,69.02,179.27,0.02,0.05,0.12,0.28,0.2,0.36,-138.01,71.6,51.24,-0.13,0.75,0.3,1.14,0.04,0.93,-161.7,59.94,97.3,0.19,0.24,0.25,0.31,2.08,0.96,-331.33,51.59,134.16,0.35,0.45,0.19,0.51,1.08,1.28
2.78,-365.16,69.15,179.65,0.06,-0.08,-0.0,0.01,0.09,0.07,-138.35,72.32,51.51,0.21,0.16,0.1,1.1,0.13,0.75,-161.2,59.86,97.22,0.38,0.11,0.09,0.4,0.06,1.65,-332.4,51.26,133.9,0.22,0.33,0.08,0.96,1.27,0.75
2.79,-365.28,69.1,179.8,0.1,0.13,0.16,0.38,0.11,0.42,-138.42,72.78,51.8,0.09,0.49,0.21,0.6,0.07,0.87,-161.01,60.02,97.44,0.19,0.16,0.07,0.7,0.65,2.25,-332.9,51.17,134.24,0.26,0.54,-0.14,0.82,1.64,1.29
2.8,-365.28,69.11,179.94,0.0,0.05,0.08,0.57,-0.09,0.53,-138.82,73.08,52.07,-0.04,0.79,-0.01,0.14,-0.04,1.15,-160.68,60.06,97.63,0.29,-0.07,0.12,1.2,0.56,2.57,-333.12,51.06,134.48,0.2,0.26,0.26,0.67,1.78,2.07
2.81,-365.28,69.36,179.95,0.08,0.03,0.09,0.19,0.39,1.08,-139.06,73.83,52.23,0.15,0.79,-0.02,0.72,0.25,1.23,-160.51,60.37,97.92,0.2,0.0,0.14,1.34,0.78,0.44,-333.35,51.11,134.38,0.13,0.32,0.07,0.57,1.61,1.87
2.82,-365.65,69.17,179.91,-0.05,0.21,-0.03,0.52,0.41,1.39,-138.97,75.05,51.77,0.11,0.24,0.0,0.49,0.1,1.33,-159.91,60.19,98.23,0.33,-0.05,0.17,0.1,0.46,1.04,-334.03,50.62,134.78,0.1,0.35,0.13,0.24,0.58,0.14
2.83,-365.58,69.29,179.9,-0.08,0.19,0.08,0.75,0.24,1.32,-138.86,75.68,51.58,-0.02,0.39,0.07,-0.0,0.17,0.81,-159.05,60.67,99.1,0.64,0.09,0.05,0.76,0.99,1.41,-334.66,50.08,134.64,0.17,0.26,0.35,0.8,0.45,0.83
2.84,-365.66,69.39,179.9,-0.12,0.24,-0.08,0.35,0.02,1.3,-138.85,75.97,51.41,0.16,0.5,0.02,-0.12,0.43,0.43,-158.33,61.18,99.46,0.57,0.1,0.19,1.31,1.19,1.68,-335.55,49.5,134.28,0.16,0.28,0.54,1.06,0.98,0.41
2.85,-365.69,69.61,179.88,-0.03,0.38,0.17,0.41,0.1,1.3,-138.64,76.39,51.3,0.26,0.23,-0.05,-0.04,0.32,0.59,-157.74,61.12,99.7,0.5,0.18,0.16,1.15,1.44,1.55,-335.63,49.44,134.22,-0.04,0.39,0.66,0.92,1.04,0.27
2.86,-365.63,69.91,179.96,0.17,0.44,0.05,0.58,0.56,1.61,-138.49,76.41,51.24,0.15,0.37,-0.05,0.15,0.55,0.64,-157.27,61.56,99.87,0.45,0.22,0.53,1.0,1.47,1.4,-336.43,49.19,134.08,0.09,0.34,0.49,0.8,0.96,0.2
2.87,-366.2,69.97,179.45,0.14,0.21,0.06,0.98,0.37,1.4,-138.42,76.89,51.33,0.02,0.32,-0.05,0.15,0.27,0.13,-156.52,61.62,99.98,0.43,0.18,0.26,0.55,1.73,0.47,-336.86,48.6,134.09,0.21,0.22,0.33,0.69,0.7,0.27
