0.02,-18.926316973113703,89.36897222035554,179.50221836755088,-0.0061068854480414,0.0364454560145234,0.009677105150183,-94.6292767344657,84.203036486426,0.1753374249749086,7.139751672102963e-05,0.0808954650532318,-0.002416575980431,-170.6202467324152,2.380390625260558,5.613495730370152,0.0250156479099548,0.0076172099254458,0.0504565544903524,-129.2843530009896,15.931862228934683,10.368711797610317,-0.0011785225674126,0.0162931566621721,0.0119351771535962
0.03,-18.932299980845112,89.36422346357254,179.52443004555477,0.0104090896472823,0.0279691059650905,0.001258083661239,-94.5546094779976,84.03749140234848,0.1848734690398854,-0.0076984891777189,0.070125765027353,-0.0001210412153361,-170.58559989013867,2.333754391213636,5.664693410931657,0.0281292556366287,-0.0055068516375272,0.0366976760375631,-129.3023716749286,15.935148473909589,10.38233191917896,0.0030971459898146,0.0019408140037702,0.0148143942819012
0.04,-18.995061249953544,89.3988868176598,179.5054906856716,0.0137618734421237,0.0150130255467948,0.0091642968121714,-94.57508679605267,83.99356312253248,0.1845779695875933,-0.007741452011394,0.0438981192005126,0.007153491369025,-170.57024220266536,2.317005597616009,5.680683955672738,0.0300869315974945,-0.0049959623681096,0.0070882049111502,-129.36467991291877,15.947247779607403,10.389043587719051,-0.0133288598110043,0.0141965946602456,0.0602145932055138
0.05,-18.93772176134522,89.43827627257772,179.5030767519009,0.0041083257538419,-0.0012475015458778,-0.004305863363976,-94.63356408518784,83.92831758630012,0.1848197097562105,0.0098895930577337,0.0528153631534778,-0.0019322225797786,-170.57249633008774,2.303401729550352,5.751264254742663,0.0444416501077612,-0.0010290578106818,0.0265249168330694,-129.37112644990228,15.939288132755609,10.378191289160675,-0.0219394969578264,0.0332293845777837,0.0199921939656337
0.06,-19.00520268576885,89.43859210682275,179.4892664629154,0.0103075017073154,0.0148578884398568,-0.0003478932468687,-94.60484501608738,83.87071231725997,0.195840871757896,0.0100440628266486,0.0824700164652773,-0.0044884829744839,-170.62695690862842,2.313308074060043,5.75722107498422,0.0342696897525296,-0.0103532506589594,0.0210971710749271,-129.44056781485207,15.87309506643322,10.374991664770755,0.0130538614174964,-0.003666923032322,0.0215972946512379
0.07,-19.008440810974918,89.43350197324551,179.50100551365895,0.0131348810326586,0.0105740279327015,-0.010492286037035,-94.61866159934928,83.79439864769753,0.1938809008970411,0.0167687154718809,0.0546166171108568,0.0073270389519024,-170.60527066103643,2.2942492901163525,5.812972183262104,0.0357905053596322,-0.0006952414594901,0.0191881358716513,-129.44631407985725,15.873988891307954,10.43689391492862,0.028623339523072,0.0316533023819969,0.047951711143839
0.08,-18.92840900669769,89.43740233259017,179.5190076766849,0.014187816518566,0.0173732328628498,0.0014632622829191,-94.60214966428155,83.75615081341536,0.2011570431732827,0.0136979340811057,0.0341606342393508,0.0099281714675118,-170.67666431000885,2.297824628025408,5.86209047617049,0.0493909433947473,0.0026425366926903,0.0350014568500093,-129.5122111852029,15.81978296256698,10.44543167471136,0.0090633336527279,0.0371100437603393,0.0516842104773167
0.09,-18.93848968291155,89.43614090595662,179.5060228744598,0.0074703400402249,-0.0010571561806793,-0.0067518311556679,-94.54674705989318,83.6916636039553,0.1785232283416144,0.0314979802193022,0.07420142633119,-0.0038295373338888,-170.77175447116034,2.3734861023879112,5.878291521671911,0.0312144674587226,-0.0018490093132724,0.0288354941435258,-129.54484138918045,15.736923421008974,10.511692200211396,0.0307678148044622,0.0539146969403214,0.0595693233701132
0.1,-18.93954046477189,89.43995939059808,179.51088238903068,0.0012881305909973,0.0025064853773752,0.0026683607052411,-94.57900354814493,83.6206045664177,0.1981279221432118,0.0062849475173153,0.0528239193154754,0.0025157982293168,-170.7597091021564,2.365405565559068,5.952577094949404,0.023027357342413,0.0076112561715143,0.0262603640541511,-129.6336341918637,15.697534169887469,10.501641765573952,0.0223421100046931,0.0410788022203264,0.0835819722702394
0.11,-18.947597268957036,89.4372469577305,179.48900045760206,0.0056804063201025,-0.007096561148272,-0.0056785560076093,-94.6144222422392,83.55976226367433,0.1861814905422506,0.0168745409430611,0.0277623388123128,0.0160563445216347,-170.78469585112734,2.391397703653083,5.986946381249391,0.0372104009994314,0.009626127450902,0.0184080929768461,-129.68646811122997,15.54819030473771,10.556035794311407,0.0313796867679976,0.061096189867816,0.061208694855851
0.12,-18.94415602031272,89.42717960203724,179.4947822512419,-0.0146524516651977,-0.002538965312913,0.015547996739446,-94.62816268310226,83.49716630092544,0.1962342912224809,0.0172262924201164,0.0015604948259925,0.0143685051234614,-170.80608998128105,2.3687194358699384,6.002640624668833,0.0394312500489408,0.0106645284721843,0.056911988435926,-129.77038086759885,15.498554787012903,10.60242166569742,0.0315292148038042,0.0623331526107737,0.0570343571311231
0.13,-18.953510144726646,89.42901984174028,179.49301582639083,-0.0073081489322422,0.0299039761354041,0.0084696287964599,-94.61359182366785,83.4962374209032,0.1697716799700892,0.0292315316598532,0.0185730126828172,0.006639976673125,-170.86874689502986,2.363058279072553,6.075225657019502,0.0281847530020325,0.0116016263109905,0.0545726767552657,-129.74329341307998,15.439228087359272,10.620758508912884,0.0315580941857747,0.0498602156374738,0.0246810741617996
0.14,-18.996941590700477,89.46578794423795,179.5160333296076,0.017163693216477,0.0332835831063378,0.0019759231291858,-94.6316164969763,83.42679323237083,0.1815574804729932,0.0007483361915221,0.0499965086419938,-0.0124016221688349,-170.94208322749017,2.309357085574636,6.064694427546597,0.0279047155351756,0.0238593362005167,0.052645455634972,-129.68351873055053,15.453872728632367,10.634345964089658,0.0059847719997819,0.0446973152432434,0.0187902315096399
0.15,-18.997201220171867,89.48313061730776,179.49545873384687,0.0298317899687078,-0.0004256296613901,-0.004566312997019,-94.61249477255856,83.40489517236422,0.1812641573611166,-0.0043702982366728,0.0523204823254583,0.0008859000133353,-170.98193377342557,2.357041491688364,6.097721067944322,0.0313672973567268,0.0235896085001076,0.0453266493300244,-129.67899937424866,15.39895447830018,10.607360936522197,0.0138683941659447,0.045350825118361,0.0274785137592254
0.16,-18.993825255389265,89.50923458996195,179.49207220384736,0.0293764761128942,0.0082845242094371,0.0103281586033056,-94.63664891711215,83.39107204093236,0.1944633856631361,0.0076490470377862,0.049377074985146,-0.0225166976294341,-170.9919673888697,2.3599744643168763,6.123717668481847,0.0423420455727232,-0.0029754700937964,0.0708797959647282,-129.67517364351664,15.38580027589695,10.573635120285545,0.0207169896572104,0.063531173355579,0.0203323371526067
0.17,-19.059089884283235,89.50028693544787,179.49056952079877,0.0386819517408654,0.0053919689087966,0.0032472163313811,-94.62281685119066,83.36879014749059,0.1979188990498705,0.0286631837291352,0.0167707239256279,0.0014664170889581,-171.05474162089118,2.363670218931909,6.187402253153418,0.0573959478675985,0.0332781132109969,0.0366510759467432,-129.69027742541638,15.323023720875549,10.49106330029618,0.0662763001782536,0.0349505737895833,-0.0227596674461119
0.18,-19.064927779040502,89.53317744118812,179.49275615255934,0.0172132220387104,0.0291541041289392,0.0046429534989146,-94.67112375633496,83.30809161559321,0.2009847654067088,0.0186072168517337,0.0253389874298698,0.0016723179527177,-171.0592453378456,2.3656338328561524,6.185149610388118,0.0306254416257059,0.0331836793006789,0.002084198183395,-129.69210564643242,15.303201710348407,10.426367017855554,0.0071930052101319,0.0142674740784442,0.0044110500978812
0.19,-19.06666316761284,89.48322420484818,179.49199470867202,0.0058485725910646,0.0373473133879981,0.0025236376831296,-94.6831477334991,83.3008306878048,0.2162615396245647,0.0114883032865658,0.0221853483596045,0.013574070140926,-171.06473276923973,2.428327708504472,6.242224231357362,0.0253325452089669,0.0165414475472352,0.0211890950591188,-129.71568947958764,15.321315151225216,10.447739039249214,0.0094846921336283,0.0600110838910714,0.0019484468219346
0.2,-19.102533617742363,89.50173022862792,179.495259790173,0.0365259788389285,0.0258918681541619,0.0032766839789223,-94.67675727427395,83.31047444230771,0.2503568725419312,0.0069568896209232,0.0238213487319941,0.0148659836469774,-171.05388110507087,2.4636220778836098,6.249662735710725,0.0152350249259963,0.0140236369042311,0.0165265283724024,-129.67999146854342,15.250706974554417,10.439397504803718,0.0023602335597214,0.027222861605712,0.026735948467233
0.21,-19.121055397232837,89.50958633483627,179.4989491790885,0.0261012483249352,0.0213760698181889,0.0124059122857445,-94.73201363413584,83.2457569857766,0.241739308381244,0.0243468803486403,0.0354010316867144,0.0223697988497784,-171.05908915260363,2.444535235572042,6.2336191087050645,0.0246000014174779,0.0302601850906217,0.0064356168413409,-129.65223958504492,15.233175409475114,10.452459466332218,0.029830906077228,0.0235705862072342,0.0159105124239297
0.22,-19.192046220026587,89.4912369241562,179.49693963532872,0.0271757560846477,0.000810472527255,0.0222146268935859,-94.81120272388992,83.20583710695283,0.2543923348117062,0.0225741334855803,0.0306071443926349,0.0101765967979959,-171.0610568745056,2.493603789197673,6.282632828483201,0.0346418063821776,0.0272017130486064,0.0186636001800761,-129.61953791659303,15.196156135266037,10.426985424306215,0.0130378864664568,0.0480230022524706,-0.0025454009960355
0.23,-19.18542691210686,89.50518849436993,179.48194394805094,0.0206811360097514,0.0192502960196739,0.0244228113859651,-94.85745222368097,83.17136928615889,0.2503595846670734,0.0296789278973124,0.0215943115823119,-0.012828075635737,-171.039052942589,2.499434791884063,6.324228455978561,0.0257847282600748,0.003822695089968,0.0444983504960881,-129.6668756809041,15.15576554050081,10.450480891202227,0.0291147600435897,0.0523879290545848,0.0119904252787709
0.24,-19.238342188646527,89.50282581330501,179.51125633013598,0.04194944101079,-0.0009894211662845,-0.0031148971729295,-94.94025003701476,83.18215188251942,0.269066548201698,0.0236097739149859,0.0004762799036093,0.0219963657154007,-171.13164438968568,2.502492901285743,6.299020963636809,0.0294332468284877,0.0257214367507301,0.0175536448584361,-129.68718802721062,15.13341298722357,10.440071704408297,0.0162937422417622,0.0336009880014798,0.0178036339712496
0.25,-19.240151286333784,89.49705294034194,179.52121664084916,0.0241473337453089,0.0012114806884816,0.0096826105205388,-94.9372174945499,83.18767514751814,0.2399012773303855,0.033791044632688,0.0084487298622538,0.0155742293054565,-171.1550725943521,2.48894811652446,6.353409292180095,0.0050563055441203,0.0477678641038014,0.0396357870750988,-129.67718956650543,15.1207014885001,10.412122732231106,0.0051682504753628,0.0175619645278213,0.0240639809461586
0.26,-19.30945654840309,89.50382685489825,179.4955923759958,0.0271457439851639,0.0109173539029162,-0.0044216820833268,-95.00705597733224,83.202317120216,0.2443472001784825,0.0346573505480021,0.0164454593602408,0.0034374861121429,-171.18295582983072,2.4398261849075005,6.3741220540180965,0.0142145622562527,0.0343230253641078,0.036542251578347,-129.69461417420257,15.060349191398556,10.438976109089324,0.0077251691872784,0.0427900782867416,-0.0031793569892479
0.27,-19.312257158487384,89.48494868744042,179.48358466706904,0.0134934158430975,-0.0016379510437543,-0.0122118379229416,-94.99591911241166,83.19485207199516,0.2349607726269385,0.0398930024776436,0.0252897465930486,0.0163794592247541,-171.18984461182995,2.3546742028399263,6.3819755600766594,-0.0082233082261573,0.0224953539517229,0.011030166363255,-129.62851051333976,15.007771924314472,10.503849328067718,0.0068808759910806,0.0369256342494393,0.0351068859477652
0.28,-19.297272511604373,89.49682067513389,179.50560501809065,0.0060688036540368,0.0071849604836241,0.0274236996349127,-95.06743571262898,83.17800464660274,0.3040712184547084,0.0393685065346341,0.0168288774470951,-0.0012146813665173,-171.1904285298845,2.345287617975311,6.367443989519217,0.0081490464661841,0.0137353619219716,0.0045356194625818,-129.62438245746944,15.004663731835404,10.502401244136388,0.0019784251078092,0.0438046506237066,0.032476062220932
0.29,-19.318078020189237,89.50620423979733,179.48832918940548,0.0062295940265786,0.0131459635056875,0.0062811444845611,-95.06762950553323,83.19581322266833,0.2925363293055841,0.0220972185905717,0.031799777446295,-0.0052650423617968,-171.18025956013497,2.312438506300699,6.289598604804951,0.0310121440221644,0.0079126744295142,0.0116512924299068,-129.56063402058822,14.93655567449533,10.510016932108533,-0.0017526835526871,0.0714942153444034,0.0346917428549339
0.3,-19.319948070327097,89.50230897132414,179.515497295795,0.0345439912135015,0.0298868326488921,0.0131307996768584,-95.07140621187634,83.20774506389738,0.3004923122648734,0.0262819504443462,0.0345676718743201,-0.0088606158807438,-171.19682200533268,2.3110488607222166,6.314707432449556,0.0314301275574947,0.0281543454716674,0.0227007132196602,-129.52477099686408,14.867747382398369,10.47568113255215,0.0025587037681696,0.0787108127870388,0.0400221063940932
0.31,-19.32016933629055,89.4964084906487,179.51404597994838,0.0155393012979261,0.0424194913585094,-0.0072051282362624,-95.09391070697338,83.24106028341592,0.3248051542778414,0.0265757222928044,0.0367024257345185,-0.0059952099770552,-171.18223668729777,2.3076343923737888,6.304553172943287,0.0194234977866561,0.0326596189367098,0.0033779731811904,-129.51577365631996,14.807431022100785,10.443308525378995,-0.0069246692350299,0.0667705891702018,0.0415548090864373
0.32,-19.307006777779204,89.50009897465736,179.49088198208625,0.0141658956089922,0.0374477155953483,-0.0129122758625745,-95.12861423301152,83.24341025889647,0.3049727108895096,0.0259185810846257,0.0238634282818724,-0.0023830970966238,-171.13787611768703,2.244073264746413,6.266347571603553,0.0525099615302018,0.0011738178335364,0.0246986376307879,-129.39235432531194,14.78134253213269,10.448975212393115,-0.0012167150084913,0.091734752703486,0.0835178344005145
0.33,-19.359038451688377,89.52260067730917,179.4951088699495,0.0241897683729418,0.040651746484127,-0.02177180158046,-95.17460278642731,83.25070608124169,0.3015373457272923,0.0282232227540062,0.0168885319155277,-0.0034996932900843,-171.1152478604876,2.2386869062030867,6.241530438502228,0.0370876370631689,0.0026269234525649,0.0254889887484545,-129.315139877725,14.743849274264983,10.430831477156516,0.0086609799259894,0.0902739228045124,0.1396101430455899
0.34,-19.376124620586356,89.42818659599156,179.5170031701864,0.0193425145492184,0.0442073031306216,0.0024469437239628,-95.24386067072123,83.2493409400214,0.3305154798915624,0.043390966033429,-0.0044253593660366,-0.0123683446778276,-171.13724735811223,2.277425512004026,6.17494563750476,0.0245384177748614,0.020332658988863,0.0096758427891838,-129.1915029717607,14.692047124764194,10.377561488744243,0.0016882642234508,0.086566289774439,0.1346466863984188
0.35,-19.453937000968647,89.44605969980789,179.49125643322586,0.020851299226036,0.039799763201178,-0.0045517015111881,-95.24556861509484,83.23490573782263,0.302370199803446,0.0191158829259768,0.0119059485009844,0.0082018676644625,-171.1261760523476,2.298446578372537,6.113902877069304,0.0359279486618717,0.0029690170151564,0.0078538053472207,-129.05958002029348,14.646976376519907,10.30455313500303,0.0148578341501156,0.0816096915475456,0.1246853531543889
0.36,-19.433296285476292,89.43437168171596,179.51932049483847,0.0117184328063872,0.0575292185706894,-0.0076729950609745,-95.3185940507589,83.30957494703368,0.3050726689845628,0.0354467794297622,0.0527303500926669,0.0135393206059623,-171.13931328813658,2.3074698180729287,6.12957849754218,0.010989030265555,0.0021577956803695,0.0262873671816921,-128.86567676140248,14.567850481098612,10.297212323785386,-0.0042185388872877,0.0685222011975826,0.1239106511442732
0.37,-19.449057438776038,89.37894362970704,179.48297986616373,0.0155536718952076,0.0747437008097932,0.0102514079452455,-95.32268479055496,83.36414564753102,0.3047704529721264,0.018341111526968,0.000204775120147,0.0097418492377355,-171.1836979646999,2.335046452167035,6.063889523758329,0.025079661730265,0.0109036701232223,0.0499016023942152,-128.76029678434918,14.54324880873143,10.266728865989968,0.00450714539606,0.0608626891289627,0.1401805484488272
0.38,-19.446914847164656,89.36582349331533,179.506656027523,-0.0070021495701485,0.04325578753039,-0.0077312357678374,-95.36404971034528,83.37251841986641,0.3034303150608149,0.0230881275366848,0.0374999622099964,0.0092065385623181,-171.22897825110422,2.3794909832994584,6.075525776826782,0.0283316154301184,0.0334608138152783,0.0517726371709437,-128.54978224951745,14.547659616654922,10.206664428647208,-0.0101335224555015,0.0111522445049717,0.145377333066975
0.39,-19.50608542435086,89.32193897952598,179.49372700194948,0.0230445657262555,0.0487000466837746,0.0109045273965717,-95.39344622993366,83.43611408416854,0.2936150743257795,0.0255930340459557,0.0229027311509912,0.002993937221079,-171.3079356395386,2.358132926394911,6.051481360999501,0.0248878728908637,0.0354083802781692,0.0570673463440309,-128.3746349294502,14.62546672068477,10.113261187018658,0.029870396920137,0.0153049810125803,0.1591816800541017
0.4,-19.4931317378116,89.31751649705303,179.4944858097377,0.0224987827335955,0.0469964159322222,0.009953120687108,-95.38615302264137,83.43735288090589,0.3205870593985594,-0.0031054126049479,0.0391060894173776,-0.0002542801762524,-171.3571951521077,2.4380970283160344,5.997580052649657,0.0206150896517845,0.0351617210228179,0.0581270043648384,-128.25798688214164,14.699638239038746,10.06087713784336,0.0313614456429858,0.0253723422749719,0.1451992554983271
0.41,-19.51617666950061,89.30706428830442,179.49852836714052,0.0316027965256052,0.0306621191685597,-0.0001348752613984,-95.3623455035348,83.47688871817057,0.2987170498416732,0.0292464745200087,0.041112496891967,0.0205757583363596,-171.43858734302245,2.454645360211856,6.009919481058818,0.0237981095782234,0.0065557517740364,0.061643797298013,-128.13623864770176,14.86445672116775,10.0018626454348,0.0043681807590475,0.1287933325002863,0.0800048312526136
0.42,-19.57026116050156,89.24055041614797,179.4862018521501,0.0434589639179855,0.0641839240277263,-0.0015481622034252,-95.39259748835536,83.49007416820058,0.3150573287361212,0.0055623199091348,0.0292469568048611,0.0115704065884059,-171.481769074721,2.443808857545437,5.940862342950835,0.0396433565722334,0.0109170838168787,0.0533375679336404,-128.05033399919594,15.191010294513935,9.93127273895734,0.0153313223293689,0.1436959974071137,0.0525982374593998
0.43,-19.56372751074161,89.18100543131077,179.4968675785576,0.0438405201882137,0.0557218995914934,-0.0029240539796007,-95.38844973281805,83.42650838617101,0.3057590807150913,0.0073041026918004,-0.0037016325700591,0.007549857733815,-171.5055845444812,2.49992331202627,5.863042477424931,0.0508376726773424,0.0237666325018093,-0.0016555026581719,-128.05591508832276,15.51415556153697,9.947832208258369,-0.0098773643666844,0.2475892140783258,0.0304868015952373
0.44,-19.581870882049778,89.15069845472425,179.4923116611406,0.016202500728217,0.0469416062572893,0.0123078381377531,-95.3637105686404,83.4381193483519,0.3269397081068929,0.0357405699381497,0.038543968273179,0.0005683756355729,-171.4657552320696,2.43482515661221,5.817708679778942,0.0879363684069264,0.0059008321431461,0.040833486469606,-128.12778625858027,15.987624185355022,9.943724424514429,0.0296462733753357,0.3518528165247327,0.0807125965277349
0.45,-19.61409291913512,89.13042946256118,179.50400071645188,0.0106460830865688,0.0060488308241774,-0.0097050195541796,-95.3580413403922,83.44667178530928,0.3019957422089658,0.0592351286505026,0.0374398412334624,0.0282989754386594,-171.43829513349738,2.391519737195928,5.785284118722542,0.0981369809129156,0.0306479876305145,0.0656088490105684,-128.2455422059346,16.235448460917183,9.957852397576362,0.0172203360522816,0.3850563427022081,0.1198657243162149
0.46,-19.626306032369744,89.11526647048143,179.47905922314715,0.0117921464772765,0.0017802387263673,0.0008865843321407,-95.30445339602076,83.49684430207867,0.3086807182068662,0.0709534481079333,0.0439514179565524,0.013838159751442,-171.45729970657857,2.3648037194159945,5.758726553228043,0.092716601949531,0.0201582467957817,0.0771697524177185,-128.37886509870194,16.472439088232846,9.95511239758584,0.009563551953343,0.4255857322968778,0.1366160121846873
0.47,-19.613058847279337,89.13903005069541,179.48871862187244,-0.0013392652262729,0.016467031207303,0.009764736590457,-95.29092333482436,83.61955580396337,0.365577932484219,0.0327190361270257,0.0226364857497605,0.064629948622299,-171.2534706724474,2.374742122980406,5.629239738146324,0.143733321701393,0.041937476874029,0.1822990827154146,-128.63337321626014,16.927156187673614,10.011278780348343,0.0404342991380614,0.4870929133996777,0.2264889696726501
0.48,-19.55162086610743,89.05425552084871,179.57323869975446,0.001531010249599,0.0248748985010904,-0.0091240830017533,-95.31005070581658,83.67784433192992,0.4301576754243953,0.0449083235622671,0.0453487557050303,0.0518117570575303,-171.0214562267907,2.4050072100676,5.502476740916503,0.1031376136997372,0.0156608188868415,0.2144389802837661,-128.99512685489813,17.435452724485526,10.065072460545656,0.0447327305747157,0.4885926295127107,0.2783927108768374
0.49,-19.557277083217784,88.92820810728976,179.49589956579754,0.0147893891479093,0.0763636252129369,0.0318364135664152,-95.4079155013362,83.80439822593766,0.5236749546962635,0.0037294573165978,0.1192838973440358,0.0658576377601873,-170.8082209859629,2.443359991368226,5.44525295237089,0.0722389393656712,0.0322749259779444,0.2691529409538238,-129.37358420124633,17.94597201261631,10.12733218138762,0.103312561058882,0.5022154947394456,0.3399116342017831
0.5,-19.569150560976,88.87101160224026,179.48446802962047,0.0050233113283148,0.0388229752616799,0.0105919930691004,-95.37249062742131,83.9941544895598,0.5435186231556589,0.0754819693236158,0.2540022671559565,0.0114288700897275,-170.53929408610114,2.3898372263025527,5.368874178830038,0.0519847392868449,0.0749241873369602,0.2565443706890688,-129.85537175587316,18.50532997613384,10.189797185964638,0.1393264651358007,0.5379459013898458,0.335883499727473
0.51,-19.567346166705956,88.75847358618418,179.50793402936594,0.0037968768560988,0.0821007576541822,0.0345276854629732,-95.50115419890452,84.30622208033756,0.6283703999452452,0.0534676326723543,0.3302621329018889,0.0377462905434993,-170.25361305030992,2.259767990323833,5.294234820267571,0.0404041509581611,0.1006644268540451,0.2072625405856491,-130.30666864554732,19.11456451110993,10.193784610591676,0.1840419542245116,0.576583538612792,0.2923231822478678
0.52,-19.57173695779713,88.61841421313876,179.43867421119137,0.0049637063127933,0.0936215220867959,0.0310074330290544,-95.61945143322404,84.5854663166126,0.6921130653459218,0.0747292331226452,0.2469113863708456,0.0397465396900984,-170.0432417198965,2.041792348267431,5.360990065231018,0.0541672686949333,0.157199565490681,0.117123601437656,-130.76812777008448,19.71330741014487,10.138037800907528,0.1762412935241846,0.6294261698691013,0.3004888416324043
0.53,-19.631905572210155,88.44526434479634,179.4406833447405,0.0352589352522027,0.155797556748126,-0.0019501380337421,-95.76717621603628,84.86216134821316,0.7463609031219288,0.0954997829423033,0.2237412077196137,0.0315832622663053,-170.00019733261067,1.9374500077451056,5.439241077692187,0.0951621373057629,0.1534795839539286,0.0634007319089732,-131.1864002126722,20.31448120829596,10.138192942741354,0.1812252229776296,0.6104613910231738,0.3479344459687271
0.54,-19.69766674490788,88.20932276572277,179.42899548333864,0.034092911745761,0.2013551641324688,-0.0017929962797703,-95.9422194391068,85.183235310148,0.8095842341474301,0.0961129405896514,0.3536547243687822,-0.0060923273089298,-169.9393545094057,1.7399810568632552,5.555161958406739,0.1623310446015552,0.1592399173427975,0.0564462861573696,-131.60601118191352,20.776315141006386,10.162834430348738,0.1616055903895909,0.6151616207505977,0.4168544419505428
0.55,-19.758457236153536,88.00047796170841,179.44857788834534,0.0657192745622648,0.2124262657828733,-0.0038472680566932,-96.0458036128586,85.69585660656148,0.7824562322032499,0.110348710102719,0.3939915684781431,0.0040384094434323,-169.87209808892413,1.5559467132968152,5.758605422556426,0.2320749116977341,0.1667996530396528,0.0357407997385261,-132.0231660910746,21.24271349636846,10.205240462081171,0.1241203431820281,0.6426798772628167,0.4668430285016823
0.56,-19.805067547105217,87.70138413062165,179.4631887933237,0.0690826105805285,0.2957990215355274,0.0023639771312474,-96.10271687541456,86.19037973593485,0.7622624951172298,0.1027871426779904,0.4538727667290846,-0.0057088020548372,-169.931724067096,1.3187067318426071,6.095595603835271,0.2770612948717154,0.2257237793241317,0.0775531884153541,-132.69081083677037,21.8655878542479,10.302270423140016,0.1094050144859296,0.6447467234960517,0.5334680401201396
0.57,-19.86906801605661,87.3639512718566,179.49004012668257,0.0637732949379976,0.3626983358405327,0.0243209378620795,-96.25393268001856,86.70729640129314,0.7535827225672918,0.0666386648014813,0.4011564631580967,0.0104888489702078,-169.9986356392249,1.0679456808720684,6.449544027023408,0.336239419393702,0.2613576852483033,0.1330689741137917,-133.4141094612486,22.407035624222196,10.511356064911295,0.0669769273548919,0.6074502412436329,0.5461210037273956
0.58,-19.92664503887806,87.17786857960917,179.4849799649668,0.0686905521405604,0.3265042418871286,0.0001896523443321,-96.32778246714476,87.12721870774324,0.7651618378548183,0.0715092428014321,0.4719395611222701,0.0124998991137553,-170.24833479488248,0.7523156629540707,6.79959718041388,0.3266228172435117,0.2745573532246658,0.1736398675880941,-134.1034135930026,22.952185530569476,10.740755714022368,0.065800997415302,0.5950908945968606,0.507005986274628
0.59,-19.995286062166528,86.81593638853981,179.50690113640192,0.0716184060722035,0.366368334314288,0.0290141357874291,-96.37299404884996,87.4285355792941,0.747307172293702,0.0663622625608465,0.5787184510356366,0.0194493510452446,-170.45645175845866,0.5071388535969669,7.182863360108227,0.2757497305533137,0.2618314094467421,0.1243793445922934,-134.8182894080341,23.453750677878944,11.006649253186906,0.063717231012768,0.6323599512365169,0.5039756355399451
0.6,-20.00174321292306,86.56819013318031,179.49918246792296,0.0783936714239078,0.4121779978716893,0.0121924758790428,-96.41358132777697,87.76048408505636,0.7276648281594357,0.0718142200000427,0.630165668083458,0.0501397916749004,-170.5642227161893,0.3100320147201825,7.454830761586434,0.256196157014406,0.1773749557354043,0.1032858746268046,-135.0900637386995,23.730307031321964,11.106570315827566,0.0589459894723012,0.6170511307724087,0.4756930822615289
0.61,-19.97704298376955,86.31309305055282,179.5729754263519,0.072298821203155,0.4705126269247519,0.0256907219253128,-96.42888055083245,88.05811603991992,0.7529582133635276,0.0627062383614144,0.6619480334463237,0.0333523235901184,-170.69747465020177,0.1199039741928342,7.746880989445189,0.2260751469576434,0.0961591490161539,0.0693534457906761,-135.37168957717478,23.98455822901935,11.269409593611725,0.0828046378678983,0.6339470318917395,0.4381494056708089
0.62,-20.066478257330782,85.81179736359188,179.55906646798687,0.067335783973071,0.5820640252501585,0.0391655958990182,-96.42597694718395,88.75492889271716,0.6924581841778739,0.1005449771773607,0.739119408474077,0.0499850578414156,-170.68753475204682,0.1127901744949869,8.005825717389726,0.2058772399027145,0.0180992746793729,0.0263658029558662,-136.1352747606255,24.48716148198672,11.447626891549596,0.090292836478626,0.6183975052708203,0.4560423228102708
0.63,-20.12806960492913,85.12405908205409,179.62586512774317,0.0690766458032264,0.652315334006386,0.0487224823455664,-96.44101654537944,89.37032575938606,0.5688818923884176,0.0644850801277564,0.7690490257603778,0.1093609292643247,-170.54820274473084,0.1325194731011871,8.236324515261435,0.1635835646356874,0.0254556911671433,0.1069801088397144,-136.69752707238763,25.00510032420595,11.687598015084234,0.0706998062872902,0.5420503201691199,0.4312791931560002
0.64,-20.11765635909901,84.37101326655072,179.68401973790634,0.101360074632003,0.7174064756544568,0.0352174749003946,-96.40279677496832,88.87922354322136,0.5629811329309273,0.0466501980555998,0.7338627965624733,0.0837114098977104,-170.50037861405866,0.1317441978393223,8.309307644205425,0.1019781984795191,0.0380186980601477,0.1385718874117772,-137.19339473162077,25.427897650959185,11.879059827295348,0.0338403329201173,0.4455432922305415,0.3522113189826646
0.65,-20.11488139480998,83.60124307990237,179.05195047657972,0.0563905585265819,0.7070212473428351,0.0598240166203689,-96.37263504344124,88.42595688993258,0.5600318704215124,0.0526701453512194,0.7156040935773137,0.0840441417212765,-170.39892559412374,0.1842286490923626,8.371866802117522,0.1094344470083508,0.0523407245896401,0.0461092298304645,-137.82043835462088,25.805896543077235,12.071311782086749,0.0342936235694723,0.4031287417323866,0.2427901666622291
0.66,-20.10939365242693,82.79613259892214,178.43725772377684,0.0278726832994818,0.6765525644931398,0.049056836747144,-96.30893587374334,87.56719273515002,0.6333465436504808,0.0243797163014262,0.8307140280317445,0.0891572404924556,-170.29765833861492,0.2563563892713489,8.508220653873693,0.1318945662577976,0.0686691341032027,0.0071265432459792,-138.08951648359914,26.21979544203716,12.187548671077854,0.044147074732981,0.4137792814381504,0.1359143080265994
0.67,-20.096538463850266,82.0455681114446,179.07882233259855,0.0468794337603509,0.6976963018373485,0.067412855363579,-96.17633794292976,86.48652779806552,0.7542646523672405,0.0448308534389017,1.025172085893486,0.142893696169891,-170.29145180853376,0.364673275436132,8.692910455422307,0.1291139243255376,0.0588775403864835,0.0215141100529424,-138.3592991871301,26.619035816336183,12.333979695463553,0.0695434257715986,0.4471452251366881,0.0590146868292421
0.68,-20.13893701218841,80.91076348883658,179.3572949733245,0.0744425119066488,0.7954970867718096,0.0825245391048701,-96.11974207366336,85.32504323498793,0.8698320843287533,0.0857037645576579,1.0352362562980106,0.1527118108462236,-170.37319461571528,0.4468851176881184,8.825717244950713,0.112082875106095,0.0834664527866244,0.0246054436927175,-138.61941476897664,26.959979535843445,12.497682073283196,0.0259704078317032,0.3958902485105788,0.1384898768165624
0.69,-20.115091335228207,79.81427980123142,179.63466674793762,0.0759427947789808,0.8538175020921814,0.0992474989599811,-96.05084220597,84.1192154868013,0.7385137168262917,0.1352588911649375,1.0196879995645944,0.1719273219938198,-170.3050018521623,0.6322541547411858,8.94097035109942,0.1066918251598015,0.1408237538680581,0.0157945527879677,-138.88366405847435,27.19226993971598,12.704069774884085,0.0132970199235744,0.3359997290864335,0.1156506929938109
0.7,-20.207439378659465,78.87023432774139,179.25189661035543,0.0860739812722581,0.8453891449452877,0.1257947272692055,-95.99846473269818,82.88914290838271,-1.8400996450784848,0.0435045201322998,1.2252427732989486,0.1633441168146253,-170.30194804571042,0.8151325051782351,9.002594124192246,0.0577929545838707,0.1975238002108452,0.0365656934505506,-139.25573612742423,27.366583897028107,13.004536817987686,0.0680915819981774,0.268561434938966,0.0791287090862546
0.71,-20.09752678649422,77.94379306199498,178.62729647922913,0.071984446833302,0.8585855300812825,0.1459694739741106,-95.86274815854183,81.5055635277344,-2.5664648384176774,0.0632768272147236,1.2765761200928385,0.1720170579866146,-170.19129212021758,1.1175834542215768,9.003522908785904,-0.0093621616115367,0.2738356900841929,0.0690740932124442,-139.3207843412706,27.491386945555337,13.130469351703333,0.0662030798602053,0.2434030818766713,0.0246361670529391
0.72,-19.994541065850303,76.8807533824082,178.12209750426177,0.040222202016533,0.9504750232452188,0.1331811023347108,-95.75208135052188,80.11031364486199,-3.1240429273098056,0.1124092949201524,1.2028283175767378,0.1907281424880902,-170.00857707537108,1.421504040949272,8.936631477680544,0.0448447388312937,0.3239459012359499,0.2000632306522763,-139.37543514185603,27.69155200678856,13.305621870118284,0.0233053187357634,0.226491507478819,0.0228854760207635
0.73,-19.98816999604009,75.82550371259359,177.7513767874272,0.0587277572026324,0.9617028672389564,0.1046958954191925,-95.7009049665514,78.80229679085333,-3.6319068746945895,0.1455450470565591,1.170017827528011,0.1811416722172142,-169.8237198943175,1.6352034704964205,8.947173486784337,0.0493599798474134,0.3306369573654304,0.4200897793284756,-139.7456227311062,27.94379268062807,13.436669235897105,0.0513917480061466,0.2117090809463157,0.0083346689423359
0.74,-19.93242727098044,74.75866748214246,177.49120571833166,0.0798023272290132,0.9323763610452672,0.1181766842728871,-95.56664202354608,77.62432129645886,-4.026494079353853,0.0599159606341157,1.0990217727913132,0.1998781345025421,-169.2468566336901,1.874872062139836,8.938444853394305,0.0407249345978012,0.2844658858722503,0.513122943550664,-139.7527106472191,28.11862437070713,13.554991141668326,0.1383936744242379,0.1578706073805467,0.0633729836054218
0.75,-19.797626324964,74.27147948938796,177.30142701122912,0.0892897331873163,0.8998284032200651,0.1321799321481278,-95.49824381198027,77.05614185494434,-4.253106502753477,0.0567477913393677,1.0557390424778177,0.1944774093420951,-168.94992618076247,1.966882498617425,8.916483647283764,0.0602030576852831,0.2736667348489254,0.51360913340018,-139.87663853455754,28.18400407001837,13.677775768186653,0.1471877793823778,0.1522088788739363,0.0410276810466661
0.76,-19.694947640751685,73.79682021437934,177.10599802227387,0.0995567739443832,0.8707376196616272,0.1313994474915941,-95.44489381504889,76.4367977385512,-4.453732508320781,0.0247988504236557,1.0012939573862834,0.1984863139285308,-168.67717866337537,2.05219957251171,8.943165146903185,0.0962503713073132,0.2886884299894738,0.5275625600230955,-140.01897110072352,28.21236478843212,13.804332912726071,0.1713973409470786,0.1436577394944643,0.0172958396010184
0.77,-19.438262127624284,72.85132058684128,176.70442185634263,0.1456819748261268,0.8140141768346598,0.1451521869675653,-95.2027519498688,75.3111181347073,-4.819219530239958,0.0621863132389977,0.9656389162114876,0.1420038606405342,-168.05396451629562,2.304656940675453,8.804756743546223,0.1250759049064002,0.3005067422838877,0.5023956634822252,-139.9510099992111,28.409220845187,13.984743067687376,0.1709621880375249,0.1920881456897067,0.0685978851672761
0.78,-18.952473171267936,71.98445506672046,176.10486583483942,0.2041771686132454,0.7498266000992179,0.1334138755720323,-94.87055943423177,74.19030931419555,-5.01404988590841,0.1060512863833272,1.0345856902158852,0.11313844841768,-167.5047724951758,2.5668959048031077,8.686610021218879,0.0929616802340112,0.2412621828300327,0.3757358382630447,-139.94753337876563,28.571634003737604,14.189460246410135,0.1896232639948307,0.23969742254246,0.1173421642365951
0.79,-18.48159075452048,70.76479186039059,175.7554422290278,0.1527194823759875,0.8699250964509129,0.1001971402722118,-94.7359759296088,73.6031970617452,-5.051132310422437,0.0468790827942977,0.9907156512679536,0.0990728911351997,-166.93916073575326,2.800367956233534,8.55990418131765,0.0532306132702804,0.1957853437749995,0.2388675400573096,-140.05349535222047,28.95109509497984,14.432471223007068,0.239839194275664,0.2740922590870046,0.1191106647324793
0.8,-17.997421445458926,69.51072934047902,175.38420462762045,0.060802091446688,0.9597214103579116,0.0648901112356901,-94.49808812350162,72.56242686347413,-5.12897243351444,0.0105285943148032,0.9370744812451476,0.086502197388821,-166.68916483913367,2.939297215284884,8.55752936302426,0.0146704781945742,0.1633514477316418,0.148175460459036,-139.9607013507115,29.195519322316105,14.62980448922024,0.0864754534970359,0.1752080883492462,0.1337948441825421
0.81,-17.940306703412734,68.93917453183946,175.4387107371886,0.0161860912954902,0.9987178854811686,0.0480753969353647,-94.31074403402162,71.50357534426658,-5.143681913267202,0.047785458507904,1.0276068111309915,0.1095394460542531,-166.77444893091695,3.0651243335724025,8.560192834101269,-0.0072209314546597,0.0882415028871726,0.1122140335520972,-139.9963686524013,29.373321885583348,14.629117325573455,0.0288338896168574,0.0220087407966251,0.1098492535467764
0.82,-17.936678495499706,67.88388904458893,175.60721044525224,0.1041304389315179,0.997300486774371,-0.0110300158851102,-94.24302133111638,70.29270155217753,-5.054964805101606,0.1074220550653265,1.1560811242120252,0.1080519901039261,-166.8076548873117,3.1948991041363954,8.571646038674801,-0.0003212329350111,0.0720702664808201,-0.0017886490112344,-139.69643777564914,29.488048363998583,14.560811518138436,0.219372702027487,0.1538662195115615,0.8077415484441534
0.83,-18.120117997749773,66.75618263193418,176.0070253843657,0.1377005610610948,0.971374296264889,0.0049381800827315,-94.31229760254536,69.0655961760386,-4.888463848566748,0.1504203385081085,0.9915953867618644,0.0757901861627626,-166.8145229797983,3.2492682512658284,8.636090406847043,0.1070889615905106,0.0329617045042893,0.1276825323082449,-138.6997198252198,30.015167541508077,14.388688089923262,0.3189808502902304,0.2708078389610123,1.0078354974239043
0.84,-18.38304613049028,65.70762041951227,176.3290007210024,0.1932525684498811,0.8530909187960011,-0.0034314804522193,-94.37406580068168,67.99640475709883,-4.62270529446671,0.1628642567417711,0.9252461761272792,0.1026109551914491,-166.69765972523456,3.246189619875332,8.749357523559894,0.2030628250246186,-0.0092216995705944,0.0364139629957829,-137.69235795620938,30.49382614534621,14.12329066450314,0.252514939345085,0.1713628269494853,0.9197380271582716
0.85,-18.63098574769863,64.81306028924233,176.6399994515656,0.1591017652545024,0.7884001444780836,0.0410161319729262,-94.52792226717982,66.96895188165254,-4.427403703948295,0.1809477408251641,0.9533027644689632,0.0984857526774321,-166.70063001485138,3.253561982058032,8.952853169484358,0.1566063156936395,0.0172535306743331,0.057850107153727,-137.05950428109674,30.695062962027222,13.88810581225989,0.0453723047568721,0.0733290625143204,0.2968400535024244
0.86,-18.813484620758672,63.93269897520008,176.80207117379774,0.1156048436066308,0.7263284553994486,0.0449154335064436,-94.69589949470604,65.9285696868875,-4.276882923011545,0.201470976813894,0.9875088751721008,0.1405288730524601,-166.9784093919261,3.254066251464971,9.051489924891191,0.0673120381636266,0.0426803058745432,0.3879833785041387,-136.99850149114346,30.680238723850948,13.804703138422845,0.1258310434461538,0.0171315335269079,0.2417659378070853
0.87,-18.74232272764014,63.013723889628686,176.80426438795774,0.064485874358483,0.8090153739889834,0.0876891460685504,-94.61463970689428,64.68676540782688,-4.395075193722547,0.0755943935592296,1.06956498264397,0.2447998011736109,-167.49514764434835,3.244436335409382,9.13073021070916,0.1346436830418315,0.0410063344968418,0.5009122916358641,-136.57892788638122,30.92599932372549,13.996804568507551,0.3317607906121871,0.2779207169244628,0.4503555565292299
0.88,-18.69674338485537,62.06360942277416,176.7560260290245,-0.0074854351140813,0.8542964101246178,0.1292733882271821,-94.18948026188691,63.72922835193231,-4.6817198651544185,0.1177215135615294,0.8915060262059713,0.1395152877510987,-167.99640559907246,3.278953482062538,9.243109479139823,0.1492811849742598,0.0527625958958467,0.444270933224029,-135.98485328034386,31.36560073622625,14.054249473489516,0.2444976414554625,0.359661740211237,0.492066451086001
0.89,-18.296716569588437,61.110774052556586,176.44089714442492,0.0912764982348451,0.7860730790935173,0.1889053649418804,-93.72997996473384,62.81239001321013,-4.937568198586449,0.142444995152125,0.7177615279624441,0.0855199455552358,-168.49938372505034,3.3098897199946906,9.370871346078044,0.1775130929627918,0.0675161228439228,0.4049949710878054,-136.11760742078525,31.86583137754845,14.064640891992568,0.0261285308560347,0.4146614542417005,0.1637589590957677
0.9,-18.03207395255928,60.795519351287226,176.2104618874311,0.1405072987639709,0.6930740970572554,0.1515309203567354,-93.62778671925504,62.40432949970322,-4.967989318724433,0.0854801383957062,0.7327767439938706,0.0800134700138971,-168.72752400985215,3.287409153414983,9.457456303745577,0.2113695900958504,0.0534067821027425,0.4290037866927572,-136.21748586918892,32.05269601052184,14.099636799936365,0.0418770806253165,0.3971355051367644,0.1379903808330333
0.91,-17.74928140901081,60.45269543214802,175.99512078954325,0.168503438073874,0.5770391590885638,0.1041648507719714,-93.50616798809608,62.010351092926925,-4.990166157982565,0.0175647283941118,0.7238787232191183,0.0474403129038773,-168.9991275087445,3.329466152747553,9.546459979257744,0.2134941824619859,0.0925542808441803,0.4713792059903037,-136.31511795578595,32.24105816683071,14.153764308413033,0.0760491936092688,0.3487866049538117,0.0841592350856673
0.92,-17.30947169559711,59.75228082830706,175.68616327036776,0.1306225324045758,0.604160811009903,0.1026358132495,-93.30681885033876,61.1920413643795,-4.960559069195406,0.0420235245219579,0.7199780497451285,0.0276199264092745,-169.59612693477033,3.3527252285755558,9.795610420791029,0.1950849546533861,0.0531007997384288,0.4086143366654112,-136.5007878683174,32.62481193570549,14.244197714172342,0.0782875787939135,0.3012682753071568,0.0230137201825276
0.93,-17.005111152093853,59.19651844632772,175.50542924884564,0.0406287143475874,0.4584501805897609,0.1161780733386387,-93.24355139590294,60.45143792347817,-4.887043545322304,0.0209274351209401,0.6737141918928649,0.0902003451944573,-170.17105412043563,3.3788810828018616,10.053558141601911,0.180373923078567,0.0211534041999565,0.3805958557322761,-136.68094946918987,32.87734764637299,14.502895084809586,0.0263717631363649,0.292437965160019,0.2790233904801002
0.94,-16.87848170994126,58.75162231495247,175.3179424282726,0.0222657878961143,0.3541093564637834,0.1464219636524741,-93.25197773407126,59.81184728864152,-4.748862754879657,0.0882624042312487,0.578109142990609,0.0699769644446384,-170.55506201096338,3.532300219362291,10.257418499124496,0.1096250666786963,0.0133322422513062,0.0833985293473943,-137.18772200230865,32.93388696285999,14.880346646356582,0.0579886584224836,0.153482426558313,0.4584993760236633
0.95,-16.743669151552446,58.325796718418346,175.1845239474124,0.0824799032320898,0.4200176724756501,0.118976953394662,-93.31094996958154,59.12447703848168,-4.684698635384771,0.1039882003170983,0.6507611289140776,0.1219094691002363,-170.56454370478377,3.512112265372247,10.317685235199235,0.1287370252593429,0.0076945112347408,0.0075076006662873,-137.9869946164096,32.86436228243664,15.30714159836321,0.1247762427751993,0.0416390897043016,0.4796822113785109
0.96,-16.835923612211054,57.733078491205774,175.1998037118887,0.1196581515905016,0.5507867452675062,0.0814973696953585,-93.25177629943109,58.43422995899653,-4.839874108859375,0.1216627477733983,0.6135995718234619,0.177088875909824,-170.5696265017785,3.5277061091810418,10.442725308315266,0.074792099084417,0.0196847005426905,0.1121155483847802,-138.56127289295486,32.81622559454556,15.746839947634944,0.054945761842037,0.0781640897103225,0.5178439365824549
0.97,-16.80423328605228,57.20967079990814,175.19716151010215,0.0822331115202159,0.4412415286602222,0.0824663227256801,-93.0985772766972,57.81539706208044,-4.892854046654376,0.0398414315407278,0.561925014707051,0.1030563364071762,-170.6834456626094,3.5089046454828696,10.492366250518726,0.0316413533363001,0.0167147261847045,0.0660982240884143,-139.52890509250358,32.81620955329243,16.183779359779244,0.0407913033325736,0.1613396173393088,0.6320185599829952
0.98,-16.679705143036042,56.84902565852099,175.1279123373134,0.0583944648877177,0.3868980665901053,0.0535783295099764,-92.93251211653168,57.18878560895097,-4.948509717886125,0.0024244872084171,0.5324568000687475,0.0444467393059245,-170.75245536747175,3.500287907818309,10.497464567351296,0.0309529265297883,0.0579577999668653,0.1472504838274084,-140.1715038252888,32.82073064184786,16.679304631168677,0.0917137979134841,0.2150964552046335,0.5624939280407194
0.99,-16.55653746064103,56.49283651432321,175.05919277587475,0.0333831093422813,0.3588071138050573,0.0256206754064404,-92.80313517185664,56.61811541489401,-4.872673258358638,0.0474180028190971,0.4669452700338678,0.0458849721073449,-170.86271360164127,3.508129260784939,10.551471284713848,0.126702128327045,0.0702955577236394,0.0465015625571439,-140.60593889324605,32.9262900302683,17.230001826838098,0.1786335993198817,0.1766241871890994,0.3488196098226013
1.0,-16.563225636823088,55.98949603890505,175.13364257347666,0.0474248501702307,0.4285983066456614,0.0295119329093138,-92.91684975004456,56.05776500231131,-4.837175981220119,0.1315521226023234,0.549362924912656,0.0720864348268393,-170.94422391964684,3.368228165552784,10.695302493673228,0.1333834913554904,0.038771766556563,0.0886976505485849,-140.99924870363148,33.07282077829263,17.73382053701965,0.304350873376765,0.1433628522819341,0.1387988697965899
1.01,-16.758649487557445,55.63990967216972,175.3760826475216,0.1723948254624096,0.2625354482064598,0.0163598572829952,-93.11674839778858,55.64184305670417,-4.631723986466497,0.1475558137729519,0.459773696450058,0.0456758500824656,-170.81892552426083,3.379540739035288,10.82138268477148,0.0894247808331222,0.011894036553799,0.1738018754876441,-141.312519037118,33.180918165653225,17.92905350290886,0.0986143465669976,0.166498854230755,0.1866319914871687
1.02,-17.202556935755045,55.3888025157916,175.61645424750978,0.1900403263905939,0.1819382419388143,0.0316836479254378,-93.35732134074838,55.18300316389352,-4.465682516729127,0.1423783287363124,0.3686542669768785,0.0209202269631907,-170.51584170350785,3.2419323768433865,10.951352466021302,0.0627320230306143,0.0971615439032753,0.3135383891325715,-141.53035733903218,33.41194642194516,17.63235588170337,0.2164011099404167,0.2015243295104677,0.2058897200040236
1.03,-17.679984432857445,55.18480740473374,175.9818053545201,0.234400687351562,0.1783118082782508,0.0219374849324658,-93.57105796581264,54.809305050115086,-4.235262105999924,0.0828983287443983,0.3094026600520309,0.01163501025688,-170.11296326233042,3.112623151558856,11.002155906118862,0.0083784664265038,0.0955624922200793,0.3450243984342311,-141.73416583287957,33.6348572965784,17.307877385958292,0.346055305779335,0.2666982691846044,0.2281301162223633
1.04,-18.17880694502492,55.01430441952299,176.30412096264462,0.2351866197466152,0.2059558583190222,0.0237117460805927,-93.60671462207452,54.69921269871509,-4.209937653681136,0.0969798493965981,0.3072741544266351,0.0412673268349799,-169.73087828242546,2.9363998608077777,11.000191820374924,-0.0002540063826911,0.1035306357987403,0.3470374428688954,-141.66212068494272,33.94001930983321,16.73600786059717,0.3762533695318849,0.1699330672089924,0.1548185314202961
1.05,-18.410684238620178,54.90296449755881,176.4737394846522,0.1948641918165822,0.2010136309208726,0.0870318387451562,-93.73806829591636,54.50496487665103,-4.072399385078412,0.1301461914839912,0.2940357123414654,0.0483713977627652,-169.53454450365462,2.8329076447513333,11.034752276424175,0.0408158081846121,0.088855230147073,0.420928747232823,-141.82072433273413,33.98513808095659,16.50199031205546,0.3804174908362697,0.0880145651045853,0.1431630169164938
1.06,-18.621930780922614,54.82161298987497,176.6375803714694,0.1480087187149602,0.1540571740227103,0.1149292933530718,-93.85455949640416,54.33256846789037,-3.954135755719453,0.1580555380115841,0.2779387715450457,0.0712586112629448,-169.3138099273379,2.755088662765424,11.05076971212204,0.0611429333663972,0.0858731833177198,0.4820343035474358,-141.95611329559583,33.999591554201686,16.25346673826807,0.3424891060344931,0.0073044838786744,0.1475284475003759
1.07,-19.045762035125698,54.765008328501935,177.04429847376517,0.0772161322432152,-0.0032310207868909,0.1514717574727052,-94.30086243790454,54.0686049856933,-3.630466350364919,0.1584026775758031,0.2251326303975321,0.0481927416891036,-168.8071153676283,2.5533941689191835,11.11597805879376,0.0413089343299521,0.0880637686864673,0.4826673136785738,-141.94098830250385,34.0008578356283,16.070863272580596,0.0970482431698283,0.207036833470857,0.0611081108686265
1.08,-19.37942031543719,54.74298523711419,177.31231794752526,0.0383947933983364,0.0119302739909335,0.0040225551819428,-94.6151431330695,53.80851437654705,-3.393237687641608,0.0508766414054936,0.3729566388799754,0.0401536169757387,-168.35863840322966,2.3142463966061224,11.257678315535143,0.0613488709622076,0.1300619384290109,0.3617335733446438,-141.9987749081047,33.67733872636051,16.06309392363356,0.1275303710145235,0.272324643897711,0.0556322853969569
1.09,-19.2441678646466,54.76029322563363,177.23928442792885,0.113599292102597,0.1065975032428455,0.0812358579465992,-94.55465847504462,53.38818345343916,-3.3707820079802566,0.0153374489473697,0.3944701385128611,0.0504351711248969,-168.25777350991734,2.123187464093675,11.352292177832268,0.1405690603621419,0.1611172581780857,0.0635661446156129,-142.36541505053594,33.39319953113776,16.194429544086987,0.0116416677144095,0.2139129814512463,0.0902082282040695
1.1,-18.815560699977905,54.5700109127131,176.9562537368934,0.1116703322871079,0.1931715354938883,0.119960703482266,-94.31836391198556,53.00731221054052,-3.433215075788128,0.1038878655521142,0.2609988912807937,0.0117537329012063,-168.35768854823985,1.9540362418537736,11.558211514959092,0.1815303424800765,0.137368252306581,0.1839523160622974,-142.49927081765594,33.163861325554194,16.197491686542307,0.1715509612868472,0.141212161635826,0.0966769951209113
1.11,-18.62486204589356,54.25974020340681,176.8812408315894,0.0606133936689484,0.223749417129325,0.1214850893734745,-94.1337992127813,52.75161089792722,-3.520235477609803,0.0597060643346812,0.1930545707099909,0.0252951381019065,-168.56361601717407,1.94066164335231,11.75127011674415,0.1692550884857415,0.0388529630995887,0.0821207680698582,-142.88379313411355,32.97426471556581,16.003693459124506,0.2102477783979749,0.0999174212574462,0.2394411921697681
1.12,-18.44954341863856,53.95480019836977,176.80006522860722,0.0023236232468654,0.2843414284136628,0.1217324071319232,-94.25328777205068,52.552402416584826,-3.377130931048049,0.0591334501576891,0.1295434880813932,0.0554210235535568,-168.38327031459576,1.9252276896653884,11.942165461915824,0.1378496543175245,0.0532209715104259,0.2246533616974932,-143.26018491065318,32.756026106031754,15.815780149195865,0.2209729109494695,0.0541926220181797,0.3600154891841589
1.13,-18.61489615058205,53.64352666532403,176.99390488710503,0.0527972267345912,0.2563268547562893,0.1418057221352421,-94.49202219743272,52.38298194734018,-3.204558743706301,0.1470506134962393,0.2955047354916836,0.0280833791722798,-167.9866152612113,1.9229414082189136,11.998283382473026,0.0313130522777999,0.0571866148232022,0.3275342936439998,-143.8778435123222,32.55459099687728,15.884970552582413,0.2277658116610057,0.0349064573787196,0.6015322635941658
1.14,-19.01642341721611,53.30116513224104,177.35681658615457,0.2156494847730005,0.2862642730894691,0.0396794531687401,-94.8094524202132,52.07685580229909,-2.9474130803794374,0.1362839594698843,0.325841716776353,0.0022120587225645,-167.8175719370054,2.0171804042044776,11.995435262521678,0.0442606399390505,0.1063733605250704,0.0995436027750821,-145.26197584967795,32.252097060675325,16.25067755744212,0.1970684103492979,0.1157144170149447,0.9166731068546924
1.15,-19.442225456180417,53.01593149393992,177.62190923591703,0.1691938526399946,0.3009224729898749,0.0171011668132581,-94.86415102248948,51.69098929561815,-2.885802134255249,0.0127406927135478,0.3089297425715917,0.0062783053211748,-167.6260114847271,2.098978013843864,11.92001677467809,0.0006287454938389,0.103270744131984,0.1712352217144146,-146.11584032887228,31.687885642569043,16.61237559342853,0.0653885338589604,0.2373146456381815,0.6180142912025508
1.16,-19.55504999995439,52.70192648923206,177.60550313482148,0.0794743534541467,0.3011721694749372,0.0743741823458564,-94.75131227125534,51.45231846818354,-2.8649457256591493,0.1003708257888016,0.1766639479650843,0.0553304761202406,-167.37196455123396,2.0521441201781365,12.052454581008888,0.0921897867744784,-0.0019103437171967,0.3080413909475197,-147.14582632159676,31.32582533479104,17.063929291095786,0.1284661995481447,0.1202519300911224,0.5603917647933314
1.17,-19.43889019717949,52.37599386469893,177.5651499482087,0.1192348495637397,0.216474374967384,0.0056669110986268,-94.47995951679589,51.301169539211365,-2.94367439836236,0.1324536921193222,0.0776014213298908,0.0884748436475298,-167.04471966561482,1.863830013178947,12.130237779057786,0.0859452106943738,0.1057158905075941,0.2697544046580775,-147.42836225579842,31.25246995226959,17.55264396138145,0.2607260970523612,0.06413658034914,0.265808291012834
1.18,-19.05728149271054,52.04561619492288,177.46188466087654,0.1643544499431197,0.2284228364755143,0.0083570868854827,-94.23405478731874,51.19122944446194,-2.9513135880630323,0.1374056451878232,0.1264637890118767,0.06812901241593,-167.00162319270146,1.7381388557254662,12.199781812313145,0.0114001970757679,0.0990579975505346,0.0342769158497951,-147.54982864700517,31.301276233539653,17.98552710753609,0.2942728510331469,0.0945817388134736,0.2277555693473569
1.19,-18.79778240755137,51.812074483638185,177.39263862053193,0.1019196017121381,0.2459157053614589,-0.0002995112048305,-93.94951033644854,51.08581406285081,-3.008495531229688,0.1360191611633932,0.0988645108807778,0.0603992104380072,-167.18204005931733,1.8213536623017783,12.130134047434108,0.0311081418803717,0.0246713434936832,0.1764709160238748,-148.2500403682593,31.2466601411498,18.43090637881767,0.2032960314019931,0.0354173596601572,0.2297533137932848
1.2,-18.68123400236366,51.67833445838679,177.35099910061592,0.0774368473699994,0.2575118783293286,0.0445650182707349,-93.95313931177073,51.06172385054374,-2.993021178876118,0.0854586438365517,0.0565486857908728,0.0638126344036747,-167.24393091640815,1.87083307124656,12.066625653426222,0.0401722687472296,0.0749824154339931,0.1423438718463377,-148.6261005649833,31.11405960605976,18.85436709867208,0.2684252280838331,0.0430732694168138,0.6212718906356606
1.21,-18.54413336738481,51.54818584595512,177.31316467071267,0.0605677809216662,0.2682875127615387,0.0421023713675756,-93.92585941887536,51.0710565077318,-2.941217236083982,0.027310391013113,0.0045535285348312,0.0695312249473278,-167.29449887692095,1.952541343482932,12.054207187628784,0.0463900589164242,0.129657988519275,0.0596373646727609,-149.00960200822695,30.94436756680818,19.2517227175449,0.3387042567695809,0.0609798336157372,0.9989856311639176
1.22,-18.733556911583005,51.37593955665189,177.44798262656735,0.1217025249841233,0.1442787717139815,0.0440741483625211,-93.93789519474257,51.03393187698138,-2.9285467799747447,0.0169926408556046,0.0451201958376784,0.0091804576789441,-167.22870859434624,2.0568868572522825,11.989957125973072,0.0631515416913915,0.0846784927672653,0.0772659817044606,-150.4425161895446,30.43570533643222,20.491776118595386,0.6329969192572749,0.0989718430828977,0.8998449216371608
1.23,-19.17776333359346,51.30217858995153,177.68618428021486,0.189769801742354,0.0402686500048304,-0.0163076090831574,-93.88233298896613,50.93004345356884,-2.9458424945512065,0.0660294528720281,0.1146508130044414,0.0097384686721936,-167.1236975756773,2.1988795698664925,11.937790445648032,0.0632183964175535,0.027520066536492,0.0419708563939829,-150.68585937463683,30.19004812066022,21.50621875474924,0.6800824151614693,0.0830262372173338,0.3219245997955592
1.24,-19.355599981642776,51.2351139047413,177.80800824369325,0.0644225882336645,0.0531051784156094,-0.0169685955417008,-93.66689774861034,50.8144106418146,-2.948860496645584,0.0857945411799611,0.0878024786021526,0.0764047074546585,-167.25684816610536,2.114710548733433,11.882452419464212,0.0274358956335596,0.0712588968598209,0.12072518740877,-150.62371912426357,30.124084117726053,22.12610058161364,0.4657763903877784,0.0042668959660647,-0.0067927668566207
1.25,-19.366032202557747,51.200048468184576,177.82064326832824,0.0659328765984924,0.0387539763874584,0.0573898538811183,-93.69155921932536,50.81565837457465,-2.8709414344424,0.0439325145130002,0.050049975863209,0.093839144474653,-167.36063690246576,1.9792412411286944,11.881673814109138,0.0574274917426174,0.0938374261818048,0.1332061391590615,-150.70167257014248,30.184295236684488,22.49728081889392,0.4042751479628223,-0.0043386514619595,0.1804861224569633
1.26,-19.30879494436554,51.11409564869947,177.8881131905603,0.0534508838999209,0.0136290448903248,0.1026322662875898,-93.75339654870638,50.86033723541257,-2.817389298105625,0.0133428871056203,-0.0043433950687674,0.1049028698218404,-167.49411022802957,1.8607408467100883,11.88733651643841,0.0324307278177269,0.1468430642558597,0.1714527500615157,-150.50401546971884,30.25313520949777,22.62438535276694,0.4019423042411535,0.0578391948812544,0.31595401838466
1.27,-19.362684955958372,51.07360211792478,177.97741416727692,0.0044779068963736,0.0980112030386493,0.073092353206764,-93.9395426863314,50.80686059015377,-2.6485343457398205,0.0835544061027213,0.1171814379453077,0.0710508816427785,-167.78840895141957,1.7445261622642896,11.869319149010888,0.0440284719857868,0.2230730374459277,0.3560458616036547,-149.9400341621483,30.3137895394685,22.86387559576747,0.4220426676626176,0.0213088417000747,0.3855374545439697
1.28,-19.55090247219131,50.87915653217575,178.11246868774387,0.0947556273249639,0.1535576396275136,0.0065686593040167,-94.19644048097622,50.70021885460954,-2.437548169038231,0.1249961629353265,0.1252780904138682,-0.0058832269028628,-168.2508848382213,1.6229808231942149,11.80237170776281,0.0420159860317818,0.2232001844414206,0.3650551664127525,-149.9465882871184,30.44796646505929,23.06197529073685,0.3980127938270831,0.0438721262133727,0.2887412996772972
1.29,-19.761220728887864,50.66732336777486,178.1941466655157,0.0768851841224488,0.1784118139153448,0.0486452208560964,-94.52001009511498,50.55542269454356,-2.313957231497487,0.1589571612852502,0.0783469409725558,-0.015387402299222,-168.69996529036305,1.4919158818610594,11.747844624937311,0.0184398268396638,0.185848103888848,0.401258046212272,-149.4407256852269,30.568282894630503,23.306375034230232,0.4386044694816985,0.0335733309842776,0.4270201619725398
1.3,-19.93022768879869,50.553292683459375,178.24855459579396,0.0518007091184965,0.1446071876159217,0.0238308278160495,-94.92060309408424,50.4657401044993,-2.100199746177328,0.1406061497459915,0.104730953994952,0.029217818587818,-168.92172153889194,1.3897442133908162,11.612836506291078,0.1691322498357324,0.1375884046810884,0.0172624912765157,-149.1838585984801,30.67539317163567,23.56217826449884,0.4479909204057224,0.045130461439484,0.6333525870576745
1.31,-20.05838895692165,50.501842098231045,178.31449454654293,0.0748619971301928,0.1009280253772908,0.0049131084870258,-95.30305940571596,50.37081975833699,-1.876182628716599,0.165449473353281,0.1221769062525062,0.013285058211231,-168.8705694616013,1.1892650351017526,11.430488984878618,0.1884700191921259,0.1535019017847228,0.1212515984530493,-148.3047148926429,30.891703323435017,23.679257335288,0.5999933132100226,0.1688386318404085,0.6791233765598361
1.32,-20.318691450307348,50.368476490236,178.43135089567764,0.1207325408405848,0.0886639209525108,0.0062918749736215,-95.48524725900089,50.264730558873445,-1.820424119872022,0.0298623846241943,0.1083091299776537,0.0283449251166975,-168.70658509403955,0.949923652814134,11.252714080597112,0.1622854780125463,0.1697254048591275,0.2455109583669572,-147.31872471746271,31.06434506178599,23.93840910707636,0.6822478300512684,0.1538577773766761,0.6802740693715981
1.33,-20.51441354837816,50.322526865256,178.49607003273135,0.0796090462206298,0.0866261753003466,0.0311281451200748,-95.50035347153846,50.11657479934904,-1.835824080420792,0.0195356836207694,0.122828880444593,-0.0057331237290555,-168.36593597640567,0.8174288808161574,11.04839107610316,0.2011842768097443,0.0521520004622255,0.2853420976370563,-146.80030039633002,31.315939117274816,24.288115544501665,0.7279768571082976,0.0247111354309617,0.6517821740023375
1.34,-20.37098798246101,50.25365951707257,178.4303685336185,0.0564745619387157,-0.0045701538897082,0.0858881016303544,-95.36942592418409,49.99450288263955,-1.8848381970654715,0.0673766891669365,0.1297940649850046,-0.0073924997873284,-167.88790311727575,0.7600733220851755,10.695356933702392,0.4079786715947642,0.0998213360303524,0.4423434232715286,-146.00763721218482,31.75438767474555,24.702512744720096,0.6840328683695893,0.1211863349085025,0.6829398578009933
1.35,-20.17484481595405,50.29512154389717,178.28944148073734,0.0888016660225202,0.037843219459751,0.0916692307325365,-95.31921856924934,49.94104976282962,-1.9291787636355715,0.0570411015718148,0.1240298353242894,-0.0021126446496598,-167.65604901965,0.7336933437649631,10.419279563956684,0.3804463684825352,0.0742152773951993,0.3841212761044738,-145.5641538860764,31.98574305068388,24.880933470313806,0.7232084602328032,0.1223327457111821,0.6661183980254569
1.36,-19.979259654844693,50.3023304208684,178.1157790444766,0.1295548741726454,0.0680450000382091,0.0945076906210517,-95.23281745058549,49.88469128880322,-1.9546326482499703,0.085026703260608,0.1312589438047364,0.0136926670470564,-167.43630996796145,0.7369427013960814,10.20208056208907,0.3837417020292607,0.0416789374358009,0.3166712543423394,-145.11539333163088,32.18499034389924,25.125782570200972,0.7716816284153569,0.1323308198368772,0.6646551598198459
1.37,-19.56151721810176,50.28592656050952,177.86963511681006,0.1454087166718444,0.0369906976936313,0.0693223375963473,-95.00926710527597,49.74622894992052,-2.0673345227425144,0.0884958366833628,0.1030964595383772,0.0395828237324504,-167.01459509448824,0.6923614214918555,9.685109891941796,0.3764306407290785,0.0148249355372385,0.1941169299509276,-144.13340689921904,32.70116925772349,25.64180866219793,0.8922199262464494,0.1793307579196103,0.8367107531502271
1.38,-19.30038947152855,50.24630129461883,177.75733076612337,0.0964266787728465,0.0864325545574058,-0.0056685495906122,-94.7894283600132,49.65925667983825,-2.126727571896884,0.0296668348601316,0.0555661404790452,-0.0010603607805353,-166.9448526717118,0.7428966616511393,9.446906109458668,0.1408406778924152,0.1135301610898867,0.0671921454516032,-142.92671255429022,33.386214087764465,26.194643010109974,0.9139376072856183,0.2860968792464014,0.7946301569450527
1.39,-19.118528123255157,50.20530243395501,177.66495744147844,0.0368315955873519,0.0329974550207109,0.0241868701268731,-94.80206813769789,49.54082458342487,-2.12007546455934,0.0041903290235102,0.0968952606815618,0.0082232351560181,-166.86502303208843,0.9554269367669448,9.39053985286764,0.0119171786695347,0.1451689874608634,0.0519257231245634,-142.23789026854902,34.01118593055238,26.806308982692126,0.8851176207490395,0.3301305814541674,0.6776698127562095
1.4,-18.99583655169542,50.24191894434167,177.54770848628172,0.079226038041966,0.0545003598485241,0.0703059519834463,-94.61089491596746,49.36471171246077,-2.2319487424278472,0.066409031677271,0.147512291592643,0.0592257093604274,-166.88984359826512,1.0618430923116993,9.363735197415693,0.0346607676338868,0.0765132450087328,0.0537815459499386,-141.1179864123619,34.690583587731965,27.508621712782997,1.13674294554101,0.3161776363537578,0.801144635007364
1.41,-18.916636328347604,50.40033384924626,177.47613221777442,0.047637391110529,0.1110883872235853,0.0291258852612749,-94.30855873677108,49.24890021389083,-2.373959423568965,0.0866426693106931,0.1359131245952689,0.0468065529033724,-167.0510707177143,1.1924816908115514,9.30731105476374,0.0813410775052933,0.0660922675893929,0.195001354406803,-140.0598708759513,35.45015332044222,28.42988541947028,1.2136726376773486,0.329423857547706,0.7323603537067481
1.42,-18.792299463233498,50.551575676667326,177.39376637976468,-0.0107125651948871,0.1745179133404913,-0.0004537075256025,-94.13610162477592,49.17250598714676,-2.49037563302798,0.0880210894731366,0.040660962145527,0.0143618432320482,-167.6243265156942,1.2499727494062884,9.18595902715526,0.0547619225032523,0.0451842353407133,0.5911427416852738,-139.1038406834389,36.13593857903225,29.55253538514958,1.1940893211072447,0.4323199380107889,0.4325251644498861
1.43,-18.728682928336745,50.74947787313604,177.3917773309044,0.0156479393999432,0.1380770031959102,0.0134391642348037,-94.05209856980396,49.1997114954593,-2.5092575076965646,0.0120733726474334,-0.0172389076319905,0.0105645678446176,-168.36203413908538,1.2548961015405695,9.072404371048526,0.127084456456009,0.1693331094019344,0.65783286149567,-138.2956375845407,36.87182451677581,30.73720524004601,1.1587351932978451,0.5325940345989256,0.4749746190286116
1.44,-18.606167844952125,50.77944533104591,177.29844889576611,0.0443990268189309,0.0753044334308275,0.0114545660571935,-94.06455919885396,49.18716124263818,-2.507940785927024,-0.0188372285153386,0.015073558517412,0.0093982825189095,-168.7950588269668,1.1159311439786088,8.74205512151288,0.2384989942277974,0.1319777803585662,0.4052217467510738,-137.61194482805865,37.683788771254825,31.920969030878933,1.123559342625969,0.593273027879409,0.3975133101345143
1.45,-18.43317760267909,50.82173311404639,177.244151151462,0.0716741384356827,0.019560880427883,0.0222490137610794,-94.07256473746106,49.18066034121311,-2.5101578008990444,0.0098828840550364,0.088354871794919,0.0022251808203726,-169.23675344976104,0.9984756521824444,8.438662286760687,0.3306595692724862,0.1029147756039244,0.1377669527904751,-136.88272609270095,38.51607156612526,33.12711634225843,1.0942522042274303,0.6553234769962533,0.2729714648720425
1.46,-18.378986967299365,50.86171156419932,177.17004128719176,0.0217815715377566,0.0741954863139422,-0.0079639012631438,-94.14328247785704,49.389713522792526,-2.4278386550958944,0.0287468385070652,0.1523136464273982,0.0176325227669652,-169.0607655465717,0.9925644588389734,8.037148424041868,0.3121913522426244,0.0443666320438461,0.2026927957861324,-136.45352680706551,39.11678495353176,34.50773294889149,1.0770231471614289,0.6092269604023659,0.0685005439240557
1.47,-18.31173709621998,51.00061086079216,177.19161477616876,0.0310712352958386,0.1612817669617019,0.018117004096279,-94.26012905316708,49.56239750559568,-2.3607684744211426,0.0492611529517603,0.1941163082757097,0.0403148664938309,-168.6072201337922,1.030360109978509,7.596658013814602,0.4044819821567144,0.0662131024911416,0.2983795041605076,-136.0745356715016,39.920417226355056,35.86514393457349,0.989305657414899,0.7552953377026406,0.1313374661308748
1.48,-18.326380910586277,51.23722454660667,177.20228708883218,0.0429975261406638,0.3026480217588266,0.0013932055332012,-94.50468767157082,49.81367847578941,-2.3328759653703206,0.0690209902325012,0.2374551016180319,0.022794495561225,-168.14277655188775,1.052360415290373,7.097411294150874,0.5035322250363784,0.0834622445448076,0.3723286355649626,-135.70029223583413,40.6912460152143,37.24985670277726,0.9252303120778724,0.8532293448509998,0.1842497954104646
1.49,-18.242064318618198,51.57463322340474,177.1286120378379,0.0443390060941395,0.2214025532192448,0.0317696721588347,-94.6252877723617,50.12752209303274,-2.2681780014562265,-0.0013516531363573,0.2498604175387934,0.0480701876846773,-167.85157159857994,1.1075519308502468,6.620801266671848,0.4567500374051144,0.1217570143116944,0.1522948553268097,-135.0663420165532,41.75418074509529,38.18749632356443,0.7141471410751176,0.7327182219221565,0.6870437721087611
1.5,-18.217903771119342,51.69796432507192,177.09630753664862,0.0333636683447778,0.2101827844604908,0.0363995881708808,-94.56209509580265,50.28190396003394,-2.244323855133285,0.0391075459286918,0.2672026035546582,0.0491180768944504,-167.84319458122465,1.1692865702140882,6.47860108308749,0.4058866976278762,0.1238475684090655,0.0875386920343495,-134.28918776865996,42.4384252979381,38.3393267508147,0.7694606587860149,0.6975769784056995,1.031712233777199
1.51,-18.194827467184428,51.81178725396193,177.0592687052141,0.0799509251575366,0.2012077645915187,0.0323066085759651,-94.49715936931504,50.44634879722399,-2.253908365851878,0.0955931989242444,0.2613937952103308,0.0585552134472221,-167.80799589403736,1.207746059350641,6.3482177039293,0.3708968397431569,0.0999488349675934,0.004471871349175,-133.5051084168482,43.12898878733293,38.44849211449931,0.8270215639581265,0.6311792817361138,1.3612878387371252
1.52,-18.134343738310594,52.04824093142047,177.11985482327822,0.0558048517245407,0.1955739955122196,0.0691491575977975,-94.49591450588066,50.80328909700768,-2.255003754326297,0.0585154261091823,0.4246031872839681,0.0798722961456037,-167.8646868520746,1.3075372017666087,6.011743438746293,0.3176307909458882,0.0403757088588238,0.3246923509872194,-132.37454088365217,44.50311451514988,39.55856297704017,1.1254621829475315,1.01886908762812,0.5681103394241723
1.53,-18.20845065516425,52.333750344746015,177.19694437362284,0.0415308951053583,0.2407805826302375,0.0505511705383721,-94.47373731591,51.28818241658425,-2.303609704122469,0.0690468714648505,0.3912253952782595,0.0217756837144292,-168.31974090406345,1.1862943060294844,5.697695617818852,0.2739659570687947,0.1557454306821244,0.4836148167292756,-132.63593947544402,45.12072106188011,41.80994718869503,1.0000696808737983,1.0559148696085006,0.5824368209835433
1.54,-18.311780222226357,52.61794399266948,177.242319738939,0.0151724973409633,0.3238829957308353,0.0469050981181042,-94.42549889697038,51.74741143536846,-2.3085246382014164,0.0643568093228008,0.3574331157700783,0.024851951136644,-169.12668142083362,0.935871550160711,5.447456427189182,0.1683407018402793,0.40616661448538,0.8229489666032646,-133.04488512511966,45.55870355390349,44.06923647467658,0.9280725775204056,1.0361726459482603,0.5309825957588615
1.55,-18.367894218039083,53.00217915715639,177.23930697144343,0.0169918238413162,0.3757546660119633,0.0447572457788222,-94.43888088705508,52.13077054352868,-2.296828164006468,0.0302530706236855,0.3820724897135539,0.0587590929831133,-170.11987785186014,0.4251772530453708,5.311054039665752,0.1206385702469192,0.5266349262473115,0.7822003944409245,-133.2465434490144,45.87144600894133,45.1339626765521,0.9520282405389804,1.014833029400234,0.0870535999626119
1.56,-18.489374569087627,53.44066548109871,177.30657357545505,0.0412863511844946,0.4235883318584121,0.0519740819994497,-94.56352388294312,52.679613162221465,-2.306606970123812,0.0268727982588971,0.5083602658785665,0.0588122512634575,-170.7916532158007,0.4051490347041958,5.132527820099338,0.1689963905778637,0.4488636350377596,0.5556071245411591,-132.72739344702842,47.06880805506661,46.989712677899234,1.0238039218511106,1.1642681768475078,0.3117791342143073
1.57,-18.697926868419017,53.937729852447326,177.45779831699255,0.0510708330836263,0.4385314624719152,0.0614613162209246,-94.83065763012635,53.302142892572135,-2.2103269984470164,0.0715448578300682,0.5969781382713021,0.0501497297088484,-171.44043119842183,0.3572805725533347,4.94336334391685,0.2095534456459734,0.3677494152626183,0.3118314358170856,-132.180864146408,48.23017926295013,48.864862440717616,1.055708823605115,1.350279781148627,0.5309493078141089
1.58,-18.87606629867565,54.3989248249943,177.54093367943472,0.0263481074288752,0.4302785774088628,0.0671117066970974,-94.99879495869564,54.127738690869,-2.1941793715488824,-0.0068022300465301,0.7365735095779,0.0179059082600401,-171.56071530449074,0.6834485253626641,4.619190806384211,0.2828086175682336,0.2199253455522018,0.0200153016423218,-131.80569502250304,49.55167069754307,50.92386938076713,0.8313521898687556,1.3986161197029017,0.3222454265249673
1.59,-18.992835143749595,54.94673263095797,177.61098951426467,0.0177631200469687,0.4877084229329697,0.0784459925178713,-95.00996982031596,54.89082097353403,-2.2370286025648425,0.0346750231374962,0.6707168622860585,0.0214849618317564,-171.43816812402005,0.7940780973328108,4.189026635935563,0.3995766123902003,0.0787498259056628,0.2097493454293643,-131.6384980907779,50.69891076287924,53.078954836351,0.9480109730660572,1.4509337716400237,0.3546959014514572
1.6,-19.05872563419308,55.558918521943575,177.75948665532798,0.0221301605561031,0.5844077086572825,0.10404701509516,-94.98624451827152,55.565978732457744,-2.253964993167455,0.0278851910187873,0.58252608336395,0.0519287299812649,-171.0597498119237,0.8703444980247941,3.750847926864986,0.4173056395969212,0.0033642609075612,0.3684963967567567,-131.10781560057873,51.91797117882022,55.65949779327148,1.0783757313717983,1.558110452971442,0.3307497703687009
1.61,-19.18075032756479,56.26675570401873,177.86299536339473,0.0242369071320108,0.6619815946978309,0.1050286022493321,-95.06391896314786,56.1699579447274,-2.2646949156137026,0.0155185351441771,0.5717850560829897,0.0305814263042507,-170.69331352139437,0.9325440888690576,3.387561570343649,0.2871437008410159,0.0462733021322046,0.3539827156834862,-130.74686555033696,53.264763576151225,58.63526216969906,1.0914289715992644,1.730740998921486,0.2781832734541674
1.62,-19.25121363186012,56.94875749660724,177.95057977996277,0.0434981915154227,0.6325075024882135,0.0862946133396024,-95.19387558863598,56.87536302556635,-2.323891280536348,0.0097000771483143,0.6319761805136602,0.0083349996096012,-170.57145908553898,1.1170917597453656,3.189304126006891,0.0874280128877511,0.2255010481047236,0.0491232814779458,-130.69454314650025,54.63148179224992,62.19919007654084,0.955002876397105,2.0655872567474614,0.2943334126205582
1.63,-19.17082048826613,57.62883444671437,177.97024167064868,0.0762393866442575,0.6385178546409511,0.0926069440108813,-95.18221590336069,57.45847962831435,-2.38251791539245,0.067516552756109,0.6888243223989006,0.0417574464438867,-170.7988189469254,1.5610447771992932,3.254286255382539,0.0820502828428735,0.429988518428095,0.2689443780160193,-130.50000600356938,56.19797213698928,66.26806027092,0.9748152073996136,2.303970074068864,0.4599508366732919
1.64,-19.098855256499665,58.306538361856326,177.99349352347903,0.1204819288790043,0.6589345474370992,0.1148150564524418,-95.21190735411297,58.06882496053625,-2.45044728288686,0.0923142652144836,0.7458883023836967,0.0647062985328959,-171.19691334187468,2.057701773888281,3.501776800877147,0.2382888913328577,0.5399874477075188,0.4310829641292472,-130.0555732267038,57.49688500300229,70.67310111068147,1.295104059972365,1.998065913163637,0.3605859950534034
1.65,-19.095652266821045,58.72450521400951,178.04707011231133,0.1114806243333424,0.7158137092009812,0.1071681281223807,-95.1590598261014,58.48193623956183,-2.42796320119812,0.1023634987236737,0.7634206015594255,0.0608843502799182,-171.4315184586459,2.340380955340627,3.7350203522403262,0.3100666066210782,0.5108507696190099,0.4316807093106968,-129.7794140325345,57.80999403226005,72.84234670754806,1.4989272203513408,1.697282887493773,0.1947992909855937
1.66,-19.063243028153597,59.130183093475246,178.0499385208704,0.1143555815575925,0.7768776819089164,0.1051476373201625,-95.18812487404296,58.8836992120873,-2.4333878904036834,0.0761069522809345,0.7804097950042661,0.0662814833151033,-171.70703930363825,2.6251634059553584,3.9352126169325383,0.3865544305094634,0.4781800956058059,0.4768010965588267,-129.5300908849232,58.12698272430829,74.99849898445905,1.68001021693244,1.4243656975572032,0.0088487490218019
1.67,-18.958958747485653,60.09773703732212,177.99400666496675,0.103674582570758,0.812100676568048,0.0746939648962665,-95.09024802638191,59.73593421145802,-2.535260820031084,0.1102157863115767,0.7642629354048149,0.0560487881556867,-172.177702743916,3.037513408992034,4.342123506854855,0.3565276680383634,0.4241452711594803,0.473721264153482,-128.8675223968613,58.50449032329191,79.49181925533732,1.5553846424723232,1.6619930399024891,0.0969695184606044
1.68,-18.878808896068797,61.03616487843867,177.93956727431495,0.0730931958360457,0.8321774748659524,0.0640728201581311,-95.0046797355893,60.61013851618761,-2.63147387645368,0.1147221141845483,0.7619476198656496,0.0376483383460027,-172.6902912194239,3.428719070445976,4.75620648566564,0.3061718495649943,0.3593887894839334,0.4989656765783434,-128.3761399266391,59.31414394277567,79.50062344709252,1.29525529442772,2.2756792993813817,0.5383833335808065
1.69,-18.681387197633203,62.00620338318273,177.86967688541094,0.161812479258194,0.8368276086708941,0.0156209186705862,-94.85002610650116,61.503136665597786,-2.8297524329704458,0.0892777631224132,0.8062252235099363,0.0197792846794833,-173.18839400979985,3.740348406977658,5.065964678710256,0.2154037056812374,0.3138624555899164,0.3886213284227944,-127.94071677160946,59.87319820831375,82.37718751550068,1.2377255770604094,2.3287129701837803,0.9137939817740542
1.7,-18.44979175787381,62.924051003405104,177.69170454118384,0.1624591976553504,0.8917551763806183,0.0367556922534971,-94.75211859970422,62.507510057366986,-3.084641074783053,0.1629225123431851,0.9736790680898264,0.0351478013410354,-173.4147109570325,3.9235510034379,5.238191589788466,0.2747472768827956,0.2452679838684973,0.23520213423432,-127.09553983139504,60.48416569826234,82.3743049215834,1.4336482953136105,2.1453934455021373,0.6395877596892774
1.71,-18.236447764476026,64.00467905057172,177.3870307063581,0.1413020798656284,1.0026327840906943,0.0228311297544987,-94.45510324745912,63.56184788075547,-3.51293643103253,0.2299655861064758,0.9723849968098944,0.0216304854420521,-173.62004731994244,4.119563955679011,5.447334057762077,0.3507859534421303,0.2081215682623173,0.0841114649158508,-126.2514202309909,61.05627340272954,82.37353294869945,1.6368990844024955,1.947015715049749,0.3544581098282793
1.72,-18.06365568915057,65.12491415279507,177.2571187103308,0.1734102740033812,1.003048965451287,0.0521378040650289,-94.14337649444047,64.70098575205243,-3.815957947835672,0.1951811331173207,0.9577788084257912,0.0690616472566396,-173.68891597897746,4.305439994357887,5.866670202378233,0.4476110749347503,0.2188809461909823,0.2132098165008712,-125.55893322581711,60.81520118836308,82.36044003285608,1.518157447593961,2.4334535294611688,0.1481143548107263
1.73,-17.86503945618872,66.19844914842066,177.1301771545507,0.2160878127095001,0.9394563936506808,0.0822188851988564,-94.0713501039506,65.68407090336828,-3.947646382911454,0.1258724871802659,0.9802241221881274,0.0663658931801081,-173.99818740841053,4.554994676291668,6.433117057886161,0.4107365063033253,0.2979499166787039,0.4414134133990736,-125.62818989643696,59.75246059805684,88.56504761357316,1.4885809148849334,2.526086336209729,0.0441207875631577
1.74,-17.63853451722242,67.2525146875752,176.95441370205646,0.1862522106867501,0.9163750456793388,0.0534477944654388,-94.00797179851284,66.74440407042432,-4.1396420541681085,0.1208172056961535,0.938726152153495,0.0803441310603708,-174.5567910127573,4.8657616733777,6.850938647047695,0.4222272295735491,0.3739808931697765,0.5881692282838543,-125.2638946141162,58.75882452626611,94.37444255298712,1.6028512467239255,2.0529334890765334,0.2013353550706773
1.75,-17.436956529088484,68.23818333880251,176.71562837459896,0.2126342605585626,0.9717292760898448,0.0488919244521835,-93.8079310009876,67.79996354717106,-4.382858686252212,0.1377537828961898,0.9345854184630122,0.0751670508001535,-175.25160547262584,5.188016744657316,7.482920503048097,0.509525058108451,0.3860326082206344,0.5925332063292027,-124.23626024635487,57.9222980371198,99.57337541889578,1.629020966702351,1.9275303487291453,0.4447758887680144
1.76,-17.23411540633839,69.18490249586041,176.4925999739726,0.2258560029363916,0.9961553847543227,0.061130617168526,-93.62938092474276,68.88342299001543,-4.63430899062413,0.1561866717737361,0.9104430088814076,0.0507683068647311,-175.80147662243294,5.510012128844316,8.328442281776013,0.805705143879985,0.4057861172798785,0.354990530750858,-123.12727632792824,57.04937133788942,104.49924980625808,1.4808105832755114,2.033108304122921,0.3343217078721756
1.77,-16.983815644775323,70.31227778377719,176.25419707322305,0.2149325380543465,1.0726992835791234,0.0562000563855982,-93.54605826227056,69.84295023535198,-4.9524148866916935,0.0919408716441516,0.9169495637086044,0.0434388246440164,-176.1902171242467,6.012841355357484,9.25273255892026,0.8254309287103113,0.526009276318924,0.3564946799229733,-123.04823099062752,55.44971618139233,108.69534899859131,1.06651454869631,2.3509404896409487,0.0586200453379416
1.78,-16.819207466877057,72.10853882461109,175.77918923205942,0.1579272473001689,1.0456141739633216,0.0499228313502494,-93.28099119751352,71.22526198092525,-5.579238748442984,0.139591763799708,0.9629363366218832,0.0341904048582726,-176.92992141997468,6.511455999370301,10.257640354016468,0.8717142628735894,0.589961730113304,0.5624633972585437,-122.3256926399702,54.08258903053164,112.53359516661004,1.27468932914059,1.8543074438399825,0.2995284875464766
1.79,-16.62607228601262,73.94506945288121,175.28865855893616,0.1253092225051975,1.0431246388256323,0.0100825258912778,-93.05934286375737,72.5650836526546,-6.245325764574939,0.1720193738501787,1.0095273012385089,-0.0087737610711686,-177.7110974813147,6.9993659393586505,11.23877655650548,0.8775866344398568,0.6543031628392403,0.7823101472006474,-121.61904651423382,52.74649299459749,116.38614303147855,1.487456478682933,1.377195637180494,0.5835317391978785
1.8,-16.55591553522946,74.50203949943896,175.08280314323588,0.0983449063075309,0.990115956020816,0.0133181093117262,-93.00609205802516,73.0973075765164,-6.543136649273236,0.1927192302293533,0.9828687669797508,0.0209479890399042,-178.22858846055036,7.285708223655434,11.80719206173717,0.9138429494238262,0.6726280086535097,0.7483330137764882,-120.83470333272804,52.30705487579475,117.8770189200652,1.356809833453514,1.3606252557691394,0.3985576070601815
1.81,-16.505960625976655,75.06685420111454,174.86645816461876,0.1220629509733643,0.9327375947396848,0.0115257239855122,-92.94821872287442,73.64408704868082,-6.831145482647264,0.1905511783931258,0.9562947982479988,0.0460321760250455,-178.80422522310485,7.569891718192423,12.398485217991649,0.9602283911047844,0.7107451601852292,0.693019051035257,-120.07352442367434,51.87486302531664,119.37695347766464,1.2401518690923703,1.3286589655345926,0.2314211546400008
1.82,-16.358528148018,76.13142770895352,174.50754940815503,0.1388033527583869,0.9470153412871424,0.0364263649828602,-92.75396724892155,74.69622052626406,-7.322862280571973,0.1757164703702589,0.9631065548999512,0.0534650345295987,-179.68688529419353,8.588284083229473,14.040644944844631,1.0014270941637584,0.7885315407754816,0.584385177623221,-119.8703894198196,50.51283628217524,121.69237115303478,0.7414047430934095,1.6454153684336914,0.0441636828163285
1.83,-16.302719068692824,77.10329769605646,174.38563115034677,0.1229837708039497,0.9359959707768712,0.1379068229319593,-92.69919670145843,75.26738360462842,-7.579819985471447,0.1733350357910937,0.9691190358547872,0.0453777652439886,-180.55900112059763,9.61663545951244,15.697638100631195,1.0743752757895646,0.8621599853705074,0.470714509499203,-119.55193009504974,49.320402757631385,124.19307740969477,0.8148009450115635,1.4835579593093935,0.731810767206012
1.84,-16.253488843006267,78.18799093074904,174.30297696651343,0.1304587500299906,0.9173775660114626,0.1135070721463845,-92.55456371918729,76.3069777774431,-8.103651965488854,0.1119540505516709,0.9587725030044072,0.097032353345562,-180.75778974562704,9.940232492202934,16.298468592973848,0.9348905584676864,0.5972901651749383,0.1704926422692344,-117.00730008952632,48.951826872385055,127.4349058162644,1.2943800298869812,0.9778714692314828,1.1058954501211495
1.85,-16.19583152844121,79.17558631540643,174.11508869522592,0.1608474962019256,0.921878729688416,0.0865622697153498,-92.68728448233958,77.31981286919694,-8.26527949103025,0.0488365482206947,0.8971141517303495,0.0933665003873185,-180.81458190893775,10.486420469156291,17.372812939981635,0.8466722542550452,0.3782518603776776,0.2039710376362912,-115.2029935783021,48.2504579005226,129.79626700420954,1.0666095987876187,0.9455709100833612,0.2003567848393916
1.86,-16.039979853555806,80.09800769051725,173.3140297325956,0.133385272540311,0.8838601843091348,0.0864575735916687,-92.72644018624128,78.26542339561303,-8.71572957894188,0.0861233753195975,0.8603949071776001,0.064418993240563,-180.6916690831727,10.953114000872963,18.30478489074834,0.939312254770414,0.4065606679332474,0.1724086025366299,-115.05515704216717,46.99555496320338,130.79678967897723,0.5974378852398085,1.1997926261839869,0.4923431495801067
1.87,-15.868279608254882,81.07484031893237,172.47331896338136,0.1286171966239907,0.8344327615848387,0.046226198104214,-92.76249494452878,79.2012452281416,-9.212822645985854,0.0907119997934636,0.7924762873481859,0.0311291121007882,-180.47745679483347,11.439159981005036,19.35801627879153,0.9229434211305524,0.5095301657736819,0.0905183014858578,-114.5094308752288,46.07002190484966,132.36806957370504,0.5877872109571067,1.0286211664225695,0.778533323032969
1.88,-15.701974161481134,81.93344709977657,171.5563482652992,0.1291798397427276,0.7926416865792929,0.0085878966773022,-92.6061066508804,80.19348529666487,-10.186122535927398,0.1507407013830857,0.9255318147445376,0.0210883640845508,-180.4343163892316,12.00085149522087,20.45940551262309,0.955009363308887,0.5301764186560859,0.0343449693005218,-113.2648432247346,45.92875664652846,133.7588016940927,1.036654497264596,0.7375376948425472,1.4239262187979795
1.89,-15.634873949247176,82.68765282188917,171.13806098369375,0.1234070933904364,0.6891380568838253,0.0483742999213582,-92.60116738649944,81.09482664514624,-11.12476226207812,0.0439016973836492,0.7630127518302475,0.0581248265515961,-180.6894406455676,12.557044379606232,21.87061628506779,1.202872002025419,0.597835896545864,0.3269550822139849,-110.8499135878928,45.59528180162772,135.8998821947298,0.8736313587763774,0.702217012369322,0.9140278550803126
1.9,-15.507926586717652,83.37245489597244,171.12096122915446,0.1526063661748631,0.6384471311620771,0.0268307626153826,-92.617850251169,81.94489610853559,-12.018006813808157,0.0599649788136724,0.725334320956331,0.0557736538393114,-180.93951302075016,13.127783275509978,23.315916354293385,1.4917051750188102,0.6850427298678562,0.6570260196219986,-108.43982121362156,45.16618535579903,138.05097726146045,0.7042904750872514,0.707098275602684,0.3837442268387238
1.91,-15.361720755978295,84.05661702220112,171.11814630710865,0.0769963646205701,0.6216316972613626,0.0166059830102548,-92.4903385693552,82.61742861150374,-13.1357227459633,0.178222526123453,0.6322619131045609,0.0156670091030792,-181.7422012665817,13.485340082078377,25.241532708352317,1.602948628455852,0.7583727988786385,0.8147128134924193,-107.37258127364652,44.45101728106484,139.50056156983217,0.6667925464424114,0.8244677724111804,0.9411036854332716
1.92,-15.395285059002836,84.75892904290002,171.15163762371373,0.0696211520476529,0.6569482740845914,0.0210223926805943,-92.28395209962204,83.31379470122488,-13.123336693162312,0.1821569687350939,0.6755656229428771,0.0334059050161544,-182.704554990454,13.750717925047098,27.30400201805616,1.5503798210534394,0.6750756956515739,0.8162314975234415,-104.8951348144638,43.88237588066834,141.5620340302806,0.7943839311918582,0.7021796041062166,0.7000476875684444
1.93,-15.36930106788645,85.56479672382227,171.21200569323997,0.0292723202276537,0.7441784846190374,0.0589557805819141,-92.24616733976951,84.12356753695958,-13.13967836682987,0.1037940427562561,0.7192709097849482,0.0141025215840654,-183.49735077429904,14.002234741981002,29.29483100646512,1.5346203482475866,0.6051829378224338,0.7055813506340488,-102.37121992458768,43.32140851259703,143.61727945204964,0.8919509977683318,0.6015027992653049,0.4786387061315802
1.94,-15.497459370759094,86.30559564663402,171.27736255684138,0.0293117676258375,0.6894272824070633,0.0571243585528254,-92.24240574570614,84.80548349194945,-13.129352161645569,0.0383197135681856,0.6213353528137024,0.0035064793183889,-183.93640774862243,14.141125435367291,31.24258689078552,1.589550137091818,0.4379462369960469,0.3733958802036535,-102.3737325380964,42.75665996781749,145.05222006974947,0.7660455567875265,0.5889261199327757,0.0762878823452579
1.95,-15.478837055286805,86.6107137853061,171.26070388774073,0.0238787967192932,0.645696667646502,0.063957798139872,-92.27183331010352,85.11949896331335,-13.095511883478109,0.0270980795790083,0.5932104377478432,0.0184057506808013,-183.90253636438752,14.252792744196231,32.203532559051844,1.6503177696110936,0.2933275135765928,0.2465622140764786,-102.2188829416014,42.44570929325017,145.46100466333067,0.6897329836731279,0.5675134153444932,0.0609823234226648
1.96,-15.514200336572395,86.91360259839118,171.25676604619554,0.020061021065039,0.6021558770404355,0.0579936189820951,-92.24043594359792,85.43669621468086,-13.06767174945982,0.041843385204951,0.5979191439473147,0.0352871313749336,-183.88272456061185,14.390937773613969,33.12520615205658,1.7297731911435126,0.1575988078710316,0.1646093706631708,-102.06389002388316,42.14532824227368,145.86196468836832,0.6470922041993568,0.5439979985558954,0.0756649611582132
1.97,-15.492859065001804,87.51044296142591,171.25015666693866,0.0196033911827184,0.5149680544688766,0.0275465074992437,-92.25435053476644,85.95425680793052,-13.001675094956992,0.0424544855138485,0.5221131653376546,0.0408455467264484,-183.5014391989636,14.636077498003576,35.073752912212235,1.7738262801834734,0.1473880076100749,0.1621623252672556,-102.17724022095852,41.56091568578724,146.9975819389382,0.8429859786008178,0.4602303272077736,0.7338403877357692
1.98,-15.446456910005706,87.99521275987311,171.20163601226807,0.0317492979789742,0.5391192244267199,0.0746522213579919,-92.25002606184545,86.48129621882678,-12.940205931050553,0.0039330051774141,0.4834650673389,0.0313663283690387,-183.270944350116,14.877302933584703,37.06235285939174,1.7899965077301196,0.2929733030589653,0.0030557092998137,-102.68636154329825,41.26563375110496,148.75958636951492,0.7225842662071611,0.1592406766891909,0.7816662885108466
1.99,-15.375999461105044,88.17921833434158,171.11624185474952,0.0394094507703357,0.4412908004303724,0.078988117464649,-92.247723817928,86.94832345303796,-12.941121621736402,0.0284982797698755,0.4533257500082325,-0.0059453743264022,-183.1890633703187,15.131838628148218,39.060189538057976,1.6838485098812797,0.3703064408875502,0.0764635985848359,-103.38859182491028,41.19673179700464,150.29693843084078,0.5290961093351614,0.2249766936267856,0.8689802397515585
2.0,-15.25298599176221,88.43160396704448,171.00150242488473,0.0425768590222251,0.3761044582250921,0.0702503697243157,-92.18761761255432,87.37401843964699,-13.018783538254208,0.0627864849467344,0.438919799059687,0.005497683671654,-182.45304960436127,15.614131022623114,40.56500003797952,1.517537626076443,0.2180916727796387,0.4107588192951004,-104.49996844492776,40.9373683401374,151.93437137012785,0.6306560413679485,0.2381023951856663,1.4170776301673491
2.01,-15.05596261474946,88.62122587006321,170.94744473661325,0.1311460625352115,0.3891215135131725,0.0533372351222023,-92.109226307791,87.62045205957938,-12.999481476384767,0.0659578601473396,0.3213871922987136,0.0145073974810901,-181.7550976731567,16.107072747716426,42.06251883102074,1.3562795150656146,0.0562194988853095,0.7642316663258322,-105.88954731041396,40.88332906389318,154.1208855454686,0.7379098093885248,0.0853650784025856,1.6284168731847597
2.02,-14.95207767518401,88.61878189251404,170.87547220009256,0.0528831373104953,0.3403762862008873,0.0825283948140856,-91.98808823828574,87.79162118062544,-13.001255136773748,0.0684389284873919,0.2159036521368316,0.0480407992641697,-180.86081016233484,16.624056972813484,43.560653988951486,1.5353684823772142,0.0472103173498315,0.5591559543001399,-107.43693184330162,41.20382882337751,156.24977319284923,0.6366890886366865,0.2864032662378748,1.185419885798336
2.03,-14.744435187715386,88.49942975516659,170.87971774100865,0.0147956012804487,0.2586568326026598,0.1190596607697891,-91.86053227677807,87.8832260798993,-13.071102647586692,0.1186633675733393,0.2057001373998971,0.0356053988680272,-180.05779971130735,17.083944120899357,45.31678072650538,1.6531659653400723,0.1008109748366048,0.4324697220502894,-107.98444682307642,41.80881958380616,156.97744685737496,0.4609114131535247,0.6448725077407795,0.6314213768066754
2.04,-14.4959583743904,88.25188061124614,171.08228211695516,0.1092543455530401,0.3333858895481859,0.1298821255360902,-91.69571630047102,87.95130786600116,-13.126055847689994,0.0928828926618064,0.1413000471771979,0.0367273670141451,-179.50308309743616,17.56560528615485,47.12031016483462,1.682520322048103,0.3078347481767245,0.2578682196544409,-109.49649055981835,42.61806749378639,155.25855718127144,0.5690550844100513,0.7152147257667664,1.3271082235201497
2.05,-14.261832558904713,87.99729489789203,171.25059432520604,0.1716535773954321,0.3759831711578009,0.1353826033050837,-91.53341066731129,87.91997373968746,-13.220701426797104,0.1059323429329286,0.1247891181460941,0.065030556390068,-179.5016455996577,17.826056090955063,49.18830778470357,1.7235720215312125,0.5609697129134177,0.2340628931757757,-110.82102324721704,43.135711410467216,153.3186246392653,0.4131481423214142,0.4893585959433365,1.3177533983910403
2.06,-14.012430468697827,87.70322204241434,171.38707328309337,0.1545068697498298,0.4290700386421285,0.1292107907668468,-91.3553421865522,87.8782505942214,-13.313535875300676,0.0847568712363656,0.114031877159992,0.1180366202373034,-179.6954412723616,18.07237665185327,51.17549838440062,1.5923593708098838,0.5694999380625387,0.1961191582627307,-111.98980227112304,43.62679483867541,151.87431616961004,0.1158965900225748,0.6309191255838954,1.1214477088401729
2.07,-13.775436320534714,87.37353154937439,171.5118960820227,0.1367758537426185,0.2806022153120153,0.1375087030602788,-91.1883083833812,87.81222505840073,-13.38576988235448,0.0767908195926037,0.0652540813713949,0.0636988834548979,-179.9333673973179,18.44622791027633,52.92906155569233,1.4076944757625318,0.4160341007781355,0.1703760809958942,-113.30737502327824,44.43970563417477,150.62773309386534,0.2017818824017549,0.8124037340960392,0.8654863817200665
2.08,-13.45313097930578,87.06698248995023,171.71766860472124,0.0722487779492767,0.2725662954149329,0.1321669516001719,-91.00523928686324,87.75404082652082,-13.49900495989412,0.0777017266398729,0.0011159212233661,0.0744938192593327,-179.49978770492908,18.81687017917873,54.55525685806627,1.4300895165202012,0.2781347616945394,0.1817401443946233,-113.31898814250414,45.19358939821816,149.6332003822937,0.0938871876390973,0.7473142441107709,0.5360733051901315
2.09,-13.39339449991895,86.73816383747499,171.79597723406334,0.0942419317713309,0.2949212727697406,0.1103694730829357,-90.8723327684793,87.68575725706307,-13.561464705073778,0.0729850681427088,0.1786832557692861,0.0712257879366726,-179.05875148857936,19.17776777554226,56.18718782583733,1.4235499700708416,0.1593540768078813,0.1624482207343232,-113.76671793711868,45.685711163801926,149.37813206153498,0.252293876593101,0.4013126224238004,0.2284600647107405
2.1,-13.34814497367415,86.59662668823991,171.85687456791212,0.0649116707540767,0.3174792513676925,0.0664957628768562,-90.7890813912312,87.66738596546323,-13.598420825222597,0.0571614369265573,0.1957288389624858,0.0864756149192433,-178.96767363088543,19.306036871061757,56.512872552864366,1.2905149786445425,0.0780162556417915,0.4494953632067675,-113.88777844830749,45.7436965346914,149.38619094944556,0.2805201045475999,0.3161700645740546,0.4674752794184028
2.11,-13.326239100447674,86.43240520379344,171.85623761539262,0.0796213120586743,0.3272756758754718,0.0400781628665382,-90.68707650758805,87.634574096134,-13.61982204601353,0.0515533152285524,0.1632985767111004,0.1056593940553127,-178.87133448913852,19.435132763455503,56.87664415294202,1.1946128032221777,0.0074118065470135,0.7195084854919728,-114.01155611333046,45.82344636297973,149.37256765374542,0.2803866057003114,0.2574820448528197,0.6860399130297165
2.12,-17.55208522534744,85.43697266462313,170.9443936001279,0.3193729573092749,0.0780348811040067,0.1925388409640422,-91.91553573484472,87.49563921306243,-13.662294642446556,0.2216548182711455,0.1140346241111944,0.0983539511486633,-177.68260413402515,20.115130510558718,57.953842700324,1.066761112921013,0.0128115043941971,0.7799166692983384,-113.79929051420208,46.0019944622169,148.68882658403555,0.0445390615737201,0.2299362987250331,0.863019739511537
2.13,-18.18487487911764,85.37709195180125,170.80749006404255,0.4793921423186788,0.1135131271246866,0.1702957344158369,-93.19251883976575,87.34954861961334,-13.613246592605131,0.3786181989553582,0.071066411480778,0.0299525983659375,-176.68318012843483,20.878185490047517,59.05286422569112,1.0681814679899275,0.1268735385454825,0.6794057791125956,-113.37508629103108,46.06078395243959,147.82259833680783,0.1187220860459625,0.011807107181623,0.4417277115473239
2.14,-18.866323789336413,85.30970725656552,170.70579962172613,0.4546853104597651,0.0818068026978049,0.1053907559609022,-93.56847349743144,87.36928790525073,-13.681019509949474,0.2711140665445294,0.1642753873345434,0.0394783231477327,-175.87003998739794,21.416992843594997,60.25144241811832,1.093239960405359,0.0884943143173722,0.7045106625141089,-113.56209636065788,46.00987730157048,147.6357153050394,0.5193111720884598,0.0998473356592306,0.1915503746840298
2.15,-19.303264681747592,85.3010869437614,170.70172141358182,0.3764347963918485,-0.0017123543734456,0.0462335079235227,-93.88277641714834,87.42590222028423,-13.683512624454924,0.2580247066904231,0.2181603439201183,0.0007412259896803,-175.04175646353573,21.916976525281186,61.427998098228,1.0968821421854065,0.0742092548129608,0.7333035134923636,-114.71051593783714,45.751924594354925,148.13027905104778,0.5420172249131276,0.3033768392321545,0.0434558919085712
2.16,-19.75544809096384,85.37847400773859,170.62453897021683,0.3454302650635771,0.0586604294565956,0.0608289263069843,-94.25129542724872,87.36249603285437,-13.74831682476684,0.4483995178207873,0.2889474395430163,0.046914793808625,-174.9499900572709,18.82000766955661,61.44598064613754,0.3863511183443641,0.2081972801423109,0.0376067146452069,-115.27170163352008,45.37421968977125,148.182971211052,0.0452519334581082,0.328308184446992,0.5678706803091443
2.17,-20.19807729080224,85.44068560320109,170.6147305210585,0.3190661915413204,0.0784131021446609,0.0422477185013246,-94.69734452628472,87.2509483042619,-13.820698291692718,0.4219045048928017,0.218350264602647,0.0642912473074336,-174.39958230250338,18.997979556958928,61.620430837198136,0.2715203021949773,0.2767437018623149,0.325174907774133,-114.83273882222409,44.8704806595534,147.88667250091174,0.1724290963722873,0.5683539251055915,0.1518358832961764
2.18,-20.568432167229783,85.55558143815448,170.57717182516507,0.2742916877639965,0.0998974933199371,0.070704900721853,-94.87595554850422,87.18340915800701,-13.818240359041235,0.1443776425837216,0.0820417000348497,0.0307069148768688,-173.36537887244606,19.57503422040669,61.68138287559447,0.1553852515750072,0.3170218856171802,0.7291091137589649,-114.8234272723142,44.24352821001077,148.5445253853429,0.3798204742452967,0.7016053152741338,0.3807684989006213
2.19,-20.933893793236447,85.65431739691738,170.4860448330407,0.2939852249632813,0.0966425711166674,0.0893809911079592,-95.06517102748644,87.13047491194848,-13.818267527517271,0.2727876477992492,0.2823142084540653,0.0049037669366635,-172.51927717742993,20.29892403899924,61.70700502014386,0.1685919971061298,0.2812363806486832,0.7580933918986662,-114.61404169534109,43.51474732607881,149.7529233976594,0.7412577461716575,0.9469111663272932,0.3055706796770172
2.2,-21.321518959513696,85.7474628235969,170.38859519188907,0.3203935515160467,0.0615099073175209,0.0698694414754602,-95.3539977107852,86.97548716221547,-13.843447892572849,0.2971849264841772,0.2388857623864836,0.0753107801030345,-171.5001851911025,20.93718983117467,61.69063421530922,0.1968015645256224,0.223918039315101,0.6376052054278039,-114.73651556990067,42.50039227665236,150.55581272429103,0.5006550126933706,0.8948720772023683,0.2464613673522889
2.21,-21.6798933643201,85.8713205269085,170.37985768815932,0.3137301181777417,0.1553473278543334,0.042578099940937,-95.67833042481824,86.79471159468146,-13.860953407615694,0.3487471180952531,0.2169268843500851,0.0978960133507275,-171.1790259303828,21.37085320190432,61.80345785770972,0.2362021973052739,0.1782288553302866,0.3945722632355539,-114.88928150898298,41.49326465601602,151.35573736913392,0.293312574206012,0.8519496398020063,0.1818758222086683
2.22,-21.99396718920661,86.11447042789797,170.31682469611502,0.2382769724592685,0.2175411153427361,0.0659654893005168,-95.87387062048973,86.64386700445881,-13.945196042611704,0.2100942984178295,0.2017458979064227,0.0585056772154712,-170.60984408907322,21.697561462143472,62.00858947960948,0.2547165999406071,0.1880341365220771,0.3001501976380711,-113.80281196743692,40.55494906321889,153.08044184730758,0.601700271093713,0.9675239443389508,1.3594872965238485
2.23,-22.254886284924,86.35848317968909,170.26044405174483,0.2246511778222881,0.2370837162786598,0.0795136753263471,-96.0570842573293,86.55847637095073,-13.882787197573752,0.1621210723674098,0.133709021422307,0.0736975568907547,-170.4189330867933,21.73709276328841,62.263500068707,0.2771585580125338,0.133040238322865,0.2081302733983845,-112.82943288622872,39.62804891399816,155.09580251695175,0.5492550273065948,0.8723471542322275,1.060673322329178
2.24,-22.55772628416881,86.62864462531417,170.24910219618673,0.2420462342986047,0.1879005824981512,0.025632313856107,-96.4448280077322,86.49704687645661,-13.825992857972018,0.3014928734293106,0.1791381361026365,0.0323006455374831,-170.18076051428258,21.7721482069676,62.5273972916123,0.3290200692725023,0.1180252219614512,0.1120540957957651,-111.82294666339978,38.68629288954606,157.132956079511,0.5017664561677664,0.7878891006470173,0.7248838254096979
2.25,-22.68995707421817,86.71897396487877,170.2514704950773,0.2489223752175048,0.1934483776357479,0.0177431999207116,-96.55109636314631,86.40449276857626,-13.82921486156281,0.2430688559706952,0.2113360111055947,0.0411600773459169,-170.18974517992964,21.681299326105748,62.597226848735616,0.3377795097103147,0.0665992676221775,0.1606538711045149,-111.51678513311276,38.31491221534852,156.621378356604,0.4821360459494338,0.6745967816789868,0.7293618168451566
2.26,-22.799945569601483,86.8199487341763,170.27360780056915,0.2180721012758089,0.1789448088018388,0.0176084051225037,-96.68958074935432,86.30582566873422,-13.81759411962297,0.1980760267045968,0.2236783797666885,0.0526761253001104,-170.19504791962865,21.6092013005551,62.68591126507958,0.3558404088323115,0.0146322352831859,0.2249561408856231,-111.1759367308826,37.92405521215584,156.13751544452015,0.4499030106014436,0.540855219947527,0.7273627807216256
2.27,-23.044104609788004,87.01429294248747,170.2043686817625,0.1711380992460796,0.1703488020886505,0.0286671918432837,-96.81109475478914,86.11549011003966,-13.88752022217896,0.1146711961027558,0.1665908370957756,0.0420873503532483,-170.6112058612352,21.16829246054655,63.31907234182332,0.3156606847785562,0.1018376821959508,0.4164178683374754,-110.31647038198057,37.43733980951274,154.5471825461203,0.9896651175200252,0.3503603475826004,1.100402885609799
2.28,-23.241878606889596,87.25748726590164,170.20647176531344,0.2045133411134762,0.1935820356042024,0.0242107168228168,-97.00497383118964,86.08465579446606,-13.878786077715557,0.1839998855132806,0.0967148819651766,0.0455462258516391,-170.830901469026,20.94515648916475,63.50827622938183,0.2402543265135092,0.016989889666146,0.2433545623652283,-109.6231777559196,37.01027123407916,152.62371278195604,1.107836964275822,0.3213756849933359,0.5336927341029494
2.29,-23.55951867047056,87.46106971964113,170.18950702973197,0.2574869850731943,0.1764697554994368,0.0028448697330292,-97.24554531737864,85.79790236099619,-13.893641668020225,0.2975665458838554,0.2503629891599471,0.0386449698501088,-170.87319665874858,20.818641783237386,63.76169600126033,0.1924866113199642,0.0986666513723262,0.0322366820101418,-109.74697778616384,36.50012513880122,151.11859938200803,1.0226033904925416,0.4422584544365193,0.3144483911352728
2.3,-23.780293354728663,87.69884709789198,170.15155135494444,0.1874840572229805,0.2234095696877164,0.038518691727513,-97.43464353700897,85.48388769250496,-14.009943583598462,0.1966617907517473,0.3460434392859664,0.0980753631978189,-171.0019029640845,20.73806329455578,63.94841678581339,0.2238307995020746,0.0017108773472255,0.0818427634133521,-109.82009771430516,36.01106135076806,149.9261166347282,0.9100270618563484,0.4319085601556672,0.2600104776421156
2.31,-24.01187351965968,87.94937124983215,170.12791215330336,0.1526230437319142,0.2347560394928944,0.0424934111742491,-97.62528835070806,85.40285244599208,-13.971617852023703,0.243130523779656,0.2324328474369914,0.0486165701815553,-171.06001968285926,20.618898718751343,64.18583468793805,0.1321398395252379,0.0321450390084504,0.0979895417661626,-109.38960253713849,35.407211437292176,148.44964640368178,0.909885131816362,0.4195316064149912,0.8027422106051647
2.32,-24.05447661415848,88.0595510616458,170.12876108365165,0.1920698942023242,0.2011718345288395,0.0268257279381006,-97.82111736372909,85.30294335910907,-13.937143706176991,0.2901180765230419,0.1003472089588904,0.0295325226385681,-170.94932084755146,20.62842490691117,64.19346109157962,0.0108661229541065,0.1589559537950512,0.0765297426046058,-109.03585350215224,35.01482601663324,147.21731328219465,0.8240085982633196,0.2743262907283798,0.6155789077575538
2.33,-24.31466319225068,88.2300449822898,170.12373079637197,0.1537565969465901,0.113961442405304,0.0125749381965094,-98.05254176607316,85.04872018605944,-14.028084272262092,0.1666497319731983,0.3612337853018865,0.2058434389752896,-170.56324122914174,20.929268225506235,63.94798094109278,0.164335798505941,0.4249719709118866,0.4633560537839321,-108.6983097558443,34.64408926007798,145.98459732185796,0.6865850856364597,0.1608915456847138,0.431293153399159
2.34,-24.38245887359764,88.351756751414,170.12335478051622,0.0362849743004674,0.1153204447032843,0.0439435881096447,-98.02118559548836,84.6925666907166,-14.198978227493347,0.0416862404829581,0.1262514189284514,0.082444272614634,-170.21708921856094,21.24551871088719,63.95737640510821,0.2837611783119964,0.3164889255323349,0.2367243829144767,-108.577666744315,34.13779418979409,144.55639652799792,1.1491417180488115,0.4428102272891595,0.321569998794891
2.35,-24.43715847677253,88.48474357135723,170.1198216009295,-0.0015448561601875,0.1573139135616066,0.0007885410107696,-97.81177296411418,84.57454477875848,-14.250779361450666,0.0697074785497932,0.0857284569078744,0.0352725419635133,-169.86213480956795,21.556522164614915,64.00621732979552,0.3995290625249895,0.1968532258973562,0.0118339189760447,-110.44160442278876,33.93449039013704,144.55659302135328,0.970656332505519,0.4170559944596451,1.0122456267759032
2.36,-24.441911944408425,88.63229914418692,170.12683535641878,0.00532652479032,0.1410831274902194,0.0005370449879612,-97.82327782775992,84.6129648641178,-14.19079437673358,0.0064784725803899,0.0161220090197857,0.0264818990528875,-169.69051898905002,21.74894811313979,64.45280006526926,0.117631600402208,0.0636150108499772,0.5327651169653338,-112.30261051484806,33.702153226185835,144.53798928459534,0.823159863974433,0.393578591009241,1.6663606606631136
2.37,-24.441351281793168,88.68888648397103,170.1300944762646,0.0665057594213147,0.0603378091955363,0.0137745852323033,-97.8354366267097,84.50630934561607,-14.259301484678526,0.010655416801084,0.1193567070001783,0.0690942744772668,-168.92556945270292,22.37690106380041,64.39286091053657,0.035723247587048,0.1167776962078678,0.6271928521002296,-114.37970585041612,33.70177604287382,144.81597834063015,0.8428800508626159,0.2684834707295727,1.1671819321217876
2.38,-24.30511517721887,88.61847687039004,170.11059431973482,0.1168895506310426,0.0673851666901634,0.0078554698156883,-97.68434147713285,84.36579061238598,-14.31663466665347,0.0095195629426869,0.1231361669419563,0.0235005082789808,-168.98570585605478,22.61617383594372,64.25012725003839,0.0811379860508101,0.0444691074053643,-0.0033805868693011,-115.87453709557307,33.63085291431733,144.55820046234678,0.9634105302066692,0.3011641879442437,0.905521608221326
2.39,-24.11219224329672,88.68359095645366,170.12934950880972,0.1541877908674007,0.1416620728616966,0.0639868039191225,-97.6976508080655,84.25449464215285,-14.3716979871045,0.0542783605360804,0.0826310958112462,0.047924291928828,-169.9469583956439,21.93524028916831,64.5030601839836,0.0917286749530033,0.2005254888815501,0.7996708583947336,-117.61630886118958,33.50548379254942,144.3084764438365,0.7107679908526601,0.4697506745414601,1.1221721841381198
2.4,-23.89634266113361,88.75337377275704,170.20151047851218,0.1873773456431071,0.1772956586709919,0.0633813178311902,-97.5616836670263,84.1258522513427,-14.43323558684655,0.099295039744479,0.1834307323760669,0.1012314205525411,-170.43700656011478,21.59108010214413,64.60224949178992,0.0533351030116106,0.1922144417921058,0.6719315307636619,-118.43066334141557,33.37486906286551,144.4055524874109,0.6458570513725685,0.4124597282191927,1.157592076164701
2.41,-23.68194801742017,88.79400043420792,170.25992349236216,0.2451681917269282,0.1784131622085377,0.0953708622506531,-97.4348347227764,83.99847089681082,-14.49230354450309,0.1697772266352079,0.2473292062409079,0.1576498487947773,-170.94510140502945,21.225424837699272,64.68897395446474,0.0242112573486695,0.127977467394742,0.5369687064285986,-119.21466005853756,33.25139599959416,144.50711042819484,0.5953931018295578,0.355819112818999,1.218742519054279
2.42,-23.2423699239004,88.86706356648705,170.3773956654858,0.3256610325187589,0.215621438721164,0.1214816816535997,-97.08767709552426,83.80478157799692,-14.584656605892633,0.107915576693898,0.1473223465925938,0.1028585344213669,-171.18350195837075,21.247595627122447,64.75842670908592,-0.0146160548616792,0.3285926700115765,0.0643468126104617,-120.82497734518812,33.2581299732258,144.73937495810142,0.7289073263316282,0.1896560638925288,1.2903541777311378
2.43,-22.935781641907514,88.99786342796614,170.45091927702097,0.1701483745810407,0.2526120926429705,0.0030723511912174,-96.7505729290835,83.55838054139561,-14.673273291750371,0.0726944705013747,0.0371608898377319,0.0578457436154336,-171.55825676590842,21.24641301080483,65.00732437838417,0.1185429043367028,0.4127000139709926,0.2362334968098942,-122.1891226218768,33.43680956496204,144.69020183190696,0.6287271713351751,0.0693772425779827,0.838816103053117
2.44,-22.88908863001777,89.07719181357422,170.329893934614,0.1847757297847187,0.1443099691688797,0.0572983898647924,-96.69474760124488,83.45274405077363,-14.64158006527889,0.0475009492340086,0.1722820431039025,-0.0006100367715639,-172.19019097009323,20.737226285963903,65.31535690184947,0.1618666398516043,0.0466211249579817,0.4040460386002868,-123.06726330755572,33.4351946887314,144.7573272544938,0.0191393416187656,0.0854369122269456,0.4653089751412845
2.45,-22.79965698693122,89.19151135419045,170.19073957571806,0.2007145120941771,0.0194319809539984,0.1164725612049539,-96.29588381993835,83.28258032151177,-14.6142005172795,0.1687730191542434,0.1581276953723503,0.0459364958978899,-171.0582575809394,21.609045243924808,64.93976892721662,0.1563041477332504,0.1005450308832055,0.6806074073192584,-123.63289598396788,33.507477293398985,145.00521525496234,0.1136019512355701,0.0884373882212474,0.4115135262307376
2.46,-22.674473359882963,89.30739162203685,170.0606131167738,0.1924954156102849,0.2026852177250385,0.0999367464594404,-95.86098258261404,83.13068391132661,-14.611934934590996,0.2521201698643323,0.1391811735966723,0.0890847824449726,-169.94256061552508,22.50264849549307,64.57291696315676,0.1734988595090206,0.1370061079097246,0.995133383256397,-124.13812374590542,33.93676534995648,144.81886834732134,0.4956236427346127,0.4643458094409765,0.2461382963311026
2.47,-22.570880417264547,89.42649322072289,170.02829801766808,0.2580215059040896,0.0390471432134869,0.063248429428381,-95.81492250584006,83.49776819360262,-14.61994481459345,0.15213808341088,0.4343705782523341,0.1736437625534129,-169.76078501015348,22.80078656215204,64.68239807536143,0.1458172379588987,0.2162827154590165,0.0204354999850746,-124.63407506969412,34.62537942670716,144.45642377484523,0.5032591105491386,0.5407191099144567,0.5394041852122258
2.48,-22.374445207322516,89.48865791697679,169.93581147220002,0.1773755253830449,0.1044625250504913,0.0446702764884352,-95.93691873339937,84.04815250499807,-14.42699373090574,0.0485642656298239,0.1647106146794868,-0.0124211419712454,-169.79918958556627,22.95803383592145,65.09128149563504,0.183972690245212,0.2097765361522118,0.2501819727921311,-125.51291745903728,35.382352388260166,144.38385101994876,0.4250200504199176,0.5184307512066095,0.687506203022554
2.49,-22.261228719979965,89.50656528373733,169.88335991445703,0.0885327521662868,0.089661189717416,0.0502459203763584,-95.86656492134011,84.1984401948625,-14.451984062613668,0.2202533451011248,0.1531056082269674,0.0399073669969326,-169.857866545982,23.12185298848042,65.51773310001056,0.2138621728099866,0.2177551671357102,0.5159146895267471,-126.18923752091123,36.12900750591277,144.17773945792683,0.5363271578001032,0.6843539979008152,0.6121252289069009
2.5,-22.26541974683371,89.558824140455,169.82200311920042,0.1643535341714801,0.1308547183538283,0.0749768941260408,-95.61944188943843,84.13725720887288,-14.424740514418913,0.2633032745440305,0.1034281084546448,0.093393827925902,-169.50710011944443,23.66437455471255,65.76230456144003,0.0821788454481253,0.3219957761575888,0.1956302858275833,-127.02598461918171,37.060608520482525,144.01494690007428,0.403255433585665,0.74915179609838,0.6347064789277337
2.51,-22.06231930817901,89.69713082851085,169.838799691937,0.2777986585523396,0.2456086725173775,0.0590900168588737,-95.4337643569594,84.24610674129556,-14.235993517868057,0.1617197920472717,0.0014081556328259,0.0626881073096012,-169.94245648379737,23.8231248125573,66.01573225712416,0.0539777205166597,0.3041092485982511,0.0268516836108659,-127.68980379249092,38.06435056479183,144.20122531173192,0.030398906267716,0.8278365716823892,0.2963991054815565
2.52,-21.59399071814136,89.47594664483314,169.6843046777308,0.2836551939402122,0.2693133246582118,0.1266754431260726,-95.32275788265548,84.202789617475,-14.249459305185695,0.0834442511223318,0.1613075599972665,0.0367778405757803,-170.1972157193234,23.82338984406927,66.13085875577009,0.0431821363346227,-0.0028574224174719,0.2853696442153102,-127.89346204556873,39.00323994473076,144.1867333534513,0.096329914976679,0.8088049833729507,0.1485666136868798
2.53,-21.10545414990934,89.23827831225128,169.56133663366217,0.3194077907461105,0.285658566575425,0.1835945952874874,-94.90613648159665,83.9699766282439,-14.413393385382273,0.222296226913762,0.1395886001991785,0.0665665908271147,-169.63667953436018,24.24372130094689,66.11488271298401,0.0523449608472316,0.1707656423902866,0.5727754110183583,-128.0142825424813,39.81767388115147,143.94210334597625,0.1543502627247652,0.7360672980200696,0.0586518607435029
2.54,-20.570301350545904,88.87422297707462,169.33850187907677,0.2651212174327399,0.4340422291943038,0.1465923460082773,-94.51039557589544,83.74990269190445,-14.563262716437189,0.3574119094396643,0.1111410246826159,0.078700337966706,-169.0685567036765,24.80367913653887,66.11925333701707,0.1080488051335558,0.1174310137644327,0.5128970805182802,-128.01719500988452,40.63517270401936,143.60547320455152,0.2009813586674051,0.0870382763905623,0.8711262120794435
2.55,-20.34479015656333,88.66591949841067,169.2546672942366,0.2794585696866805,0.420403973482882,0.1337652428606876,-94.28409049943662,83.70605345424141,-14.58698820515645,0.3341657385742762,0.0844097343915333,0.0704334891326987,-169.08947456326445,24.7831469098736,66.2775530177234,0.3305461157969945,0.1837614583907203,0.6030452077310902,-127.87235450384551,40.4969743108852,143.4083724332394,0.1778785312602658,0.269696317348149,0.5489085759572817
2.56,-20.125033574869065,88.44730724669803,169.1977309677104,0.2697978465249976,0.4144228529971691,0.0909999715824249,-94.06974950640712,83.69976930905378,-14.628158463371117,0.3164319630726003,0.0689064587572008,0.0430692232729933,-169.11396429663216,24.74140636852342,66.42675386249084,0.5395575767326145,0.2718322049379834,0.6772800636320441,-127.77070803333906,40.370907378007104,143.1920365140538,0.1448650844134638,0.4411281309118613,0.2316423289981665
2.57,-19.87206047046484,88.05644844086405,169.13490459583022,0.0214481666794193,0.2502617440837382,-0.0094683357700768,-93.99864823110052,83.81477076715842,-14.488050588417842,0.1260046529757329,0.086598618751343,0.137427350204999,-170.19595296916398,23.935147577636418,67.39329019854833,0.6681938285819377,0.4071840628596699,0.8577787060540385,-127.93014993379025,40.12613662166757,143.40610512292417,0.1658129248102522,0.2576422887833985,0.1302439098332649
2.58,-19.92527335139114,87.88334549602173,169.1137948164066,0.0633885213240493,0.1924218752488154,0.0294488215272126,-94.06838620477326,84.00659654092551,-14.319763594185206,0.0332539030893741,0.1287818380215283,0.1106342001203593,-171.42957052844332,22.876246565271824,68.43276507652635,0.528168986745901,0.2791750945179404,1.0132441636351384,-128.06716758463602,39.88445381671124,143.62527627512702,0.2008601340561174,0.0585328793131561,0.0459108135397132
2.59,-20.127145976140586,87.75207030205526,169.21004732824863,0.1083056448051673,0.1137323201891502,0.0611787060352454,-94.33207704119638,84.14965509614484,-14.209690707744992,0.128573252448982,0.066179412672123,0.0771794923057584,-172.45829304035686,21.93391233140514,69.08742317686361,0.3482671426422462,0.1187184339055688,0.7059277791111424,-128.7690859911812,39.85535573265692,143.50432317661512,0.4718600380727434,0.0950161770480232,0.5022809128032797
2.6,-20.322166023267503,87.61599076048782,169.25446638483265,0.152504981742142,0.2504121006874858,0.0701979917583156,-94.56057119486552,83.98907150807075,-14.193010825012465,0.2343249449627802,0.2056641202804877,0.007573507344616,-172.86588564441624,21.56497607901977,69.25378680854321,0.0751120904509762,0.1242079032753099,0.2671227446123463,-129.39490079421344,39.64143779957091,143.26136309690435,0.5292029010913577,0.3986220158289958,0.1727787061023288
2.61,-20.55866022298633,87.3830820000824,169.37641821758024,0.1802816580562899,0.2849661245694774,0.0665125224577815,-94.80276560830896,83.68536362517213,-14.190611673830563,0.2233228200151887,0.3553259665061483,0.0489717549517267,-172.92242897463294,21.30350324624209,69.26601995538499,0.065847121619547,0.1106752769107921,0.008210971904705,-129.5116910811944,39.29512109388214,142.302470229506,0.7697053022114216,0.0975387389957002,0.3514780106016207
2.62,-20.87706130343013,87.06427689001977,169.44418718600963,0.222500757927171,0.3072419329642853,0.0519375450387573,-94.944872605379,83.30104417701286,-14.182484061994703,0.1092190464803013,0.317608343720016,0.0275759490970993,-172.94818954858547,21.368848373671263,69.14576040190656,0.1036454739807328,0.0714430881591639,0.1643773910853348,-129.44507567624993,39.383603585292754,141.31398769043994,0.6035853857794959,0.2465966055586713,0.2097745291659014
2.63,-21.054673596970133,86.7458045047987,169.44862873148102,0.1490814021034638,0.3057377434522704,0.0081501745869958,-95.05523543191788,83.19561798650055,-14.139849266217734,0.0842776031390725,0.176675429659047,0.0998678956593371,-172.31667049718442,21.86487694079767,69.06858172451098,0.0396404120667773,0.1472936222654843,0.758238214992608,-129.3270989939792,39.93815642925652,140.68994741366222,0.1789569839232432,0.545518830983973,0.2215593320237421
