0.05,174.25,6.12,11.75,1.13,2.02,9.56,0.04,0.04,0.06,7.19,5.06,50.88,0.09,0.01,0.14,0.058161161736706796,-0.0994204994074369,0.9923530401808028,0.044365382979643916
0.06,174.12,6.12,11.81,1.19,1.96,9.7,0.04,0.02,0.12,7.19,5.06,50.88,0.07,0.16,0.2,0.05829772438199726,-0.09987400820528387,0.9922499127872206,0.04546062461784762
0.07,174.0,6.06,11.88,1.03,1.83,9.73,0.04,0.02,0.12,7.19,5.06,50.88,0.05,0.16,0.14,0.05791148552866672,-0.10044907896429901,0.9921653997268187,0.04651947940389016
0.08,173.87,6.0,11.88,1.0,1.9,9.66,0.03,0.02,0.08,7.19,6.19,51.37,0.03,0.11,0.12,0.057506233841250615,-0.10041396914230444,0.9921364462482708,0.0477005230195184
0.09,173.81,6.0,11.94,1.07,2.1,9.74,0.03,0.04,0.05,7.19,6.19,51.37,0.03,0.16,0.33,0.05758404262797657,-0.10090329968129005,0.992058637461545,0.04818985355850399
0.1,173.81,5.94,11.94,1.03,2.23,9.86,0.02,0.03,0.03,7.19,6.19,51.37,0.01,0.21,0.32,0.05706490183666209,-0.10093420993800062,0.9920827798734633,0.048245622818090604
0.11,173.75,5.94,12.0,1.01,2.0,9.77,0.02,0.02,0.06,6.75,5.06,50.5,0.06,0.02,0.23,0.05714326854059756,-0.1014237431661291,0.9920044131695276,0.04873515604621904
0.12,173.69,5.87,12.0,0.9,1.89,9.6,0.02,0.02,0.09,6.75,5.06,50.5,0.1,0.14,0.06,0.05659075424965191,-0.10143048488875869,0.9920064945763214,0.04931995526240404
0.13,173.56,5.87,12.0,0.91,1.84,9.47,0.02,0.03,0.06,6.75,5.06,50.88,0.09,0.18,0.06,0.05670578704358787,-0.1013662194573738,0.9919499045135401,0.050445318952954434
0.14,173.5,5.87,12.0,0.91,1.79,9.32,0.04,0.02,0.05,6.75,5.06,50.88,0.09,0.23,0.21,0.05675885449645106,-0.1013365144830031,0.9919233554331625,0.05096469576974539
0.15,173.44,5.87,11.94,0.89,1.75,9.3,0.06,0.02,0.05,6.75,5.06,50.88,0.11,0.26,0.23,0.056784941612077686,-0.10078741205253058,0.9919494425487893,0.051513798200217883
0.16,173.31,5.81,11.88,0.83,1.91,9.27,0.08,0.02,0.07,7.56,5.06,50.88,0.15,0.01,0.21,0.05635261104900767,-0.1002366634798527,0.9919662931208016,0.05272445196075257
0.17,173.25,5.81,11.81,1.15,1.97,9.29,0.07,0.01,0.09,7.56,5.06,50.88,0.19,0.1,0.12,0.05637255178504913,-0.09960118414500606,0.9919995786697333,0.053278283016875774
0.18,173.13,5.75,11.75,1.15,1.75,9.52,0.06,0.01,0.1,7.56,5.06,50.88,0.19,0.33,0.01,0.05592928516633841,-0.0990565673322942,0.9920182321962784,0.05440164077760798
0.19,173.19,5.75,11.69,1.14,1.6,9.52,0.04,0.01,0.1,6.06,6.19,51.37,0.14,0.34,0.02,0.05584919128522856,-0.0985663903239252,0.9920983260773881,0.05391146376923901
0.2,173.13,5.69,11.69,1.17,1.71,9.59,0.01,0.03,0.06,6.06,6.19,51.37,0.17,0.22,0.12,0.05538165910148353,-0.09857096005597923,0.992092714038899,0.054485634985205145
0.21,173.13,5.69,11.69,1.13,1.82,9.7,0.01,0.02,0.03,7.19,5.06,50.5,0.15,0.15,0.18,0.05538165910148353,-0.09857096005597923,0.992092714038899,0.054485634985205145
0.22,173.13,5.69,11.63,1.09,1.72,9.79,0.01,0.01,0.03,7.19,5.06,50.5,0.06,0.25,0.21,0.05535312289942315,-0.09805148803747003,0.9921441896766134,0.05451462528400338
0.23,173.19,5.69,11.63,0.99,1.78,9.69,0.01,0.01,0.04,7.19,5.06,50.5,0.01,0.18,0.13,0.0553017756750007,-0.09808045742283564,0.9921725974653818,0.05399513235206157
0.24,173.25,5.75,11.56,0.95,1.88,9.52,0.01,0.02,0.06,7.19,5.06,50.5,0.02,0.08,0.03,0.05573696720075162,-0.09747002445580344,0.9922376327783916,0.05345526090275101
0.26,173.25,5.81,11.5,1.02,1.8,9.52,0.05,0.02,0.04,7.56,5.06,50.88,0.03,0.14,0.03,0.05622821405553145,-0.0969172058381591,0.992265395535156,0.053430590302837706
0.27,173.19,5.81,11.38,1.06,1.69,9.51,0.07,0.02,0.02,7.56,5.06,50.88,0.06,0.23,0.04,0.05622242478180875,-0.09584863014222525,0.9923381998698585,0.054009037489678335
0.28,173.19,5.87,11.31,1.08,1.71,9.54,0.07,0.03,0.02,7.56,5.06,50.88,0.08,0.19,0.02,0.05670872134513252,-0.09520889689401793,0.9923731294433876,0.053990358716733
0.29,173.25,5.87,11.19,1.17,1.86,9.61,0.06,0.02,0.05,6.75,5.75,50.5,0.16,0.03,0.05,0.05660283682134596,-0.09419928425614882,0.9925004521364402,0.05353004967648812
0.3,173.31,5.94,11.19,1.11,1.8,9.54,0.05,0.01,0.03,6.75,5.75,50.5,0.09,0.08,0.02,0.057159441044333334,-0.09419042014753536,0.9925005535536288,0.05294916663811148
0.31,173.31,5.94,11.12,1.15,1.72,9.55,0.04,0.04,0.01,7.56,5.5,50.88,0.12,0.15,0.01,0.057127085576350614,-0.09358411852430798,0.9925579060245588,0.052984073472350436
0.32,173.31,6.0,11.06,0.98,1.63,9.56,0.02,0.03,0.07,7.56,5.5,50.88,0.04,0.23,0.02,0.05761875010336728,-0.09303141298750796,0.9925826175913962,0.05296209106035719
0.33,173.38,6.06,11.0,0.98,1.69,9.56,0.02,0.01,0.09,7.56,5.5,50.88,0.05,0.17,0.02,0.058053934530064875,-0.09251416226533708,0.9926389047387519,0.05233426473136666
0.34,173.5,6.06,11.0,0.96,1.8,9.56,0.02,0.01,0.09,6.37,5.75,50.06,0.02,0.12,0.03,0.05795702211196789,-0.09257490546574187,0.9926931647674719,0.05129474719562068
0.35,173.62,6.06,10.94,1.09,1.85,9.52,0.02,0.01,0.06,6.37,5.75,50.06,0.06,0.06,0.02,0.057833724659498036,-0.09211573370577596,0.992794703959749,0.05028546196795353
0.36,173.69,6.06,10.94,1.09,1.87,9.61,0.01,0.01,0.05,6.37,5.75,50.06,0.1,0.01,0.01,0.057777443572875536,-0.09215104512878433,0.9928252363647285,0.04967898885018594
0.37,173.75,6.12,10.88,1.11,1.79,9.63,0.01,0.01,0.05,6.37,5.75,50.5,0.03,0.06,0.09,0.058223024720538565,-0.09163040849786733,0.9928742969960062,0.04913835564599337
0.38,173.81,6.12,10.88,1.08,1.77,9.66,0.02,0.01,0.03,6.37,5.75,50.5,0.1,0.05,0.04,0.05817503917194752,-0.09166088144043158,0.992899889676622,0.04861848116773794
0.39,173.87,6.12,10.81,1.08,1.75,9.62,0.02,0.01,0.06,7.19,6.19,51.69,0.03,0.08,0.04,0.058097645072240786,-0.09108476868875814,0.9929810359321408,0.04813409217080928
0.4,173.94,6.12,10.81,0.98,1.78,9.55,0.01,0.01,0.09,7.19,6.19,51.69,0.06,0.04,0.01,0.05804199371702802,-0.09112024152391783,0.9930102541054132,0.0475275056307227
0.41,174.06,6.12,10.81,1.09,1.92,9.53,0.01,0.02,0.1,7.19,6.19,51.69,0.04,0.09,0.03,0.05794654101559848,-0.09118097298423723,0.9930594803050787,0.04648760185450052
0.42,174.0,6.12,10.81,1.09,1.9,9.55,0.02,0.02,0.05,7.87,5.75,50.06,0.04,0.07,0.01,0.057994275316043,-0.0911506197488072,0.9930350033283349,0.04700756018630634
0.43,174.0,6.12,10.75,1.06,1.78,9.54,0.03,0.01,0.03,7.87,5.75,50.06,0.02,0.03,0.03,0.05796965426648048,-0.0906306553659665,0.9930825935559605,0.04703791947277143
0.44,174.0,6.12,10.75,1.06,1.8,9.53,0.03,0.01,0.01,7.56,5.06,51.69,0.01,0.01,0.04,0.05796965426648048,-0.0906306553659665,0.9930825935559605,0.04703791947277143
0.45,174.0,6.12,10.69,1.12,1.91,9.52,0.02,0.01,0.03,7.56,5.06,51.69,0.07,0.09,0.05,0.05794501732420846,-0.09011066613621763,0.9931299115243608,0.04706826586352411
0.46,174.0,6.12,10.69,1.09,1.96,9.59,0.01,0.01,0.02,7.56,5.06,51.69,0.04,0.15,0.01,0.05794501732420846,-0.09011066613621763,0.9931299115243608,0.04706826586352411
0.47,173.81,6.12,10.69,1.09,1.83,9.64,0.01,0.01,0.02,8.25,6.19,50.5,0.04,0.01,0.06,0.05809434674780039,-0.09001446583834198,0.9930505042776641,0.04871487216099055
0.48,173.81,6.12,10.69,1.03,1.79,9.66,0.01,0.01,0.02,8.25,6.19,50.5,0.02,0.01,0.08,0.05809434674780039,-0.09001446583834198,0.9930505042776641,0.04871487216099055
0.49,173.81,6.12,10.69,1.06,1.82,9.61,0.02,0.01,0.01,6.75,6.56,51.37,0.04,0.02,0.03,0.05809434674780039,-0.09001446583834198,0.9930505042776641,0.04871487216099055
0.5,173.81,6.12,10.63,0.99,1.77,9.67,0.03,0.01,0.02,6.75,6.56,51.37,0.06,0.03,0.04,0.05806883173810162,-0.08949449349496509,0.9930974996143958,0.04874528361069775
0.51,173.81,6.12,10.63,1.11,1.78,9.55,0.03,0.01,0.02,6.75,6.56,51.37,0.06,0.01,0.02,0.05806883173810162,-0.08949449349496509,0.9930974996143958,0.04874528361069775
0.52,173.87,6.19,10.56,1.12,1.78,9.55,0.02,0.01,0.02,6.37,6.19,50.5,0.01,0.01,0.05,0.05859886038253133,-0.08888271471750897,0.9931477806783449,0.04820292854166601
0.53,173.87,6.19,10.56,1.13,1.84,9.51,0.01,0.01,0.01,6.37,6.19,50.5,0.05,0.09,0.08,0.05859886038253133,-0.08888271471750897,0.9931477806783449,0.04820292854166601
0.54,173.87,6.19,10.56,1.16,1.92,9.55,0.01,0.01,0.01,7.19,6.19,51.37,0.1,0.09,0.02,0.05859886038253133,-0.08888271471750897,0.9931477806783449,0.04820292854166601
0.55,173.87,6.19,10.56,1.06,1.77,9.6,0.01,0.01,0.02,7.19,6.19,51.37,0.03,0.1,0.01,0.05859886038253133,-0.08888271471750897,0.9931477806783449,0.04820292854166601
0.56,173.87,6.19,10.56,1.02,1.66,9.6,0.01,0.01,0.02,7.19,6.19,51.37,0.04,0.12,0.04,0.05859886038253133,-0.08888271471750897,0.9931477806783449,0.04820292854166601
0.57,173.87,6.19,10.56,1.1,1.79,9.5,0.01,0.01,0.01,7.19,7.0,50.5,0.04,0.1,0.07,0.05859886038253133,-0.08888271471750897,0.9931477806783449,0.04820292854166601
0.58,173.87,6.19,10.56,1.21,1.78,9.54,0.03,0.01,0.03,7.19,7.0,50.5,0.15,0.09,0.03,0.05859886038253133,-0.08888271471750897,0.9931477806783449,0.04820292854166601
0.59,173.81,6.19,10.56,1.22,1.81,9.56,0.03,0.01,0.03,7.19,7.0,50.5,0.1,0.07,0.03,0.05864539122839783,-0.088852020243513,0.9931224055465852,0.04872293287230355
0.6,173.81,6.19,10.5,1.12,1.71,9.69,0.02,0.01,0.04,7.19,6.56,50.5,0.04,0.11,0.06,0.0586198719225847,-0.08833201041206698,0.9931687922183984,0.048753632847107965
0.61,173.81,6.19,10.5,1.1,1.59,9.67,0.02,0.01,0.01,7.19,6.56,50.5,0.13,0.18,0.06,0.0586198719225847,-0.08833201041206698,0.9931687922183984,0.048753632847107965
0.62,173.75,6.19,10.5,1.15,1.63,9.66,0.01,0.01,0.04,7.87,6.56,51.0,0.04,0.11,0.01,0.05866611441748411,-0.08830130501194423,0.9931431287356712,0.04927364810387229
0.63,173.81,6.19,10.5,1.09,1.72,9.52,0.01,0.01,0.04,7.87,6.56,51.0,0.01,0.06,0.1,0.0586198719225847,-0.08833201041206698,0.9931687922183984,0.048753632847107965
0.64,173.81,6.25,10.44,0.99,1.7,9.49,0.02,0.01,0.02,7.87,6.56,51.0,0.07,0.07,0.08,0.05911409686503351,-0.08778128440535313,0.9931892270508359,0.048735294501428966
0.65,173.81,6.25,10.44,1.08,1.7,9.46,0.03,0.02,0.01,7.56,6.19,50.5,0.01,0.06,0.12,0.05911409686503351,-0.08778128440535313,0.9931892270508359,0.048735294501428966
0.66,173.81,6.25,10.38,1.14,1.68,9.44,0.03,0.02,0.01,7.56,6.19,50.5,0.01,0.03,0.09,0.05908857102243764,-0.08726123973302508,0.9932350530775413,0.04876623988822513
0.67,173.75,6.25,10.38,1.1,1.79,9.49,0.02,0.02,0.02,7.19,7.0,50.5,0.03,0.03,0.09,0.05913425279889791,-0.08723028906941764,0.9932093829847003,0.04928628983736443
0.68,173.75,6.31,10.38,1.18,1.73,9.54,0.01,0.02,0.01,7.19,7.0,50.5,0.06,0.05,0.01,0.059654006369816805,-0.08719931449113175,0.9931834405978742,0.04923751007591131
0.69,173.75,6.31,10.38,1.15,1.62,9.65,0.01,0.02,0.01,7.19,7.0,50.5,0.07,0.13,0.06,0.059654006369816805,-0.08719931449113175,0.9931834405978742,0.04923751007591131
0.7,173.75,6.31,10.38,1.13,1.6,9.64,0.01,0.01,0.01,7.56,6.56,50.06,0.04,0.14,0.05,0.059654006369816805,-0.08719931449113175,0.9931834405978742,0.04923751007591131
0.71,173.75,6.31,10.31,1.04,1.68,9.62,0.01,0.01,0.03,7.56,6.56,50.06,0.08,0.12,0.05,0.05962391775823163,-0.08659259702036101,0.993236522318236,0.04927394144581132
0.72,173.81,6.37,10.31,1.15,1.84,9.53,0.01,0.01,0.02,7.19,6.56,49.69,0.06,0.09,0.07,0.060098352886109256,-0.08659309384784675,0.9932359269587984,0.04870541526905792
0.73,173.81,6.37,10.31,1.18,1.8,9.47,0.01,0.03,0.01,7.19,6.56,49.69,0.1,0.07,0.08,0.060098352886109256,-0.08659309384784675,0.9932359269587984,0.04870541526905792
0.74,173.81,6.37,10.31,1.16,1.71,9.53,0.01,0.02,0.01,7.19,6.56,49.69,0.04,0.05,0.04,0.060098352886109256,-0.08659309384784675,0.9932359269587984,0.04870541526905792
0.75,173.75,6.44,10.31,1.13,1.71,9.59,0.01,0.02,0.02,7.56,6.19,51.69,0.06,0.05,0.01,0.06075005858036429,-0.08652543835286852,0.993179338692231,0.049168893572961905
0.76,173.75,6.44,10.38,1.19,1.76,9.59,0.01,0.01,0.02,7.56,6.19,51.69,0.05,0.04,0.05,0.060780082811746294,-0.08713212090468245,0.9931262980074312,0.04913177430242277
0.77,173.62,6.44,10.38,1.17,1.71,9.61,0.01,0.03,0.01,8.25,6.19,50.19,0.06,0.04,0.03,0.0608788919339149,-0.08706311203287904,0.9930699207085331,0.050258408490490805
0.78,173.56,6.5,10.38,1.08,1.64,9.58,0.02,0.02,0.01,8.25,6.19,50.19,0.04,0.1,0.04,0.061444118820836405,-0.08699931208028967,0.9930167457243894,0.05072950493382345
0.79,173.56,6.5,10.38,1.15,1.72,9.6,0.02,0.03,0.02,8.25,6.19,50.19,0.03,0.03,0.02,0.061444118820836405,-0.08699931208028967,0.9930167457243894,0.05072950493382345
0.81,173.56,6.56,10.44,1.17,1.75,9.59,0.02,0.02,0.01,6.75,6.19,50.5,0.05,0.01,0.01,0.06199027888857565,-0.08748729259474368,0.9929440777403304,0.05064817309798058
0.82,173.62,6.56,10.44,1.04,1.64,9.63,0.01,0.03,0.02,6.75,7.0,50.88,0.08,0.12,0.05,0.06194446215389244,-0.08751973863481692,0.9929704609499138,0.0501282618756518
0.83,173.62,6.62,10.44,1.17,1.67,9.53,0.01,0.02,0.02,6.75,7.0,50.88,0.04,0.09,0.04,0.062464068414071615,-0.08748803682220212,0.9929431838565036,0.0500791094476424
0.84,173.62,6.62,10.44,1.17,1.77,9.56,0.01,0.01,0.02,6.75,7.0,50.88,0.04,0.1,0.01,0.062464068414071615,-0.08748803682220212,0.9929431838565036,0.0500791094476424
0.85,173.81,6.62,10.5,1.23,1.66,9.66,0.02,0.02,0.01,6.37,6.56,51.0,0.09,0.11,0.08,0.06234427270778097,-0.08811142042913282,0.9929788543264136,0.04840004247003939
0.86,173.81,6.62,10.5,1.1,1.53,9.65,0.02,0.01,0.01,6.37,6.56,51.0,0.03,0.24,0.08,0.06234427270778097,-0.08811142042913282,0.9929788543264136,0.04840004247003939
0.87,173.81,6.62,10.5,1.15,1.76,9.6,0.02,0.01,0.02,7.19,6.56,51.37,0.01,0.01,0.02,0.06234427270778097,-0.08811142042913282,0.9929788543264136,0.04840004247003939
0.88,173.81,6.62,10.56,1.15,1.81,9.51,0.02,0.01,0.03,7.19,6.56,51.37,0.01,0.02,0.06,0.062369606363581256,-0.08863133083957371,0.9929325831812764,0.04836739245210252
0.89,173.87,6.62,10.56,1.05,1.63,9.58,0.02,0.01,0.01,7.19,6.56,51.37,0.08,0.15,0.06,0.062323190559903825,-0.08866397533821704,0.9929577721785364,0.047847487560955214
0.9,173.75,6.62,10.56,1.2,1.75,9.52,0.01,0.01,0.01,8.25,5.75,50.5,0.06,0.03,0.05,0.06241600506827737,-0.08859866204214835,0.9929071219659172,0.04888728408305487
0.91,173.75,6.62,10.5,1.25,1.89,9.57,0.01,0.01,0.01,8.25,5.75,50.5,0.11,0.1,0.06,0.06239039919150788,-0.08807876496764622,0.992953376009203,0.04891995832402998
0.92,173.75,6.62,10.5,1.19,1.78,9.64,0.02,0.01,0.01,7.56,7.25,50.06,0.05,0.09,0.07,0.06239039919150788,-0.08807876496764622,0.992953376009203,0.04891995832402998
0.93,173.75,6.62,10.5,1.14,1.69,9.63,0.01,0.01,0.01,7.56,7.25,50.06,0.06,0.08,0.06,0.06239039919150788,-0.08807876496764622,0.992953376009203,0.04891995832402998
0.94,173.81,6.62,10.5,1.2,1.67,9.56,0.01,0.01,0.03,7.56,7.25,50.06,0.06,0.1,0.01,0.06234427270778097,-0.08811142042913282,0.9929788543264136,0.04840004247003939
0.95,173.75,6.62,10.5,1.16,1.67,9.5,0.01,0.01,0.02,8.25,6.56,50.5,0.03,0.05,0.01,0.06239039919150788,-0.08807876496764622,0.992953376009203,0.04891995832402998
0.96,173.75,6.62,10.44,1.13,1.65,9.57,0.02,0.01,0.02,8.25,6.56,50.5,0.01,0.1,0.05,0.06236477621005659,-0.08755884374585113,0.9929993578286892,0.04895261915332106
0.97,173.75,6.62,10.44,1.18,1.69,9.57,0.02,0.01,0.01,8.25,6.56,50.5,0.1,0.04,0.06,0.06236477621005659,-0.08755884374585113,0.9929993578286892,0.04895261915332106
0.98,173.75,6.62,10.44,1.23,1.73,9.53,0.02,0.01,0.01,7.56,6.19,50.5,0.06,0.03,0.02,0.06236477621005659,-0.08755884374585113,0.9929993578286892,0.04895261915332106
0.99,173.75,6.62,10.38,1.2,1.74,9.6,0.02,0.01,0.01,7.56,6.19,50.5,0.02,0.07,0.05,0.06233913613094821,-0.08703889851930245,0.9930450674117697,0.048985266561973974
1.0,173.81,6.62,10.38,1.17,1.6,9.62,0.02,0.01,0.03,6.75,7.0,50.5,0.03,0.15,0.04,0.06229355412702258,-0.08707152728205719,0.9930705799117233,0.048465302689527145
1.01,173.87,6.62,10.31,1.18,1.78,9.56,0.01,0.03,0.06,6.75,7.0,50.5,0.05,0.03,0.02,0.06221865529997776,-0.08649746824492603,0.9931488437488896,0.047983341694012915
1.02,173.94,6.62,10.31,1.23,1.84,9.54,0.01,0.03,0.06,6.75,7.0,50.5,0.01,0.17,0.04,0.0621658053980785,-0.08653545931771364,0.9931779698026323,0.0473766526740975
1.03,174.0,6.62,10.31,1.21,1.86,9.54,0.02,0.02,0.03,7.56,6.56,49.69,0.11,0.03,0.04,0.06212048701805017,-0.08656799739372338,0.9932026400161442,0.046856619434630035
1.04,174.0,6.62,10.31,1.23,1.71,9.58,0.02,0.02,0.01,7.56,6.56,49.69,0.03,0.11,0.04,0.06212048701805017,-0.08656799739372338,0.9932026400161442,0.046856619434630035
1.05,173.87,6.69,10.25,1.13,1.6,9.54,0.02,0.01,0.02,8.25,6.19,50.5,0.01,0.1,0.07,0.06279988187570841,-0.08594180530182056,0.9931616460397544,0.04795962649423586
1.06,173.87,6.69,10.25,1.12,1.67,9.5,0.02,0.01,0.04,8.25,6.19,50.5,0.06,0.02,0.07,0.06279988187570841,-0.08594180530182056,0.9931616460397544,0.04795962649423586
1.07,173.94,6.69,10.25,1.21,1.74,9.55,0.02,0.01,0.03,8.25,6.19,50.5,0.06,0.04,0.01,0.06274737130051995,-0.08598015152937129,0.9931907576043184,0.04735292965827122
1.08,173.94,6.69,10.25,1.22,1.73,9.56,0.01,0.01,0.02,7.56,6.19,51.37,0.07,0.07,0.03,0.06274737130051995,-0.08598015152937129,0.9931907576043184,0.04735292965827122
1.09,173.94,6.69,10.19,1.17,1.64,9.59,0.01,0.01,0.01,7.56,6.19,51.37,0.04,0.08,0.05,0.06272256876438892,-0.08546010630254272,0.9932356405598883,0.04738577761251786
1.11,174.0,6.75,10.19,1.2,1.7,9.56,0.01,0.02,0.03,7.19,7.0,51.0,0.01,0.09,0.01,0.06319759064011908,-0.08546296662714573,0.9932322202566312,0.04681775856076425
1.12,174.06,6.75,10.19,1.12,1.62,9.6,0.01,0.02,0.03,7.19,7.0,51.0,0.04,0.08,0.02,0.06315283367448982,-0.08549604509163519,0.9932565978264467,0.04629769699243856
1.13,174.25,6.75,10.19,1.17,1.74,9.55,0.01,0.01,0.04,6.37,6.56,50.5,0.02,0.01,0.03,0.06301098911944786,-0.08560063888556858,0.9933319969634843,0.04465075230169897
1.14,174.31,6.75,10.19,1.18,1.77,9.47,0.01,0.01,0.03,6.37,6.56,50.5,0.02,0.04,0.05,0.06296616009437488,-0.08563361962686293,0.9933552398778503,0.0441306387874629
1.15,174.25,6.75,10.19,1.13,1.7,9.58,0.01,0.01,0.02,8.25,7.69,51.0,0.01,0.07,0.04,0.06301098911944786,-0.08560063888556858,0.9933319969634843,0.04465075230169897
1.16,174.25,6.75,10.19,1.18,1.67,9.57,0.01,0.01,0.01,8.25,7.69,51.0,0.02,0.08,0.03,0.06301098911944786,-0.08560063888556858,0.9933319969634843,0.04465075230169897
1.17,174.25,6.81,10.19,1.19,1.62,9.61,0.01,0.01,0.02,7.56,7.0,50.5,0.01,0.06,0.02,0.06353081326931073,-0.08557178004678397,0.9933035247932369,0.044602845854227496
1.18,174.31,6.81,10.19,1.17,1.75,9.59,0.01,0.01,0.03,7.56,7.0,50.5,0.04,0.03,0.02,0.06348599928343335,-0.08560503297131017,0.9933267426277499,0.04408274725455113
1.19,174.31,6.81,10.19,1.2,1.75,9.58,0.01,0.01,0.01,7.56,7.0,50.5,0.01,0.11,0.02,0.06348599928343335,-0.08560503297131017,0.9933267426277499,0.04408274725455113
1.2,174.31,6.81,10.19,1.13,1.53,9.6,0.01,0.01,0.01,7.87,6.56,50.5,0.03,0.19,0.02,0.06348599928343335,-0.08560503297131017,0.9933267426277499,0.04408274725455113
1.21,174.31,6.81,10.19,1.25,1.66,9.5,0.01,0.01,0.02,7.87,6.56,50.5,0.08,0.05,0.07,0.06348599928343335,-0.08560503297131017,0.9933267426277499,0.04408274725455113
1.22,174.31,6.81,10.19,1.2,1.72,9.53,0.01,0.01,0.02,7.56,6.19,51.37,0.04,0.03,0.03,0.06348599928343335,-0.08560503297131017,0.9933267426277499,0.04408274725455113
1.23,174.38,6.81,10.13,1.19,1.81,9.63,0.01,0.01,0.03,7.56,6.19,51.37,0.01,0.06,0.07,0.06341092165407419,-0.08512366800188272,0.9933981927300755,0.043509158133729
1.24,174.38,6.81,10.13,1.17,1.76,9.67,0.01,0.01,0.04,7.56,6.19,51.37,0.01,0.01,0.05,0.06341092165407419,-0.08512366800188272,0.9933981927300755,0.043509158133729
1.25,174.44,6.81,10.13,1.19,1.71,9.59,0.01,0.01,0.03,7.87,5.75,51.37,0.02,0.01,0.06,0.06336634231553862,-0.0851568582127351,0.9934208378980864,0.04298901011595942
1.26,174.44,6.81,10.13,1.18,1.66,9.59,0.01,0.01,0.01,7.87,5.75,51.37,0.03,0.05,0.06,0.06336634231553862,-0.0851568582127351,0.9934208378980864,0.04298901011595942
1.27,174.44,6.81,10.13,1.13,1.63,9.63,0.02,0.01,0.01,7.87,5.75,51.37,0.04,0.14,0.02,0.06336634231553862,-0.0851568582127351,0.9934208378980864,0.04298901011595942
1.28,174.5,6.81,10.13,1.16,1.77,9.47,0.01,0.01,0.03,6.75,6.19,50.19,0.05,0.08,0.15,0.06332174560476089,-0.08519002507735182,0.9934432107141403,0.042468850312508674
1.29,174.56,6.87,10.06,1.27,1.79,9.44,0.01,0.01,0.01,6.75,6.19,50.19,0.02,0.05,0.06,0.06377143164324875,-0.08458883609159366,0.9934882805119906,0.041940073917055454
1.3,174.56,6.87,10.06,1.13,1.66,9.61,0.01,0.01,0.01,7.56,6.19,51.0,0.02,0.05,0.02,0.06377143164324875,-0.08458883609159366,0.9934882805119906,0.041940073917055454
1.32,174.56,6.87,10.06,1.24,1.71,9.58,0.01,0.01,0.01,7.19,6.19,50.19,0.07,0.03,0.03,0.06377143164324875,-0.08458883609159366,0.9934882805119906,0.041940073917055454
1.33,174.56,6.87,10.06,1.12,1.6,9.6,0.02,0.01,0.01,7.19,6.19,50.19,0.05,0.09,0.02,0.06377143164324875,-0.08458883609159366,0.9934882805119906,0.041940073917055454
1.34,174.56,6.87,10.0,1.19,1.66,9.57,0.02,0.01,0.02,7.19,6.19,50.19,0.01,0.03,0.01,0.06374946313125085,-0.08406863527286054,0.9935324349357504,0.04197345881000175
1.35,174.56,6.87,10.0,1.22,1.65,9.56,0.02,0.01,0.02,7.87,6.56,50.19,0.05,0.04,0.02,0.06374946313125085,-0.08406863527286054,0.9935324349357504,0.04197345881000175
1.36,174.5,6.87,10.0,1.15,1.62,9.57,0.01,0.01,0.02,7.87,6.56,50.19,0.02,0.06,0.01,0.06379347262509619,-0.08403524460959858,0.9935103214938381,0.04249366539905051
1.37,174.56,6.87,10.0,1.18,1.66,9.55,0.01,0.01,0.02,7.19,6.56,50.06,0.05,0.01,0.02,0.06374946313125085,-0.08406863527286054,0.9935324349357504,0.04197345881000175
1.38,174.56,6.87,9.94,1.25,1.67,9.59,0.01,0.01,0.01,7.19,6.56,50.06,0.07,0.01,0.03,0.06372747714197606,-0.08354841140623429,0.9935763169769581,0.04200683219568624
1.39,174.56,6.81,9.94,1.14,1.58,9.63,0.01,0.01,0.01,7.19,6.56,50.06,0.03,0.1,0.04,0.06320749104249869,-0.08357582432982659,0.9936052508686845,0.042053538613067445
1.4,174.56,6.81,9.94,1.14,1.62,9.56,0.02,0.01,0.01,7.87,7.0,50.5,0.02,0.05,0.02,0.06320749104249869,-0.08357582432982659,0.9936052508686845,0.042053538613067445
1.41,174.56,6.81,9.94,1.23,1.62,9.49,0.02,0.01,0.02,7.87,7.0,50.5,0.06,0.05,0.09,0.06320749104249869,-0.08357582432982659,0.9936052508686845,0.042053538613067445
1.43,174.56,6.81,9.88,1.23,1.57,9.58,0.01,0.01,0.02,7.87,6.56,50.5,0.07,0.07,0.02,0.06318546319783135,-0.08305556240442219,0.9936488748647163,0.04208662821186566
1.44,174.56,6.81,9.88,1.17,1.66,9.65,0.01,0.01,0.02,7.87,6.56,50.5,0.05,0.01,0.06,0.06318546319783135,-0.08305556240442219,0.9936488748647163,0.04208662821186566
1.45,174.56,6.81,9.88,1.2,1.69,9.58,0.01,0.01,0.03,7.19,7.25,49.69,0.03,0.04,0.03,0.06318546319783135,-0.08305556240442219,0.9936488748647163,0.04208662821186566
1.46,174.56,6.81,9.88,1.18,1.68,9.56,0.01,0.01,0.03,7.19,7.25,49.69,0.03,0.07,0.04,0.06318546319783135,-0.08305556240442219,0.9936488748647163,0.04208662821186566
1.47,174.56,6.81,9.88,1.17,1.56,9.58,0.01,0.01,0.02,7.87,7.25,50.19,0.04,0.13,0.05,0.06318546319783135,-0.08305556240442219,0.9936488748647163,0.04208662821186566
1.48,174.56,6.81,9.88,1.18,1.56,9.61,0.01,0.01,0.02,7.87,7.25,50.19,0.05,0.06,0.04,0.06318546319783135,-0.08305556240442219,0.9936488748647163,0.04208662821186566
1.49,174.56,6.81,9.88,1.25,1.65,9.53,0.01,0.01,0.01,7.87,7.25,50.19,0.03,0.08,0.01,0.06318546319783135,-0.08305556240442219,0.9936488748647163,0.04208662821186566
1.51,174.56,6.87,9.88,1.15,1.5,9.63,0.01,0.01,0.01,6.37,7.0,49.38,0.02,0.17,0.04,0.06370547368145199,-0.08302816463433715,0.9936199266235834,0.04204019406495945
1.52,174.56,6.87,9.88,1.17,1.51,9.6,0.01,0.01,0.01,7.19,7.0,50.5,0.06,0.1,0.01,0.06370547368145199,-0.08302816463433715,0.9936199266235834,0.04204019406495945
1.53,174.56,6.87,9.88,1.24,1.66,9.61,0.01,0.01,0.01,7.19,7.0,50.5,0.06,0.01,0.02,0.06370547368145199,-0.08302816463433715,0.9936199266235834,0.04204019406495945
1.54,174.56,6.87,9.88,1.2,1.64,9.58,0.01,0.01,0.01,7.19,7.0,50.5,0.02,0.03,0.02,0.06370547368145199,-0.08302816463433715,0.9936199266235834,0.04204019406495945
1.55,174.56,6.87,9.88,1.18,1.52,9.6,0.01,0.01,0.01,8.25,7.0,49.69,0.01,0.14,0.01,0.06370547368145199,-0.08302816463433715,0.9936199266235834,0.04204019406495945
1.56,174.56,6.87,9.88,1.18,1.47,9.59,0.01,0.01,0.01,8.25,7.0,49.69,0.01,0.2,0.02,0.06370547368145199,-0.08302816463433715,0.9936199266235834,0.04204019406495945
1.57,174.56,6.87,9.88,1.17,1.48,9.57,0.01,0.01,0.02,8.25,7.0,50.5,0.05,0.15,0.03,0.06370547368145199,-0.08302816463433715,0.9936199266235834,0.04204019406495945
1.58,174.62,6.87,9.88,1.2,1.69,9.54,0.01,0.01,0.02,8.25,7.0,50.5,0.02,0.01,0.04,0.06366199150548724,-0.08306150935951044,0.993641802613447,0.041519930148962436
1.59,174.62,6.87,9.88,1.24,1.71,9.52,0.01,0.01,0.02,8.25,7.0,50.5,0.06,0.03,0.06,0.06366199150548724,-0.08306150935951044,0.993641802613447,0.041519930148962436
1.6,174.62,6.87,9.88,1.2,1.61,9.58,0.01,0.01,0.02,7.56,7.0,50.5,0.02,0.06,0.04,0.06366199150548724,-0.08306150935951044,0.993641802613447,0.041519930148962436
1.61,174.62,6.87,9.94,1.16,1.64,9.59,0.02,0.01,0.02,7.56,7.0,50.5,0.01,0.03,0.01,0.06368372256243479,-0.08358176758107771,0.9935981755045664,0.04148659111821894
1.63,174.69,6.87,9.94,1.13,1.63,9.62,0.01,0.01,0.01,7.56,7.0,49.38,0.03,0.06,0.03,0.06363265348725575,-0.083620654156478,0.9936233328356326,0.040879628829322424
1.64,174.69,6.87,9.94,1.14,1.63,9.61,0.01,0.01,0.01,7.56,7.0,49.38,0.01,0.04,0.02,0.06363265348725575,-0.083620654156478,0.9936233328356326,0.040879628829322424
1.65,174.69,6.87,9.94,1.19,1.65,9.6,0.01,0.01,0.01,7.87,7.25,51.0,0.01,0.02,0.01,0.06363265348725575,-0.083620654156478,0.9936233328356326,0.040879628829322424
1.66,174.69,6.87,9.94,1.25,1.72,9.6,0.01,0.01,0.01,7.87,7.25,51.0,0.07,0.04,0.02,0.06363265348725575,-0.083620654156478,0.9936233328356326,0.040879628829322424
1.67,174.69,6.87,9.94,1.25,1.65,9.6,0.01,0.01,0.01,8.25,6.19,49.69,0.02,0.08,0.06,0.06363265348725575,-0.083620654156478,0.9936233328356326,0.040879628829322424
1.68,174.69,6.87,9.94,1.15,1.61,9.62,0.01,0.01,0.02,8.25,6.19,49.69,0.08,0.08,0.06,0.06363265348725575,-0.083620654156478,0.9936233328356326,0.040879628829322424
1.69,174.69,6.87,9.94,1.15,1.61,9.6,0.01,0.01,0.02,8.25,6.19,49.69,0.02,0.07,0.01,0.06363265348725575,-0.083620654156478,0.9936233328356326,0.040879628829322424
1.7,174.69,6.87,9.94,1.23,1.7,9.58,0.01,0.01,0.02,7.87,7.0,51.0,0.05,0.02,0.02,0.06363265348725575,-0.083620654156478,0.9936233328356326,0.040879628829322424
1.71,174.69,6.87,9.94,1.21,1.65,9.58,0.01,0.01,0.01,7.87,7.0,51.0,0.03,0.02,0.02,0.06363265348725575,-0.083620654156478,0.9936233328356326,0.040879628829322424
1.72,174.69,6.87,9.94,1.21,1.65,9.61,0.01,0.01,0.01,7.87,7.0,51.0,0.07,0.04,0.03,0.06363265348725575,-0.083620654156478,0.9936233328356326,0.040879628829322424
1.73,174.69,6.87,9.94,1.18,1.57,9.59,0.01,0.01,0.01,7.87,7.0,51.0,0.05,0.11,0.04,0.06363265348725575,-0.083620654156478,0.9936233328356326,0.040879628829322424
1.74,174.75,6.87,9.94,1.18,1.6,9.63,0.01,0.01,0.02,7.87,7.0,51.0,0.04,0.07,0.04,0.06358886109449885,-0.08365396067187132,0.9936446011545206,0.0403593632889248
1.75,174.75,6.87,9.94,1.16,1.58,9.62,0.01,0.01,0.02,7.56,7.0,50.5,0.02,0.1,0.03,0.06358886109449885,-0.08365396067187132,0.9936446011545206,0.0403593632889248
1.76,174.75,6.87,9.94,1.21,1.64,9.58,0.01,0.01,0.02,7.56,7.0,50.5,0.03,0.03,0.07,0.06358886109449885,-0.08365396067187132,0.9936446011545206,0.0403593632889248
1.77,174.81,6.87,9.94,1.17,1.63,9.5,0.02,0.01,0.03,7.56,7.0,50.19,0.03,0.01,0.11,0.06354505126849502,-0.08368724425305687,0.9936655970601055,0.03983908668377862
1.78,174.81,6.87,9.88,1.18,1.74,9.42,0.03,0.01,0.04,7.56,7.0,50.19,0.05,0.09,0.19,0.06352418286182147,-0.08316695071518877,0.9937092793871979,0.03987235333224207
1.79,174.87,6.87,9.81,1.16,1.85,9.48,0.04,0.02,0.04,7.56,7.0,50.19,0.03,0.21,0.24,0.06345657740480797,-0.08259314988655664,0.9937806589849232,0.03939081369273899
1.8,174.87,6.87,9.81,1.13,1.89,9.71,0.05,0.02,0.04,7.56,7.25,50.19,0.12,0.22,0.29,0.06345657740480797,-0.08259314988655664,0.9937806589849232,0.03939081369273899
1.81,174.94,6.87,9.69,0.91,1.84,10.05,0.09,0.04,0.03,7.56,7.25,50.19,0.64,0.17,0.7,0.0633654632873985,-0.08159114309703254,0.9938905230354899,0.03885011776987688
1.82,175.0,6.81,9.56,0.45,1.99,10.28,0.14,0.05,0.07,7.56,7.25,50.19,0.71,0.37,0.68,0.06275896998301425,-0.08052202119298027,0.9940318860455978,0.03844639533558862
1.83,175.12,6.75,9.31,0.46,2.43,9.94,0.2,0.08,0.1,6.75,6.19,51.37,0.63,1.15,0.34,0.062072478897461016,-0.07844346947415273,0.9942740767149568,0.03758576636177921
1.84,175.12,6.69,9.0,0.44,2.75,9.02,0.33,0.01,0.04,6.75,6.19,51.37,0.71,1.31,0.79,0.06145006015829088,-0.07577800538156107,0.9945114677571718,0.03779582657397638
1.85,175.06,6.75,8.63,0.37,2.9,8.61,0.35,0.05,0.09,6.37,7.0,49.69,0.77,1.43,1.0,0.06188632329217646,-0.07250958815438738,0.9947020521493466,0.038474277965102506
1.86,174.87,6.75,8.25,0.42,2.91,8.12,0.35,0.04,0.15,6.37,7.0,49.69,0.64,1.54,1.59,0.061873068356413284,-0.0691081442089586,0.9948715331126556,0.04032890301298119
1.87,174.56,6.81,7.94,0.65,2.83,7.9,0.28,0.07,0.24,6.37,7.0,49.69,0.51,1.47,1.73,0.06246392878745931,-0.06622229265059323,0.9949125192308773,0.04315025647900043
1.89,174.0,7.0,7.69,0.74,2.15,7.55,0.1,0.15,0.24,7.19,8.06,49.69,0.49,0.72,2.02,0.06433062446207681,-0.06365290481587334,0.994737527036106,0.04803260112582539
1.9,173.81,7.12,7.62,0.74,1.88,7.7,0.02,0.13,0.13,7.19,9.19,49.75,0.46,0.58,1.94,0.06544686365672239,-0.06287795416176256,0.9946346602285789,0.049648399671180114
1.92,173.87,7.31,7.81,0.95,1.69,7.56,0.1,0.09,0.12,7.87,8.75,51.0,0.27,0.49,2.14,0.06714349235861215,-0.0644659674520417,0.9944569296373542,0.04890097719481498
1.93,174.06,7.44,7.81,0.95,1.95,7.43,0.01,0.07,0.15,7.87,8.75,51.0,0.33,0.68,2.29,0.06816422376514737,-0.06451372248423208,0.9944679428772877,0.047171270908658705
1.94,174.19,7.56,7.75,0.85,1.85,6.77,0.08,0.12,0.01,7.87,8.75,51.0,0.44,0.54,2.85,0.06910786612403139,-0.06401281212934981,0.9944898338025181,0.046004708308122796
1.95,174.12,7.69,7.69,0.83,1.7,6.57,0.1,0.15,0.06,8.25,8.5,49.75,0.43,0.19,3.22,0.07025020035386731,-0.06338689796166377,0.9944236339532377,0.0465687314866543
1.96,173.94,7.87,7.56,0.98,1.17,6.21,0.12,0.22,0.25,8.25,8.5,49.75,0.26,0.67,3.12,0.07185624416056444,-0.062058702664252986,0.9943196792325617,0.04810169528845089
1.97,173.62,8.06,7.5,1.16,0.47,6.98,0.1,0.23,0.27,8.25,8.5,49.75,0.33,0.83,2.24,0.07365015555763925,-0.061237873206145155,0.9941050187287785,0.05080146857895327
1.98,173.31,8.25,7.5,1.06,0.36,7.71,0.04,0.18,0.25,8.69,8.75,51.0,0.24,1.05,1.46,0.07546261329665747,-0.06093441546060447,0.99385281653681,0.05337574419868322
2.0,172.75,8.44,7.5,1.87,0.01,8.23,0.01,0.08,0.23,10.19,10.0,50.5,0.76,1.94,0.65,0.0774058196591345,-0.06045270405472677,0.9934668044441631,0.05811641870308512
2.01,172.56,8.5,7.62,2.24,0.88,9.57,0.07,0.06,0.15,10.19,10.0,50.5,0.76,2.22,0.46,0.07808823994182167,-0.06132813002047476,0.993269113617548,0.05964524444070088
2.03,172.81,8.44,7.75,2.39,0.28,10.64,0.02,0.09,0.31,9.25,8.75,50.56,0.95,1.59,1.03,0.07749962733898204,-0.06266055410951828,0.9933627579592594,0.05742729160060345
2.04,173.19,8.44,7.69,2.01,0.29,10.24,0.11,0.03,0.29,9.25,8.75,50.56,0.57,1.58,0.63,0.07726305683817544,-0.062396978629376335,0.9935805390532386,0.05417332849864338
2.05,173.5,8.44,7.5,1.64,0.1,10.19,0.17,0.02,0.24,9.69,9.56,50.56,0.28,1.1,0.47,0.07700850255729381,-0.06095802554638809,0.9938258943937652,0.05161299533839936
2.06,173.69,8.5,7.25,1.84,0.38,10.09,0.19,0.09,0.19,9.69,9.56,50.56,0.56,0.6,0.35,0.0773183345920696,-0.05888598519613712,0.9940042950487235,0.050097677671522914
2.07,173.81,8.63,7.0,2.25,0.49,10.27,0.2,0.16,0.14,9.69,9.56,50.56,0.77,0.68,0.64,0.07827667813338161,-0.056731956765533685,0.9941017873612364,0.04915163381975921
2.08,173.87,8.88,6.69,2.37,0.1,10.35,0.31,0.17,0.01,9.69,9.56,51.0,1.11,1.19,0.6,0.08028308143612968,-0.0539575420148377,0.994118121786363,0.04870698544141658
2.09,173.69,9.06,6.25,2.66,0.3,10.3,0.48,0.23,0.21,9.69,9.56,51.0,0.79,0.58,0.77,0.08173504847890233,-0.04992139304282077,0.9941219896825064,0.05048471052219975
2.11,173.13,9.44,5.12,1.86,0.16,10.25,0.58,0.15,0.12,10.75,10.69,51.37,0.38,0.77,0.53,0.0847236994954256,-0.03950875365663499,0.994045611399572,0.05598460132535698
2.12,173.13,9.63,4.5,2.3,0.09,10.18,0.58,0.13,0.09,10.75,10.69,51.37,0.65,0.66,0.54,0.08606731671602469,-0.03402557207358294,0.9941112581292147,0.05636917507928223
2.14,173.62,9.94,3.37,2.0,1.03,10.96,0.28,0.08,0.41,11.19,12.19,49.75,0.29,0.49,1.32,0.08809261154471479,-0.02442974664238193,0.9944081573376792,0.052870557879620445
2.15,174.06,10.0,3.0,1.86,0.71,11.07,0.24,0.04,0.43,12.0,14.06,51.0,0.15,0.37,1.23,0.08835999609123239,-0.02152805109892855,0.9946339077936551,0.04931980914158283
2.16,174.56,10.0,2.62,1.49,0.21,10.72,0.17,0.08,0.56,12.0,14.06,51.0,0.07,0.07,0.84,0.08811557889801827,-0.018614260550229175,0.9949068346247143,0.04527189499752081
2.17,175.19,9.94,2.37,1.77,0.79,10.21,0.11,0.09,0.59,12.0,14.06,51.0,0.33,0.66,0.47,0.08740385996782925,-0.01695013756929279,0.9952249863965705,0.04000605642964408
2.18,175.87,9.88,2.19,1.45,1.03,10.0,0.03,0.12,0.63,12.0,15.56,50.19,0.1,0.71,0.29,0.08672688939921565,-0.01592449570965179,0.9955159024543677,0.03424828538766621
2.19,176.5,9.75,2.06,1.66,1.14,10.19,0.05,0.14,0.49,12.0,15.56,50.19,0.11,0.78,1.38,0.08547578798638701,-0.015307730821577664,0.9958034808875625,0.0288962021278609
2.2,177.06,9.56,2.06,1.45,0.97,11.3,0.11,0.2,0.48,11.19,15.56,49.75,0.28,0.44,1.66,0.08374865413639791,-0.015770144747796335,0.9960715086912398,0.02406273131905339
2.21,177.56,9.31,2.19,1.25,0.8,11.32,0.19,0.29,0.44,11.19,15.56,49.75,0.25,0.53,1.48,0.08152805301413997,-0.01731523383185376,0.996326541920022,0.01966675150507204
2.22,178.0,9.0,2.37,1.68,1.18,10.84,0.27,0.3,0.33,11.19,15.56,49.75,0.14,0.77,1.16,0.07879018365203956,-0.01924477833641183,0.9965806401285492,0.015772545382131034
2.23,178.31,8.69,2.69,1.69,1.06,11.01,0.36,0.24,0.19,10.06,16.25,50.56,0.19,0.52,1.37,0.07607794648287687,-0.022285525241328857,0.996769030048919,0.01292293151742061
2.24,178.44,8.5,3.12,2.06,0.86,10.86,0.42,0.14,0.05,10.06,16.25,50.56,0.69,0.21,1.07,0.07444374051840949,-0.026137920521202476,0.996815659266146,0.011553356666074852
2.25,178.56,8.38,3.62,2.32,0.57,10.69,0.46,0.09,0.06,9.38,16.0,51.06,1.21,0.46,0.88,0.07341775156939725,-0.03058062999508363,0.9967799347241544,0.010218637624876334
2.26,178.81,8.31,4.12,2.35,0.18,10.52,0.53,0.04,0.36,9.38,16.0,51.06,0.44,0.28,1.08,0.07277645745269702,-0.035097703438174505,0.9967004237440346,0.007746209554583407
2.27,179.25,8.38,4.69,1.29,1.32,11.05,0.59,0.03,0.4,9.38,16.0,51.06,0.76,0.94,1.94,0.07326846241852092,-0.040328511823532,0.9964902733676331,0.0035325108103078655
2.28,179.81,8.19,5.37,0.83,1.45,11.96,0.73,0.29,0.56,9.06,14.5,52.25,0.04,0.07,1.88,0.07140938014790432,-0.04660700895628223,0.996356171368301,-0.0016931979630101963
2.29,180.25,7.94,6.0,1.45,0.71,11.18,0.52,0.17,0.2,9.06,14.5,52.25,0.06,0.37,1.52,0.06902518809414952,-0.052361086957366174,0.9962229852284773,-0.0057968684366045894
2.3,179.69,7.87,6.37,1.25,0.53,11.48,0.22,0.02,0.36,9.38,14.5,52.69,0.09,0.54,1.83,0.06866842630647395,-0.05524356781614252,0.9961081996230978,-0.0011180729700336531
2.31,179.06,7.75,6.44,0.85,0.79,11.55,0.1,0.1,0.63,9.38,14.5,52.69,0.23,1.41,1.29,0.06793070499848713,-0.05548624496103697,0.996136311683649,0.004375440986716534
2.33,177.38,7.31,6.19,2.25,0.45,10.55,0.22,0.06,0.75,7.87,13.0,51.37,1.0,0.6,0.88,0.0648707427879658,-0.05241249012617608,0.996328581013417,0.01934105128222921
2.34,176.63,7.25,6.0,2.37,0.19,10.54,0.23,0.01,0.61,7.87,13.0,51.37,1.13,1.21,0.86,0.06464787061124498,-0.0503520748365183,0.9962978611137092,0.02599794848324529
2.35,176.37,7.19,5.87,1.92,0.84,11.33,0.25,0.02,0.2,8.69,13.25,52.19,0.69,1.82,1.65,0.06420829045513296,-0.04909325393760124,0.9963246852059392,0.02835964569477993
2.36,176.06,7.19,5.62,2.13,0.42,11.0,0.22,0.01,0.07,8.69,13.25,52.19,0.89,1.36,1.31,0.06427296112161995,-0.04674579172895912,0.9963486738583672,0.031195152267052172
2.37,176.19,7.19,5.44,2.1,0.25,11.39,0.1,0.06,0.38,8.69,13.25,52.19,0.87,0.65,1.7,0.06417258345164131,-0.04525350445696746,0.9964557358109214,0.030165649951894292
2.38,176.69,7.19,5.25,2.11,0.36,11.42,0.1,0.01,0.52,7.87,14.06,51.37,0.61,0.49,1.77,0.06393162255358875,-0.043880627986569366,0.9966519991177925,0.025923556462749655
2.39,177.25,7.25,5.06,1.13,0.16,11.33,0.09,0.01,0.6,7.87,14.06,51.37,0.11,0.68,1.64,0.06420328973341448,-0.042525787718600376,0.9968063147197888,0.021134471866437375
2.4,177.87,7.31,4.87,1.04,0.09,11.52,0.13,0.04,0.53,7.87,14.06,51.37,0.22,0.99,2.14,0.0644680312942242,-0.04120843013776906,0.9969429941057775,0.015824181812510968
2.41,178.31,7.44,4.56,1.31,0.2,12.02,0.25,0.07,0.41,7.87,14.06,51.37,0.08,0.61,2.5,0.06540769277260805,-0.03873879697678195,0.997032672573705,0.012123908424705213
2.43,179.0,7.75,3.94,0.87,0.88,12.0,0.21,0.15,0.24,7.19,14.5,51.0,0.14,0.43,2.44,0.06783674779197028,-0.03370692700317928,0.9971064812384252,0.006378384853304279
2.44,179.25,7.87,3.81,1.11,1.34,11.99,0.09,0.1,0.25,7.19,14.5,51.0,0.39,0.97,2.06,0.06880238848376304,-0.032714422600384874,0.997084740846899,0.004244698237232714
2.46,179.81,7.87,3.81,1.41,1.45,10.96,0.18,0.05,0.18,7.56,15.19,51.0,0.06,0.78,1.27,0.06864169472379292,-0.03305026251927269,0.9970935781050887,-0.0006280083155354567
2.47,180.0,7.87,4.0,1.65,0.95,10.9,0.22,0.04,0.12,7.56,15.19,51.0,0.3,0.25,1.21,0.06858292425134012,-0.03481722269258831,0.9970348076326359,-0.002394968488850982
2.48,180.19,7.81,4.25,1.74,1.71,10.15,0.24,0.06,0.11,7.19,13.69,51.0,0.3,1.32,0.25,0.0679940901354121,-0.0371064473240701,0.9969866885626351,-0.004178289429284438
2.49,180.31,7.75,4.62,1.39,1.9,9.8,0.42,0.03,0.09,7.19,13.69,51.0,0.05,0.15,0.11,0.06741600878757892,-0.04039656415874518,0.9968920777742754,-0.005420759560209954
2.5,180.44,7.75,5.06,1.66,0.62,10.32,0.36,0.06,0.06,7.19,13.69,51.0,0.33,0.23,0.64,0.06734448369471069,-0.0443004761344201,0.9967225329874254,-0.006810327839900236
2.51,180.5,7.69,5.5,1.66,1.08,10.45,0.43,0.08,0.17,7.56,13.0,51.37,0.23,0.22,0.75,0.06677081712823732,-0.048161935184125766,0.9965765628207248,-0.007565739605439478
2.52,180.81,7.62,5.94,1.59,1.02,10.24,0.48,0.07,0.23,7.56,13.0,51.37,0.01,0.26,0.7,0.06599170533362853,-0.05216632233981156,0.9964004259471197,-0.010486220152986721
2.53,181.12,7.56,6.44,1.09,1.05,10.41,0.51,0.08,0.24,6.37,11.5,50.56,0.2,0.04,0.75,0.06527057793635661,-0.056688469527435205,0.996165417144538,-0.013439894483952757
2.54,181.44,7.44,7.06,1.55,1.37,10.04,0.61,0.09,0.19,6.37,11.5,50.56,0.11,0.25,0.47,0.06398035594022854,-0.06225031954542378,0.995870887204403,-0.01651023285630891
2.55,181.69,7.31,7.81,1.12,1.82,9.73,0.71,0.17,0.2,6.37,11.5,50.56,0.12,0.49,0.09,0.06259131185170866,-0.06889439168989636,0.9954767536539677,-0.019024284715047093
2.56,181.94,7.19,8.69,1.02,1.94,9.0,0.82,0.17,0.2,7.19,10.69,51.37,0.2,0.46,0.61,0.061234211151073394,-0.07666041971085798,0.9949407655490683,-0.02159686280677761
2.57,182.06,7.06,9.56,1.24,2.0,9.06,0.84,0.14,0.07,7.19,10.69,51.37,0.16,0.21,0.16,0.05985200366320474,-0.08426140429972878,0.9943783610991086,-0.023009310741268524
2.58,182.25,6.87,10.56,0.85,2.32,9.52,0.95,0.17,0.11,6.06,7.69,51.0,0.32,0.52,0.04,0.05784691525148506,-0.09301135840916144,0.993668067171639,-0.025027862196946256
2.59,182.44,6.69,11.63,0.58,2.37,9.38,0.99,0.19,0.08,6.06,7.69,51.0,0.48,0.78,0.17,0.05588119847770756,-0.10235713182039648,0.9928082789986789,-0.027056059836533513
2.6,182.62,6.44,12.81,0.74,3.16,9.28,1.08,0.27,0.13,6.06,7.69,51.0,0.35,0.99,0.21,0.05325849219572394,-0.11262655516415015,0.9917866820933177,-0.02894769944612756
2.61,182.75,6.19,14.0,0.91,3.7,9.25,1.13,0.25,0.02,5.69,6.19,52.25,0.15,1.33,0.19,0.050653689487967314,-0.12294246830260273,0.9906551362288712,-0.03036040665532642
2.62,182.75,5.87,15.38,0.74,3.42,9.25,1.22,0.28,0.13,5.69,6.19,52.25,0.48,0.32,0.25,0.04752114508580555,-0.1348168327047812,0.9892572393001456,-0.030598641823438646
2.63,182.75,5.44,16.75,0.11,2.68,8.98,1.27,0.4,0.09,4.56,4.0,51.06,0.81,0.13,0.35,0.043444436328609254,-0.146571964308744,0.9877709536839544,-0.03062324752629883
2.64,182.81,4.87,18.19,0.52,3.14,8.63,1.26,0.48,0.15,4.56,4.0,51.06,0.31,0.09,0.64,0.038066880762707825,-0.15891032317850512,0.9860747535648232,-0.03090310920238016
2.65,182.75,4.31,19.56,0.52,3.4,8.87,1.26,0.52,0.21,4.56,4.0,51.06,0.21,0.12,0.34,0.03297262756532919,-0.17058571009725587,0.9843334562821991,-0.03001613208914581
2.66,183.0,3.69,20.94,0.48,2.84,8.28,1.27,0.5,0.14,2.19,0.19,52.69,0.15,0.66,0.84,0.0268944311715252,-0.18239297788215186,0.9823504581453203,-0.03157639265210922
2.67,182.94,3.12,22.37,0.54,3.58,8.0,1.25,0.52,0.22,2.19,0.19,52.69,0.31,0.14,1.04,0.02172353088858587,-0.19452694123615016,0.9801841701773453,-0.030435996333107465
2.68,182.81,2.44,23.81,0.88,4.59,7.88,1.32,0.54,0.3,3.06,2.0,50.69,0.46,0.63,1.07,0.01577023340007419,-0.20669163030776938,0.9778673678505183,-0.028377466277358022
2.69,182.69,2.12,24.56,0.72,4.69,7.45,1.39,0.48,0.36,3.06,2.0,50.69,0.41,0.49,1.4,0.013079684568142723,-0.21301862628240859,0.976591139406438,-0.026865091497866252
2.7,182.44,1.5,26.12,0.27,3.94,7.45,1.44,0.34,0.33,3.06,2.0,50.69,0.06,0.49,1.28,0.007937294409954039,-0.22617219588344684,0.9737667233941207,-0.023696108899712038
2.71,182.25,0.94,27.75,0.36,4.55,7.78,1.54,0.44,0.24,0.69,5.87,52.0,0.23,0.14,0.81,0.0032539793970974866,-0.23990652837799623,0.970562795062858,-0.021026889914429667
2.72,182.19,0.37,29.5,0.04,6.21,8.1,1.77,0.62,0.19,0.69,5.87,52.0,0.03,1.23,0.34,-0.0017435872778473714,-0.25461379739200624,0.9668485904531318,-0.01930225944854887
2.74,182.44,1.0,33.25,1.05,4.39,7.88,1.59,0.7,0.13,1.19,10.0,50.69,0.57,0.17,0.05,0.0022684738839506566,-0.2862087722597743,0.9578909808809407,-0.022896756423990645
2.75,182.69,1.69,35.13,0.6,6.14,8.19,1.73,0.77,0.05,1.19,10.0,50.69,0.15,0.95,0.18,0.006973079627139963,-0.302001626387303,0.9529044072294622,-0.026825072275850934
2.77,182.81,3.31,38.75,0.77,5.68,7.37,1.54,0.62,0.49,3.75,14.06,50.75,0.12,0.55,0.15,0.01910646508551927,-0.33217950087256054,0.9424555467317007,-0.0326996120258832
2.78,182.44,4.25,40.5,0.76,6.07,7.61,1.61,0.76,0.51,5.56,18.19,48.69,0.14,0.44,0.04,0.027415757382201537,-0.34654131250756853,0.9370603682700259,-0.032792700259897514
2.79,182.56,5.31,42.31,0.28,6.89,6.19,1.6,0.84,0.53,5.56,18.19,48.69,0.66,0.24,1.34,0.03513629731431976,-0.3613798816447228,0.9310005376353013,-0.03752360158974461
2.8,182.12,6.31,44.0,0.01,6.66,6.22,1.51,0.69,0.52,5.56,18.19,48.69,1.15,0.2,0.67,0.04410147016061268,-0.37491881340074934,0.9252386835849689,-0.03774019191525896
2.81,181.75,7.25,45.75,0.23,6.99,6.22,1.54,0.69,0.47,5.56,21.19,46.69,0.35,0.14,0.32,0.05232248021378914,-0.3887885840185667,0.919029146261106,-0.038616360829297564
2.82,181.69,8.0,47.56,1.21,6.93,6.1,1.62,0.77,0.18,5.56,21.19,46.69,1.08,0.25,1.14,0.05789515305835984,-0.40314130294353284,0.9123572502767079,-0.04158712518153147
2.83,181.75,8.69,49.44,0.39,7.35,5.28,1.66,0.69,0.15,5.56,21.19,46.69,0.56,0.43,0.88,0.06244346537702423,-0.41798460748377714,0.905162127092926,-0.0455104956570557
2.84,181.94,9.25,51.5,1.29,8.44,5.08,1.81,0.7,0.07,8.88,25.0,45.88,0.8,2.09,1.58,0.065285627731544,-0.434198047630055,0.8970436880330303,-0.05022413768345063
2.85,181.94,9.81,53.75,0.5,9.47,4.16,1.97,0.68,0.18,8.88,25.0,45.88,1.05,0.51,0.8,0.06863348099387666,-0.4516166890363994,0.8879465398426204,-0.05369128283046545
2.87,181.37,10.88,58.06,2.46,7.32,5.01,1.85,0.4,0.33,10.38,28.69,42.19,0.87,0.1,0.17,0.07711150408924858,-0.4840383468386013,0.8698154117247572,-0.05640783857708836
2.88,181.37,11.31,60.31,1.76,9.18,4.34,1.97,0.68,0.13,10.38,28.69,42.19,0.16,0.83,0.41,0.07922053151858462,-0.5008791278945656,0.8598082168739873,-0.059783248669394363
2.89,181.44,11.88,62.62,1.37,10.42,4.18,2.0,0.38,0.27,13.38,32.5,39.75,0.64,1.9,0.22,0.08191385833355289,-0.5179482665370123,0.8490379980811624,-0.06445301248620243
2.9,180.69,12.37,64.75,1.46,9.86,3.71,1.97,0.14,0.54,13.38,32.5,39.75,0.84,0.42,0.18,0.08778523372802567,-0.5328797886024954,0.8392830307850753,-0.06274454457954162
2.91,180.0,12.94,66.94,3.16,7.12,5.11,2.0,0.08,0.48,13.38,35.06,36.19,0.95,1.67,1.37,0.0939972788904778,-0.5479877786300245,0.8288618363821465,-0.0621446878062213
2.92,179.38,13.56,69.12,4.62,6.52,5.84,1.91,0.53,0.43,13.38,35.06,36.19,2.31,2.38,2.45,0.10027039545314954,-0.5627676363881109,0.8181238243194815,-0.0625447304788676
2.93,179.38,14.31,71.44,3.71,9.41,2.98,1.87,1.09,0.35,13.38,35.06,36.19,1.29,0.4,0.02,0.10425556816863327,-0.578722702217435,0.8059391865162666,-0.0683581603137758
2.94,179.56,14.75,72.62,2.7,10.43,2.07,1.86,0.82,0.56,14.87,38.5,32.5,0.14,1.34,0.56,0.1056921452234817,-0.5868535978935191,0.7994445362506382,-0.07294147336387168
2.95,179.0,15.69,74.81,2.18,9.22,2.09,1.74,0.58,0.96,14.87,38.5,32.5,0.57,0.1,0.2,0.11367247760045182,-0.6007909593239474,0.7876207136158292,-0.07604211013693479
2.96,177.94,16.94,76.81,2.18,9.8,2.34,1.76,0.57,1.25,18.69,40.69,28.87,0.79,0.67,0.38,0.12644992196561441,-0.612266514181617,0.7766117457855793,-0.07755210606203054
2.98,175.62,19.81,80.94,3.39,7.92,1.75,1.6,0.56,1.15,18.69,40.69,28.87,0.04,1.17,0.46,0.15519688494986905,-0.6339076862489395,0.7531254968181228,-0.08292742766316248
2.99,174.75,21.19,82.88,3.52,7.67,1.44,1.58,0.6,1.11,20.88,41.75,24.0,0.07,1.1,0.57,0.16748459273578137,-0.6435567040452215,0.741668729683943,-0.08781329787444875
3.0,173.69,22.31,84.94,3.28,8.63,1.44,1.73,0.77,0.78,20.88,41.75,24.0,0.41,0.47,0.68,0.17894797411508745,-0.6535895505863576,0.7297876952163439,-0.09059934787428572
3.01,173.0,23.19,87.19,3.12,8.5,0.76,1.69,0.82,0.68,20.88,41.75,24.0,0.89,0.47,0.08,0.18653099137561646,-0.6653379711083218,0.7165902740273895,-0.0950260628840457
3.02,172.37,24.12,89.25,3.23,8.28,0.09,1.48,0.69,0.89,23.87,43.06,21.87,0.08,1.44,0.11,0.19408121051904215,-0.6755435602855104,0.7042345326515635,-0.10013543279615815
3.03,171.37,25.06,91.06,4.49,7.37,0.04,1.34,0.55,0.84,23.87,43.06,21.87,0.14,1.38,0.2,0.2039645664977502,-0.6832111301025614,0.6935609497910956,-0.10292820916657858
3.04,171.06,25.94,92.69,4.21,7.51,0.51,1.13,0.62,0.81,27.56,42.56,15.75,0.08,1.28,0.09,0.2094131172059876,-0.6908314251857153,0.6833125321468214,-0.10946264992701416
3.06,169.13,27.75,95.5,3.43,8.37,1.81,0.86,0.3,1.12,27.56,42.56,15.75,1.13,0.25,0.98,0.2285767735143988,-0.7001169985449699,0.6666262826939471,-0.11488362015439543
3.07,167.87,29.06,96.44,3.87,6.48,1.11,0.74,0.03,1.09,29.06,43.0,13.75,0.89,2.02,0.15,0.24249243268866721,-0.7001562460739897,0.6611195100664079,-0.11789675390723714
3.08,166.44,30.12,97.37,3.16,6.45,1.38,0.72,0.16,0.98,29.06,43.0,13.75,1.75,1.95,0.28,0.25596634379209826,-0.6999708771092301,0.6561046294472509,-0.11852728488633271
3.09,165.25,31.19,98.44,3.06,7.63,1.92,0.86,0.01,0.93,31.37,41.75,12.19,2.01,0.65,0.69,0.26776020597154215,-0.7007735491761127,0.6500372375229244,-0.12113007350264772
3.1,163.69,32.13,99.37,3.41,6.9,1.49,0.75,0.09,0.83,31.37,41.75,12.19,1.8,1.28,0.14,0.2811671827727295,-0.6999157448155917,0.6453678565666245,-0.12067847861770094
3.11,162.69,32.69,100.0,4.52,4.0,1.13,0.53,0.03,0.43,31.37,41.75,12.19,0.77,4.12,0.3,0.28945237947860925,-0.6994918958834139,0.6422265959395494,-0.12030547400470694
3.12,162.25,32.94,100.75,3.91,6.35,1.45,0.62,0.11,0.18,32.0,40.69,8.88,1.43,1.72,0.08,0.29260409746355365,-0.7018918010297591,0.6379595917028187,-0.1214014050541146
3.13,162.06,32.75,101.5,4.82,7.18,1.74,0.63,0.09,0.21,32.0,40.69,8.88,0.48,0.89,0.09,0.2920361822358795,-0.7060828376717471,0.6336566142519102,-0.12100078439956999
3.14,161.94,32.75,101.81,5.19,6.66,1.51,0.35,0.05,0.07,34.38,40.25,8.06,0.11,1.4,0.2,0.29244881592989785,-0.707488594276455,0.6318713521646013,-0.12112874697446953
3.15,161.75,32.88,102.12,3.93,7.38,0.9,0.29,0.21,0.25,34.38,40.25,8.06,1.41,0.64,0.83,0.2939313475243602,-0.7083554878153117,0.6300917692259919,-0.12174246661746645
3.16,161.06,33.19,102.31,4.46,7.04,0.65,0.23,0.2,0.21,34.38,40.25,8.06,0.93,0.94,1.1,0.29950133394862744,-0.706759218951706,0.6294975154569963,-0.1205123870116098
3.17,160.44,33.5,102.44,4.3,6.94,1.01,0.11,0.2,0.28,33.19,40.69,8.5,0.78,1.67,0.4,0.3046846135195077,-0.7049708700785056,0.6292040979995585,-0.11952222256043006
3.18,159.87,33.81,102.44,4.49,6.03,1.0,0.12,0.19,0.14,33.19,40.69,8.5,0.89,1.95,1.16,0.3096776692028491,-0.7025620421339924,0.6296606568597977,-0.1184642365969286
3.19,159.56,33.94,102.44,4.77,6.07,0.13,0.13,0.16,0.09,34.0,39.19,7.25,0.53,1.86,2.08,0.3122003780166118,-0.7013475536122655,0.6299252171808211,-0.11762973165008166
3.2,159.94,33.63,102.38,3.97,6.6,0.19,0.02,0.13,0.29,34.0,39.19,7.25,0.42,1.21,1.15,0.308444691853149,-0.7029350041301892,0.630033201136519,-0.11748369036499356
3.21,160.19,33.38,102.25,6.48,7.29,0.05,0.19,0.08,0.65,34.0,39.19,7.25,0.59,0.25,1.71,0.30583764217261156,-0.7035991435093987,0.6306822321605747,-0.116839650462046
3.22,160.94,32.63,102.44,6.0,7.92,0.4,0.2,0.05,0.65,34.0,40.25,7.69,0.94,0.18,2.12,0.29738883295510543,-0.708709263287908,0.6290716770867634,-0.11644692890221783
3.24,160.88,32.5,101.87,5.91,10.17,1.6,0.32,0.39,0.38,34.0,40.25,7.69,0.63,2.08,0.1,0.2976980567730149,-0.7057727849309465,0.6327064880818316,-0.11376793477751915
3.25,159.75,33.63,101.06,4.13,8.7,1.54,0.43,0.64,0.95,33.19,40.25,7.69,1.29,0.68,0.03,0.31093048678423396,-0.6951164804323574,0.6382764667201147,-0.11286479987461831
3.27,158.0,35.38,99.87,5.69,6.72,0.54,0.39,0.26,0.51,33.19,40.0,8.5,0.72,0.28,0.16,0.3311161813740332,-0.6784108364870146,0.6463274103558713,-0.1112730425212722
3.28,157.75,35.75,99.44,4.68,8.05,1.75,0.29,0.13,0.26,33.19,40.0,8.5,0.68,0.21,0.42,0.33481065441367003,-0.6741341476572268,0.6489340853431762,-0.11103841467424529
3.29,157.69,35.94,99.13,5.29,8.43,0.53,0.15,0.08,0.07,33.19,40.0,8.5,0.47,0.77,0.4,0.33639057046523074,-0.6716216129872954,0.6507206210718609,-0.11103362725891576
3.3,157.88,35.75,98.94,4.96,8.68,1.23,0.05,0.17,0.25,34.69,39.19,10.06,1.03,1.51,0.59,0.33453018518898703,-0.6716761748679259,0.6517446337220932,-0.11031592689484142
3.31,157.94,35.5,98.75,4.25,9.41,2.06,0.02,0.23,0.2,34.69,39.19,10.06,1.23,1.26,0.65,0.33313096425008765,-0.6715256997009631,0.6529247478870578,-0.1084724338049105
3.32,157.94,35.44,98.69,5.54,8.63,1.11,0.08,0.14,0.02,35.06,38.75,10.5,0.14,0.74,0.09,0.3328919527601616,-0.6713646664339391,0.6533058742321388,-0.10790675208416219
3.33,157.69,35.56,98.81,5.27,8.13,1.17,0.16,0.02,0.1,35.06,38.75,10.5,0.62,0.07,0.02,0.3348339809641965,-0.6709574366774516,0.6527797848020819,-0.10761447817389312
3.34,157.37,35.63,99.0,5.01,7.72,0.97,0.21,0.09,0.06,35.06,38.75,10.5,0.7,0.14,0.27,0.3368730090618054,-0.6708883795486819,0.6519337954708397,-0.10680676137386567
3.35,157.06,35.81,99.06,6.04,7.07,0.05,0.11,0.13,0.16,34.38,39.19,11.69,0.3,0.77,1.19,0.339509789921643,-0.6697638683178859,0.651789201927872,-0.10639689607056792
3.36,156.81,35.94,99.13,5.91,7.23,0.42,0.07,0.01,0.14,34.38,39.19,11.69,0.15,0.59,0.83,0.3415382844105599,-0.6690185402598878,0.6515541020537324,-0.10603322671396272
3.37,156.69,36.06,99.19,5.82,7.06,0.74,0.06,0.05,0.07,35.88,38.75,10.06,0.04,0.75,0.52,0.342765949486248,-0.668629884146432,0.6512623630375005,-0.10631517478671959
3.38,157.0,36.06,99.31,5.35,8.44,1.36,0.07,0.05,0.11,35.88,38.75,10.06,0.43,0.63,0.07,0.3408425150314449,-0.6702360369072781,0.6502708571962293,-0.10843360668697695
3.39,156.75,36.31,99.44,5.76,9.99,1.53,0.12,0.06,0.42,35.88,38.75,10.06,0.07,2.23,0.22,0.34339140614081043,-0.6694519416954882,0.6496356945063948,-0.10904083809276163
3.4,156.31,36.81,99.62,5.42,9.95,1.57,0.15,0.08,0.52,35.06,38.5,9.69,0.59,1.91,0.14,0.348193717090978,-0.6675767184300105,0.6487845659106758,-0.1103677825485426
3.41,155.44,37.44,99.81,5.03,8.4,1.21,0.16,0.31,0.78,35.06,38.5,9.69,0.99,0.78,0.1,0.35607180688903806,-0.6639679954807179,0.6482469881323303,-0.11015993688022757
3.42,154.12,38.38,99.87,5.29,7.95,1.1,0.17,0.28,0.83,35.88,39.19,9.69,0.57,0.45,0.29,0.36805272285686796,-0.6570566970093996,0.6487854121491424,-0.10904668310045529
3.43,153.0,39.19,100.06,6.01,6.44,0.96,0.27,0.12,0.45,35.88,39.19,9.69,0.28,1.29,0.43,0.378031104054474,-0.6517557253393624,0.6484627285503489,-0.10864183602900607
3.44,152.38,39.5,100.31,6.4,7.78,0.87,0.45,0.14,0.12,35.88,39.19,9.69,0.16,0.34,0.51,0.3827396607287129,-0.6500466869723358,0.6475222960299539,-0.10800246759059001
3.45,152.19,39.44,100.69,6.04,8.58,0.78,0.45,0.15,0.08,37.38,37.25,9.69,0.06,1.92,0.35,0.38318766656174985,-0.6517631833612515,0.6455617329250626,-0.10780544509698547
3.46,151.69,39.44,101.06,5.62,8.6,1.36,0.47,0.11,0.28,37.38,37.25,9.69,0.79,0.61,0.14,0.3856868612816922,-0.6521675472422211,0.6439235792906876,-0.10623351350779797
3.47,150.81,39.88,101.5,5.98,7.57,1.11,0.43,0.13,0.41,37.38,37.25,9.69,0.05,0.04,0.37,0.392249376298405,-0.6501052284245377,0.6421302541405698,-0.10569936369704067
3.48,149.75,40.69,101.75,6.49,6.52,1.14,0.25,0.2,0.74,37.38,37.25,9.25,0.34,0.98,0.67,0.40157735984374177,-0.6449349682715202,0.6415292028228816,-0.10599430497428158
3.49,148.5,41.56,101.94,6.74,6.01,0.64,0.24,0.11,0.69,37.38,37.25,9.25,0.07,1.39,0.97,0.41216983753082215,-0.6383720727882929,0.641467041329897,-0.10543792771703323
3.5,147.62,42.19,102.31,6.13,5.26,0.27,0.29,0.03,0.44,37.69,37.25,8.75,1.06,1.76,1.16,0.4193995240848464,-0.6348910477015812,0.6401352370284522,-0.106039026119256
3.51,146.94,42.56,102.62,5.52,5.53,0.41,0.22,0.08,0.24,37.69,37.25,8.75,0.82,1.34,1.43,0.4244265117820547,-0.6327135332343791,0.6390093335979824,-0.10584324509976192
3.52,146.44,42.88,102.87,5.97,5.86,0.11,0.15,0.04,0.26,37.69,37.25,8.75,0.69,1.13,1.49,0.4282800079931106,-0.6310197195433072,0.6380672376733759,-0.10611573167431196
3.53,146.31,43.06,103.12,6.09,4.8,0.25,0.08,0.13,0.22,38.06,35.5,8.5,0.81,2.42,1.28,0.4295037766268069,-0.6312296396666908,0.6367995176245016,-0.10752684419609765
3.54,146.37,43.06,103.38,5.78,4.52,0.4,0.04,0.23,0.06,38.06,35.5,8.5,0.73,2.23,1.44,0.42892737505132755,-0.6328975384996046,0.6353087669753986,-0.10883374153688735
3.55,146.87,42.88,103.56,5.92,4.9,0.22,0.07,0.27,0.17,39.56,35.75,8.06,0.75,2.07,1.46,0.42524802982628135,-0.6364505084587972,0.6338437511628287,-0.11107187998426518
3.56,147.62,42.56,103.62,5.94,5.29,0.4,0.19,0.32,0.25,39.56,35.75,8.06,0.74,1.49,1.42,0.41969172667544774,-0.6407675471882988,0.6328024143222282,-0.11330008587124563
3.57,148.44,42.19,103.5,5.92,5.48,0.31,0.35,0.28,0.25,39.56,35.75,8.06,0.66,1.57,1.38,0.413674566642528,-0.6444809811920017,0.6327015432396869,-0.11491899310831971
3.59,150.31,41.56,102.19,5.62,5.43,0.45,0.7,0.08,0.28,39.5,35.75,6.75,1.11,1.59,1.95,0.4017825466597692,-0.6461966080858579,0.6383134142645834,-0.11643330308727373
3.6,151.19,41.31,101.12,5.06,5.73,0.4,0.83,0.18,0.26,39.88,36.19,9.69,1.4,1.49,1.82,0.3968166474718494,-0.6441828359620814,0.6435179114708592,-0.11597292682878788
3.61,151.94,41.13,99.81,4.34,5.46,0.66,0.94,0.27,0.18,39.88,36.19,9.69,2.09,2.26,2.17,0.39312409828346595,-0.6400161996898235,0.6501695316429266,-0.11450889749982432
3.62,152.56,41.06,98.31,4.39,4.73,1.27,1.07,0.42,0.13,39.88,36.19,9.69,2.05,2.57,2.34,0.3908421007634158,-0.63382288464586,0.6579236831890892,-0.11246079436382911
3.63,153.25,40.88,96.44,4.42,4.61,1.97,1.26,0.51,0.29,36.88,36.56,10.06,2.14,2.64,2.76,0.3880077959871577,-0.6259808643595255,0.6676305843444493,-0.10893718628998497
3.64,154.44,40.38,94.37,4.13,4.85,2.19,1.46,0.51,0.58,36.88,36.56,10.06,2.37,2.46,2.7,0.3810507068788022,-0.6195340418739697,0.6780740240931126,-0.10579956331025517
3.65,156.12,39.5,92.06,3.5,5.79,2.32,1.62,0.54,0.87,38.75,35.75,12.5,2.73,1.76,2.6,0.3696722756183768,-0.6141749193448495,0.6896188241427149,-0.10274947432905879
3.66,157.94,38.44,89.5,3.61,6.33,2.84,1.81,0.68,1.03,38.75,35.75,12.5,2.34,1.29,2.73,0.3566581280834926,-0.607764270270847,0.7025536276836967,-0.09917646738315242
3.67,159.87,37.13,86.81,3.84,6.83,3.53,1.95,0.74,1.19,38.75,35.75,12.5,2.07,0.96,3.1,0.3415891735696934,-0.6009442185702956,0.7163442982883422,-0.09504593087919753
3.68,161.62,35.69,83.87,3.75,7.03,3.64,2.19,0.81,1.21,34.25,36.56,17.0,1.97,0.88,2.79,0.32663434618596976,-0.591561934628388,0.7317313725675431,-0.08907120629475437
3.69,163.62,34.25,80.69,3.86,7.26,3.49,2.45,0.86,1.21,34.25,36.56,17.0,1.13,0.46,1.77,0.3102704637476397,-0.5804059130919772,0.748097074755364,-0.08492338968835375
3.7,165.44,32.88,77.37,4.32,7.82,3.06,2.59,0.93,1.03,32.75,37.0,21.06,1.0,0.2,1.26,0.29510164325654153,-0.5666578261244427,0.7650610041343606,-0.08059521196779475
3.71,166.94,31.69,73.87,3.97,7.96,2.48,2.67,0.99,0.77,32.75,37.0,21.06,1.51,0.33,0.3,0.2825673986012435,-0.5495068188697539,0.7826167122355008,-0.07555794460587589
3.72,168.19,30.56,70.25,3.47,8.47,3.48,2.85,1.15,0.69,32.75,37.0,21.06,1.51,0.52,0.64,0.2715027028972585,-0.5299025507422671,0.8003985850266846,-0.06965395985587051
3.73,169.13,29.56,66.25,4.47,7.93,4.61,3.02,1.3,0.41,29.37,35.06,27.19,0.37,0.12,1.18,0.2627345181683918,-0.5057747249611136,0.8193339947145537,-0.0620830545191257
3.74,170.0,28.44,62.38,4.63,7.2,5.01,2.99,1.33,0.56,29.37,35.06,27.19,0.21,0.44,0.98,0.2530922118761191,-0.4817846606992602,0.837175191060851,-0.05445707001648105
3.75,171.13,26.94,58.56,4.03,7.03,5.39,2.99,1.33,0.86,27.06,32.5,34.5,0.4,0.42,0.84,0.23934703738839425,-0.45848907031003033,0.8545161018101638,-0.047989580606673896
3.76,172.5,25.12,54.94,3.77,7.9,6.5,3.02,1.43,1.09,27.06,32.5,34.5,0.22,1.3,1.47,0.22197791125830144,-0.4366619142460145,0.8707259661500804,-0.04345654648516174
3.77,173.87,23.19,51.37,3.86,8.89,7.16,2.95,1.37,1.16,27.06,32.5,34.5,0.4,1.85,1.54,0.2035750729549972,-0.41428591899173245,0.886194837865546,-0.03978789183912608
3.78,175.31,21.25,48.19,4.15,8.71,7.03,2.73,1.28,1.2,22.37,28.06,39.38,0.59,1.89,0.95,0.18459200146170213,-0.3940284408557817,0.8995472131567335,-0.03849924798069413
3.79,176.63,19.37,45.25,3.9,8.21,6.75,2.58,1.23,1.14,22.37,28.06,39.38,0.78,1.52,0.33,0.16636815704829644,-0.37448516818783434,0.9113963987457877,-0.03793546468533214
3.8,177.81,17.56,42.44,4.09,7.94,7.11,2.47,1.24,1.01,17.87,23.56,44.19,1.13,1.62,0.22,0.14910133416894952,-0.35492402015914476,0.9221613323928558,-0.03763255376058169
3.82,179.69,14.25,42.44,4.09,7.79,8.8,2.32,1.11,0.89,17.87,23.56,44.19,1.67,2.05,1.23,0.11659579069189992,-0.358840872297141,0.9251170682609521,-0.04239174417523469
3.83,180.63,12.81,40.06,3.58,8.41,8.62,2.13,0.86,0.87,13.38,19.06,47.5,1.4,2.96,0.77,0.1029351537990741,-0.3409452873832481,0.9334249696221388,-0.04334156445520385
3.84,181.37,11.63,37.81,3.08,7.85,7.84,2.04,0.86,0.57,13.38,19.06,47.5,1.09,2.69,0.25,0.0919910229975953,-0.3234556344301103,0.9407291720599018,-0.044076400474201076
3.85,181.37,10.5,35.43,2.76,6.28,8.55,2.05,1.11,0.29,10.75,13.75,48.69,0.97,1.43,0.21,0.0835340490577691,-0.30402636534413846,0.9481850499715576,-0.03918089884218676
3.86,181.44,9.81,34.31,2.65,6.24,9.67,1.94,1.11,0.33,10.75,13.75,48.69,1.07,1.7,1.11,0.07800050308128122,-0.294880942320161,0.9516190001880742,-0.037181041627299134
3.87,181.75,8.63,32.18,2.61,7.19,9.84,1.68,0.89,0.41,10.75,13.75,48.69,1.23,2.94,1.11,0.06806370426610985,-0.2774331346925961,0.9576738829282108,-0.03548128934267779
3.88,181.56,7.56,30.37,2.57,7.29,9.83,1.39,0.75,0.31,7.06,9.69,50.75,1.13,3.33,0.84,0.0600598934215128,-0.26220859815458764,0.9626612902000627,-0.030375987331329693
3.9,181.56,5.94,27.56,1.14,6.55,8.42,1.14,0.87,0.22,4.06,5.06,51.69,0.23,2.34,0.36,0.04707887365270293,-0.23853750597107365,0.9696550631319178,-0.02554400993049251
3.91,180.19,5.06,26.19,1.33,4.71,8.82,1.11,1.1,0.71,4.06,5.06,51.69,0.4,0.86,0.26,0.04261923541009706,-0.22641644118768675,0.9730284158264146,-0.011614556698353855
3.92,179.12,4.19,25.0,0.93,4.06,8.92,0.87,1.14,0.92,4.06,5.06,51.69,0.04,0.84,0.32,0.03734992289190716,-0.2160144886293811,0.9756754315879956,-0.00041971148891659094
3.93,177.44,3.37,24.0,0.52,4.08,8.93,0.81,1.16,0.98,2.5,2.56,52.0,0.04,0.94,0.33,0.03339721883567101,-0.20712743423354116,0.9776172352450365,0.01572873528684095
3.94,176.12,2.44,23.06,0.41,3.92,9.12,0.73,1.2,1.05,2.5,2.56,52.0,0.08,0.86,0.2,0.027614814774125307,-0.19901491204231947,0.9791806573383467,0.02890894470958805
3.95,174.62,1.56,22.25,0.14,3.68,9.19,0.71,1.2,1.22,2.5,2.56,52.0,0.12,0.83,0.18,0.022397335618952338,-0.19209275485736382,0.9801598079324247,0.04342215796517801
3.96,172.81,0.69,21.56,0.12,3.55,9.45,0.53,1.17,1.13,0.19,0.56,51.69,0.24,0.8,0.03,0.01763118562977444,-0.18629608646061716,0.9804723744761773,0.06047174837718297
3.97,171.56,0.13,21.12,0.46,3.35,9.61,0.35,1.08,0.93,0.19,0.56,51.69,0.22,0.32,0.48,0.014598021247941507,-0.18268604389471507,0.9804129689296367,0.07213263821820344
3.98,170.12,1.0,20.81,0.38,2.79,10.12,0.26,0.98,0.73,3.5,1.56,51.69,0.21,0.16,0.67,0.02410290226248665,-0.1791881482417107,0.9800006249286393,0.08312299785082525
4.0,168.62,2.81,20.25,0.38,2.45,10.44,0.32,1.0,0.41,3.5,1.56,51.69,0.1,0.06,0.98,0.04144291013037184,-0.1724843750480525,0.9797090451802215,0.09328350527433747
4.01,167.81,3.75,19.94,0.1,2.23,10.56,0.3,0.9,0.2,6.19,2.0,52.0,0.54,0.24,1.09,0.05041571582191111,-0.168640094353423,0.9794082392678805,0.09888516081204243
4.03,167.5,5.06,19.37,0.52,2.34,10.47,0.43,0.77,0.05,9.88,2.37,52.0,0.41,0.2,0.99,0.061551679799765335,-0.16233123594946297,0.9797419064826288,0.09982863933126067
4.04,166.75,5.87,18.87,0.77,2.42,10.33,0.52,0.75,0.14,9.88,2.37,52.0,0.29,0.17,0.84,0.06906079676093871,-0.1567929611910142,0.9795680889287984,0.10532299285568672
4.05,166.37,6.62,18.31,0.93,2.31,10.15,0.62,0.78,0.3,9.88,2.37,52.0,0.26,0.17,0.66,0.07544864470360092,-0.15095395254264798,0.9797407589613416,0.10783529781104143
4.06,165.56,7.44,17.68,1.06,2.21,10.01,0.67,0.75,0.35,11.0,3.5,50.75,0.18,0.24,0.36,0.08287481149203416,-0.14407866991967386,0.9794740800302995,0.11403345580633843
4.07,165.0,8.13,17.0,1.35,2.23,9.76,0.69,0.66,0.4,11.0,3.5,50.75,0.08,0.31,0.25,0.08875415154850932,-0.13702509007018793,0.9794555314201863,0.11837942069701875
4.08,164.44,8.75,16.37,1.33,2.11,9.74,0.67,0.59,0.39,12.19,4.56,49.56,0.05,0.18,0.26,0.09402828534150491,-0.13042693571172756,0.9793150061784179,0.12283979269907035
4.09,163.62,9.31,15.69,1.5,1.26,9.68,0.63,0.53,0.2,12.19,4.56,49.56,0.19,0.61,0.17,0.09895646094885874,-0.12320300290135121,0.9788811591720609,0.1296931576087531
4.1,163.37,9.81,15.06,1.28,1.1,9.7,0.64,0.39,0.16,12.19,4.56,49.56,0.43,0.47,0.18,0.10275719501078324,-0.11693434497323492,0.9789829774777147,0.13175601560484648
4.11,163.44,10.25,14.25,1.28,1.48,9.36,0.67,0.33,0.33,13.38,6.5,49.56,0.59,0.26,0.27,0.10550601260842342,-0.10948584848910534,0.9796045497891153,0.1313630705965588
4.12,163.87,10.63,13.37,1.14,1.91,9.16,0.85,0.27,0.5,13.38,6.5,49.56,0.74,0.89,0.51,0.107353332136182,-0.10185632729455221,0.9806627510949657,0.12806685474461052
4.13,164.31,11.0,12.25,1.34,2.3,8.68,0.94,0.3,0.42,13.38,6.5,49.56,0.53,1.13,0.86,0.10890325270990388,-0.09220505540370853,0.9818470322964893,0.12495885113819846
4.14,164.37,11.44,11.0,1.5,1.82,8.32,1.23,0.41,0.09,14.06,8.0,48.75,0.36,0.62,1.42,0.11125454685423931,-0.08099293027889466,0.9825399522179746,0.1252110751674794
4.15,164.25,11.88,9.62,1.74,0.76,8.0,1.44,0.41,0.08,14.06,8.0,48.75,0.31,0.17,1.55,0.11357701718441063,-0.06848596169435352,0.9829699033447553,0.12720103512430217
4.16,163.94,12.31,8.0,1.76,0.63,7.84,1.53,0.38,0.15,14.87,10.56,49.19,0.52,0.31,1.76,0.11559684978431,-0.05373330570022805,0.9831336810425548,0.13114215713562735
4.17,163.5,12.75,6.19,1.83,0.46,7.68,1.78,0.48,0.2,14.87,10.56,49.19,0.03,0.42,1.98,0.11742546594117505,-0.03719302265912756,0.9829574821137117,0.13646438132585287
4.18,163.06,13.31,6.31,2.43,0.26,7.69,1.79,0.49,0.17,14.87,10.56,49.19,0.2,0.45,1.54,0.12250483041693784,-0.03702638838705631,0.9818789902579295,0.13976860011317668
4.19,162.25,13.81,8.25,2.58,0.06,8.26,1.74,0.42,0.1,18.25,14.69,46.69,0.48,0.6,0.55,0.1294935847641716,-0.05205598839875612,0.9796542484584811,0.1442190661944573
4.2,161.94,14.25,10.12,2.88,0.31,9.12,1.72,0.43,0.1,18.25,14.69,46.69,0.43,0.21,0.27,0.13575588195726832,-0.06704161932952249,0.9778778207804585,0.14432854678594018
4.21,161.31,14.75,12.06,2.78,1.28,9.16,1.76,0.44,0.11,17.87,17.37,45.06,0.27,0.16,0.24,0.14287516436926595,-0.08206941630357048,0.9753407542368994,0.1468390664593132
4.22,160.94,15.25,14.06,2.56,2.03,9.16,1.84,0.45,0.09,17.87,17.37,45.06,0.06,0.29,0.19,0.14995792681819414,-0.09782933040392645,0.9728190354110341,0.14685083125080955
4.23,160.63,15.81,16.06,2.92,1.78,8.96,1.82,0.45,0.11,17.87,17.37,45.06,0.24,0.01,0.3,0.15751875118953695,-0.1134819704487055,0.9700391425324727,0.14606076599016335
4.24,160.06,16.37,18.0,3.34,2.29,9.0,1.71,0.51,0.16,18.56,20.69,43.06,0.56,0.59,0.01,0.16530147797342973,-0.12815725305963319,0.9667196189683963,0.14732385472016296
4.25,159.56,17.0,19.81,3.49,3.26,9.29,1.65,0.54,0.29,18.56,20.69,43.06,0.68,0.97,0.49,0.17348108186458125,-0.14159171170330728,0.9633270120211306,0.14784170359699722
4.26,159.06,17.62,21.56,3.83,3.54,9.82,1.65,0.54,0.29,19.0,25.56,41.0,0.88,0.76,0.87,0.18153814780189192,-0.15441339818643415,0.9598051239774682,0.14823807655178492
4.27,158.63,18.25,23.31,4.0,3.55,9.62,1.52,0.5,0.15,19.0,25.56,41.0,0.64,0.75,0.57,0.18960809104782303,-0.16720555348918392,0.9561612882832364,0.1478061753788312
4.28,158.5,18.69,24.93,3.41,4.4,8.66,1.35,0.41,0.08,19.0,25.56,41.0,0.26,1.29,0.08,0.19549437907356493,-0.1796673122577968,0.953098223489968,0.1452769115756789
4.29,158.44,19.06,26.5,3.27,4.68,8.59,1.33,0.39,0.21,20.88,28.19,38.19,0.02,1.22,0.19,0.2005902123498392,-0.19190576880618848,0.9501027606532825,0.14226906482915955
4.3,158.63,19.25,28.12,3.38,4.17,9.09,1.23,0.28,0.45,20.88,28.19,38.19,0.22,0.16,0.62,0.2037867208679393,-0.20529360478991415,0.947335445233753,0.1374083783254218
4.31,158.87,19.37,29.62,3.44,3.71,9.14,1.17,0.25,0.48,21.56,30.75,35.69,0.12,0.15,0.81,0.2060844484984859,-0.217879187873583,0.9447286447974299,0.13245998368501471
4.32,159.19,19.37,31.06,3.12,4.33,9.18,1.06,0.25,0.32,21.56,30.75,35.69,0.18,0.47,0.97,0.2070903283294236,-0.23031268543151356,0.9422751384725977,0.1272290307209133
4.33,159.37,19.5,32.37,3.01,4.66,9.22,1.06,0.28,0.26,21.56,30.75,35.69,0.25,0.45,0.99,0.2091992632055989,-0.2411518662004626,0.9396505556270008,0.12303771377970729
4.34,159.56,19.62,33.69,3.16,4.49,8.92,1.03,0.26,0.25,20.5,33.0,35.0,0.19,0.01,0.28,0.21114747291323496,-0.252082495550183,0.9368946243736066,0.1187418331481585
4.35,159.75,19.69,34.94,3.27,4.67,8.16,0.94,0.19,0.3,20.5,33.0,35.0,0.13,0.2,0.12,0.2125546714250238,-0.2625073473986091,0.9342147712372834,0.11468725046497737
4.36,159.81,19.69,36.06,3.09,4.91,8.13,0.92,0.21,0.28,21.56,34.88,32.06,0.22,0.18,0.21,0.21352318438977747,-0.2717373707016598,0.9316633165680451,0.11211652712079762
4.37,160.0,19.75,37.18,3.32,4.58,8.11,0.87,0.19,0.26,21.56,34.88,32.06,0.13,0.45,0.28,0.21461940617077585,-0.2810725724667845,0.9290889554856697,0.10830712024772458
4.38,160.12,19.75,38.19,3.52,4.5,7.99,0.74,0.16,0.21,21.56,34.88,32.06,0.2,0.5,0.24,0.2152626464966855,-0.2894760391056377,0.9266864760895314,0.10544093531319168
4.39,160.19,19.81,38.94,3.38,5.16,7.87,0.61,0.15,0.08,20.06,36.38,30.5,0.06,0.19,0.3,0.21624148410975058,-0.29555362131810364,0.924781449937488,0.10328091463230155
4.4,160.12,19.94,39.56,3.24,5.43,7.97,0.48,0.09,0.01,20.06,36.38,30.5,0.04,0.25,0.25,0.21800496878899508,-0.3001735625699498,0.9229900889744029,0.10226906459138718
4.41,160.06,20.0,40.12,3.37,5.54,7.74,0.45,0.06,0.03,21.19,38.69,28.75,0.01,0.37,0.1,0.21913332300360341,-0.3044515588059079,0.9214056644099858,0.10149599343443824
4.42,160.06,20.0,40.62,3.27,5.81,7.57,0.38,0.02,0.06,21.19,38.69,28.75,0.11,0.56,0.06,0.21957409542282244,-0.308469038537035,0.9200684769788563,0.10053888080287343
4.44,160.0,19.94,41.37,3.25,5.81,7.57,0.31,0.01,0.05,20.5,39.38,28.0,0.11,0.34,0.18,0.21992251823764644,-0.3144842227511044,0.9180298599211185,0.09977442510912896
4.45,160.06,19.87,41.75,3.15,5.7,7.64,0.3,0.02,0.08,20.5,39.38,28.0,0.15,0.13,0.24,0.21953871034445763,-0.31777645411189187,0.917093717431576,0.09879267847314327
4.46,160.06,19.75,42.06,3.15,5.55,7.6,0.3,0.03,0.08,20.06,39.0,28.0,0.16,0.02,0.21,0.218868022154302,-0.32048663685448614,0.9163321986859941,0.0985921200058942
4.47,160.06,19.69,42.44,3.15,5.6,7.21,0.31,0.03,0.06,20.06,39.0,28.0,0.16,0.02,0.07,0.21872575494535607,-0.32363876208158526,0.9153143818088013,0.09806415377626483
4.48,160.06,19.69,42.81,3.16,5.6,7.31,0.32,0.01,0.04,20.06,39.0,28.0,0.14,0.02,0.01,0.21904124956696658,-0.3265924910806259,0.9142646283420794,0.09735740917060577
4.49,160.0,19.62,43.12,3.41,5.63,7.19,0.3,0.02,0.02,20.88,40.5,26.37,0.11,0.03,0.09,0.2189314619365702,-0.32908468310130057,0.9133840628380655,0.09747738238104811
4.5,159.87,19.62,43.37,3.42,5.65,7.16,0.25,0.04,0.06,20.88,40.5,26.37,0.12,0.04,0.09,0.21951905678887956,-0.33082776973355427,0.912553308570528,0.09803483817819875
4.51,159.69,19.69,43.62,3.41,5.76,7.12,0.22,0.02,0.14,19.75,39.75,26.37,0.1,0.04,0.11,0.22079816471742958,-0.3323356415195953,0.911619161399818,0.09875067798180649
4.52,159.5,19.81,43.81,3.56,5.73,7.05,0.19,0.02,0.15,19.75,39.75,26.37,0.24,0.06,0.16,0.22244483102987864,-0.3332436200568967,0.9108070154309653,0.0994865190927943
4.53,159.37,19.87,43.87,3.59,5.67,7.11,0.14,0.01,0.15,19.75,39.75,26.37,0.24,0.08,0.08,0.22334000937554366,-0.33334902351028844,0.9104712663612766,0.10019851230114334
4.54,159.12,20.0,43.94,3.56,5.59,7.13,0.1,0.01,0.17,20.88,40.5,27.19,0.2,0.16,0.04,0.22513484417498628,-0.3331569436097826,0.9099436560750221,0.10160362017032001
