0.01,-124.44,79.14,167.78,0.22,-0.13,-0.06,0.09,-0.04,0.07,-98.42,81.5,127.34,-0.07,0.05,-0.01,0.08,0.01,0.12,-178.95,1.84,7.77,0.24,0.54,0.39,-0.03,0.71,1.47,-138.84,6.12,13.26,0.16,0.13,-0.19,-0.08,0.09,-0.01
0.02,-124.42,79.28,167.79,0.06,-0.2,0.06,0.13,-0.04,0.39,-98.07,81.55,126.98,0.02,-0.03,0.18,0.25,-0.12,0.16,-179.02,2.45,8.17,0.54,0.59,0.32,0.12,0.49,1.3,-138.99,5.92,13.25,0.07,0.09,0.05,0.18,0.03,0.1
0.03,-124.75,79.23,167.59,-0.14,0.01,0.02,0.2,0.11,0.07,-98.3,81.81,126.81,0.03,0.05,0.27,0.22,0.05,0.16,-179.35,2.9,8.83,0.27,0.66,0.38,0.16,0.58,1.22,-138.73,6.14,13.16,0.02,-0.01,-0.04,0.17,0.01,-0.0
0.04,-124.69,79.03,167.67,-0.01,0.07,0.17,0.11,0.19,0.12,-98.3,81.85,126.45,-0.22,-0.14,-0.02,-0.04,0.19,-0.1,-179.13,3.38,9.16,0.25,0.57,0.3,0.29,0.5,1.33,-138.5,6.22,13.39,-0.03,-0.07,0.01,-0.04,0.03,0.01
0.05,-124.58,79.08,167.57,-0.02,-0.07,0.02,0.1,-0.09,0.12,-98.49,81.72,126.16,0.29,0.07,-0.08,-0.02,0.06,-0.17,-179.07,3.74,9.51,0.35,0.45,0.22,0.46,0.27,1.09,-138.49,6.16,13.29,-0.06,-0.15,0.15,0.15,0.02,0.03
0.06,-124.65,79.29,167.67,-0.0,0.02,0.12,0.12,0.02,0.31,-98.4,81.84,125.9,0.1,-0.07,-0.04,0.06,0.1,0.03,-178.97,4.26,9.75,0.15,0.19,0.23,0.08,0.41,1.34,-138.68,6.17,13.29,0.09,0.07,0.0,0.15,0.06,0.04
0.07,-124.64,79.1,167.59,0.28,0.07,-0.02,0.06,0.28,0.32,-98.47,81.84,125.84,0.22,-0.1,0.01,0.11,0.2,0.15,-178.85,4.45,10.41,0.24,0.31,0.29,0.44,0.25,1.09,-138.57,6.28,13.32,0.0,-0.03,0.15,-0.12,0.22,0.12
0.08,-124.74,79.17,167.57,0.09,-0.02,0.18,0.12,0.14,0.35,-98.64,82.06,125.64,0.14,-0.15,-0.03,-0.08,0.05,0.18,-178.79,4.75,10.7,0.2,0.26,0.36,0.44,0.3,0.91,-138.3,6.27,13.48,0.19,0.14,-0.03,0.05,0.09,0.0
0.09,-124.44,79.36,167.94,0.11,0.14,0.13,-0.12,0.03,0.14,-98.6,82.04,125.58,0.18,0.05,0.11,0.13,-0.04,0.09,-178.67,5.14,11.04,0.15,0.24,0.47,0.34,0.61,1.19,-138.41,6.42,13.41,0.01,-0.14,0.02,0.11,0.04,0.03
0.1,-125.04,79.27,168.07,0.22,-0.11,0.18,-0.01,0.07,0.4,-98.58,81.56,125.36,0.04,0.13,0.08,0.04,0.34,0.11,-178.68,5.66,11.46,-0.01,0.23,0.23,0.28,0.61,0.75,-138.2,6.42,13.4,0.17,-0.03,0.07,-0.06,0.24,0.18
0.11,-124.79,79.1,168.27,0.15,-0.12,-0.05,0.14,0.1,0.57,-98.55,81.78,125.53,-0.01,-0.06,0.06,0.23,0.23,-0.05,-178.24,5.91,11.63,0.01,0.26,0.2,0.53,0.5,0.65,-138.2,6.11,13.4,-0.0,0.06,0.12,-0.07,0.11,-0.03
0.12,-124.87,79.05,168.5,0.1,0.25,-0.22,0.23,0.21,0.59,-98.7,82.13,125.74,-0.04,0.1,0.05,0.11,0.11,0.1,-178.02,6.16,11.62,-0.07,0.26,0.24,0.18,0.68,0.51,-138.22,6.42,13.25,-0.04,0.1,0.01,-0.04,0.03,-0.05
0.13,-125.37,79.14,168.45,0.11,0.23,0.09,0.06,0.06,0.64,-98.65,82.05,125.73,0.23,0.1,0.05,0.02,-0.03,-0.03,-177.83,6.45,11.94,0.22,0.19,0.35,0.32,0.79,0.49,-138.16,6.37,13.24,-0.13,0.03,-0.0,-0.17,0.28,0.01
0.14,-125.47,79.1,168.73,0.01,0.02,0.15,0.2,-0.04,0.74,-98.73,82.0,126.43,0.05,0.02,0.11,0.22,0.2,0.22,-177.47,6.89,11.75,0.2,0.17,0.16,0.19,0.56,0.39,-138.14,6.19,13.4,0.06,-0.09,0.05,0.07,0.08,0.08
0.15,-125.36,79.01,168.86,0.11,0.11,0.06,0.24,0.21,0.67,-98.53,82.11,126.98,-0.05,0.04,-0.05,0.12,0.05,0.3,-177.24,7.18,11.76,0.22,0.26,0.32,0.23,0.93,0.36,-138.23,6.17,13.41,-0.02,-0.09,-0.01,0.18,0.16,0.01
0.16,-125.51,78.8,168.79,0.15,0.11,0.01,0.15,0.08,0.72,-98.83,81.94,127.88,0.09,0.01,-0.01,0.4,0.22,0.13,-176.72,7.34,11.46,0.32,0.24,0.4,0.32,0.82,0.34,-138.21,6.06,13.28,0.02,0.07,0.24,0.1,0.16,-0.03
0.17,-125.87,78.91,168.75,0.05,0.11,0.08,0.47,-0.06,0.59,-98.61,81.75,129.03,0.1,0.02,0.01,0.18,0.31,0.3,-176.33,7.82,11.09,0.36,0.17,0.3,0.26,1.07,0.46,-138.33,6.07,13.28,0.04,-0.15,0.17,0.41,0.19,0.3
0.18,-125.67,78.77,168.83,0.11,0.19,0.17,0.11,0.06,0.61,-98.64,81.59,129.52,-0.04,0.32,0.04,0.34,0.1,0.22,-176.09,7.97,10.93,0.22,0.25,0.3,0.18,1.27,0.35,-138.23,6.05,13.14,0.0,-0.09,-0.03,0.52,0.13,0.06
0.19,-126.14,78.4,168.76,0.28,0.31,0.09,0.49,0.16,0.65,-98.67,81.69,130.2,0.06,0.19,-0.01,0.37,0.22,0.23,-176.08,8.1,10.81,0.15,0.22,0.48,0.2,1.13,0.35,-138.32,6.1,13.26,0.04,-0.11,0.03,0.57,0.14,0.14
0.2,-126.3,78.39,168.69,0.14,0.33,0.14,0.42,0.22,0.61,-98.62,81.5,131.68,0.04,0.08,-0.03,0.51,0.09,0.25,-175.6,8.38,10.28,0.42,0.32,0.35,0.17,1.3,0.52,-138.6,6.02,13.23,-0.09,-0.2,0.03,0.57,0.44,-0.01
0.21,-126.38,77.95,168.19,0.04,0.16,0.08,0.53,-0.1,0.73,-98.37,81.32,133.66,-0.14,0.46,0.17,0.6,0.05,0.18,-175.02,8.88,9.57,0.47,0.05,0.26,0.37,1.18,0.47,-138.67,6.1,13.01,-0.05,0.16,0.03,0.79,0.4,0.1
0.22,-126.64,77.68,167.78,0.02,0.33,0.28,0.57,0.11,0.56,-98.31,81.1,135.69,-0.02,0.61,-0.09,0.55,0.21,0.15,-174.62,9.09,8.81,0.52,0.24,0.2,0.3,1.36,0.68,-138.75,6.1,13.18,0.06,0.16,0.12,0.71,0.54,0.45
0.23,-127.1,77.27,167.6,0.12,0.3,0.16,0.83,0.09,0.55,-98.23,80.48,137.79,-0.13,0.6,0.07,0.65,0.22,0.24,-174.33,9.35,7.89,0.58,0.37,0.52,0.25,1.5,0.67,-138.84,6.03,13.07,0.15,0.13,0.28,0.98,0.67,0.37
0.24,-127.67,76.8,167.05,0.15,0.31,0.18,0.78,0.01,0.32,-98.14,79.95,140.11,0.13,0.59,-0.02,0.76,0.24,0.23,-173.99,9.77,7.09,0.51,0.38,0.28,0.33,1.47,0.7,-138.95,6.36,13.35,0.08,0.3,0.1,1.41,0.38,0.36
0.25,-128.03,76.33,166.27,0.07,0.21,-0.02,1.03,0.09,0.67,-98.08,79.16,142.73,0.01,0.61,-0.02,0.9,0.35,0.16,-173.39,10.18,6.23,0.57,0.05,0.18,0.42,1.44,1.05,-138.93,6.66,13.4,0.12,0.39,0.0,1.55,0.77,0.46
0.26,-128.58,75.86,165.9,-0.02,0.46,0.18,1.25,0.23,0.5,-98.05,78.22,145.34,0.26,0.95,0.01,0.77,0.23,0.3,-173.33,10.47,5.22,0.58,0.4,0.25,0.44,1.46,0.95,-139.07,6.72,13.62,0.05,0.19,0.47,1.56,0.84,0.45
0.27,-128.89,75.23,165.1,0.16,0.6,0.26,1.06,0.27,0.62,-98.13,77.53,147.85,0.24,0.77,0.24,0.95,0.26,0.39,-173.18,10.7,4.47,0.89,0.27,0.27,0.34,1.21,1.13,-139.1,7.08,13.73,0.16,0.35,0.32,1.72,0.81,0.55
0.28,-129.56,74.54,164.64,0.38,0.51,0.35,1.14,0.44,0.67,-98.11,76.24,150.46,0.35,1.07,-0.06,1.03,0.31,0.32,-173.14,10.97,3.64,0.74,0.34,0.23,0.59,1.27,1.22,-139.02,7.88,13.9,0.06,0.61,0.3,1.62,0.95,0.56
0.29,-129.97,74.02,164.29,0.11,0.53,0.36,1.24,0.51,0.61,-98.34,75.16,152.72,0.29,1.01,-0.04,1.28,0.15,0.09,-172.89,11.27,2.94,0.53,0.36,0.34,0.84,1.08,1.23,-138.94,8.41,14.33,0.38,0.42,0.39,1.55,0.83,0.75
0.3,-130.5,73.01,163.93,0.38,0.85,0.16,1.12,0.52,0.43,-98.47,74.05,155.17,0.25,1.04,0.16,1.01,0.38,0.4,-173.17,11.47,2.31,0.71,0.34,0.3,0.93,1.16,1.09,-138.74,9.16,14.46,0.21,0.57,0.32,1.48,0.78,1.05
0.31,-130.69,72.37,163.61,0.54,0.73,0.34,1.21,0.71,0.52,-98.54,72.59,157.35,0.17,1.05,0.06,1.18,0.49,0.48,-173.28,11.66,1.78,0.4,0.16,0.46,0.77,0.99,1.12,-138.38,9.97,14.6,0.26,0.46,0.39,1.13,0.78,1.17
0.32,-130.98,71.16,163.22,0.47,0.92,0.41,1.26,0.76,0.89,-98.6,71.2,159.5,0.31,1.29,0.34,1.03,0.7,0.33,-173.55,11.99,1.35,0.49,0.23,0.41,0.76,1.04,0.99,-138.09,11.03,14.97,0.34,0.59,0.32,1.33,0.98,1.16
0.33,-131.37,70.45,163.28,0.35,0.78,0.36,1.34,0.81,0.71,-98.91,69.88,161.32,0.53,1.53,0.08,0.93,0.57,0.43,-173.91,11.96,1.04,0.43,0.22,0.25,0.65,0.92,1.17,-137.78,11.89,15.29,0.36,0.64,0.44,1.32,0.56,0.98
0.34,-131.67,69.36,163.33,0.26,0.94,0.45,0.96,0.98,0.59,-99.03,68.45,162.91,0.33,1.26,0.13,1.01,0.68,0.36,-174.28,12.17,1.08,0.43,0.0,0.41,0.75,1.08,1.14,-137.5,12.79,15.4,0.21,0.95,0.3,1.11,0.59,1.3
0.35,-131.64,68.17,163.09,0.36,1.0,0.33,1.2,0.97,0.8,-99.03,66.79,164.39,0.51,1.5,0.02,0.92,0.77,0.54,-175.1,11.98,0.6,0.38,0.09,0.26,0.8,0.74,1.09,-137.15,14.11,15.78,0.11,0.64,0.34,1.02,0.53,1.41
0.36,-131.88,67.59,163.02,0.29,1.07,0.46,1.05,1.04,0.52,-99.06,66.06,164.78,0.43,1.37,0.12,1.13,0.84,0.51,-175.37,11.98,0.63,0.47,0.13,0.36,0.55,0.78,1.25,-137.12,14.55,15.96,0.15,0.89,0.53,0.8,0.53,1.48
0.37,-132.12,67.06,163.34,0.37,1.14,0.4,1.11,1.04,0.7,-98.96,65.24,165.54,0.32,1.44,-0.11,0.82,0.61,0.63,-175.68,12.05,0.55,0.18,0.29,0.62,0.66,0.81,1.19,-136.79,14.92,16.14,0.11,0.84,0.31,0.67,0.52,1.63
0.38,-132.38,65.88,163.11,0.21,1.32,0.33,0.75,1.1,0.63,-99.13,63.8,166.52,0.28,1.49,-0.04,1.05,0.94,0.54,-176.38,11.91,0.48,0.34,0.33,0.52,0.56,0.63,0.87,-136.57,16.08,16.23,0.34,0.63,0.24,0.62,0.53,1.49
0.39,-132.97,64.55,163.46,0.2,0.96,0.44,0.81,1.23,0.55,-98.91,62.28,167.52,0.47,1.56,0.18,0.86,0.78,0.44,-176.79,12.09,0.21,0.31,-0.06,0.52,0.63,0.64,0.99,-136.1,17.0,16.74,0.12,0.89,0.23,0.45,0.21,1.35
0.4,-133.46,63.01,163.53,0.09,1.27,0.34,0.5,0.95,0.69,-98.85,60.73,168.09,0.21,1.38,0.17,0.8,0.7,0.43,-177.68,12.02,0.43,0.03,0.06,0.54,0.58,0.5,1.0,-135.85,18.29,16.74,0.25,0.96,0.47,0.64,0.42,1.44
0.41,-134.26,61.57,163.44,0.24,1.42,0.51,0.54,0.87,0.64,-98.81,59.06,168.72,0.32,1.31,0.06,0.81,0.85,0.24,-178.48,11.85,0.42,0.29,0.03,0.67,0.84,0.55,0.96,-135.78,19.03,16.91,0.06,0.85,0.23,0.55,0.27,1.02
0.42,-135.18,60.05,163.56,0.18,1.27,0.24,0.51,0.81,0.75,-98.69,57.56,169.3,0.28,1.42,0.1,0.76,0.77,0.36,-178.99,11.58,0.62,0.34,0.12,0.47,0.79,0.46,0.92,-135.51,19.8,16.88,0.24,0.77,0.25,0.39,0.23,1.13
0.43,-136.41,58.52,163.56,-0.13,1.27,0.22,0.46,0.95,0.46,-98.57,55.85,169.73,0.35,1.55,0.07,0.61,0.68,0.33,-179.65,11.81,0.47,-0.08,0.03,0.39,0.59,0.42,0.92,-135.31,20.58,17.05,0.28,0.65,0.42,0.37,0.15,0.94
0.44,-137.46,56.75,163.53,0.11,1.41,0.44,0.48,0.74,0.58,-98.65,54.19,170.35,0.35,1.54,0.13,0.62,0.97,0.6,-180.27,11.45,0.67,0.07,-0.11,0.32,0.61,0.59,0.94,-135.18,21.34,17.2,0.15,0.8,0.41,0.31,0.19,0.92
0.45,-138.69,55.17,163.41,0.12,1.21,0.28,0.57,0.66,0.65,-98.4,52.61,170.77,0.1,1.39,0.12,0.69,0.65,0.51,-180.55,11.73,0.82,0.17,0.14,0.37,0.54,0.49,0.89,-134.92,22.32,17.3,0.1,0.78,0.35,0.29,0.28,0.82
0.46,-140.28,53.61,163.36,0.17,1.41,0.32,0.28,0.55,0.57,-98.35,50.81,171.07,0.23,1.56,0.18,0.62,0.66,0.56,-181.06,11.56,0.95,0.12,0.1,0.4,0.52,0.48,1.01,-134.65,22.9,17.17,-0.0,0.69,0.32,0.25,0.27,0.64
0.47,-141.6,51.74,163.05,0.33,1.47,0.31,0.34,0.5,0.44,-98.21,48.95,171.75,0.14,1.49,0.04,0.73,0.65,0.37,-181.23,11.35,1.25,0.21,0.11,0.08,0.55,0.53,1.04,-134.35,23.66,17.46,0.02,0.63,0.38,0.48,0.24,0.66
0.48,-143.39,50.14,162.75,0.17,1.34,0.62,0.44,0.53,0.43,-98.05,47.06,172.36,0.26,1.41,-0.02,0.47,0.54,0.25,-181.23,11.68,1.52,0.38,0.29,0.35,0.5,0.64,1.14,-134.43,24.31,17.56,0.21,0.58,0.24,0.42,0.28,0.45
0.49,-144.96,48.28,162.76,0.07,1.38,0.36,0.42,0.28,0.34,-97.98,45.18,172.75,0.23,1.53,-0.09,0.25,0.39,0.22,-181.39,11.6,1.72,0.41,0.15,0.16,0.64,0.7,1.09,-134.05,25.2,17.72,0.13,0.49,0.38,0.54,0.29,0.34
0.5,-146.46,46.57,162.39,0.16,1.16,0.34,0.3,0.54,0.38,-98.08,43.07,173.19,0.24,1.39,-0.03,0.35,0.44,0.28,-181.61,11.95,2.21,0.38,0.08,0.29,0.73,0.78,1.14,-133.96,26.05,17.6,0.19,0.56,0.37,0.36,0.36,0.25
0.51,-147.64,45.23,162.28,0.29,1.22,0.36,0.51,0.37,0.53,-97.93,41.1,173.82,0.43,1.64,0.14,0.49,0.27,0.38,-181.73,12.04,2.51,0.32,0.18,-0.04,0.58,0.8,1.0,-133.57,26.61,17.73,0.28,0.61,0.29,0.56,0.46,0.43
0.52,-149.03,43.62,162.12,0.22,1.21,0.42,0.36,0.42,0.48,-98.14,39.14,174.36,0.28,1.5,-0.09,0.25,0.24,0.48,-181.79,11.88,3.17,0.49,0.19,0.17,0.78,0.49,1.01,-133.42,27.58,18.18,0.18,0.62,0.53,0.52,0.42,0.5
0.53,-150.11,42.47,162.06,0.18,1.29,0.18,0.53,0.36,0.22,-98.03,37.22,174.88,0.02,1.48,0.04,0.24,0.28,0.47,-181.64,12.2,3.57,0.4,0.21,0.39,0.58,0.79,1.17,-132.97,28.3,18.15,0.32,0.46,0.35,0.82,0.61,0.7
0.54,-150.42,41.69,161.98,0.18,1.18,0.37,0.39,0.23,0.49,-98.18,36.29,175.14,0.1,1.36,-0.01,0.28,0.26,0.38,-181.69,12.23,3.79,0.39,0.49,0.08,0.66,0.7,1.1,-132.72,28.81,18.2,0.02,0.31,0.57,0.56,0.59,0.72
0.55,-150.94,40.87,161.89,0.09,0.95,0.4,0.46,0.25,0.42,-98.06,35.2,175.56,0.21,1.37,0.12,0.17,0.51,0.36,-181.69,12.4,3.93,0.25,0.08,0.16,0.63,0.72,1.15,-132.56,29.54,18.34,0.1,0.54,0.56,0.64,0.4,0.93
0.56,-151.52,39.47,162.09,0.11,1.0,0.29,0.45,0.29,0.45,-98.01,33.47,175.92,0.25,1.39,0.05,0.24,0.22,0.64,-181.57,12.7,4.48,0.48,0.07,-0.0,0.82,0.73,1.12,-132.2,30.22,18.44,0.35,0.51,0.71,0.87,0.79,1.04
0.57,-151.92,38.39,162.0,0.18,1.03,0.29,0.53,0.19,0.45,-98.01,31.78,176.34,0.41,1.13,0.08,0.24,0.38,0.65,-181.76,12.67,5.04,0.5,0.2,0.2,0.53,0.88,1.09,-131.78,30.97,18.72,0.19,0.74,0.5,0.82,1.04,1.17
0.58,-152.04,37.33,161.82,0.03,0.84,0.21,0.58,0.21,0.44,-97.88,30.34,176.76,0.12,1.02,0.08,0.27,0.49,0.85,-181.73,12.93,5.79,0.38,0.05,0.02,0.89,0.62,1.06,-131.2,32.11,18.55,0.21,0.41,0.75,0.94,0.88,1.59
0.59,-152.23,36.42,162.07,0.07,0.79,0.31,0.6,0.38,0.48,-98.03,28.85,177.0,0.09,1.04,-0.09,0.26,0.26,0.94,-181.82,13.14,6.07,0.58,0.12,0.18,0.64,0.74,1.07,-130.35,32.62,19.1,0.56,0.52,0.67,0.88,0.87,1.64
0.6,-152.25,35.55,162.0,0.15,0.53,0.31,0.59,0.25,0.51,-97.72,27.72,177.72,0.16,0.96,0.15,0.49,0.56,1.26,-182.05,13.38,6.67,0.67,0.21,0.29,0.52,0.45,0.95,-129.73,33.45,19.2,0.27,0.6,0.85,0.93,1.32,1.55
0.61,-152.27,34.99,162.24,-0.04,0.62,0.41,0.65,0.12,0.59,-97.79,26.49,177.83,0.14,0.77,-0.04,0.47,0.45,1.24,-182.26,13.47,7.11,0.41,0.22,0.05,0.71,0.51,0.97,-129.0,34.74,19.21,0.47,0.62,0.91,0.85,1.42,1.87
0.62,-152.14,34.13,162.16,0.21,0.52,0.07,0.71,0.16,0.53,-97.61,25.41,178.07,0.2,0.8,-0.04,0.27,0.41,1.15,-182.29,13.49,7.74,0.61,0.06,0.0,0.71,0.55,0.85,-128.38,35.58,19.29,0.43,0.49,1.08,1.01,1.41,1.88
0.63,-151.89,33.59,162.32,0.08,0.42,0.29,0.77,0.33,0.7,-97.59,24.98,178.37,0.05,0.7,0.15,0.24,0.62,1.49,-182.61,13.63,8.3,0.53,0.15,0.31,0.55,0.62,0.82,-127.65,36.44,19.57,0.42,0.34,0.97,1.01,1.69,2.02
0.64,-151.54,33.21,162.7,0.24,0.33,-0.07,0.72,0.21,0.66,-97.43,24.21,178.64,0.09,0.44,0.24,0.52,0.76,1.49,-182.75,13.89,8.89,0.52,-0.06,0.06,0.85,0.58,0.85,-126.93,37.45,19.64,0.43,0.57,1.14,0.81,1.71,2.29
0.65,-151.53,32.81,162.71,0.11,0.39,-0.19,0.62,0.35,1.03,-97.15,23.74,178.82,0.3,0.39,0.02,0.61,0.69,1.49,-182.87,13.84,9.43,0.39,0.09,0.22,0.57,0.47,0.65,-126.2,37.97,19.93,0.61,0.41,1.01,0.88,1.7,1.95
0.66,-151.38,32.68,162.76,0.06,0.26,0.24,0.79,0.44,1.19,-97.03,23.51,178.86,0.16,0.52,0.01,0.64,0.72,1.63,-182.82,14.15,9.73,0.39,0.18,0.18,0.6,0.41,0.64,-125.79,38.9,20.17,0.67,0.53,1.06,0.91,1.66,1.95
0.67,-151.32,32.67,162.93,0.14,0.3,0.16,1.01,0.46,0.85,-96.92,23.07,178.89,0.19,0.56,-0.11,0.51,0.66,1.73,-183.02,14.24,10.41,0.26,0.09,0.31,0.64,0.41,0.41,-125.3,39.52,20.4,0.49,0.5,0.96,0.86,1.84,1.85
0.68,-151.17,32.56,163.15,0.09,0.26,0.18,0.96,0.31,0.83,-96.72,23.06,178.87,0.02,0.16,0.19,0.57,0.64,1.72,-183.13,14.19,10.85,0.34,0.2,0.11,0.61,0.35,0.67,-124.7,40.13,20.93,0.62,0.56,0.85,1.04,1.83,1.74
0.69,-151.04,32.57,163.04,0.26,0.25,0.24,0.79,0.29,0.97,-96.77,23.32,178.84,0.06,0.16,0.14,0.69,0.65,1.59,-183.19,14.33,11.16,0.37,0.08,0.16,0.51,0.56,0.65,-124.47,40.73,21.55,0.48,0.43,0.73,0.95,1.7,1.79
0.7,-151.08,32.89,163.47,0.25,0.3,0.31,1.02,0.23,0.92,-96.49,23.75,178.7,0.23,0.31,-0.04,0.82,0.54,1.65,-183.48,14.53,11.51,0.21,0.16,0.1,0.51,0.43,0.57,-124.42,41.44,22.06,0.57,0.32,0.82,0.72,1.74,1.51
0.71,-151.13,33.06,163.27,0.18,0.16,-0.1,0.94,0.44,0.99,-96.45,23.63,178.53,0.19,0.06,0.12,0.73,0.52,1.5,-183.5,14.46,11.8,0.17,0.15,0.22,0.39,0.4,0.36,-124.46,41.62,22.63,0.68,0.44,0.7,0.7,1.74,1.28
0.72,-151.22,33.18,163.4,0.2,0.33,-0.02,0.87,0.51,0.61,-96.47,23.63,178.24,0.17,0.17,0.17,0.76,0.72,1.4,-183.34,14.69,11.74,0.26,0.16,0.16,0.47,0.38,0.36,-124.42,41.9,23.18,0.42,0.46,0.63,0.61,1.47,1.17
0.73,-151.34,33.31,163.39,0.25,0.16,0.0,0.86,0.38,0.87,-96.51,24.03,178.37,0.24,0.24,-0.02,0.92,0.53,1.36,-183.49,14.56,11.79,0.22,0.12,0.1,0.32,0.49,0.32,-124.6,42.16,23.37,0.5,0.4,0.71,0.89,1.48,0.94
0.74,-151.49,33.49,163.55,0.42,0.06,0.04,0.75,0.25,0.82,-96.13,24.15,178.27,0.15,0.11,0.15,0.55,0.45,1.11,-183.25,14.87,11.96,0.33,0.3,0.18,0.58,0.46,0.47,-124.89,42.39,24.19,0.54,0.45,0.63,0.73,1.41,0.89
0.75,-151.56,33.97,163.47,-0.02,0.38,0.24,0.91,0.51,0.43,-96.14,24.54,177.96,0.34,0.11,0.12,0.54,0.52,1.04,-183.48,15.18,12.06,0.25,0.22,0.17,0.68,0.39,0.41,-125.28,42.52,25.2,0.47,0.49,0.6,0.95,1.4,0.96
0.76,-151.84,34.48,163.6,0.21,0.35,0.07,0.8,0.43,0.59,-96.11,24.91,177.77,0.3,0.08,0.08,0.49,0.48,0.95,-183.33,15.48,11.55,0.09,0.35,0.15,0.38,0.54,0.7,-125.88,43.07,26.09,0.41,0.51,0.47,0.82,1.17,0.94
0.77,-151.75,34.83,163.57,0.09,0.22,0.2,0.55,0.19,0.41,-95.86,25.32,177.63,0.19,0.17,0.11,0.8,0.73,1.07,-183.11,15.86,11.36,0.37,0.2,0.04,0.6,0.34,0.46,-126.44,43.02,26.88,0.38,0.29,0.4,0.71,1.09,1.26
0.78,-152.19,35.22,163.68,0.31,0.25,0.13,0.8,0.51,0.68,-95.78,25.41,177.45,0.22,0.3,-0.1,0.73,0.51,0.8,-183.41,16.06,10.72,0.26,0.35,0.29,0.85,0.56,0.5,-126.84,43.08,27.78,0.38,0.34,0.17,0.65,0.9,0.82
0.79,-152.21,35.55,163.78,0.18,0.39,0.07,0.51,0.45,0.48,-95.82,25.86,177.12,0.13,0.23,0.15,0.74,0.41,0.72,-183.29,16.3,9.74,0.24,0.12,0.06,0.79,0.42,0.5,-127.03,43.27,28.68,0.49,0.24,0.23,0.85,0.89,1.0
0.8,-152.4,35.8,163.8,-0.09,0.39,0.08,0.58,0.35,0.4,-95.82,26.08,176.86,0.27,0.04,-0.07,0.7,0.5,0.63,-183.49,16.96,9.09,0.33,0.15,0.23,0.69,0.38,0.67,-127.82,42.93,29.33,0.31,0.39,0.41,0.7,0.69,0.94
0.81,-152.41,36.49,163.77,0.26,0.3,0.19,0.7,0.37,0.28,-95.65,26.53,176.84,0.19,0.28,0.02,0.63,0.44,0.66,-183.5,17.35,8.16,0.37,0.35,0.16,0.8,0.48,0.61,-128.08,43.15,30.21,0.3,0.23,0.19,0.66,0.6,1.16
0.82,-152.75,36.69,163.81,0.15,0.32,0.15,0.7,0.51,0.5,-95.7,26.57,176.86,0.21,0.22,0.1,0.88,0.58,0.75,-183.77,17.67,7.35,0.58,0.07,0.23,0.77,0.47,0.74,-128.8,43.12,31.0,0.32,0.34,0.25,0.55,0.53,1.23
0.83,-152.98,37.29,163.9,0.0,0.24,0.05,0.72,0.38,0.2,-95.33,26.85,176.86,0.16,0.22,-0.13,0.64,0.48,0.76,-183.86,17.95,6.16,0.35,0.15,0.32,0.96,0.26,0.81,-128.79,43.04,31.73,0.46,0.12,0.24,0.64,0.59,1.21
0.84,-153.19,37.49,163.51,0.25,0.21,0.18,0.7,0.67,0.37,-95.27,27.06,176.74,0.18,0.19,0.07,0.92,0.55,0.63,-184.18,18.32,5.53,0.61,0.35,0.55,0.73,0.62,0.89,-128.84,43.46,32.37,0.5,0.28,0.22,0.74,0.49,1.23
0.85,-153.2,37.83,163.49,0.12,0.39,0.14,0.81,0.48,0.56,-95.38,27.3,176.6,0.12,0.19,0.06,0.72,0.68,0.78,-184.63,18.69,4.65,0.85,0.11,0.55,0.64,0.43,1.11,-128.93,43.57,32.87,0.35,0.21,0.27,0.57,0.31,1.0
0.86,-153.35,38.29,163.43,0.11,0.43,-0.01,0.95,0.47,0.75,-95.21,27.59,176.54,0.25,0.13,0.01,0.73,0.52,0.76,-184.84,19.0,3.85,0.7,0.03,0.44,0.79,0.61,1.03,-129.0,43.8,33.45,0.64,0.25,0.26,0.71,0.55,1.18
0.87,-153.49,38.62,163.62,0.2,0.33,0.07,1.16,0.5,0.62,-94.82,27.75,176.45,0.11,0.25,0.08,1.01,0.51,0.93,-185.64,19.38,3.07,0.99,0.2,0.74,0.65,0.5,0.98,-128.69,43.96,34.26,0.35,0.33,0.21,0.51,0.4,0.83
0.88,-153.63,38.89,163.73,0.18,0.59,0.19,1.08,0.46,0.77,-94.79,27.92,176.47,0.14,0.27,0.12,0.93,0.57,0.81,-185.95,19.5,2.84,1.04,0.04,0.65,0.61,0.56,1.0,-128.36,44.3,34.62,0.76,0.23,0.28,0.58,0.61,0.89
0.89,-153.63,39.39,163.72,0.18,0.6,0.11,1.02,0.51,0.87,-94.58,28.15,176.36,0.21,0.42,0.09,0.82,0.41,0.73,-186.54,19.65,2.93,0.93,0.23,0.66,0.47,0.49,1.1,-127.96,44.68,35.05,0.44,0.18,0.35,0.56,0.54,0.86
0.9,-153.77,39.57,163.71,0.31,0.44,0.1,1.14,0.56,0.76,-94.54,28.15,176.61,0.03,0.21,0.02,0.87,0.73,1.03,-186.84,19.82,3.09,1.07,0.19,0.59,0.58,0.5,0.92,-127.82,44.75,35.07,0.54,0.24,0.07,0.5,0.66,0.94
0.91,-153.73,39.76,163.66,0.27,0.49,0.16,1.12,0.47,0.65,-94.49,28.49,176.52,0.05,-0.01,0.28,1.0,0.53,1.0,-187.13,19.81,3.04,1.05,0.04,0.6,0.54,0.38,1.05,-127.66,45.15,35.65,0.55,0.17,0.14,0.4,0.64,0.71
0.92,-153.63,40.43,163.67,0.14,0.52,0.08,1.07,0.44,0.73,-94.32,28.66,176.41,0.01,0.35,-0.08,1.07,0.51,0.84,-187.82,19.85,3.42,1.1,-0.04,0.69,0.53,0.66,0.98,-127.08,45.33,35.84,0.5,0.11,0.34,0.44,0.62,0.83
0.93,-153.46,40.58,163.87,0.05,0.41,0.01,0.93,0.41,0.87,-94.13,29.11,176.32,0.11,0.41,0.14,0.78,0.66,0.73,-188.22,20.05,4.29,1.07,-0.13,0.73,0.76,0.64,0.91,-126.85,45.99,36.2,0.56,0.28,0.27,0.51,0.67,0.47
0.94,-153.54,41.47,163.76,0.13,0.56,0.05,1.0,0.54,0.73,-94.06,29.44,176.42,0.06,0.45,0.15,0.84,0.57,0.78,-188.72,20.08,5.22,1.31,0.35,0.86,0.54,0.62,0.92,-126.25,46.33,36.65,0.55,0.25,0.42,0.72,0.7,0.54
0.95,-153.05,41.98,164.02,0.12,0.54,0.19,0.94,0.57,0.71,-93.93,29.82,176.32,0.15,0.43,0.06,0.89,0.65,0.56,-189.37,19.96,6.18,1.06,-0.0,0.67,0.68,0.49,0.95,-125.85,46.74,37.11,0.47,0.22,0.24,0.44,0.68,0.4
0.96,-152.79,42.59,164.06,0.32,0.61,0.01,0.76,0.54,1.05,-93.64,30.12,176.42,0.25,0.43,0.15,0.85,0.57,0.79,-189.88,19.81,7.85,1.23,0.16,0.71,0.59,0.38,0.8,-125.5,46.98,37.38,0.29,0.18,0.22,0.41,0.63,0.51
0.97,-152.28,43.24,164.32,0.23,0.5,0.03,0.81,0.48,0.77,-93.58,30.76,175.96,0.23,0.44,0.11,0.75,0.52,0.56,-190.51,19.82,9.36,1.03,-0.03,0.73,0.7,0.63,0.93,-125.08,47.34,37.79,0.42,0.16,0.39,0.16,0.58,0.06
0.98,-151.55,43.98,164.48,0.2,0.5,0.12,0.81,0.16,0.69,-93.44,31.36,175.98,-0.0,0.46,0.05,0.71,0.59,0.54,-191.08,19.78,10.88,1.21,0.14,0.6,0.74,0.46,0.64,-124.5,47.67,37.89,0.36,0.24,0.13,0.5,0.82,0.4
0.99,-150.96,44.67,164.28,0.31,0.69,0.06,0.44,0.49,0.84,-93.23,31.54,176.18,0.07,0.54,0.03,0.59,0.58,0.74,-191.72,19.92,12.59,1.23,0.21,0.58,0.94,0.52,0.94,-124.19,47.92,38.25,0.3,0.21,0.24,0.38,0.57,0.31
1.0,-150.16,45.46,164.56,0.24,0.7,0.11,0.44,0.44,0.4,-92.95,32.17,175.7,0.05,0.42,0.11,0.49,0.6,0.44,-192.12,19.78,14.16,0.98,0.08,0.63,0.89,0.57,0.81,-123.82,48.31,38.7,0.4,0.18,0.15,0.4,0.61,0.48
1.01,-149.32,46.16,164.59,0.19,0.67,-0.0,0.33,0.24,0.76,-92.72,32.75,175.75,0.02,0.45,0.08,0.42,0.9,0.42,-192.77,19.82,16.01,1.11,0.21,0.79,1.18,0.68,0.79,-123.62,48.56,39.06,0.47,0.15,0.36,0.05,0.62,0.33
1.02,-147.95,47.55,164.92,0.19,0.85,0.16,0.45,0.33,0.63,-92.56,33.44,175.69,0.12,0.47,0.01,0.39,0.78,0.31,-193.21,19.72,17.75,0.97,0.1,0.82,1.07,0.59,0.8,-123.53,48.64,39.28,0.34,0.16,0.12,0.35,0.61,0.39
1.03,-147.06,48.38,165.08,0.16,0.75,0.31,0.31,0.16,0.55,-92.72,34.08,175.19,0.12,0.57,-0.02,0.25,0.67,0.24,-193.65,19.85,19.11,1.11,0.04,0.74,1.12,0.63,0.88,-123.13,48.68,39.62,0.41,0.13,0.02,0.26,0.54,0.42
1.04,-145.95,49.51,165.32,0.13,0.65,0.04,0.26,0.26,0.47,-92.55,34.72,175.14,0.18,0.61,-0.08,0.4,0.61,0.39,-194.15,19.6,20.73,0.86,0.08,0.82,0.92,0.43,0.68,-122.94,48.8,40.22,0.27,0.13,0.17,0.36,0.62,0.47
1.05,-144.88,50.36,165.45,0.09,0.85,0.17,0.34,0.16,0.68,-92.15,35.47,175.01,0.09,0.65,0.16,0.54,0.74,0.48,-194.6,19.75,22.42,1.21,0.21,0.55,1.01,0.56,0.76,-122.82,49.25,40.8,0.24,0.1,0.07,0.34,0.66,0.34
1.06,-143.63,51.58,165.65,0.17,0.71,0.27,0.21,0.26,0.5,-92.26,35.95,174.97,0.05,0.61,-0.11,0.14,0.5,0.3,-195.12,19.66,23.82,0.99,0.24,0.59,1.04,0.64,0.76,-122.46,49.42,41.43,0.38,0.15,0.19,0.25,0.77,0.34
1.07,-142.45,52.84,166.08,0.09,0.82,0.15,0.31,0.34,0.42,-92.03,36.88,174.65,0.2,0.56,0.2,0.53,0.63,0.27,-195.46,19.43,25.5,1.16,0.18,0.7,0.9,0.55,0.83,-122.32,49.69,42.19,0.53,0.12,0.16,0.38,0.52,0.19
1.08,-141.94,53.33,165.91,0.1,0.88,0.24,0.38,0.13,0.29,-91.9,37.33,174.63,0.19,0.68,0.07,0.33,0.59,0.06,-195.55,19.58,26.25,1.18,0.15,0.7,0.76,0.59,0.85,-122.15,49.95,42.82,0.45,0.15,0.33,0.29,0.65,0.38
1.09,-141.2,53.93,166.23,0.02,0.8,0.29,0.26,0.4,0.33,-91.76,37.64,174.61,0.14,0.85,-0.09,0.15,0.61,0.36,-195.94,19.7,26.84,1.3,0.24,0.66,0.68,0.71,0.9,-122.11,49.93,43.05,0.32,0.15,0.24,0.31,0.72,0.39
1.1,-140.15,55.13,166.43,0.01,1.11,0.29,0.25,0.26,0.45,-91.7,38.66,174.23,0.16,0.9,-0.06,0.32,0.61,0.3,-196.2,19.71,28.47,1.19,0.14,0.53,0.72,0.6,0.91,-121.97,50.37,43.89,0.34,0.16,0.44,0.23,0.62,0.43
1.11,-138.93,56.4,166.73,0.18,0.92,0.21,0.45,0.35,0.28,-91.54,39.45,174.02,0.2,0.7,-0.06,0.32,0.24,0.39,-196.73,19.46,30.15,1.25,0.05,0.5,0.39,0.68,0.89,-121.54,50.72,44.95,0.51,0.34,0.33,0.08,0.79,0.45
1.12,-138.17,57.75,166.9,0.11,0.95,0.31,0.23,0.27,0.37,-91.66,40.54,173.91,0.11,0.91,-0.05,0.36,0.45,0.28,-197.15,19.05,31.82,1.47,0.21,0.62,0.38,0.44,0.8,-121.2,51.35,45.96,0.51,0.12,0.45,0.06,0.72,0.2
1.13,-137.17,59.06,167.17,0.34,1.09,-0.06,0.32,0.24,0.45,-91.52,41.44,173.75,0.08,0.77,-0.02,0.51,0.39,0.25,-197.44,18.86,33.57,1.34,-0.08,0.49,0.5,0.56,0.58,-121.03,51.91,47.04,0.48,0.31,0.37,-0.03,0.79,0.14
1.14,-136.22,60.25,167.4,0.06,0.95,0.22,0.42,0.24,0.26,-91.57,42.65,173.66,0.14,0.88,0.11,0.47,0.6,0.22,-198.09,18.68,35.18,1.45,0.12,0.62,0.46,0.53,0.62,-120.66,52.56,48.35,0.43,0.35,0.17,0.12,0.61,0.04
1.15,-135.61,61.66,167.53,0.26,0.94,0.3,0.54,0.37,0.24,-91.5,43.81,173.51,0.1,0.93,0.29,0.62,0.29,0.31,-198.34,18.29,36.9,1.5,0.34,0.67,0.33,0.32,0.75,-120.28,53.0,49.51,0.44,0.2,0.2,0.03,0.92,0.21
1.16,-134.91,63.14,167.47,0.15,1.11,0.2,0.55,0.43,0.27,-91.37,44.8,173.26,-0.01,0.8,0.09,0.52,0.14,0.3,-198.39,18.03,38.76,1.56,0.16,0.52,0.36,0.77,0.43,-120.07,53.65,50.72,0.36,0.43,0.5,0.02,0.81,0.31
1.17,-134.31,64.27,167.42,0.14,0.91,0.2,0.55,0.43,0.09,-91.8,45.98,173.2,0.09,0.97,0.04,0.68,0.24,0.29,-198.65,17.8,40.57,1.65,0.05,0.51,0.21,0.43,0.72,-119.75,54.05,51.95,0.45,0.35,0.37,0.04,0.77,0.06
1.18,-133.83,65.68,167.29,0.14,0.8,0.14,0.72,0.5,0.09,-91.73,47.18,173.16,0.07,0.84,0.1,0.72,0.37,0.38,-198.93,17.45,42.58,1.6,0.16,0.35,0.27,0.71,0.35,-119.48,54.74,53.12,0.37,0.35,0.36,0.21,0.75,0.08
1.19,-133.6,67.07,167.15,0.01,0.89,0.24,0.82,0.47,0.32,-91.99,48.57,172.9,0.3,0.93,0.11,0.58,0.26,0.4,-199.29,17.05,44.48,1.79,-0.06,0.59,0.23,0.46,0.37,-119.2,55.26,54.46,0.42,0.47,0.33,0.13,0.73,0.06
1.2,-133.37,68.49,166.35,0.03,0.79,0.09,0.81,0.8,0.14,-92.07,49.71,172.91,0.11,0.86,0.09,0.5,0.4,0.47,-199.39,16.95,46.06,1.79,0.11,0.49,0.41,0.58,0.55,-118.76,55.97,55.86,0.27,0.49,0.5,0.14,0.87,0.08
1.21,-133.3,69.68,165.89,0.3,0.78,0.03,0.69,0.55,0.28,-92.41,50.86,172.65,0.13,0.79,0.02,0.36,0.2,0.36,-199.17,16.61,48.09,1.75,0.12,0.31,0.39,0.78,0.54,-118.5,56.65,56.89,0.31,0.73,0.49,0.12,0.8,0.13
1.22,-133.24,70.67,165.47,0.13,0.74,-0.0,0.74,0.5,0.35,-92.61,51.99,172.6,0.03,1.12,0.06,0.37,0.47,0.56,-199.03,16.53,49.51,1.66,-0.12,0.45,0.38,0.76,0.52,-118.19,57.33,58.07,0.32,0.59,0.53,0.22,0.86,0.31
1.23,-133.22,71.89,164.63,0.18,0.73,-0.01,0.93,0.5,0.49,-93.21,53.22,172.26,0.04,0.98,0.12,0.43,0.32,0.38,-198.87,16.47,51.61,1.77,0.15,0.16,0.43,0.55,0.56,-117.97,57.9,59.21,0.54,0.72,0.57,0.26,0.82,0.1
1.24,-133.53,73.07,164.06,0.19,0.51,0.04,0.93,0.67,0.45,-93.39,54.34,172.03,0.11,1.09,0.02,0.52,0.81,0.41,-198.4,16.47,53.46,1.54,0.13,0.26,0.42,0.74,0.59,-117.56,58.45,60.6,0.48,0.66,0.49,0.12,0.83,0.09
1.25,-133.74,74.03,163.16,0.3,0.7,-0.01,0.92,0.54,0.53,-93.59,55.69,171.87,-0.01,0.98,0.0,0.41,0.77,0.42,-198.25,16.28,55.06,1.7,0.2,0.1,0.5,0.58,0.46,-117.43,59.0,61.89,0.36,0.65,0.36,-0.0,0.84,0.24
1.26,-133.89,74.39,162.9,0.22,0.66,-0.09,1.04,0.53,0.35,-94.2,56.12,171.76,0.01,1.12,0.06,0.32,0.88,0.24,-197.82,16.57,55.98,1.56,0.09,0.26,0.51,0.66,0.46,-117.04,59.27,62.47,0.27,0.71,0.54,0.29,1.02,0.02
1.27,-133.96,74.98,162.49,0.19,0.59,0.01,0.9,0.32,0.28,-94.31,56.72,171.68,-0.06,1.05,0.08,0.33,0.79,0.52,-197.64,16.56,56.93,1.71,0.26,0.06,0.51,0.75,0.71,-117.05,59.71,63.02,0.33,0.77,0.27,0.2,0.82,0.23
1.28,-134.32,75.68,161.94,0.48,0.67,0.2,0.92,0.6,0.39,-94.84,57.9,171.42,0.31,0.96,0.09,0.29,0.8,0.52,-197.1,16.83,58.47,1.48,0.14,0.16,0.61,0.76,0.59,-116.59,60.14,64.25,0.45,0.78,0.38,0.43,0.86,0.09
1.29,-134.35,76.49,161.7,0.48,0.54,0.26,1.0,0.58,0.32,-95.4,59.02,171.15,0.13,0.95,0.06,0.45,0.89,0.57,-196.35,17.17,60.38,1.7,-0.03,0.14,0.5,0.81,0.66,-116.51,60.88,65.52,0.31,0.79,0.51,0.06,0.88,0.23
1.3,-134.48,77.13,161.43,0.26,0.47,0.12,0.88,0.77,0.55,-96.25,60.09,170.9,-0.01,0.93,0.22,0.31,0.84,0.51,-195.45,17.66,62.25,1.61,0.21,0.52,0.4,0.79,0.74,-116.06,61.27,66.85,0.44,0.75,0.54,0.27,1.14,0.26
1.31,-134.68,77.68,161.39,0.28,0.18,0.21,0.72,0.57,0.47,-96.89,61.13,170.31,0.24,0.96,0.21,0.34,0.97,0.58,-194.78,17.95,63.78,1.58,0.01,0.31,0.48,0.81,0.86,-115.94,62.06,68.14,0.37,1.05,0.58,0.37,0.91,0.34
1.32,-134.68,78.34,161.5,0.2,0.39,0.36,0.97,0.81,0.66,-97.36,62.12,169.91,0.1,0.81,0.15,0.26,1.06,0.75,-193.79,18.7,65.67,1.7,0.2,0.36,0.52,0.92,0.87,-115.52,62.56,69.47,0.42,0.85,0.46,0.53,0.92,0.19
1.33,-134.54,78.95,162.18,0.23,0.19,0.18,0.78,0.54,0.53,-98.13,63.12,169.59,0.26,1.05,0.1,0.6,1.06,0.45,-192.78,19.17,67.33,1.63,0.08,0.39,0.79,0.87,0.69,-115.16,63.18,70.81,0.42,0.93,0.38,0.5,1.22,0.19
1.34,-134.5,79.26,162.74,0.37,0.41,0.22,0.7,0.62,0.77,-98.49,63.88,169.07,0.09,0.99,0.14,0.67,1.0,0.72,-191.83,19.74,69.18,1.51,0.01,0.72,0.59,0.62,0.59,-115.13,63.55,71.87,0.36,1.05,0.49,0.4,1.07,0.17
1.35,-134.21,79.64,163.48,0.22,0.27,0.27,0.78,0.61,0.6,-99.16,64.9,168.7,0.09,0.94,0.18,0.39,0.93,0.77,-190.76,20.69,70.82,1.31,0.19,0.57,0.74,1.05,0.76,-114.66,64.14,73.35,0.39,1.05,0.5,0.5,0.9,0.21
1.36,-133.66,79.93,164.71,0.25,0.23,0.04,0.53,0.56,0.62,-99.44,65.61,168.1,0.17,0.92,0.06,0.18,0.97,0.52,-189.66,21.28,72.37,1.32,0.05,0.58,0.64,0.93,0.77,-114.37,64.64,74.55,0.23,0.99,0.33,0.39,1.03,0.21
1.37,-133.18,80.14,165.98,0.23,0.25,0.14,0.69,0.62,0.74,-99.77,66.28,167.54,0.23,0.83,0.15,0.58,0.92,0.43,-188.52,22.03,74.09,1.33,0.29,0.74,0.83,0.84,1.11,-113.96,65.21,75.69,0.39,0.93,0.6,0.54,1.04,0.13
1.38,-132.72,80.63,167.09,0.26,-0.06,0.25,0.36,0.49,0.61,-99.87,66.9,166.96,0.36,0.6,0.15,0.42,0.96,0.68,-187.3,22.91,75.78,1.22,0.27,0.61,0.74,0.94,0.71,-113.87,65.74,76.82,0.23,1.11,0.65,0.42,0.96,0.23
1.39,-132.29,81.03,168.43,0.23,0.25,0.13,0.56,0.6,0.77,-100.01,67.59,166.15,0.36,0.54,0.06,0.4,0.83,0.76,-186.32,23.51,77.49,1.11,0.1,0.64,0.9,1.06,0.91,-113.51,66.39,77.77,0.27,1.23,0.61,0.51,1.01,0.26
1.4,-131.64,80.99,169.71,0.23,0.14,0.16,0.27,0.44,0.61,-99.74,68.14,165.22,0.58,0.66,0.28,0.72,0.99,0.71,-185.29,24.77,78.96,1.42,0.18,0.79,0.91,0.84,0.95,-113.25,66.85,78.91,0.31,1.18,0.55,0.53,1.04,0.25
1.41,-130.87,81.1,170.99,0.31,0.3,0.2,0.35,0.46,0.57,-99.29,68.64,164.53,0.36,0.42,0.24,0.62,0.6,0.76,-184.27,25.47,80.44,1.24,0.34,0.6,1.0,1.09,1.09,-112.89,67.34,79.98,0.44,1.26,0.49,0.27,0.83,0.2
1.42,-130.2,81.38,172.3,0.37,-0.02,0.17,0.25,0.65,0.56,-98.72,69.08,163.82,0.58,0.54,-0.07,0.74,0.48,0.91,-182.89,26.17,82.09,1.42,0.57,0.5,1.11,1.21,1.14,-112.57,68.06,80.59,0.38,1.3,0.44,0.41,1.02,0.08
1.43,-129.46,81.34,173.44,0.17,0.09,0.15,0.09,0.57,0.69,-98.3,69.62,162.63,0.91,0.68,0.16,0.76,0.6,1.05,-182.09,26.94,83.63,1.24,0.36,0.69,1.0,1.16,1.0,-112.27,68.76,81.55,0.25,1.53,0.6,0.48,1.04,0.23
1.44,-129.11,81.53,173.97,0.13,0.11,-0.01,0.21,0.53,0.31,-97.68,70.01,162.18,0.7,0.55,0.21,0.84,0.63,1.23,-181.61,27.26,84.21,1.33,0.32,0.73,0.95,1.08,1.13,-112.06,69.25,82.04,0.34,1.29,0.46,0.52,1.06,0.04
1.45,-128.81,81.71,174.57,0.24,0.24,0.23,0.44,0.56,0.52,-97.24,70.02,161.87,0.79,0.6,0.21,0.76,0.72,1.27,-181.4,27.57,85.18,1.15,0.43,0.66,1.05,1.06,0.91,-111.94,69.55,82.32,0.39,1.25,0.64,0.46,0.96,0.09
1.46,-128.2,81.71,175.42,0.18,0.38,0.05,0.27,0.56,0.33,-96.47,70.57,160.5,0.97,0.72,0.2,0.81,0.62,1.45,-180.48,28.46,86.88,1.19,0.35,0.47,1.08,1.11,1.04,-111.67,70.12,83.24,0.1,1.24,0.76,0.57,1.05,0.07
1.47,-127.67,81.93,176.45,0.31,0.38,0.13,0.37,0.63,0.49,-95.51,71.2,159.34,1.1,0.49,0.29,0.98,0.74,1.52,-179.78,28.88,88.11,1.15,0.55,0.75,1.16,1.11,0.93,-111.39,70.57,84.41,0.26,1.59,0.57,0.35,1.07,0.26
1.48,-127.26,81.89,177.26,0.13,0.15,0.01,0.2,0.52,0.41,-94.56,71.73,157.93,1.02,0.6,0.13,1.1,0.56,1.56,-178.77,29.83,89.69,1.21,0.53,0.42,1.14,1.15,0.9,-111.24,71.17,85.74,0.3,1.5,0.52,0.51,1.15,0.31
1.49,-126.68,82.05,178.0,0.33,0.03,-0.11,0.33,0.39,0.37,-93.89,72.32,156.32,1.25,0.84,0.14,1.08,0.59,1.56,-178.3,30.29,91.17,1.12,0.55,0.45,1.05,1.26,0.76,-110.85,71.83,87.28,0.32,1.44,0.6,0.27,1.25,0.43
1.5,-126.44,82.15,178.56,0.27,0.16,-0.05,0.11,0.53,0.24,-93.24,72.88,154.52,1.26,0.71,0.18,0.92,0.52,1.58,-177.53,31.03,92.75,1.14,0.53,0.5,0.84,1.27,0.7,-110.51,72.43,89.13,0.05,1.54,0.6,0.47,1.17,0.19
1.51,-126.27,82.29,179.04,0.17,0.22,0.02,0.26,0.23,0.4,-92.46,73.49,152.68,1.0,0.67,0.12,0.91,0.58,1.54,-176.74,31.72,94.87,1.02,0.48,0.38,1.13,1.21,0.79,-110.07,72.89,91.52,0.2,1.46,0.55,0.69,1.23,0.37
1.52,-125.95,82.47,179.33,0.08,0.14,-0.02,0.39,0.52,0.31,-91.96,74.14,150.32,0.99,0.84,0.14,1.02,0.32,1.59,-176.14,32.17,96.42,1.08,0.43,0.68,1.12,1.17,0.61,-109.98,73.35,94.45,0.11,1.55,0.6,0.35,1.03,0.38
1.53,-125.96,82.76,179.56,0.17,0.03,0.19,0.46,0.27,0.37,-91.57,74.96,148.06,0.84,0.66,0.3,0.81,0.43,1.48,-175.35,33.03,98.34,0.86,0.52,0.51,1.25,1.16,0.64,-109.65,73.81,97.67,0.07,1.47,0.51,0.62,1.22,0.15
1.54,-125.48,82.7,179.61,0.12,0.16,0.15,0.34,0.27,0.41,-91.36,75.81,145.45,0.96,0.75,0.22,0.85,0.27,1.15,-174.7,33.41,100.18,0.87,0.53,0.56,1.22,1.13,0.63,-109.29,74.01,101.51,0.11,1.42,0.84,0.49,1.18,0.61
1.55,-125.56,82.8,179.52,0.22,0.32,0.07,0.33,0.18,0.47,-91.15,76.6,142.87,0.79,0.89,0.31,0.71,0.37,0.99,-174.13,34.06,102.04,0.85,0.52,0.57,1.25,1.01,0.76,-108.7,74.33,105.69,0.17,1.52,0.76,0.65,1.13,0.33
1.56,-125.12,82.87,179.38,0.1,0.07,0.03,0.46,0.07,0.43,-90.91,77.24,139.78,0.78,0.77,0.12,0.81,0.46,0.75,-173.04,34.84,103.91,0.56,0.47,0.79,1.33,0.91,0.68,-108.61,74.47,110.22,0.3,1.61,0.67,0.7,1.19,0.56
1.57,-125.12,83.04,179.03,0.16,0.27,0.13,0.37,0.28,0.38,-90.73,77.84,136.78,0.58,0.74,0.06,0.56,0.41,0.53,-172.3,35.44,105.53,0.61,0.63,0.52,1.02,1.1,0.84,-108.1,74.34,115.14,0.45,1.17,0.69,0.74,0.92,0.6
1.58,-124.88,83.03,178.27,0.15,0.15,0.18,0.56,0.14,0.64,-90.87,78.32,133.77,0.53,0.61,0.1,0.53,0.21,0.37,-171.55,36.01,107.4,0.59,0.48,0.48,1.43,1.03,0.7,-107.44,74.26,120.12,0.3,1.45,0.74,0.89,1.15,0.42
1.59,-124.64,82.97,177.26,0.04,0.16,0.01,0.49,0.25,0.41,-90.75,79.1,130.67,0.23,0.69,0.14,0.36,0.33,0.48,-170.87,36.71,108.96,0.51,0.2,0.65,1.14,1.04,0.86,-107.09,74.02,125.17,0.45,1.73,0.78,0.99,1.1,0.66
1.6,-124.12,83.02,176.38,0.27,-0.05,-0.08,0.52,0.15,0.63,-90.69,79.47,127.57,0.26,0.51,0.13,0.67,0.31,0.26,-170.1,37.28,110.17,0.69,0.43,0.5,1.18,1.16,0.77,-106.22,73.51,130.08,0.35,1.39,0.91,0.99,1.0,0.41
1.61,-123.84,82.88,174.93,0.19,0.33,0.22,0.35,0.18,0.67,-90.57,79.82,125.09,0.15,0.44,0.06,0.44,0.47,0.26,-169.33,37.75,111.62,0.48,0.48,0.57,1.09,1.15,0.88,-105.61,72.67,135.55,0.33,1.57,0.55,0.79,0.83,0.64
1.62,-123.49,82.72,174.4,0.22,0.27,0.15,0.63,0.19,0.71,-90.53,80.11,123.63,0.24,0.49,-0.02,0.62,0.3,0.05,-168.96,38.34,112.06,0.49,0.23,0.63,1.03,1.21,0.99,-105.25,72.17,138.16,0.35,1.56,0.76,1.02,0.95,0.51
1.63,-123.24,82.62,173.72,0.35,0.08,0.06,0.45,0.16,0.64,-90.29,80.05,122.55,0.17,0.32,0.06,0.5,0.34,0.45,-168.69,38.47,112.63,0.23,0.4,0.68,0.96,1.12,1.03,-104.76,71.88,140.29,0.2,1.47,0.63,0.88,0.81,0.58
1.64,-122.79,82.72,172.15,0.22,0.15,0.15,0.41,0.26,0.61,-90.31,80.29,120.43,0.16,0.24,0.02,0.3,0.33,0.37,-167.91,38.89,113.68,0.48,0.52,0.46,1.11,1.28,0.89,-104.02,70.59,145.08,0.48,1.49,0.49,0.71,0.84,0.71
1.65,-122.17,82.21,170.63,0.43,0.12,0.14,0.53,0.08,0.44,-90.03,80.63,118.27,0.24,0.21,0.08,0.46,0.59,0.14,-167.28,39.16,114.28,0.2,0.31,0.63,0.94,1.24,1.22,-103.08,69.44,149.49,0.3,1.6,0.46,1.0,0.55,0.49
1.66,-121.52,82.13,168.8,0.31,0.24,0.06,0.32,0.29,0.68,-90.02,80.69,116.59,0.24,0.08,-0.03,0.45,0.8,0.16,-166.83,40.06,114.96,0.28,0.23,0.51,1.07,1.69,0.88,-101.97,68.12,153.47,0.36,1.76,0.54,0.86,0.39,0.5
1.67,-120.71,81.72,167.41,0.3,0.27,0.33,0.41,0.62,0.51,-89.42,80.97,115.44,0.1,0.13,0.15,0.38,0.53,0.17,-166.13,40.34,115.64,0.37,-0.04,0.65,0.76,1.72,0.96,-101.09,66.46,156.95,0.45,1.36,0.66,0.6,0.53,0.53
1.68,-120.29,81.53,165.4,0.14,0.2,0.05,0.52,0.24,0.35,-89.23,81.09,114.37,0.34,0.07,0.2,0.55,0.56,0.14,-165.66,40.71,115.98,0.35,0.26,0.51,0.88,1.83,1.13,-99.86,64.76,160.17,0.52,1.55,0.64,0.73,0.64,0.51
1.69,-119.57,81.18,164.19,0.39,0.11,0.11,0.48,0.39,0.45,-89.08,81.35,113.91,0.34,0.07,0.1,0.55,0.53,0.19,-165.24,40.94,116.17,0.17,0.11,0.68,0.97,1.97,1.13,-98.74,62.81,162.82,0.53,1.62,0.41,0.47,0.44,0.54
1.7,-118.9,81.05,162.24,0.26,0.03,0.21,0.48,0.51,0.62,-88.74,81.36,113.18,0.23,-0.05,0.1,0.67,0.74,0.2,-164.89,41.42,116.52,0.31,0.26,0.6,0.71,2.02,1.1,-97.42,61.16,165.16,0.39,1.5,0.51,0.49,0.46,0.49
1.71,-118.06,80.67,160.82,0.29,0.28,0.26,0.51,0.71,0.41,-88.52,81.4,112.85,0.13,0.11,0.17,0.57,0.59,0.37,-164.44,41.77,116.4,0.24,-0.02,0.55,0.7,2.17,1.22,-95.77,59.47,166.91,0.38,1.34,0.45,0.39,0.55,0.52
1.72,-117.5,80.6,159.4,0.1,0.07,0.01,0.52,0.68,0.47,-88.39,81.41,112.6,0.56,0.06,0.12,0.63,0.91,0.57,-164.05,42.11,116.69,-0.0,0.17,0.39,0.88,2.14,1.01,-94.59,57.79,168.37,0.53,1.23,0.28,0.16,0.57,0.64
1.73,-116.83,80.46,158.41,0.25,0.22,0.12,0.59,0.87,0.67,-87.96,81.52,112.38,0.51,0.04,0.13,0.51,0.79,0.72,-163.56,42.42,116.86,0.04,0.33,0.5,0.8,2.21,1.09,-93.25,56.19,169.68,0.46,1.27,0.31,0.36,0.47,0.64
1.74,-116.39,80.11,157.27,0.33,0.32,0.24,0.58,0.84,0.36,-87.68,81.51,112.58,0.34,0.18,0.02,0.51,0.79,0.61,-163.34,42.99,116.8,0.25,0.18,0.64,0.73,2.1,1.02,-92.19,54.72,170.45,0.58,1.1,0.35,0.25,0.72,0.45
1.75,-115.71,79.7,156.34,0.14,0.29,0.2,0.42,0.77,0.6,-87.68,81.61,112.41,0.27,0.16,0.23,0.83,0.8,0.78,-162.82,43.29,116.86,0.07,0.03,0.63,0.72,2.17,0.88,-90.84,53.42,171.01,0.46,1.18,0.21,0.36,0.68,0.5
1.76,-115.14,79.43,155.7,0.19,0.54,0.29,0.64,0.72,0.71,-87.42,81.9,112.4,0.39,0.18,0.12,0.71,0.57,0.75,-162.51,43.86,117.28,0.11,0.04,0.49,0.85,1.86,0.75,-90.04,52.35,171.76,0.39,1.05,0.17,0.62,0.85,0.74
1.77,-114.62,79.03,155.31,-0.03,0.24,0.22,0.46,0.67,0.59,-87.04,81.81,112.4,0.41,0.13,0.1,0.89,0.57,0.76,-162.02,43.89,117.57,0.07,0.24,0.52,0.75,1.93,0.97,-89.23,51.3,171.83,0.29,0.81,0.35,0.55,0.93,0.66
1.78,-114.15,78.7,154.98,0.19,0.33,0.17,0.57,0.92,0.66,-86.76,82.3,112.48,0.25,0.14,0.25,0.78,0.6,0.79,-161.91,44.28,117.66,0.22,0.16,0.53,0.77,1.84,0.85,-88.66,50.72,171.89,0.39,0.63,0.45,0.84,1.05,0.64
1.79,-114.07,78.44,154.89,0.0,0.15,0.15,0.6,0.74,0.66,-86.95,82.26,112.71,0.13,0.12,0.17,0.59,0.54,0.77,-161.46,44.7,118.03,0.16,0.32,0.49,0.79,1.56,0.77,-88.1,50.33,172.02,0.45,0.68,0.32,0.91,1.08,0.5
1.8,-113.93,78.42,154.95,-0.0,0.26,0.12,0.45,0.88,0.84,-86.74,82.24,112.77,0.3,0.12,0.1,0.63,0.67,0.75,-161.35,44.72,117.98,0.09,0.25,0.38,0.87,1.55,0.72,-88.04,50.09,172.05,0.43,0.54,0.26,1.07,1.24,0.59
1.81,-113.84,78.08,154.95,0.11,0.19,0.3,0.52,0.6,0.66,-86.69,82.16,112.92,0.25,0.16,0.06,0.69,0.52,0.74,-161.29,44.81,118.17,0.19,0.05,0.44,0.79,1.5,0.46,-87.87,50.19,172.07,0.52,0.5,0.35,1.03,1.23,0.67
1.82,-113.56,77.69,155.3,0.25,0.31,0.23,0.67,0.58,0.67,-86.43,82.13,113.18,0.19,0.23,0.06,0.63,0.71,0.75,-160.87,45.06,118.55,0.2,0.2,0.47,0.91,1.38,0.64,-87.82,50.07,171.93,0.47,0.48,0.16,1.36,1.36,0.66
1.83,-113.6,77.47,155.85,0.28,0.35,0.11,0.44,0.55,0.62,-86.39,82.24,113.82,0.18,0.06,0.03,0.76,0.56,0.76,-160.79,45.32,118.86,0.17,0.41,0.33,0.74,1.39,0.53,-88.32,50.21,171.73,0.41,0.37,0.47,1.63,1.26,0.82
1.84,-113.69,77.06,156.66,0.02,0.46,-0.05,0.58,0.62,0.48,-86.44,82.3,114.34,0.14,-0.0,-0.06,0.76,0.61,0.74,-160.61,45.58,119.32,0.14,0.27,0.44,0.72,1.33,0.47,-88.56,50.49,171.76,0.17,0.13,0.3,1.66,1.41,0.87
1.85,-113.67,76.62,157.58,0.03,0.4,0.04,0.53,0.55,0.59,-86.5,82.42,115.49,0.06,0.45,0.04,0.73,0.55,0.73,-160.21,45.7,119.42,0.2,0.33,0.38,0.78,1.45,0.59,-89.19,50.96,171.67,0.42,0.16,0.43,1.79,1.51,0.88
1.86,-113.98,76.16,158.44,0.21,0.37,-0.04,0.51,0.6,0.51,-86.4,82.22,116.63,0.32,0.39,-0.08,0.73,0.61,0.69,-159.74,45.73,120.12,0.32,0.43,0.6,0.73,1.5,0.58,-90.03,51.46,171.65,0.46,0.13,0.31,1.81,1.51,1.14
1.87,-114.18,76.04,159.39,0.26,0.23,-0.06,0.63,0.5,0.41,-86.21,82.23,118.14,0.24,0.24,0.16,0.44,0.56,0.44,-159.47,45.87,120.22,0.2,0.33,0.43,0.51,1.34,0.58,-90.53,51.94,171.6,0.43,0.14,0.33,1.9,1.22,1.16
1.88,-114.33,75.73,160.31,0.05,0.48,0.11,0.6,0.41,0.56,-86.24,82.16,119.96,0.26,0.44,0.02,0.53,0.85,0.5,-159.22,46.2,120.29,0.28,0.3,0.31,0.79,1.34,0.69,-91.75,52.7,171.55,0.43,0.19,0.36,1.96,1.23,1.03
1.89,-114.67,75.41,161.27,0.26,0.33,0.06,0.54,0.39,0.44,-86.15,81.66,121.89,-0.11,0.17,-0.01,0.62,0.47,0.74,-158.6,46.52,120.59,0.39,0.27,0.46,0.58,1.67,0.81,-92.4,53.14,171.77,0.56,0.33,0.22,1.85,1.34,1.28
1.9,-114.88,74.92,162.15,0.14,0.41,-0.06,0.33,0.47,0.47,-85.97,81.66,123.89,0.03,0.3,-0.13,0.52,0.62,0.24,-158.01,46.54,120.55,0.14,0.26,0.42,0.73,1.77,1.05,-93.36,53.72,171.65,0.47,0.34,0.22,1.77,1.37,1.42
1.91,-115.08,74.57,163.14,0.28,0.4,0.08,0.4,0.52,0.48,-86.44,81.52,126.24,-0.05,0.3,-0.04,0.38,0.58,0.36,-157.35,46.96,120.96,0.47,0.28,0.4,0.54,1.99,1.4,-94.67,54.18,171.82,0.52,0.42,0.41,1.61,1.19,1.7
1.92,-115.39,74.41,163.79,0.19,0.45,0.1,0.42,0.31,0.31,-85.9,81.07,128.71,0.18,0.33,0.08,0.33,0.57,0.44,-156.68,47.22,120.84,0.63,0.36,0.39,0.58,1.96,1.57,-95.58,54.92,172.29,0.45,0.44,0.26,1.36,1.23,1.73
1.93,-115.46,74.05,164.43,0.15,0.34,0.04,0.68,0.33,0.46,-86.01,81.04,131.32,0.18,0.44,0.17,0.32,0.6,0.57,-155.62,47.73,120.97,0.46,0.23,0.52,0.62,2.09,1.62,-96.67,55.42,172.6,0.7,0.57,0.42,1.19,1.21,2.04
1.94,-115.53,73.95,164.9,0.26,0.18,-0.15,0.45,0.21,0.41,-85.93,80.56,134.02,0.03,0.5,-0.07,0.37,0.82,0.51,-155.01,48.27,121.24,0.65,0.21,0.58,0.64,2.21,1.87,-98.08,56.31,172.77,0.62,0.66,0.45,1.19,1.36,2.09
1.95,-115.49,73.54,165.35,0.17,0.17,0.19,0.52,0.4,0.42,-86.0,80.12,136.39,0.22,0.23,0.0,0.62,0.55,0.4,-153.92,48.77,121.5,0.45,0.32,0.72,0.79,2.35,2.19,-99.49,56.72,173.44,0.74,0.44,0.31,1.17,1.19,2.25
1.96,-115.37,73.44,165.72,0.08,0.12,-0.03,0.43,0.15,0.57,-85.97,79.98,138.94,0.15,0.53,0.0,0.41,0.59,0.23,-152.75,49.45,121.86,0.56,0.36,0.57,0.71,2.06,2.32,-101.13,57.79,174.21,0.64,0.65,0.44,1.06,1.42,2.46
1.97,-115.21,73.19,165.9,0.13,0.15,0.17,0.44,0.34,0.44,-86.09,79.61,141.29,0.22,0.35,-0.04,0.29,0.57,0.44,-151.83,50.23,122.54,0.62,0.17,0.74,0.88,2.43,2.23,-102.52,58.3,174.76,0.66,0.89,0.5,0.94,1.32,2.43
1.98,-115.08,72.95,166.12,-0.04,0.11,0.1,0.52,0.21,0.71,-85.98,79.47,142.68,0.13,0.44,0.07,0.33,0.69,0.37,-150.94,50.86,122.69,0.58,0.25,0.69,1.13,2.3,2.33,-103.41,58.59,175.3,0.76,0.84,0.64,0.87,1.4,2.38
1.99,-115.03,73.02,166.08,0.03,0.09,0.17,0.57,0.28,0.33,-85.76,79.21,143.71,0.11,0.47,0.03,0.31,0.37,0.42,-150.59,51.06,122.76,0.58,0.1,0.56,0.96,2.23,2.22,-104.21,59.17,175.87,0.69,0.82,0.59,1.03,1.36,2.42
2.0,-114.68,72.94,166.17,0.16,0.02,0.18,0.47,0.53,0.21,-85.69,78.73,145.7,0.1,0.33,0.21,0.35,0.23,0.38,-149.4,51.9,123.46,0.39,-0.04,0.8,1.16,2.19,2.41,-106.01,59.87,176.72,0.8,0.63,0.7,0.74,1.49,2.12
2.01,-114.38,72.54,166.35,0.03,0.34,0.16,0.52,0.21,0.36,-85.84,78.45,147.62,-0.06,0.25,0.12,0.25,0.46,0.33,-148.18,52.96,123.89,0.31,0.04,0.7,1.39,2.42,2.41,-107.98,60.59,177.62,0.69,0.85,0.89,0.78,1.65,2.04
2.02,-114.31,72.55,166.42,0.23,0.3,0.09,0.37,0.53,0.46,-85.65,77.98,149.73,0.05,0.3,-0.02,0.17,0.62,0.4,-146.72,53.95,124.35,0.44,0.07,0.71,1.1,2.31,2.3,-109.64,61.35,178.67,0.66,0.97,1.08,0.56,1.63,2.04
2.03,-113.94,72.39,166.34,0.01,0.01,0.12,0.56,0.2,0.42,-85.56,77.87,151.21,0.11,0.32,-0.06,0.42,0.55,0.1,-145.68,54.96,125.06,0.21,0.14,0.47,1.54,2.59,2.32,-111.38,62.2,179.56,0.72,0.87,1.12,0.51,1.78,1.8
