0.01,-120.3431934062916,47.35534503358479,188.45972007497815,0.06653908946509121,0.24405080228212214,0.13969778606536154,2.1533399959471806,1.1539148711408034,0.5545500931642706,0.47989746156236024,0.7797729235241384,0.26014287294445615,0.31045672312501965,-109.5027095316665,39.98828948935964,202.6542221576994,0.08099915109512508,1.0378084926380582,0.08218500399487408,1.2553145253115512,0.37744342338772463,0.34383287491781,0.5899056176700888,0.709749932084092,0.3402812744316535,0.17098415668825956,-144.4256305907082,3.8365672930080863,2.95195603290481,0.35359290185712405,0.6911735224721254,0.18566399390764987,0.36453769480861253,0.6508697640115336,1.637411345205376,-0.020232023536473877,0.030168087594586123,-0.9501578481607109,0.3095905488704817,-123.21763154041506,11.207293638263076,6.58383752915399,0.027564431057474914,0.717064016084737,0.12785727205263622,0.7290045227709204,0.6013955193813474,0.09255475110047044,-0.06012665937159604,0.10131479083175793,-0.8696290661174437,0.48002377838666244
0.02,-119.79553914617952,47.40454572215065,188.14812403433086,0.09358603831930892,0.23038244953268436,0.14197108458241944,1.9981639058482918,1.0906073246655925,0.6324141857279589,0.4829739279940232,0.7772664834644661,0.2601782287302602,0.3117700796467371,-109.44681349517737,39.075267886423724,202.72628457716098,0.07673958470728223,0.8979875989884112,0.07697888626253967,1.3613506841955412,0.4286291453058445,0.6771019396523235,0.589843421530688,0.7129024706527638,0.33740512389688443,0.16307895485613794,-144.49948835855028,4.645598766588428,3.3237038425801195,0.3260834389730963,0.6624542049859806,0.16203012906394443,0.3590658555632978,0.551810345324007,1.884483011865237,-0.02640360664025182,0.036649474546876275,-0.9500609592390745,0.30799161440118505,-123.44406653337947,12.100375106764286,6.682792270261054,0.03398132401011445,0.7270875271883818,0.13195835905018985,0.6313172531635114,0.5181816761755158,0.4727966409234517,-0.0665265832016977,0.10444947359918545,-0.8697934047477739,0.4780796773522481
0.03,-119.25926740749954,47.461203061575986,187.84004683090194,0.11896228092910226,0.22005003367030185,0.14426781974453648,1.8540838054867197,1.0296095761547703,0.709928511504998,0.485975168334888,0.7748049593533419,0.26020285416249345,0.31311288381686175,-109.39313242556558,38.175185103446246,202.79939603421528,0.07272361338673636,0.7613334111424741,0.0715612593593354,1.4627398781141994,0.4754753597572571,0.9953158206952373,0.5897823454297662,0.7160114501308693,0.33456819825374173,0.15531619509867406,-144.56047331170257,5.439489674121062,3.68944840198003,0.2982864198783684,0.63213134294576,0.13863004748966645,0.35372827584842675,0.45738695916764904,2.1220250084931935,-0.032436891330547765,0.04298788878931737,-0.9499311148473071,0.30656605326685843,-123.66594450420217,12.982949260845459,6.772241680012239,0.04074197430857306,0.7352190588822345,0.1340344125382634,0.5354117183917729,0.43891739121487255,0.8489327877882634,-0.0729068487693852,0.10750690765757981,-0.8699673104683382,0.4761377329893135
0.04,-118.74168345113817,47.53898643572781,187.53345062236,0.14103887375516544,0.21537825291234564,0.14634915156234599,1.7290635495457494,0.9729188811192263,0.7842753354251041,0.488815093514941,0.7724044233751485,0.2602111024661379,0.3145612023273797,-109.34366672548713,37.310900067016945,202.87290003247008,0.06910635537836221,0.6317867052713686,0.06589463273100844,1.5559689303369755,0.5143623460182072,1.2852392746578687,0.5897295548080974,0.7189967185075625,0.33184315507007567,0.14790304519937603,-144.60964602162807,6.205072591026502,4.04321058926761,0.2703942329622914,0.5990713532093526,0.1168013218587904,0.349515976823875,0.3730313848581179,2.3389873182240195,-0.038224995206518064,0.04904570717068394,-0.9497741115630611,0.3053563295021938,-123.88030435658612,13.856033074075834,6.8593908486571,0.04901970863429489,0.7401452389404043,0.13351820424393646,0.4447357800475412,0.3693699890836083,1.2126758946952596,-0.07925895746474125,0.11057676907064884,-0.8701072738989206,0.47422358199339576
0.05,-118.24967416871407,47.65028545071502,187.22656913305354,0.15855796319939094,0.21813709162323996,0.14796776637406114,1.6284128790576688,0.9220242528807141,0.8524625847356517,0.4914118741404137,0.7700776965774149,0.2601976659232359,0.3161868427005526,-109.30005122206528,36.50369225904417,202.94639401752963,0.06599971531717685,0.5130010138126311,0.05996304735437381,1.6375854269800738,0.5424218497542095,1.5351995453821694,0.5896932157357235,0.7217827989844411,0.3293027275619306,0.14102576269231712,-144.6500188542471,6.929981552361397,4.379437614487682,0.24269697458650766,0.5625030848431837,0.09807558956125141,0.3474459941626272,0.3037963382875868,2.5252400663667065,-0.04367114221300818,0.054699404366677,-0.9496004898689256,0.30437753635534576,-124.08429481351973,14.720516781436235,6.9520235910908275,0.06005262280725333,0.7408698942295135,0.13016117530873889,0.36246663752898406,0.31457754390175025,1.5561815336532054,-0.08556590221691732,0.11374664792038247,-0.8701699299631691,0.47236617942468756
0.06,-117.7895386507245,47.805457335464816,186.91813626373542,0.17074119171814625,0.22936477192200067,0.1488779831595866,1.5542754095447766,0.8778036939104538,0.9114669446697276,0.4936909292411709,0.7678338654851826,0.2601582843832472,0.31805400652545396,-109.26345528656168,35.77253607633774,203.01968827751122,0.06346412316802184,0.4081730149227112,0.05378523604173368,1.7043698600591026,0.5577812784766589,1.7358748645643218,0.5896818441312475,0.724301810954816,0.32701809240907903,0.13484268048912734,-144.6866725709187,7.603105486308372,4.693259426917882,0.2156013486715499,0.5221338642485561,0.08408407259781103,0.34843982581355204,0.2541342595096499,2.67221889509947,-0.04869274778288275,0.059845834299045705,-0.9494257213420343,0.30361327649671366,-124.27534063598674,15.576896663385783,7.058446335604499,0.07508714445434182,0.7367950066028734,0.12410540149409069,0.2913781877760868,0.2786063196911149,1.8723076273623458,-0.09179942877374311,0.117098329197958,-0.8701138526062008,0.47059706804938867
0.07,-117.36672087835508,48.01224996709717,186.6074951489341,0.17733122603748475,0.2492735426921245,0.14884603844894084,1.505607788058769,0.8405222322132132,0.958393373873978,0.4955882857562362,0.7656780975679537,0.2600905414032737,0.3202160761163748,-109.23454873870445,35.13361702682821,203.09266888398014,0.06150590901065054,0.31991432367843475,0.0474277676911726,1.75360405119066,0.5597051921244375,1.8809254789048606,0.5897034334371676,0.7264956388441937,0.32505657700003876,0.12948050462591834,-144.72664401888161,8.215050367332962,4.980709888694499,0.18963119012132187,0.47821036057230426,0.07643287808446801,0.3532207303418879,0.2277068933223397,2.7735208608511748,-0.053225115404417024,0.06440679109012697,-0.9492699309869703,0.3030149543787582,-124.45135682200956,16.425158840545045,7.187476068702299,0.09530324589307478,0.7277676035336846,0.1159134908095253,0.23373818484149833,0.2644035204017994,2.1547667469503375,-0.09791910586604463,0.12070621432259544,-0.8699011647996275,0.46894892846665565
0.08,-116.9854632605663,48.27544487569997,186.29457794070805,0.17856455996087256,0.2772451777953908,0.1476633454091152,1.478601897300873,0.8099048693001094,0.9906751860535515,0.4970540673281803,0.763611669086087,0.259994688449949,0.32271285095415647,-109.21353395004336,34.600075305139974,203.1650832420685,0.06008277516846061,0.25015546388652404,0.04101496073665011,1.7833876589702904,0.5486193901196514,1.967437759802012,0.5897643945032534,0.7283174400192225,0.3234787695238999,0.12503369920754648,-144.77856673116656,8.7585874485863,5.238904483861958,0.16540915738380102,0.43151630444931416,0.07655538566842596,0.36223782646356195,0.22722127066132752,2.8253788559517417,-0.0572245523474795,0.06833180517368391,-0.9491570706460921,0.302504772638171,-124.6109771872972,17.264794414283674,7.348427008251522,0.12172037166782401,0.71408624258874,0.10654817789855041,0.19124018963096384,0.2737401988066453,2.398207907289398,-0.10387316369478013,0.12463742523282724,-0.8694989176316729,0.46745364623708485
0.09,-116.64843453777772,48.59674861718225,185.9797702385964,0.1750847714851287,0.3119105798632207,0.1451639388385218,1.4674447892210416,0.7852503691509,1.006323644629098,0.49805564877016123,0.7616321027107722,0.2598744201159481,0.32556859991846426,-109.200232912938,34.18194104050849,203.23628707346262,0.05911871953464419,0.2000719615031363,0.03473242152203005,1.792929690613553,0.5260185478972966,1.9961571125636395,0.5898683700207872,0.7297325715065052,0.3223352511136004,0.12156634264213544,-144.85207657940524,9.229053899293348,5.466172392296652,0.14362139849791816,0.38330594854859457,0.08555262921023243,0.3756183422412675,0.25428672164970084,2.826949908791846,-0.06067063591764702,0.07159934578624973,-0.9491134998654194,0.30198229574194996,-124.75375291668625,18.0949066344716,7.551038885301827,0.15508632065750208,0.6964630313783295,0.09730050761548709,0.16496973007591106,0.3072276204023303,2.5982838291202737,-0.10960089586296136,0.12895277065012808,-0.8688801869564358,0.4661402199650127
0.1,-116.35640607878231,48.974937866837784,185.66369469670545,0.16781531628928198,0.3512977834296945,0.14124442932105358,1.4652866030571996,0.7655627659121246,1.0042141950246606,0.49857992999815504,0.759733380566247,0.2597375100317475,0.3287912414502872,-109.19420977359371,33.88621534750819,203.30500498704328,0.05852756212294206,0.17002855200616582,0.02882235094309675,1.7827420477700247,0.49427090840216353,1.9714928946856491,0.5900150148236969,0.730718979982886,0.32166332816289556,0.1191156345948113,-144.95702013473291,9.624662359771293,5.662143551191029,0.12496821416322296,0.33517964014311197,0.10403582262121921,0.3931422207812742,0.3092930456551175,2.780383084395093,-0.06356728949449315,0.07421667104125033,-0.9491659867472504,0.3013340660007021,-124.88027992353533,18.91436445488338,7.805291335973427,0.19575660413988114,0.675940560227651,0.0896738077159663,0.15539888413057829,0.3643858544232391,2.751751110572615,-0.11503635633748271,0.13370765825193343,-0.8680248402254668,0.46503279320569385
0.11,-116.10805093426748,49.40623626439283,185.34696192644583,0.15781671581546183,0.3930261776355745,0.13588225769011547,1.4652812848990877,0.7496910157559193,0.984377793243412,0.49863427360494667,0.7579062592861203,0.25959621069413474,0.3323728332897738,-109.19490760936921,33.7170460486165,203.3691599121249,0.05824174812250477,0.15954559954566436,0.023570693977623704,1.754685160817973,0.4563450320294674,1.9012868099386144,0.5901988595517231,0.731267123731412,0.3214842412464478,0.11769619806167117,-145.10252183253252,9.946669537046963,5.8277896524678745,0.11010479118601221,0.2889155081806163,0.1319884091553422,0.4142317137951173,0.3913178287432087,2.690669250239743,-0.06594230725005658,0.07621852002257329,-0.9493392108929872,0.3004454433309991,-124.99222867788511,19.721957107706967,8.12106431146978,0.24357814563754762,0.6537681635454226,0.08523684635947704,0.16240009812533227,0.4437431926425758,2.856621110312238,-0.12011302201938377,0.13895215412205109,-0.8669199551344752,0.46414896643335846
0.12,-115.89992709225788,49.88487371614588,185.02994450771195,0.14615260113230336,0.43452277634218184,0.12914714965895854,1.4615714793388928,0.7364704639855127,0.9482561238124948,0.49824584474640465,0.7561387071472413,0.25946732329302247,0.3362913614363518,-109.20178271141434,33.6759432649701,203.42581865334756,0.058241335419592165,0.1672982492010231,0.019287751741984195,1.7118502547142058,0.4154955039296866,1.796341267514728,0.5904083948461643,0.7313795600599725,0.32180129916355954,0.11730439351368854,-145.29598066225535,10.199354737796932,5.965413855974212,0.0995776442219354,0.24627789544572712,0.168667526735329,0.4379554465248506,0.49807698743861095,2.5653016045377344,-0.06784504558918442,0.07766473941298237,-0.9496529289566387,0.2992135879494121,-125.09226977565142,20.51650659497434,8.50763008601125,0.2977962763436124,0.6312486824755436,0.0854616466359792,0.18526934291096667,0.5429455883371144,2.912345091553901,-0.12476897543101843,0.14472963835426997,-0.8655599402467143,0.46349840107069273
0.13,-115.72668697229969,50.403758034666225,184.71263103176065,0.13378357927182843,0.47323950023940625,0.12120220456558456,1.450103220298343,0.7248531334187991,0.8988796058401889,0.49745930110240705,0.7544164523743558,0.25937185786796113,0.3405136168141206,-109.21442614356947,33.76197954093523,203.47128375136376,0.058577666012903186,0.19116108371079873,0.016284394103572644,1.658294023900275,0.37495138168127357,1.6697118004766884,0.5906255224607246,0.7310703661395402,0.32259924920258787,0.1179219733063623,-145.5420819267157,10.389771391343604,6.078580990194917,0.09376402928161183,0.20882706129076398,0.21256498375984983,0.46305528629115933,0.6259364569736368,2.4137869936171827,-0.0693422039724585,0.07863683991469966,-0.9501190435437783,0.29756031700760693,-125.18390527108679,21.296899362562236,8.972992014633942,0.35700531305170996,0.6095741317832593,0.09156053538446926,0.22275185848829768,0.658857369014958,2.9199946594296358,-0.12895201037450174,0.15107382094527771,-0.8639465093528427,0.46308165075199237
0.14,-115.58152732406401,50.955181339584094,184.39460601645942,0.12149990021310308,0.5068569248054918,0.11229451011178336,1.4291728162537962,0.7140064785821386,0.8409302440914429,0.4963329675758812,0.7527236515845092,0.2593342310108585,0.34499881304224433,-109.23266674436921,33.9719259967739,203.50134010339448,0.05938727581989049,0.22830804071619346,0.01484576561558357,1.59866078581741,0.33764714323729406,1.535786335524251,0.5908255146039076,0.7303645283418808,0.3238450124516426,0.11951853687806079,-145.84192410321938,10.527259251593852,6.171980157796106,0.09282206305487375,0.177754561056342,0.2614445139714165,0.4880067848758042,0.7700064207054045,2.247048072667323,-0.07051191806191003,0.0792334443366814,-0.9507388886883565,0.29544345485665824,-125.27122465568698,22.06200743876825,9.523112408969169,0.4191595296433158,0.5896735949299916,0.10433592890746443,0.27306963461442074,0.7876416002652016,2.8823952708149,-0.13262395732756488,0.15800421719914182,-0.8620887400611545,0.4628892124611227
0.15,-115.45685440403632,51.53149061311072,184.07517517473022,0.10989541811955485,0.5334649425665523,0.1027383615504811,1.3996304369727643,0.7033616757420355,0.7806529690296083,0.49493380911836427,0.7510437510814224,0.25938098785104624,0.3497025501448354,-109.25665110902207,34.30029248388889,203.511643039264,0.06089366861771141,0.2753700101757989,0.015204051984293024,1.5377367551506498,0.30602266292245545,1.4092030662827097,0.5909776003124163,0.7292973504322716,0.3254897208324309,0.12205241679781456,-146.19237014342676,10.6227380080377,6.251213963862366,0.09665796308387943,0.1537646684336883,0.3124653743049692,0.5111200061529098,0.9243404986430707,2.0767528414419356,-0.07143669623494035,0.07956465584610585,-0.9515010981830025,0.29286528533910056,-125.35860513861236,22.81048576695871,10.161093666752812,0.48165398255249586,0.5720967364920879,0.12405663961908057,0.33395440266342313,0.9248204638604326,2.804182551709264,-0.13576355617145353,0.1655204918405776,-0.860003416660163,0.46290096007939757
0.16,-115.34509574535477,52.12566588536978,183.75362099987626,0.09937778114327542,0.5517107850290812,0.09289489246451296,1.364703627697166,0.6926046101067468,0.725584469114915,0.49333169710905667,0.7493606323391628,0.25953908554534466,0.3545807101767707,-109.28689578904608,34.73926389058086,203.4982154822701,0.06339670879263617,0.3286433576855914,0.01751188506874287,1.4799884132075376,0.2819034900182802,1.3036882885493735,0.5910462557315102,0.7279138334457689,0.3274717974819847,0.12546983674002565,-146.58573160367948,10.687837464519973,6.322511122408955,0.10491434570823986,0.13701534810764474,0.36239296106013485,0.5306828918053902,1.0822528324788312,1.914605315143,-0.07219595402361555,0.07974551252306074,-0.952380443172077,0.28987683560280547,-125.4503732365111,23.540457525610456,10.88639332461684,0.5414751294198045,0.5569512992315684,0.15037529431685392,0.4026912803114266,1.0653276066532016,2.6917667161091403,-0.13836740932627004,0.17359633666238963,-0.8577156873377049,0.46308627554291243
0.17,-115.23955762212613,52.731761331163874,183.4295448155464,0.09020437383117537,0.5609018548111259,0.08315027781466487,1.3294612812270894,0.6816184690004911,0.6840844159862143,0.49159360988437306,0.7476600506105202,0.25983383323336384,0.35959282383486385,-109.32430615680515,35.27855186105384,203.45800596296309,0.0672506091687669,0.3843340274686783,0.02181827159261132,1.4291453694831244,0.26646030131466286,1.2309161318480117,0.5909932137270266,0.7262679113834921,0.32972066031986785,0.1297024408422364,-147.00987898921002,10.733948594074551,6.392361670745934,0.11698113203144711,0.12712386825217484,0.40788468702197406,0.5451449425220826,1.2367409532519944,1.771629414428582,-0.07285899679358786,0.07988883454631251,-0.9533379982403609,0.2865770135925415,-125.55044523431422,24.249130659646603,11.694165833282979,0.595410989071263,0.5439046292881217,0.18230079814708405,0.4761800388062433,1.2035723720672453,2.5531990301512897,-0.1404488919153095,0.18217374728459845,-0.8552598367519799,0.4634051946630309
0.18,-115.13521876837952,53.34517077872712,183.10323837454084,0.08253091842667201,0.5610501121266006,0.07389277471193909,1.2999992163066727,0.6703984721401012,0.6646800469526464,0.48977843903224433,0.7459312446749892,0.26028664234395227,0.3647044013214768,-109.37015569786651,35.90520605788057,203.38944646991501,0.07283164911645201,0.43881514135711175,0.028049282031853584,1.3878931746911143,0.26023664384379513,1.199500040257962,0.5907801295982413,0.7244214222143951,0.3321605671615297,0.13466361644370706,-147.44883829385628,10.771298397861454,6.467078076570963,0.1320290318479702,0.12323343554094889,0.4458232561162621,0.5533293146521072,1.3809707166453526,1.657477201251358,-0.07347927402575814,0.08009787081020116,-0.9543229064099736,0.28310612428998094,-125.66197137140874,24.932420085951097,12.574830756127746,0.6403015645672591,0.5322494837732217,0.21823640844510753,0.5510274774934377,1.3335436118388522,2.397934374218957,-0.1420352887591519,0.19115871247971136,-0.8526798176299341,0.46381071401793733
0.19,-115.02936597419222,53.96268375412728,182.77603071919935,0.07645997905858623,0.5528495202444591,0.06548848626349145,1.282474435616716,0.6589645764654993,0.6752666360634727,0.4879329618551339,0.7441685218630688,0.26091279266880674,0.369887764747966,-109.42601975466302,36.60344737308315,203.29294026117427,0.08049663182568195,0.4888718851600463,0.03599600089062699,1.3577339037936562,0.2632260881362955,1.214222661860568,0.5903717491124976,0.7224427609918092,0.3347141797935785,0.1402443845727528,-147.88387798937435,10.808155618144275,6.552293386167548,0.1490643469918287,0.12412937211065785,0.4736522334632584,0.5546429175854133,1.5087616488279272,1.5797939219112382,-0.07409060007195384,0.08045921123476292,-0.955275849916819,0.279634013277622,-125.78701996229731,25.58467155921696,13.513966005446012,0.6733045047869548,0.5210243727860048,0.25608794086269226,0.6236914605432673,1.4489916196966857,2.2364814923123735,-0.14316376068300413,0.20041939150291951,-0.8500291732151947,0.464252133584792
0.2,-114.92200400091818,54.58230784064134,182.45056611532286,0.0720797748743971,0.5375874927115846,0.05825676876787245,1.2821373764742887,0.6472974033805202,0.7222367914542352,0.4860893592942837,0.742372657268564,0.2617194526403278,0.3751210906356576,-109.4936600202475,37.35459487139809,203.17120686203307,0.09053357776533867,0.531907407529423,0.04531243243744912,1.3390446281499888,0.27497596063922336,1.2755975771052916,0.5897393313532535,0.7204052531653752,0.33730554299933974,0.14630989898021948,-148.29501505893907,10.850261613516249,6.652420438379867,0.16700189006440821,0.1283867617021686,0.48965759437288897,0.5492342553923367,1.6150182267850548,1.543679107761408,-0.07470582398074882,0.0810364609977254,-0.9561340887895304,0.27634395636350584,-125.92634598548058,26.198586169294906,14.492611127835877,0.6921493341271368,0.5091697850083446,0.2934382410770399,0.6906930689504348,1.543732365559869,2.079932082239767,-0.1438769249227595,0.20978777738926735,-0.8473700841231426,0.46467902322145527
0.21,-114.81599725651989,55.20285249960145,182.1309774565536,0.06948845981157864,0.5170022305569902,0.05244736320839843,1.3025074052531975,0.6353152796059442,0.8096316810900933,0.4842645053174043,0.7405520394260543,0.2627041933039943,0.38038562378183677,-109.57486108602694,38.13715909081645,203.0294168925144,0.10310762990670617,0.566088577246016,0.05552604196215789,1.3313187490239968,0.2946978329094086,1.3798309920234926,0.5888639942895633,0.7183853163187155,0.3398622944198167,0.1526976665093803,-148.66278705575706,10.900551327575519,6.770112981637152,0.18474997719096073,0.13452644468387862,0.4931416968258854,0.5380448931440784,1.6960719138011064,1.5512949255667114,-0.07531814621910468,0.08186517815321884,-0.9568376240363929,0.27341423662734227,-126.07928677596084,26.76542441456049,15.488033970305956,0.6953550451375975,0.49569504781951446,0.32777369633904896,0.7488910588199341,1.6121011586456662,1.9393621319608252,-0.14421883476519032,0.21906558391097253,-0.8447713976495206,0.4650451937768555
0.22,-114.716920058369,55.82329891942375,181.82292430684458,0.06880296831028153,0.49310632500688106,0.04822158919307975,1.3448089195154673,0.6228966507408767,0.9384124719825487,0.4824611372877185,0.7387235421194378,0.2638541891489632,0.3856612957194806,-109.67122800581232,38.927167516932194,202.87506479515062,0.11820745827711002,0.5904190926331414,0.06606298420287181,1.3335272024802551,0.32137345279289603,1.5192111693403412,0.5877395914391783,0.71646041182935,0.3423170548522408,0.1592184669329322,-148.97007301766905,10.95918762326667,6.9057864198569705,0.20129919638071567,0.14115455348693023,0.4844559452306261,0.5227240488547301,1.7499061154961173,1.6016815674889988,-0.07590493304450958,0.08294955160582476,-0.9573357538870311,0.2709998665957988,-126.2438113067702,27.275526918196526,16.47496117755095,0.6823891918729675,0.4798271368533481,0.35673801598864,0.7957811044753723,1.649534773977807,1.8251088705140122,-0.14423198343913934,0.22803461717458615,-0.8423055970686746,0.4653120319241828
0.23,-114.6326129263903,56.44201521642079,181.53347091806668,0.070153099481154,0.4679998942555509,0.04563928663180218,1.4077427913834502,0.6099375061650292,1.1059466727761604,0.48067085847854285,0.7369130507509114,0.2651461924453213,0.3909212406487386,-109.78396275363026,39.6987721794978,202.71755319642764,0.13559986997749726,0.6047357149098147,0.0762884177849151,1.3445043413250641,0.35385265705518176,1.6828964459714073,0.5863747126510319,0.7147066926783934,0.34460811220710413,0.16566065970213964,-149.20372244123732,11.023887325592943,7.057266943126139,0.21580662895681438,0.14706537672880285,0.464890662477269,0.5054171462723301,1.776228608513508,1.6908321801959088,-0.07643350056545604,0.08426122902203421,-0.957593134463451,0.2692169320901512,-126.41672070848517,27.719131355070967,17.427202685947105,0.6537514663273736,0.46111426368181296,0.3783808507970697,0.8297619470324851,1.653196740849703,1.7459555940187848,-0.1439556825433124,0.23647120295768556,-0.8400447769906135,0.46545076958490866
0.24,-114.57247068139206,57.05590838319725,181.27079285637464,0.07366157087262792,0.44369360989885476,0.044652394691266924,1.4876199916380173,0.5964242609749404,1.3057998445884331,0.47887867348511354,0.735155479877235,0.26654721140069776,0.39612593581828887,-109.91364472696357,40.42516168042039,202.5674968053148,0.15480163789523113,0.6096290321645444,0.08555953637372746,1.3632583527469722,0.3909411463969572,1.8580047924227447,0.5847934526065472,0.7131962424154693,0.3466796462631453,0.17179815506222715,-149.35577937609278,11.090479936335324,7.219636851193542,0.2276689353051085,0.1512985961392343,0.4364537476038319,0.4884740596374422,1.7763586713920911,1.8120488090805598,-0.07686801087051007,0.08574057487364996,-0.9575944952189996,0.2681315376576352,-126.59396442676639,28.087403161246538,18.319525065380486,0.6109709352244727,0.43946631587071305,0.3913662258174772,0.8503157748292542,1.6225118107076424,1.7083054779586415,-0.14342584163247293,0.24416344070399365,-0.8380558403227546,0.4654436219491565
0.25,-114.54652135510844,57.659626475401936,181.0437209343432,0.07941140740190508,0.42195618158519094,0.045105787374909626,1.5788347216486178,0.5824999385431532,1.5279134506431704,0.4770684697191249,0.7334940946957459,0.2680156784659126,0.4012178751352727,-110.06004291884139,41.079760329022214,202.43579312561855,0.1750768322484525,0.6062944471106723,0.09328549733804202,1.389129206282757,0.43147067754008234,2.0308483942537836,0.5830347265412974,0.7119939227141231,0.34848176544697357,0.17740181908669211,-149.4241602449354,11.153617472848095,7.385327219250305,0.23657867258523083,0.15315540409851194,0.40159026994339386,0.4741357989094223,1.7529297248398676,1.9565485084130865,-0.07717645471569236,0.08730042898534604,-0.9573473538028118,0.2677544811734423,-126.771011143939,28.373546684737242,19.12956783759045,0.5565132747185662,0.41513073897133523,0.39510962112753606,0.8580745058372652,1.5594724250527048,1.715471968187955,-0.1426758922127101,0.2509293497080871,-0.8363952846669548,0.46528405794280897
0.26,-114.56438396597764,58.24493319925385,180.86115267099953,0.08740417981387069,0.40419574527964974,0.0467461691326231,1.6746045831040621,0.5685027162919888,1.759218879100782,0.4752286432267686,0.7319790448216194,0.2695028586478339,0.4061177584159319,-110.22198380023293,41.63764954556132,202.33254766702922,0.19546526036051956,0.5963248693946707,0.09898547384476232,1.4217621041170592,0.47433925214398576,2.1881318125918363,0.5811501300003679,0.711154042067539,0.3499705509021986,0.18225352442226828,-149.41273585662884,11.20754701014771,7.54447763709011,0.2425569675529502,0.15218747614504735,0.36289705797478067,0.4642523733243919,1.7094596683205205,2.114232812945107,-0.07733674814337406,0.08883215071198286,-0.9568823331165225,0.2680418296787417,-126.94320736095264,28.57383815452152,19.839571942310915,0.49360235291280313,0.3886193629117075,0.38982460962609605,0.8547701794622974,1.4686310969190892,1.7672263134986916,-0.14173842555831553,0.2566335842634033,-0.8351040559912855,0.46497658653477175
0.27,-114.63421106498247,58.80037229552582,180.73137960568252,0.09751542350542816,0.39138147205341495,0.049239920260506574,1.7678599611720425,0.5549609911787174,1.984677011536863,0.47335700325621005,0.7306651794448616,0.2709543607413744,0.4107230915714774,-110.39729092875538,42.07709895299993,202.26597739712315,0.21484382515340333,0.5814657737552179,0.10233522846433513,1.46091932642096,0.5185128351176872,2.3179580614176256,0.5792005818222288,0.7107172021243223,0.3511082262690732,0.1861615235833438,-149.3308531694862,11.246862535675866,7.68554284430621,0.24595439750941328,0.14817533339672864,0.3228742737539582,0.46006956655481834,1.6498773765130408,2.274503906021577,-0.07734119484100244,0.09021343243596129,-0.9562509484744725,0.26890075160678234,-127.10607261235629,28.688427235645655,20.43771091568044,0.4259694248070683,0.3606109395773471,0.37647858121687755,0.8430860752798378,1.356775551889796,1.8597080860941209,-0.14064704742335946,0.2612004543738993,-0.8342030265902542,0.46453630798363804
0.28,-114.76172658264689,59.31132143587144,180.6613912407687,0.1094558086356689,0.38400924355242866,0.05220036587015805,1.852132794591424,0.5425406104987524,2.1886514093259026,0.4714642013770992,0.7296093257867452,0.2723118113388178,0.4149098525222004,-110.58280285774924,42.3810569947041,202.2414401502519,0.23201844172971817,0.5633654401898748,0.10319477723789916,1.5061996324859688,0.5629932119125312,2.4105593312914855,0.5772521666032628,0.7107076915850026,0.3518635670041343,0.18897539207104452,-149.192392518426,11.267165493630472,7.7960873783062405,0.24741439220400321,0.14110961308696757,0.28373907337887283,0.46210471088190463,1.5780963136671426,2.4270255191657832,-0.07719886033287288,0.09131714503974533,-0.9555210009718367,0.27019943867952645,-127.25550952324382,28.721785091291554,20.918874642995757,0.3575524902562144,0.3318541542782355,0.3566741350671946,0.8264314373502989,1.2323551153695351,1.9857320932590816,-0.13943796040730697,0.2646214863602382,-0.8336897078561956,0.46398823138081946
0.29,-114.94946147095202,59.76050391327618,180.6562224681795,0.12274762185734146,0.38211145154491294,0.05522383205225771,1.9222873503515547,0.5319552988502112,2.356446149476031,0.4695751951589471,0.7288672118278946,0.2735149153159725,0.41853754877811417,-110.7744673720644,42.53843531855274,202.2607398995255,0.24583955637396765,0.5433638379165376,0.10161421288930046,1.556755391223489,0.6067692937363791,2.458758889656789,0.5753716619782944,0.7111317057379862,0.35221270199178667,0.1905985926136677,-149.01448770669484,11.265580926605692,7.863681389741472,0.24780071056830874,0.1311826682695454,0.24731023819231296,0.47011505317356284,1.4977011212838018,2.5623722127122,-0.07693570086630748,0.09202039072441234,-0.9547699994315534,0.2717797445950215,-127.38793289407025,28.68272630352081,21.28483324780008,0.2921767325859629,0.30309032874934466,0.33248036927811897,0.8086561942167516,1.1047557695670691,2.1354410502016763,-0.13815086507655397,0.2669565608814502,-0.8335367728101893,0.463366211002024
0.3,-115.19627041773683,60.128980147120096,180.7184110588257,0.13672538651927693,0.38530523466732797,0.05793187262795817,1.9749626438352372,0.5238623068036337,2.475795852891339,0.46772859634935043,0.7284901397035434,0.27450417669924354,0.42145762880378446,-110.96750346906346,42.54503598896762,202.32183025956454,0.2553286913608228,0.5223643084243549,0.09782003224135419,1.611091371357269,0.6487740472738863,2.4582311328470112,0.5736222367270494,0.7119765481164566,0.35214046288781486,0.19099690616728407,-148.8160477112032,11.24109600753987,7.876799999671382,0.248099717056309,0.11879053978507552,0.21495830815382244,0.48315129673179497,1.4117752964176178,2.672553879595262,-0.07659257502267022,0.09221296149021656,-0.9540773299794626,0.2734711670978848,-127.50033412178712,28.58399235911044,21.543788974010024,0.23325230437861746,0.27500690718781223,0.30623672054858797,0.793712752774561,0.9835113255125388,2.2971916578503326,-0.13682891909927916,0.2683285753635957,-0.8336927755098121,0.46271139716217513
0.31,-115.49718497532388,60.39758124302568,180.84762563541318,0.15056657933203757,0.39286700153321,0.060014391361842466,2.008660909471564,0.5187664625839815,2.5381041494402132,0.4659740602717002,0.7285214582547914,0.27522446667092154,0.42352481073457626,-111.15661818116925,42.40401475937425,202.41898110534197,0.25979733246845005,0.500816799445679,0.09218859835122335,1.667003131352906,0.6878683278827427,2.407626929984215,0.5720597757356781,0.7132108593700843,0.3516423588029456,0.19020159610771073,-148.6162207766328,11.194708021277947,7.825637183395347,0.24931471679751563,0.10453865479137811,0.1876044960159701,0.4996843260555192,1.3228578373572453,2.751419419977259,-0.07622154591713391,0.0918045148612202,-0.9535161354743653,0.2751048678745457,-127.59029581832374,28.4414460203663,21.70939723440712,0.18352534799853648,0.2482232277410731,0.2803472426791922,0.7852758887866558,0.8775159170886883,2.4585480793995664,-0.1355176655836577,0.2689123973816254,-0.8340851365072942,0.4620702578328201
0.32,-115.84362476865434,60.54867933151514,181.04051267168512,0.163353530988602,0.4038175655729038,0.06126617802825082,2.023505364011878,0.5169491572239925,2.539282659997716,0.4643680881580313,0.728992895153662,0.27562941067674146,0.4246104512291374,-111.33626298262836,42.125836297275015,202.5433968829051,0.2589358271028974,0.4788136597169986,0.08521483708638335,1.72167189627529,0.722869635715143,2.3085847465159475,0.5707301953345374,0.7147858074239372,0.35072710585669997,0.18830704373469415,-148.4329391888339,11.129388173383736,7.70277068893898,0.25236973356411135,0.08924094660433528,0.16574682264578128,0.5177898102560495,1.232983694246777,2.7949331323102355,-0.07588114187535173,0.09073001371517482,-0.9531459548685297,0.2765265189777207,-127.65596170235963,28.272978165817044,21.799395095363963,0.14491043495985573,0.22330095467090277,0.25708067409151514,0.7863524327033663,0.7942891150672671,2.607285503466529,-0.13426301349196496,0.26891948893010126,-0.8346250934480748,0.46149238459333247
0.33,-116.22395226775393,60.56812576305963,181.29079337383948,0.17416149009578044,0.4170065724518301,0.06160936761140337,2.020770115492506,0.5184291848574641,2.4801174267390627,0.46296876337044945,0.7299208871549031,0.27568626741573027,0.42461665161381096,-111.50091305546893,41.72774341131817,202.68419930090263,0.25285237526065274,0.45627110036766044,0.0774820498963493,1.7718841431834622,0.75263460581591,2.1655977021954915,0.5696679232360795,0.716637051949367,0.3494194591226951,0.18546344229530906,-148.2816721096543,11.049884522627401,7.503649525019995,0.25803331262127766,0.07390258889918627,0.14949583332116995,0.53536913534031,1.1437523622691605,2.801295907130819,-0.07563141529077574,0.08895332225045678,-0.9530070516084398,0.2776069410227644,-127.69595548641729,28.097263840526775,21.834008545205247,0.11841909009962463,0.20076569380530376,0.23839268345612946,0.7989353487485711,0.7393421935407509,2.7323406530735754,-0.1331085399513888,0.26857997781737314,-0.8352139664241266,0.46102837811878
0.34,-116.6243220361865,60.44714420082413,181.5896187570139,0.18216164100789914,0.43119745354140426,0.061097365206194305,2.0023221986171573,0.5229532378294242,2.3661531603436106,0.46183005226513935,0.7313031591331,0.27538068932516935,0.42348951080913694,-111.64535123120797,41.23281800720901,202.82963072395893,0.24205174145061292,0.43315209090484513,0.06963408613998405,1.814306616720875,0.7761852735251458,1.9856883507960688,0.568895478024099,0.7186872034926337,0.34776292016157323,0.18186575623461015,-148.17448794883327,10.962399744224514,7.226909447029391,0.2668634300962889,0.059680373006394775,0.13861223478622015,0.5503785638634278,1.05638978061186,2.770874527516614,-0.07552961910147557,0.08646918076271179,-0.9531170805371718,0.27824979730274063,-127.70923809592645,27.932518076966424,21.834317999287958,0.10418395148967177,0.18112548657989622,0.2257882369848004,0.8237644985146569,0.7156956008802862,2.824653315044441,-0.13209256210224224,0.2681241647512758,-0.8357498365006785,0.460728089431005
0.35,-117.02974673800317,60.18395411153374,181.92616610895044,0.18672315975443737,0.4451663378062563,0.059900526112154254,1.9701043600075732,0.5300082414395705,2.2071281419899385,0.46099632914873256,0.7331159084157514,0.2747206242675239,0.42122989729834265,-111.76493771510164,40.6687467794563,202.96830959608545,0.22735732524153537,0.4096825507001455,0.0623469225960498,1.8457403060762627,0.7928480293063899,1.777865642734722,0.5684238867928951,0.7208485064370739,0.34582176852053986,0.1777404590866311,-148.11948605463795,10.874185554210456,6.874544703226808,0.2791685945909268,0.04782013787731486,0.1325481240595114,0.5610355167054454,0.9718049368971843,2.705920503292633,-0.07562705868050772,0.08330396240484374,-0.9534704032980542,0.27839597826138224,-127.69490070228676,27.795393208745434,21.82074883157779,0.10156554308689564,0.16487600110633813,0.220239555540659,0.8602427298667461,0.723596779526337,2.8778252203942576,-0.13124550659836526,0.26776547618205304,-0.8361336753912285,0.4606393916496164
0.36,-117.42528188861063,59.784924105026235,182.2884342288563,0.1874969345311284,0.4578290663743712,0.058277696569978825,1.925748014502967,0.5388478567545945,2.016023970475906,0.46049768944247405,0.7353120074436326,0.2737387235540899,0.4179003586637426,-111.85584896330086,40.06641595906667,203.09037726477106,0.2097935742719279,0.3865194279323696,0.0562954834410214,1.863302775432419,0.8023643086117099,1.5523893204659214,0.5682535828183459,0.7230256077748928,0.34368183093795707,0.17333157216690595,-148.12060798553156,10.793095371642192,6.451970369450701,0.2949805457479462,0.03957580264335959,0.13049711017305113,0.5659720302784532,0.8906626452935413,2.6100995350978553,-0.07596725378907104,0.0795156071572032,-0.9540400246679861,0.2780246606194101,-127.65190892145996,27.700129942557712,21.81182389911118,0.10932017147818282,0.15248955915415952,0.22216712156575558,0.9065253588214129,0.7604791779749343,2.888509771080928,-0.13058803102881697,0.26768664934511593,-0.8362741360318444,0.46080752584795537
0.37,-117.79721903315522,59.26510724768996,182.6641686043889,0.18446639865340153,0.4683970287846768,0.05653906539304964,1.8703602278229745,0.5485300171720663,1.8078235707377661,0.4603464346659811,0.7378206045283959,0.27249291249632407,0.41362725968041686,-111.91527558787097,39.45844963123709,203.18840856972824,0.19045346442879876,0.3648422776514544,0.05211374014699128,1.8645302719601835,0.804939435059934,1.3199230000266782,0.5683754298598876,0.7251184482979268,0.3414494914727314,0.1688873050160028,-148.17779366349396,10.727131996812616,5.967998352338346,0.31403834482458304,0.03611811056384006,0.13145670325982853,0.5643135443900422,0.8134845975221101,2.4878982358473096,-0.07658514172811938,0.07519296826219417,-0.9547817969955184,0.277151307056023,-127.5788325820782,27.658030053081365,21.82327024727547,0.12580248436824926,0.14439237463251825,0.23148026381698897,0.9597612237734481,0.8211832754971798,2.8564679329296627,-0.13013016917167733,0.26803044682829286,-0.836090557750274,0.46127494779945716
0.38,-118.13417126039398,58.64808074755513,183.04182120168775,0.17795727593567134,0.476543007550875,0.055005303931687614,1.8044861283412252,0.5579674721872809,1.5980972593378104,0.46053493258397243,0.7405483632445722,0.27106510081556734,0.40859782634130687,-111.94157773987607,38.87778265153121,203.25800326154507,0.17037594317387705,0.3463546117567,0.050349797878453305,1.8474252072339812,0.8012155031816366,1.0906942071577164,0.5687716015678641,0.7270254032437369,0.3392486649717457,0.16464824045292573,-148.2874172988781,10.68402047225585,5.434725665637454,0.33578789342856014,0.03844272828681221,0.134302542220997,0.5556809796562363,0.7407693209953355,2.344012132875714,-0.07750684458281011,0.07045455500362266,-0.9556402356916914,0.2758230947332044,-127.47360820574295,27.677267627847957,21.867516594530628,0.14917444345955383,0.14093812784653237,0.24766381471537677,1.016424948920823,0.8984295088834843,2.784286057146183,-0.1298715787333072,0.2688955161573252,-0.8355141461260283,0.4620815072346427
0.39,-118.42793571228326,57.96508865159595,183.41142645264952,0.1686055654200009,0.4825432698078002,0.05396723114091659,1.7282151826713927,0.5659961312114231,1.4015561728644257,0.46103492551238073,0.7433823736615802,0.26955820488337595,0.40305235650311433,-111.9344024360844,38.356331784690376,203.29802093388807,0.1504524243294885,0.3331942327668745,0.05142025962926335,1.8104882036431438,0.7921770867607736,0.8737807717053571,0.5694161740736023,0.7286467436703461,0.33721575272774423,0.16083761925640364,-148.44292591976097,10.670830119617683,4.867304400857064,0.3594020067532426,0.04728732073334352,0.13787184584930182,0.5401406008752246,0.6731092319390429,2.1828359934363,-0.07874957419913546,0.06544638276538027,-0.9565550621379094,0.2741124390205335,-127.33338400271086,27.763007991171175,21.953560050481094,0.17759482938268364,0.14238536512255634,0.2698908695856794,1.0726588528925713,0.9835014229892931,2.676823509417299,-0.1298028290984274,0.27033726704812694,-0.8344876642722749,0.4632647044362336
0.4,-118.67402888500929,57.25355702660107,183.76526463921843,0.1572895284367952,0.48735779988876915,0.053649990857689074,1.641383618414439,0.5714647183877297,1.230720906459701,0.4617982748576961,0.7461945715135144,0.2680916688810842,0.39727235019232326,-111.89476767939632,37.92380587594464,203.31046443113138,0.13137252137543184,0.32776285208364314,0.05556872086287668,1.7527708329878202,0.7790166684046995,0.6766083128851582,0.5702754376010536,0.7298883382267713,0.3354928801275325,0.1576539495703523,-148.635607077465,10.693665164091193,4.283540336265506,0.3838235032750557,0.0630662793768268,0.14105358458288444,0.5181427128832257,0.6112808162098726,2.0081629813608086,-0.08032148302118906,0.060338410809131535,-0.9574675320673482,0.2721093822121283,-127.15448836811308,27.917768248168677,22.087131317178866,0.20937044068181238,0.1488835924519544,0.29714039988738244,1.1245520166075134,1.0670762555256914,2.540506505054908,-0.12990758715510103,0.27237297296659285,-0.8329642358745454,0.4648596925332954
0.41,-118.87181875531704,56.55510667506411,184.09819733198248,0.14503599420229601,0.49261756148268193,0.05418560418527928,1.5438263563228323,0.5733431849402633,1.0948459146709502,0.4627590611747032,0.7488473682182343,0.2667955834261708,0.3915656610998268,-111.82511380222526,37.60668184763025,203.3000547848899,0.11360951854753373,0.3324956305365044,0.06283262271561843,1.6739734112292357,0.7629919511806457,0.5046897341267014,0.5713080701324442,0.7306653831479765,0.33421992981058973,0.1552659261296612,-148.85542455216097,10.757440639938649,3.703261078424614,0.40782900218980406,0.08583018895085115,0.14288305134876572,0.4904843106038218,0.5562844009329793,1.8231500659266928,-0.08222154900479385,0.055318931159859315,-0.9583257565550215,0.26991358269556776,-126.93254286660857,28.14193788114982,22.27105814128332,0.24306026349681903,0.16047135014330363,0.3283028294082278,1.1683216671785244,1.1401283014077668,2.3825924981533,-0.13016552620078287,0.2749898422296171,-0.8309059277557438,0.4668986768365429
0.42,-119.02422631914308,55.91322417023986,184.4076008608589,0.1329140396339018,0.5005034311292569,0.05559712941065833,1.4356413684005251,0.570838462794479,0.9992150123883627,0.46383687396660317,0.7512001288627554,0.26580343527444145,0.3862499597477156,-111.72931631418837,37.427368477765526,203.2735720117575,0.09743793839550186,0.3496000326970169,0.07302211813890332,1.5745940298393828,0.7452973920550875,0.36158702272393883,0.5724654158065741,0.7309059103166657,0.33352605367493976,0.15380949895256643,-149.0918731074482,10.865758786485172,3.1474091682434353,0.4301066936128079,0.11525490006869399,0.14263631145949446,0.4583065920370432,0.5093151962785009,1.6305363707272345,-0.08443979941149037,0.05058636323797179,-0.9590885124419476,0.26762645609157937,-126.66271320775863,28.434383016889548,22.505721805382585,0.27753352554242766,0.17708936354372556,0.36226434893839116,1.2004116547812314,1.1948191933529955,2.2105035719373167,-0.1305557769668921,0.27815463705661325,-0.8282826342471278,0.4694094817343898
0.43,-119.13703183662807,55.3707704903682,184.69288487529192,0.12192981812201154,0.51352139146592,0.057796433716683526,1.317436839321055,0.5634984680956729,0.9448833799761449,0.4649409984639085,0.7531161275883164,0.2652435659673547,0.38163584876184375,-111.61264929500751,37.40358210378866,203.23905526262016,0.08297162756781681,0.3807989506803833,0.08571455310128148,1.4561119930542612,0.7269575383489828,0.24904531102776584,0.5736921484389564,0.7305538520462881,0.3335214871024928,0.15338689467291333,-149.3348101230257,11.020898885771627,2.636849863307658,0.44933886446317495,0.1506622848720975,0.13991567527066143,0.42311174758653997,0.4716633251636639,1.4330356893235718,-0.08695827202683637,0.04633826510487177,-0.9597273526041747,0.26534377877394744,-126.34006486897091,28.793076652448075,22.789517583444187,0.3119882715596882,0.1986106201314199,0.397967402181988,1.217562407596516,1.2252787565850078,2.031286936128774,-0.13106074234665901,0.2818235474718144,-0.825071523297157,0.47241332856126267
0.44,-119.21788372922673,54.96751355484035,184.95464836805627,0.11293493382511657,0.534198250607084,0.060596047429863846,1.1905321922850625,0.5512833313604026,0.9288922769890657,0.46597504048461036,0.7544696396201741,0.26522959335420276,0.3780109067577179,-111.481685497493,37.547962457651764,203.20495866360062,0.0702116974647486,0.42711488367286454,0.10026797426519497,1.3211685866021528,0.7087447352905628,0.16724279126068237,0.5749275553306453,0.729571463528723,0.33429053616508025,0.15406744121235744,-149.57522296144026,11.223927408519188,2.1909336756741515,0.4642800208054506,0.19107155404358486,0.1347138419721077,0.3867700110933947,0.44456101844782525,1.2337899201490334,-0.0897530507839683,0.04275793838999225,-0.9602270843562027,0.2631489014863337,-125.95997236654496,29.215717742530227,23.119258418743236,0.34593807632893053,0.22488497890697903,0.4344484272752344,1.2169196767072221,1.2281800678088128,1.8512241300451802,-0.13167009126881932,0.285951342058224,-0.8212570576678698,0.47592219759810295
0.45,-119.27515489127144,54.73786931809876,185.19358077364342,0.10655805450356196,0.564738801140941,0.06373396562843534,1.0570828971377066,0.5345894933851617,0.9449281253453761,0.46684138581921825,0.7551528337434186,0.26585034020319315,0.37562577489105176,-111.34411982855897,37.867955874809034,203.17934685336303,0.05909669922910613,0.4887289814094944,0.11585565208265503,1.1737002814560609,0.6911305869767113,0.11510714674250389,0.5761075354908594,0.7279408862656697,0.33588649105898566,0.15589007288341483,-149.80588992695806,11.474923311317466,1.8259136728863625,0.47382412390880724,0.2352767091769387,0.12744489054935487,0.3514929192704154,0.4290061335806329,1.036773662266902,-0.09279749123985344,0.03999963560428307,-0.96058486321127,0.2611067073220885,-125.51852529711594,29.700316466447994,23.490491856925306,0.37917285799758094,0.2557900998595934,0.47085616100234706,1.1962304144414257,1.203031539768518,1.6755862545673754,-0.1323847168402516,0.2904991554975362,-0.8168314271629741,0.47993638250966575
0.46,-119.3168111881605,54.7090243570879,185.4092525840466,0.1031662511278965,0.6066967909803472,0.06690878277715262,0.9201065714557286,0.514224639340148,0.984339864236307,0.467444867446668,0.7550820512212004,0.2671601606503795,0.37468317938390394,-111.20850752300434,38.365982614368235,203.16919283798276,0.0495495034969888,0.564938915251994,0.13152081495893903,1.0189861264262,0.6742861575981616,0.0906566901479478,0.5771671852681752,0.7256646033476599,0.3383289431296147,0.15886730717676673,-150.02189519820692,11.773296348833801,1.5533761293376633,0.47705914026523427,0.28194264410705444,0.11893550595290278,0.3197655806129794,0.4255895215450959,0.847068141171207,-0.09606642152242054,0.038173912065035565,-0.9608082536920557,0.25925854245115243,-125.01287739523242,30.245729774395812,23.897727627073394,0.4116984026287308,0.29127692596202737,0.5064556842302654,1.154131455734367,1.1521489639311915,1.5085204886516583,-0.1332203756321516,0.2954405237060582,-0.8117950890006437,0.48444288743553576
0.47,-119.34944729448925,54.899588266928376,185.598955862276,0.10285876971481167,0.6607152932807113,0.06982130950149097,0.7834084041670282,0.4913416411140657,1.0373727418423802,0.4676951656261759,0.754202940156231,0.2691708365059909,0.3753305542466236,-111.08391694002351,39.03988519036017,203.17981692534363,0.04151624574196199,0.654222949796718,0.14624775993874292,0.8635844075586825,0.6581382784571406,0.09132862669225299,0.5780436158530444,0.7227645444487713,0.3416036198675053,0.16299032348772655,-150.2209680065268,12.118158390695253,1.378885675651332,0.4733122279523028,0.32970980360441654,0.1103771613084654,0.29424835919085446,0.4343486014324487,0.6709560929225429,-0.09954077496809373,0.037334969279725044,-0.9609126501650745,0.25761844352336605,-124.44149493561386,30.85213279885192,24.334597457324158,0.44365998470014495,0.3313993347003281,0.5406241595418996,1.0904913572871744,1.0803218675694835,1.353050485730739,-0.13421061040260232,0.30076544572381075,-0.8061569928231938,0.48941517201840123
0.48,-119.37761008789273,55.3188841146279,185.7567510704857,0.10549126919715418,0.7263839095154763,0.07221776109827267,0.6514285025559299,0.4673423467248041,1.0944365681898482,0.46750774434287723,0.7524938925444505,0.27184627167816194,0.3776566774911247,-110.97950838361352,39.883628332331696,203.21448305590025,0.03499365888532869,0.7543980393365934,0.15904324372940953,0.715145595837018,0.6424699403281011,0.11426133840789339,0.5786785215051472,0.7192797028356022,0.3456644891722469,0.16823465479181024,-150.40363208474602,12.508694030283278,1.3010585465520366,0.46219229428775843,0.37729542135112853,0.10324574419185625,0.2776694741945604,0.45466711601702364,0.5158181454665519,-0.10321189253316852,0.037471847602985185,-0.9609184416499965,0.2561710161829623,-123.80427697483618,31.521410693184542,24.793992289064246,0.47525839175750445,0.3763232339328017,0.5728442076634814,1.0067402680828685,0.9942319760807897,1.2111750035734292,-0.1354084136466045,0.30648240111359387,-0.7999339970847219,0.4948145024714901
0.49,-119.40347787633458,55.96692805088934,185.87285555957442,0.11072357826415502,0.8022400552836485,0.07392881712170093,0.5290488731876485,0.443759019134454,1.1472187787481847,0.46680343862923596,0.7499673940696326,0.27510095555233594,0.3816923958467454,-110.90406349427455,40.88819162073646,203.27414982107211,0.030042377243609707,0.8628423279280802,0.16902040915528466,0.582099533150623,0.627033768744313,0.15650551038922345,0.5790200558055981,0.7152623605655559,0.35043760680741265,0.17456597896536444,-150.57316720956874,12.94447128393973,1.311251780221798,0.4436366451621749,0.42357886870550365,0.09919742653296691,0.2727321752825614,0.4852388238463762,0.38983496940369233,-0.1070846838755742,0.038505047471523286,-0.9608482585912518,0.2548712991730586,-123.10253931516381,32.257453580571955,25.26824396946392,0.506669964119147,0.42631707143108805,0.6027005037706294,0.9061230524495277,0.9017045508509791,1.0840478031697522,-0.1368859811923478,0.3126184179163236,-0.7931489980885741,0.5005929060288006
0.5,-119.4269052373911,56.83507665646503,185.93347515491314,0.11808008895801259,0.8859131480679349,0.0748986708870558,0.42139704683411866,0.42211929810488563,1.189484567871681,0.46550709398946877,0.7466691829263484,0.27880266803703674,0.38741506536217735,-110.86550299088633,42.042567751404306,203.35735918947924,0.026784894054302594,0.9767413045371169,0.17547609579059928,0.4732281568820049,0.6116424943157471,0.21515097440448613,0.5790237322993671,0.7107733379941914,0.35582604940195006,0.18194553135484257,-150.73539595253428,13.425637637666693,1.393993424892924,0.41796468563040856,0.4676602312258231,0.09994941064719476,0.2820530231132083,0.5241075190219343,0.3015189017531267,-0.1111789561619314,0.04028964016448378,-0.9607245695137235,0.2536468928077323,-122.33887401446698,33.066333541114815,25.749433556531695,0.5379834779220795,0.481729911614335,0.6298825466819201,0.7938267381990114,0.8108816346846436,0.9722130954946422,-0.13873193047638657,0.3192174554189111,-0.7858273934399687,0.5066974903115269
0.51,-119.44578940265387,57.90724135619041,185.9211387350147,0.12701036994663167,0.9743816051443628,0.07519890050710387,0.33366834781170523,0.4038047524380127,1.2174706238841044,0.4635459013478376,0.7426753766177537,0.2827793432989271,0.3947558486353282,-110.87044051588458,43.33476074546247,203.46023703181237,0.025387983124604392,1.093314976811923,0.1779518389807538,0.3971476116137899,0.5962137813110627,0.2873714472309,0.5786522528311858,0.7058769572398682,0.3617152915382561,0.1903347268746382,-150.89831568103892,13.952959803784747,1.5281895468679685,0.38593534197162677,0.5088847724313954,0.10715421600385343,0.3081336180276838,0.5687883576580215,0.259112143791016,-0.11552846752054732,0.04262524351906912,-0.9605678128713572,0.2524024892777774,-121.51691627514155,33.956334473639664,26.22991082542637,0.5691644616198143,0.5429632420733344,0.6541912352606577,0.6769534993581938,0.729409828720757,0.8758587800788603,-0.14104555500126922,0.3263375013973768,-0.7779916889856567,0.5130756837197319
0.52,-119.4566746574622,59.161499738396195,185.81555159363356,0.13693947199918072,1.0642920163567542,0.07502392441316941,0.2709644985300226,0.3899210711818534,1.2298606130576224,0.4608482293274529,0.7380878831541829,0.2868295512248579,0.4036086202688718,-110.92382241320192,44.75267644974455,203.57657616211796,0.026031139023888473,1.2099911633655407,0.176270290659434,0.36172895432906277,0.5807695017408235,0.37040472303298655,0.5778743263539676,0.7006365002957616,0.36797850021104045,0.19969868449707223,-151.07160168784182,14.527683453111559,1.6890447574172265,0.34879841484452945,0.5468305597432574,0.12227825989191396,0.35335238824350523,0.6164671782689098,0.2698957214234619,-0.12017756093863875,0.04527246341508645,-0.9603951639934009,0.2510266709939341,-120.64106849230016,34.93779438649348,26.703095896798928,0.6000523918070917,0.6104396769894562,0.6755427785447725,0.5643283846712445,0.6637321770950367,0.7950432612259812,-0.14392798043215577,0.3340468475004139,-0.7696543396970038,0.5196807949138575
0.53,-119.45549162337198,60.57189265788056,185.5949403213196,0.14730282278380055,1.1522836142168789,0.07466816719602104,0.2381220488009688,0.3812020544784425,1.2274105342486357,0.457343767407185,0.733028489513943,0.2907357521046993,0.41383907742876075,-111.02869376490608,46.28481310402002,203.69797549672924,0.02886491538485975,1.3245041748770323,0.1705425650040815,0.3734863865120603,0.565407009343013,0.46149598467496283,0.5766626743168527,0.6951108210017325,0.37448137127040865,0.210008462933661,-151.26601523287528,15.15120751893735,1.8505408517115582,0.3083261205252519,0.5812612418183664,0.14649852753481726,0.41995144646341837,0.6642641336961279,0.33945867403638774,-0.1251755069802646,0.047974619959784894,-0.9602199565364217,0.24940048907648873,-119.71624185598587,36.02271185302216,27.164604078169074,0.6303899767418021,0.6845685131885391,0.6939636889279496,0.46614310143457355,0.6185566294811788,0.7298561554350003,-0.14747036574747646,0.3424199826063364,-0.7608092600838834,0.5264772002221326
0.54,-119.43832759500438,62.11019398865653,185.237820627436,0.15756747926213038,1.2352689414713276,0.0744889685266603,0.23949314268572872,0.37796440168785134,1.2123488087233878,0.4529656352019434,0.727632059157623,0.294279317231804,0.4252927914131769,-111.1861093723289,47.92068729116649,203.8140187585239,0.033965141958943595,1.4349140423104187,0.16114716417202,0.43696501209991906,0.5502651593104906,0.5578326475386636,0.5749915515601575,0.6893525112563648,0.3810862835444028,0.22124188883117085,-151.49276110484413,15.824584181608547,1.9882452928021532,0.2668109947371849,0.6120503338390066,0.1806318592617016,0.5099884532993498,0.7095355537486159,0.470984838560849,-0.1305689062030331,0.050482883684528156,-0.9600517078676782,0.24740700265749369,-118.74767461799023,37.22407216044385,27.613692335691354,0.6598781133638356,0.7657068650236776,0.7095734647753638,0.39344350792838545,0.5965430130295605,0.6804882533196774,-0.15173952047101935,0.35153346318964984,-0.751422764760408,0.5334444420062903
0.55,-119.40213611929288,63.747472534611866,184.72507775147378,0.16724606747747672,1.310637710120498,0.07486173556333771,0.27865106774747206,0.38011750608449457,1.1876955817313901,0.4476548242777867,0.7220392803639212,0.2972562412652977,0.4378013195332516,-111.39517919608491,49.65096409771977,203.91249174615203,0.041290003462780805,1.5395560381504387,0.14868569394726552,0.5541705751600728,0.5355023492336808,0.6564917101831921,0.5728342536897835,0.6834077185033046,0.38765570310567193,0.23338287631851484,-151.76285074827686,16.547871496796855,2.0821743989668837,0.22701920005147022,0.6390877936573482,0.22510751276986984,0.6252237910536524,0.7501771897332986,0.6646240056302528,-0.13639270315446264,0.052582432167612624,-0.9598966419955336,0.24494073366714997,-117.74087172532575,38.554869399753755,28.054975122634705,0.6882457110506904,0.8541164326871029,0.7225539305008633,0.357472476732276,0.5982156090583646,0.6472070996934023,-0.15676154967379002,0.36146204296576906,-0.7414249193036493,0.5405795540799933
0.56,-119.3453117012745,65.45531948521482,184.04220449952248,0.1759100481824319,1.3763691957067115,0.07613361916758409,0.3580184139809637,0.387219118972173,1.1566318382462502,0.4413669662831034,0.7163893909426492,0.2994924399613305,0.4511860056581224,-111.65321118524218,51.46729585015575,203.97965471262629,0.05064656422181193,1.6369424833372732,0.13392291766398484,0.7240953404896447,0.5212918609262557,0.75441167168614,0.5701611947883216,0.6773174226993097,0.3940549509153235,0.24641914243550692,-152.08653413319533,17.319383809417133,2.1194172379374905,0.19209229816113846,0.6621847448986574,0.27998544618080334,0.7669175914885307,0.7848884087944467,0.9170197801418285,-0.14266056797571056,0.05411695451902603,-0.9597585640033186,0.24191591300029708,-116.70168593913031,40.02683808736501,28.50030278202094,0.7153202890095072,0.9499189244287335,0.7331056406489065,0.36888583647680445,0.6220803448420053,0.630254019041645,-0.1625044662687058,0.3722752941361234,-0.730702365147383,0.5478970535574961
0.57,-119.26807369886393,67.20667742909525,183.18149514253363,0.183206559391791,1.4310557498087604,0.07857989861267518,0.4784429971959332,0.39856000315479373,1.1220150589766449,0.43408098670577794,0.7108132852503584,0.3008574845416199,0.4652596028506276,-111.95590154713938,53.361908749716605,204.00060097504024,0.06167186196016329,1.7256474423805157,0.11771891412384043,0.9423996814758537,0.5078261116104843,0.8483972874919448,0.566939152017114,0.6711197401130793,0.40015462791168255,0.2603382787402198,-152.47286088757264,18.13490724592995,2.096234764997034,0.16539516211280594,0.6809970810369237,0.34501212897865663,0.9355221156036895,0.8133633385792747,1.2210625678961782,-0.1493555976479942,0.055008801421277516,-0.9596399170620071,0.23827248758374953,-115.63653311935943,41.648954126935784,28.970640095897263,0.7410835652162725,1.0530557688491708,0.7413939638999762,0.43687213055983276,0.6649107257463791,0.6296894110391323,-0.16886112016686697,0.38403488963920496,-0.719093656468326,0.5554262667910408
0.58,-119.17262003148824,68.97626976774399,182.14395133986196,0.1888799771457125,1.4738538563341292,0.08236539119476824,0.6387677166424607,0.4132585590080677,1.0860941452205737,0.42580873949967535,0.7054274120441679,0.3012755830633378,0.47982625783160254,-112.29752840377067,55.32700797184783,203.95974056927238,0.07383190006425985,1.8042077175389637,0.10096036695474292,1.201306868320559,0.49531330228135134,0.9351655120528435,0.5631321496672821,0.6648526525967497,0.40583310674161077,0.2751222935965388,-152.92941551441868,18.98697174879141,2.01938381014187,0.1503136872196468,0.6949904161037853,0.4196954454509305,1.1302791602521698,0.8363861530950608,1.5659205351161793,-0.15642244186001203,0.0552723221474144,-0.9595428466094434,0.2339791322896586,-114.55271221426216,43.42580725518417,29.497728142054573,0.7656975928460583,1.1632580429069102,0.7474911341411219,0.568228538875757,0.7221625194180571,0.6452151050075672,-0.17563418888586768,0.39679259275669576,-0.706388066398375,0.5632059356890029
0.59,-119.06302969956006,70.74068518370325,180.94063410508312,0.19279554101918006,1.5043874559441066,0.08751314852463743,0.8354568371895001,0.4303463503912267,1.0504298933483371,0.41660429340103267,0.7003288928373401,0.3007326341554519,0.49468067794282283,-112.67112551722315,57.35409539854186,203.84144584984324,0.08644049180191336,1.8710695512842492,0.08449694224508994,1.489760797023427,0.48395437375937617,1.011437824160303,0.5587042203035236,0.6585564838069122,0.4109794966376391,0.2907409870784377,-153.46224369708042,19.8642912461495,1.9064768435220762,0.1500137119711371,0.7034639952665783,0.5033738674169337,1.348769350605189,0.855814057922509,1.9373774968722095,-0.1637620268641644,0.05501847887956747,-0.9594701050915437,0.22903292871793404,-113.45878758038151,45.355974111276645,30.125264128019584,0.7894920792023514,1.280029757665282,0.7513242351770241,0.766469614640206,0.7884770056803974,0.6760021078864658,-0.18252523226823011,0.41058880241694706,-0.6923287427970668,0.5712763095213067
0.6,-118.94491978668218,72.47821398573087,179.59321188298097,0.1949583784917403,1.5226305532758648,0.09388415446967546,1.0623538934350414,0.4488281201113781,1.0159888781555961,0.40657124867054356,0.6955922812306832,0.2992783162044783,0.5096074798213978,-113.06863872942769,59.43330643819829,203.63088275720733,0.09869910743012975,1.9246005770583428,0.06908735776525136,1.7938815502173973,0.4739040359380893,1.0740768346794602,0.553623983446487,0.6522754732544418,0.4154973603789077,0.30714479416131774,-154.07595172842986,20.75149093568409,1.7852747954925638,0.16718076394194714,0.7056387498717482,0.5952549655706201,1.5864982401962453,0.8744337118490084,2.3184798190614715,-0.1712299925518849,0.054449700610249716,-0.9594256531794378,0.22345585012906125,-112.36498546535026,47.43052857872314,30.909300407091436,0.8129110925716693,1.4026424890720615,0.752641150118286,1.0310630953794224,0.858233570975818,0.7205557210975584,-0.1891298695398935,0.4254512515517142,-0.6766210390556207,0.5796691503846666
0.61,-118.82489803498058,74.16855707900315,178.13351891733402,0.1955195686219026,1.5287934242920282,0.10117271948634386,1.3106477795000884,0.46771047294568585,0.9833533872812917,0.39586640111364785,0.6912682826844897,0.29702251051175316,0.5243817856151146,-113.481089221433,61.55287000527698,203.31502736178132,0.10975778444340216,1.963171933476452,0.055358420204158855,2.0977272917785252,0.46523462192803317,1.1202603032810967,0.5478706746617221,0.6460579459419478,0.41930923544232274,0.32425794696930876,-154.77392583314344,21.62922756601085,1.691917389333597,0.2037662438460015,0.7007978447746966,0.6944040556012825,1.836628158007763,0.8956868978171567,2.6904658346992263,-0.17863973380846382,0.053845079195069145,-0.9594148476721788,0.2172886495695805,-111.28355058720715,49.6318208135775,31.917559886559836,0.8364253899800703,1.5301339120788595,0.7510064778633876,1.3568915224319393,0.9261144016111488,0.7766553757608451,-0.19494098826297196,0.4413932430656509,-0.6589467215222059,0.58839629697508
0.62,-118.70988699327923,75.79253168590817,176.60204604148825,0.19476310448666243,1.5232299969216672,0.10892117351815502,1.5691050926531196,0.48601155597269835,0.9529740936256693,0.384698326410314,0.6873845479388575,0.29412592855547404,0.5387720105034128,-113.89877804210464,63.69877575209264,202.88383476639274,0.11879454942775376,1.985297670215504,0.04377920877566191,2.3843311898498865,0.4579220648075989,1.1476845662857302,0.5414409991990992,0.6399548425762487,0.42236172693668017,0.34197288480843585,-155.55858906174285,22.47477237108112,1.6682151690198457,0.2607671821874333,0.6884527729565808,0.7996733619595673,2.089964559792499,0.9232815149950433,3.0339193784274157,-0.18577051756474705,0.053537251244461244,-0.9594441501298199,0.21058315854179183,-110.2289952811281,51.9326517398852,33.22740793666584,0.8604237192990729,1.6613004110418284,0.74583668214445,1.7340283867370843,0.9876424029975518,0.841402726455786,-0.19936153733829745,0.4584107867767512,-0.6389843728929236,0.5974376711739691
0.63,-118.60641849317423,77.33188103050776,175.04542331037226,0.1930722468335068,1.5063751077224798,0.11655477043780112,1.8245908893982234,0.5027779675384451,0.9253863603507779,0.3733200662053376,0.6839483940702877,0.29078554612626556,0.5525454186255262,-114.31156253766082,65.85469621968625,202.33148956086248,0.1251063550229724,1.9898029703184201,0.03465122581708343,2.636935985467344,0.45185912970905334,1.154784622243995,0.5343560131251928,0.6340167378035338,0.42463065016438595,0.36014672659254043,-156.43159678185654,23.26307125085631,1.7582465170242063,0.33806348141331005,0.6684996687526877,0.909575277401951,2.3352760913017376,0.9607199296623595,3.330057854689567,-0.19238053633627508,0.053883417825983417,-0.9595203410829171,0.20339434702255293,-109.21815421568981,54.295971828208096,34.92232270551587,0.8851016106385764,1.7946771032737647,0.7364770865684777,2.147895315794592,1.0396426651474104,0.911390423684982,-0.20172783312792186,0.4764782611427864,-0.6164355577097231,0.6067298704005654
0.64,-118.52000104147318,78.76926246124819,173.5130996198968,0.19087871471224854,1.4787132348958318,0.12343505785404094,2.062859884645955,0.517131584410522,0.9013260253181119,0.36201597450647,0.6809510715219453,0.28721617382656184,0.5654764662002177,-114.70921808430737,68.00216778621045,201.65762670980774,0.12819948934748307,1.9759867885273434,0.02811329885786557,2.8403115845046423,0.44688652669320506,1.1409468115576855,0.5266671568343674,0.6282898505150853,0.4261254674474795,0.3786003440001046,-157.39387495532068,23.968232665855115,2.004603224706341,0.434330232801187,0.6413314419146596,1.0221210910894594,2.5599722978791966,1.0107814218158926,3.562046529409349,-0.19822403166942848,0.055233732099607254,-0.9596492794402959,0.195773671982265,-108.26994586525196,56.67523199023346,37.08686452559553,0.9103682701064845,1.9285064328887804,0.7223129391291914,2.5798358401406656,1.0805615438242282,0.9829695071135481,-0.20134335116385474,0.4955426907949013,-0.5910553057729152,0.6161567113048397
0.65,-118.45464604952612,80.0884479665321,172.05355344553837,0.1886027545060842,1.4407771449194673,0.12892790410782,2.2695681751746166,0.528347846760491,0.8817174659228681,0.3510837383425722,0.6783730269607217,0.2836300727216083,0.5773573275694935,-115.08187286569901,70.12099607288054,200.86837394970746,0.12786406829409605,1.943749803117556,0.024157774782916214,2.982022301543973,0.44283045095405144,1.10667898383556,0.5184605879740262,0.6228118234845599,0.42689215235768097,0.3971202605627678,-158.44543423025348,24.56533219201244,2.4446884320070277,0.5470352031412814,0.6078806965088698,1.1346661519002457,2.7510962325579227,1.07500209399107,3.7162315166501743,-0.2030709245798381,0.05790062056847121,-0.9598343019627,0.1877650877415762,-107.40475345337576,59.01549382517137,39.80034512929295,0.935790814660801,2.0607052557214645,0.7028956750556337,3.008105954385637,1.1105703930336792,1.0525588378805084,-0.1975217155549378,0.5155172378196015,-0.5626844567324196,0.6255431910529019
0.66,-118.41260470805624,81.27472998985549,170.7104577433832,0.18659548505422854,1.3931728936031913,0.13247991567503103,2.431429960125278,0.5359425462369083,0.8675475799805509,0.34081343333369596,0.6761894995476011,0.2802168984289478,0.5880094342243226,-115.42047733829953,72.18982636527078,199.97704048172724,0.12421769486205042,1.8936685222543592,0.022653085635157194,3.0535058853455173,0.4395418792383078,1.0537000113441228,0.509859097826703,0.6176081484969447,0.42701367103422627,0.4154633646387789,-159.58494474137703,25.032373521739526,3.107472694777924,0.6725243680201092,0.5695828477282016,1.2438151357218135,2.8965275841968716,1.1532156938894456,3.783196126133434,-0.20672688967823585,0.06213244035605401,-0.960074409304285,0.17940455085291415,-106.64337878843436,61.255356637778405,43.129614604527234,0.9605905028118125,2.1888463788934476,0.678058348816932,3.409246994181766,1.131399371203582,1.1169206798576268,-0.1896362091555171,0.5362749247701382,-0.5312806119546698,0.6346542321715656
0.67,-118.39432517020772,82.31548813649836,169.51925366398234,0.18509520693041395,1.3366233176088262,0.13369331684689936,2.537412613007879,0.5397339184076031,0.8596648335952294,0.3314660727295218,0.6743757160962822,0.2771263867280742,0.5972944617768543,-115.71725191391143,74.18680797875139,199.00427388746905,0.11770828014408553,1.8270053806723756,0.02336787259899927,3.0508324320117817,0.4369349616027655,0.984916406925262,0.5010211233524373,0.6126900531173879,0.42660748778169566,0.4333642713938171,-160.80911740532517,25.352214575729175,4.011050882456263,0.8061927625987612,0.5282642624297497,1.3454383466829358,2.986245784437166,1.2432428527594046,3.7585556306280155,-0.20905161377572332,0.06809420263826789,-0.9603624285002191,0.17072308484390714,-106.0055866622006,63.329680723244515,47.12158940480943,0.98369792761535,2.3101717493071448,0.6479942243387766,3.7597700655013937,1.1458953517571577,1.1733342620878813,-0.17717184482043505,0.5576438685894695,-0.49694399589254973,0.6431992515042072
0.68,-118.39860279919115,83.2008431261349,168.5045472419815,0.18420585239820836,1.2720169419614942,0.13238577500088908,2.579831080487658,0.5398583229157966,0.8585498871070115,0.32325429437852693,0.6729109583950518,0.27445597164056057,0.6051231103753434,-115.96605271046887,76.09028333733788,197.9775378085061,0.10907409030645188,1.7456538692814911,0.025993578818765628,2.9750377251197033,0.43501378500536375,0.9042657297297201,0.4921366095572045,0.6080544811984181,0.42581981687579457,0.450545047790496,-162.11198934012123,25.514256613085085,5.161226850308375,0.9427344595439666,0.4859736224379521,1.4348310720808817,3.01347688734232,1.3408227621867002,3.643411587424113,-0.2099731090062782,0.07585700697412306,-0.9606833718130254,0.16175273832613749,-105.50833333213404,65.17298893051363,51.79630719866874,1.003863920724031,2.421650720250162,0.6132799321192565,4.038031568525282,1.15736318039478,1.2196356891439253,-0.1597750481571303,0.5794053370638208,-0.45993452693124753,0.6508430869002776
0.69,-118.42287304781122,83.92430896050469,167.67862333262397,0.18389977661563583,1.2004467480339254,0.12862131286954878,2.5551936559205934,0.5367413101368009,0.8641021606146703,0.31632747204863154,0.6717809325976856,0.2722448458769738,0.6114603397753108,-116.16260809899013,77.87944962744753,196.9298296831595,0.09926773397185377,1.6520283981190824,0.030164812701204538,2.8319793680091356,0.4338684386602405,0.816425299388724,0.48341967161512933,0.6036864908455596,0.4248166860434745,0.4667268975993587,-163.48424204631303,25.51570504129951,6.551213597885242,1.0764628369794478,0.4447846441252457,1.5070199115081935,2.975548244061452,1.4398564494743455,3.444396504878837,-0.20949636377396294,0.08539656987829916,-0.9610132232974054,0.15253424830217716,-105.16384562747992,66.72332568271648,57.141385323352104,1.0198125504598696,2.520090108770021,0.5748377859258613,4.226114639358384,1.1688061422136484,1.254144805330027,-0.13729543356454027,0.6012957063254712,-0.4206768553351478,0.657223172419937
0.7,-118.46358572092095,84.48335481785851,167.0411924923706,0.18404112060947553,1.123223845243459,0.12270370166018554,2.464674346453507,0.5310419756617988,0.8754832051840615,0.3107627376152894,0.6709781875793587,0.2704749268243677,0.6163263716709514,-116.30460406393479,79.53496955861928,195.89765470547832,0.08935705174471091,1.5489167531800903,0.03547853371846925,2.6317302883606737,0.4336265718591966,0.7264133077741431,0.4750981858145792,0.5995639660897837,0.42377222829326716,0.48164328296160797,-164.9126890367528,25.362244258010854,8.162406508538886,1.2016882387151073,0.40660372065122014,1.557190942983181,2.874308645126931,1.5329781342426585,3.1732630142546805,-0.20770525724847547,0.09660008656602467,-0.9613183723370978,0.14312494506982765,-104.97777261234292,67.9262632123242,63.10875145952099,1.0304152306501513,2.602296006782947,0.5338481114136776,4.3114797705413075,1.1822097648840104,1.2755450488265516,-0.10981415532829283,0.623012958981331,-0.3797510002250818,0.6619720757154809
0.71,-118.51659544640154,84.87979954881503,166.58030081870942,0.18442260714971662,1.0418539004392615,0.1151330891624763,2.314123076312453,0.5235864564049567,0.8910544741189946,0.3065624898052344,0.6705007171904989,0.2690781115743763,0.6197935046214316,-116.3916250322471,81.0395349305429,194.91838747704705,0.08041770328270832,1.4393156757101595,0.041513605398625815,2.387581517000073,0.43436738224541566,0.6391402860653582,0.46740070698235037,0.5956640514791658,0.42285499667318754,0.49505380188336573,-166.38005836275602,25.06802491872539,9.966087698862049,1.313133248323676,0.3730150476724728,1.5811898040191907,2.7160389043325823,1.6124060210328153,2.846016295173649,-0.20475746889519061,0.10927985530475695,-0.9615558736667433,0.13360538681222986,-104.94765762758254,68.73868766534935,69.61437258484176,1.0348619309284666,2.665281270402722,0.4916369690120902,4.288149405347989,1.1980099177501686,1.2828017794327324,-0.0776541184084231,0.6442278107782681,-0.3378675009667169,0.6647436338005241
0.72,-118.57750524500892,85.11997748874069,166.27419033576763,0.18480888574323925,0.9579716737575116,0.10653528384713505,2.113568200315493,0.5152945039145119,0.9084378870136991,0.3036582186301178,0.670349197541257,0.26794841529132046,0.6219793512322637,-116.42498007962753,82.37839861781174,194.0272690464377,0.0734301034216414,1.3262698466953544,0.047851655728606196,2.114770986958875,0.4360270675293896,0.5589839633479069,0.46054151746931926,0.5919702832817269,0.4222135022551126,0.5067579291805504,-167.86516891084244,24.65493598217563,11.925855415179905,1.4063559737183822,0.34518665917479113,1.576026171483023,2.510863872223648,1.670959474313801,2.4816514096435878,-0.20087296885459552,0.12319169548455478,-0.9616746435698942,0.1240833914519094,-105.06196880949251,69.1319861483202,76.54139967059915,1.0328060004959962,2.70650511358895,0.44957097773241356,4.15725677258477,1.2148589478209086,1.2751898189655317,-0.041369157889014414,0.6645989093564273,-0.29582774379278515,0.6652400989762157
0.73,-118.64191245392092,85.21463432157097,166.09381816605034,0.18498139779826578,0.8732429034230974,0.09757735547641246,1.8762367281696752,0.5070979459243607,0.924705657506319,0.3019199315425335,0.6705234648103687,0.26695717818462644,0.6230374311191238,-116.40745806061639,83.53988437449568,193.25437594181187,0.06918985158768845,1.212733454064088,0.05409893265162964,1.8290936417457984,0.438332441539024,0.4894504631761373,0.45470506156990403,0.5884791428864038,0.42196252335859175,0.516607534100367,-169.3435579515943,24.151216636014716,14.000535118460416,1.4781403310189172,0.32384529849960064,1.5403071351304336,2.2717601310054003,1.7030748172622918,2.1006209146851016,-0.19631742677065322,0.13805612700760292,-0.9616176020798654,0.11469453643662007,-105.29988062315464,69.09429447990331,83.74668824290592,1.0244619750602635,2.7241207944674546,0.4089844915157807,3.926890669342259,1.2297568760703395,1.2524548943998455,-0.0017120442989039181,0.6837908299610369,-0.25447225953418934,0.6632371706493089
0.74,-118.70553182079128,85.17853845548697,166.00571889762196,0.18478001681450207,0.7892569607009152,0.08888333122228351,1.6172142765122899,0.49985672735422987,0.9366755623225944,0.30117003259285474,0.6710188533553993,0.26596940615926085,0.6231461934696315,-116.34305853571965,84.5158668588387,192.62192505966436,0.06823834542929932,1.1014686111055314,0.05990763553702075,1.5455726427158034,0.44079036810741484,0.4329592647392718,0.45003131090433585,0.5852048110663951,0.4221718423941701,0.5245170367659034,-170.7885596394111,23.589543122129864,16.147305256315025,1.5268029256100515,0.3093123570466413,1.4745279073092183,2.013315258433642,1.7056247012922217,1.7232026253437691,-0.19138240638920126,0.15358036882103768,-0.9613246445186718,0.10559875773984458,-105.63192294093201,68.63155093050244,91.07014467559138,1.010640229694038,2.7171968013306644,0.37114652119955427,3.6112704269929283,1.2385502024856123,1.2150701742848384,0.04041573380437017,0.7014929825072311,-0.2146219150256342,0.6586037478835041
0.75,-118.76420596480055,85.0298239252402,165.97490961326693,0.18413481566310025,0.70743812579327,0.08096207730113826,1.3519454969058782,0.49428621526395666,0.9412647529294306,0.3012001193902889,0.6718229657693617,0.2648593734913168,0.6224975459689128,-116.23673858952797,85.30219394529001,192.14222633163686,0.07081903439986155,0.9949839827651434,0.06499479268519677,1.2773604969317682,0.4427435850213851,0.3907625813797187,0.4466035958645605,0.5821812843154145,0.4228587862289595,0.5304702153080385,-172.17276312712735,23.00479020579379,18.324757069759567,1.5523644003125565,0.30158325456797264,1.3811654226438257,1.7504175093752843,1.6783698786404404,1.3679521683619003,-0.18636446572022858,0.1694793182980295,-0.9607361802386712,0.09697329120229067,-106.02151901488853,67.76722237224897,98.34592192964215,0.9927083941370395,2.685871703303277,0.33725412622471124,3.229373035507709,1.236727157511956,1.164491685133301,0.08402683398938125,0.7174373396968364,-0.17701841458971795,0.651313776521868
0.76,-118.81384972819664,84.78910749385292,165.9675765346071,0.18307993025182598,0.6289950958176279,0.07415696649252376,1.0947985122943178,0.49090744330038966,0.9358509338730883,0.30178886152108453,0.6729133822291742,0.2635238100685072,0.6212858439385981,-116.09420042449958,85.89900326563824,191.81648321123416,0.07686314642049695,0.8955040066624688,0.06915720987703197,1.034982802384997,0.4434867914746184,0.36298711136456024,0.44444015459901626,0.5794616251368905,0.4239853312320182,0.5345229720676324,-173.46970647597206,22.431704881788185,20.495616618336747,1.5565442863732126,0.3004289480709491,1.2645488904131543,1.497033352190866,1.6239505972052048,1.050405649317805,-0.18154525714960745,0.1854938277546571,-0.9597968285556974,0.08900277682907981,-106.42733376018042,66.54070850770715,105.41424791084573,0.9724773890834818,2.63140657352503,0.3084272178602357,2.803200631982925,1.2203699749460297,1.103291110819206,0.1281164549074186,0.7314132333544328,-0.14227091403736003,0.6414486020747455
0.77,-118.85040103489264,84.47844063543889,165.95333626493147,0.18174381425029665,0.5549136224142227,0.06862326227368652,0.8578849530330216,0.4900218540056859,0.9185998323425405,0.3027190125660757,0.6742567311477125,0.2618913035194803,0.6196980773773763,-115.92172593507891,86.31086948425519,191.63451427873238,0.08600551058696493,0.8049506934783172,0.07228167107183509,0.8259552609274132,0.4424243201745782,0.3487696309234987,0.44349024440607093,0.5771147446370847,0.4254598311386987,0.5368017151581007,-174.65560549061559,21.902732759945593,22.628903748654622,1.5425636004319645,0.3054971093558888,1.130516147396066,1.2651835846035793,1.547429802422035,0.7821463854271189,-0.17717445632128626,0.20140495001236455,-0.958458753450939,0.08186781851856634,-106.80626133209249,65.00456880445022,112.1326302223968,0.9520197184507327,2.556111836557306,0.28568315431921704,2.355906414062479,1.18707430518813,1.035068657846341,0.1717288229532704,0.7432781539655927,-0.11081480802020287,0.6291895720264652
0.78,-118.86985660793854,84.1201678398643,165.9069265433526,0.18031658306754317,0.48598340961821196,0.06433434022781905,0.6502628216004813,0.491703499009045,0.8887284516049513,0.3037917829135657,0.6758094089276558,0.25992696673055593,0.6179057513226129,-115.72604909249341,86.54671660305124,191.57536574470583,0.09762674530537353,0.7249195784784386,0.07434992511026078,0.6547318714086766,0.43924205892144125,0.3464520226959868,0.4436352403146589,0.575220540120026,0.4271428663095222,0.5374973512932921,-175.71089287707167,21.446203870650713,24.701382568804927,1.514773788879506,0.31639169756693886,0.9858998193044374,1.06418566707908,1.4554955584494678,0.5702843983338926,-0.17345688477789506,0.2170434050911512,-0.9566841250112641,0.0757335473718052,-107.11680311723164,63.22084172500334,118.38528731961385,0.9334390048063498,2.4631458606104877,0.2698838015824169,1.909979750805358,1.1366272567262472,0.9641187011560894,0.21401493169626526,0.7529641585779637,-0.08288724838867317,0.6148020359851212
0.79,-118.8684514267352,83.73577000657617,165.80924624209837,0.1790025179555501,0.4228413351171492,0.06111291953650324,0.47757251631162456,0.4958007037216311,0.8466768610148573,0.3048372676125878,0.6775200271495908,0.25763196011284073,0.6160587551486142,-115.5142493991772,86.61944907622812,191.60871638763376,0.11091419712130021,0.6566381042685391,0.07543800000532144,0.522902981676555,0.4340591491533371,0.353806075686137,0.44469472680369504,0.573864326136594,0.42885638455062625,0.5368552102852195,-176.6213676129846,21.08502079176955,26.698245954357617,1.478164569296655,0.33271710344940414,0.8379175586377614,0.9002008015260969,1.355492813881348,0.4173447143830934,-0.17054456677919008,0.23229411805682718,-0.954446374038908,0.07073964864333523,-107.32252721044034,61.25682553245359,124.08985462297923,0.9186221068650433,2.3562079761012673,0.2616622102636591,1.4856457046185425,1.071273371014841,0.894907307389996,0.25427589981758913,0.7604799014942614,-0.05852203397944602,0.5986131527647314
0.8,-118.84299974245383,83.34477733715478,165.64772833995158,0.1779702117496512,0.36601004412706045,0.05867961925402565,0.3420826907313066,0.501944482334922,0.7941608765405426,0.30572027412375097,0.6793333805534327,0.2550381076269847,0.6142813891220029,-115.29364966569354,86.54529748248873,191.6969364311772,0.12493236574738473,0.6009054059516187,0.07570910620987044,0.42955710097547456,0.4275210696692127,0.36826619026329005,0.44643716848818016,0.5731313276925258,0.4303951988057639,0.5351615424350943,-177.37882765841985,20.83591220662196,28.613052430416882,1.437826011561973,0.35408619806321234,0.693558518296613,0.7761004362624883,1.2544745813087619,0.3215302974138884,-0.16853376527428504,0.24709608409189582,-0.9517302084697027,0.06699286999720562,-107.39526266624904,59.18074787616216,129.2007117538546,0.9090144486668834,2.2391742087125213,0.26134357924198953,1.0995956934293054,0.9955043522676563,0.8314833611814209,0.2919881326703353,0.7659084730751824,-0.03756423316016127,0.5809867625302028
0.81,-118.79136399684131,82.96383797285863,165.4160910292802,0.17731278452846705,0.3159141442968158,0.05670920491460278,0.24306720245340296,0.5095659860044731,0.7340823591144113,0.30634158178267634,0.6811954232238867,0.25219854942809306,0.6126706221668433,-115.07170507149873,86.34292761871988,191.79763897415432,0.13869499874501032,0.55802322318776,0.07539921099083831,0.37173524419375276,0.420803182931201,0.3871526612268837,0.4485943543714252,0.5731016487950592,0.43153997536799327,0.5327275265955036,-177.98115781348935,20.709237531070734,30.44699771718998,1.3984443387911745,0.38010243821816236,0.5590542405919287,0.6916408578626327,1.1584367134262532,0.27730581590536524,-0.1674664325930807,0.26143806436497663,-0.9485306355632409,0.06456242603956748,-107.31767701082698,57.05774738201008,133.70870059112914,0.9054577655765162,2.115741802926886,0.26887597644670397,0.7641414145373124,0.9154440215786385,0.776960145533055,0.32680903188461735,0.7694013354496674,-0.01970228180430767,0.5622987470635714
0.82,-118.71297095988068,82.60602203780599,165.1135715879132,0.1770273990477215,0.2728643710317864,0.05488512736176339,0.17740736120463896,0.517925083449447,0.6702894105732914,0.3066352877174962,0.6830585078208281,0.24917601966558814,0.6112965053179635,-114.85587362532789,86.0324071473614,191.86654921726335,0.1512346519714647,0.5277349873366926,0.07479502304844002,0.34492494701979126,0.41551542619783594,0.40787074831332293,0.45087850142538544,0.5738457318571613,0.43207098731738836,0.5298719323109757,-178.43193169218247,20.70926853714113,32.20765968531657,1.363896436693207,0.41032839576354513,0.43949398613519086,0.6439073345140874,1.0718367546488348,0.27622816806041933,-0.1673351210313439,0.2753508701228596,-0.944851355146937,0.06347823627723197,-107.08492729015327,54.94651638090668,137.63750419368228,0.9081142844697999,1.9891492909011104,0.28378326932634457,0.48684795676340603,0.8379928714897981,0.7331759405344689,0.3585649690951106,0.7711687982445159,-0.004512803251903652,0.5429157144481578
0.83,-118.60926604032504,82.28042235960679,164.74380464809298,0.17701873597626244,0.2370109498714434,0.05294505362627327,0.14031325142295417,0.5261492784483941,0.6072055359152849,0.30656339683323053,0.6848860510035784,0.24603078970066639,0.6102044173323931,-114.65345911616478,85.63414607497172,191.8605083248698,0.16166890321177096,0.5091925260177023,0.07420561555537446,0.3435562624336602,0.4135228151258143,0.4280747423087693,0.45300072774869177,0.5754200508978498,0.4317820064310819,0.5269036316713768,-178.7396354250021,20.834839668950003,33.90739631143379,1.3369827203115938,0.44424912746730283,0.3386042677018237,0.627963781902789,0.9974172397846701,0.3079326604697892,-0.16809025790696042,0.28889727868578674,-0.9407028508721135,0.0637317415677301,-106.70516722387316,52.89682620437289,141.0373963488651,0.9164793478288259,1.862018946988465,0.30514775051592985,0.2706418018943959,0.7699137787449344,0.7005898565026388,0.3872257825148216,0.7714676734487881,0.008488174971352777,0.5231787640983435
0.84,-118.48399590180966,81.99208367736664,164.31355058109523,0.17712580328890995,0.20827812559610184,0.05071303548753797,0.126071011087114,0.5332831073183371,0.5493755754987496,0.30610912610160673,0.6866558506024201,0.24281044064820617,0.6094185472183057,-114.47141847346211,85.16792258489889,191.74042183320384,0.16926343641351688,0.5009677688482774,0.07393031069088404,0.36147569065030216,0.416710062012129,0.44579184358534335,0.45468956110735326,0.5778627653415509,0.4304937027482708,0.5241050723410415,-178.91662828779417,21.080249425537595,35.56159046948386,1.3193116756274648,0.4812351186950844,0.2586786237905021,0.6376229397132791,0.9362850262817088,0.3611788722238003,-0.16964874452441334,0.30216081398394995,-0.9361003836746465,0.0652790744503126,-106.1988220621287,50.948011112922536,143.9773277106826,0.9294660246234572,1.7363349470561447,0.3316250244285293,0.11432455846505056,0.7170081807285976,0.6784104853486327,0.41287144315881624,0.7705869138080563,0.019794110452137706,0.5033929277596098
0.85,-118.34323556231033,81.74225613611095,163.83148875560863,0.17716601354217498,0.1862995529434697,0.048116606658575554,0.12873750797978703,0.5383541766799879,0.5009932001488068,0.30527042814922983,0.6883614910280812,0.23954331401734563,0.6089458711617153,-114.3161296346727,84.65208009097474,191.4739554385289,0.17349038798725303,0.5011210398584225,0.07422629661111343,0.39238616728499404,0.4267233964335056,0.45950637105803793,0.45570816745277637,0.581189314359845,0.4280658265661905,0.5217177007075667,-178.97793974253437,21.436303816705152,37.1869237359624,1.3113279782666318,0.5205094166986923,0.2006270838657722,0.6662394143681023,0.8881638316674917,0.4248672248811744,-0.17190300203221723,0.31523462770798727,-0.9310619523630221,0.068046410637419,-105.59668408005467,49.12836151423548,146.53636516723063,0.9455356220522227,1.6135365096574992,0.3614908936804266,0.01337808264270756,0.6834876330205386,0.6649027874080374,0.4356566475596012,0.7688321185537067,0.029862454808438788,0.4838219403272157
0.86,-118.19511926075603,81.52893243207036,163.3072483128745,0.1769862358771856,0.17037694303478115,0.04518916709334276,0.14271874845922228,0.5404661176482742,0.4654738366884124,0.3040549710101023,0.6900116079427424,0.23623672632640674,0.6087799478288365,-114.19312498588694,84.10294471044763,191.0377763476758,0.17407690883014823,0.5073283497022688,0.07528007729785012,0.43024748849924965,0.44472578188921613,0.46820910493310924,0.45586902159433823,0.5853883256089701,0.42440731980599833,0.5199302386141647,-178.9399858079008,21.89140985176249,38.79983341956027,1.3124607464993094,0.5611257913038813,0.16411312020421695,0.7074259640986539,0.8517431377039022,0.48894829471315626,-0.1747297726819366,0.32821157536943824,-0.9256061784311247,0.07193724597384318,-104.93701410573136,47.45529487198283,148.79540372229465,0.9628468069839813,1.4946813952313338,0.39271939377424114,-0.03907079909101671,0.6716027599111031,0.6577846805064304,0.455778238121774,0.7665097838091789,0.0390787215309748,0.46468736767770547
0.87,-118.04928170892624,81.34759696723907,162.7507669634339,0.17650861116626496,0.1594814291182375,0.042059973574321965,0.16318826633805472,0.5389235037908492,0.44512359887843966,0.30247733024703316,0.6916271603991797,0.23288000281571836,0.6089040821138602,-114.10680720463682,83.53447504727347,190.41914328926896,0.17103614352646812,0.5170581547440617,0.07718713963737053,0.4696296099811159,0.4712023733995741,0.47141734523649237,0.45504484495814584,0.5904185537044079,0.4194834228687302,0.5188706470890768,-178.81928260079113,22.43264445590732,40.41527062010529,1.3213582751861424,0.6019660246331507,0.14775064199744306,0.7556043409455556,0.8250735395407406,0.5451581472949403,-0.1779981337328657,0.34117635733711926,-0.9197500428978919,0.07684113182304797,-104.2619462708528,45.9361370365634,150.8298938237951,0.9794005767166049,1.3806255102890255,0.42309108061225925,-0.051252052153652146,0.6815493307826627,0.6546186576004708,0.4734489127323094,0.7639121372631996,0.04773236279785957,0.44617079899174233
0.88,-117.9160584061809,81.19209458814174,162.17198036466053,0.17575965139325614,0.15230916461662938,0.03893586182978511,0.186327007010568,0.5333792665516515,0.44093775648528366,0.3005586045500744,0.6932371679791668,0.22945142089097242,0.6092936568736985,-114.06017481214818,82.95812763060587,189.6166727536907,0.1646729693385889,0.5277749358490906,0.07994339611278323,0.5060040701687513,0.505847010198963,0.4691675709331982,0.4531748715313136,0.5962076918527034,0.4133189027668074,0.51860248726483,-178.6312388676229,23.04673862819597,42.045834824432255,1.33616968195397,0.6417626272826848,0.14933798982874052,0.8063309257976494,0.8059754795240166,0.5875274750030035,-0.18157629344311718,0.354200284208689,-0.9135064702377758,0.08264318340013929,-103.61357745841084,44.56934690595534,152.7041184333927,0.9931660037626997,1.272167957650658,0.4503287924111792,-0.03182710464423797,0.7116304888470597,0.65312605420633,0.4888789915484249,0.761303390129462,0.056005159410616685,0.42841777952813764
0.89,-117.80552573711702,81.05551941757378,161.58078207024195,0.17487493208325847,0.14739139533344675,0.03607958093414852,0.20939200018769355,0.5239782519416214,0.4525447152657228,0.29832817349619306,0.6948735377795715,0.225927563359867,0.6099176192343888,-114.05458999506563,82.38290658010983,188.64016409829193,0.15556049326061364,0.5371376446678967,0.08344980826792643,0.5359518668176793,0.5475484743351905,0.4619775232283561,0.45026587635874776,0.6026537317679502,0.4059968074391304,0.5191261560095382,-178.38911194124643,23.720928506701206,43.70131344787999,1.354832356598476,0.6791492478886458,0.16610785916301918,0.8563823591525747,0.7924233021366186,0.6126314551506803,-0.1853368601704823,0.3673388201599044,-0.9068818792626918,0.08923354640603794,-103.03017095712895,43.346037669972645,154.46733937371073,1.0021806688602237,1.1701245102378262,0.47225287939455807,0.01088244688177433,0.7586203920731799,0.6513898310685875,0.5022663544312486,0.7589082653959585,0.06397154984224035,0.41154237114497655
0.9,-117.72648167793916,80.93103235919627,160.98716735761423,0.1740781882534119,0.1432473010495681,0.03378872412324163,0.23064228064641987,0.5114600653559948,0.47829292346567015,0.2958269415287139,0.6965656120812234,0.2222934576763599,0.6107392343208722,-114.08961943596076,81.81556213858156,187.50945979440908,0.14448887614148784,0.5431629710313647,0.0875289346382393,0.5572659465629918,0.5944804097530371,0.4507740993359593,0.4463878775098371,0.6096291037678683,0.3976526580524743,0.5203850808090122,-178.10320497419966,24.44363638187656,45.38860673631974,1.375327704429268,0.7127368011686915,0.19497314131629873,0.9036305817747116,0.7828544012822211,0.6195685705883113,-0.18916043251874942,0.3806316271374186,-0.8998739347469223,0.09651596975662703,-102.54290247328855,42.25167434048086,156.15192693693524,1.0046284119011517,1.0753127690980482,0.48694104709413805,0.06945880833501536,0.8182533396348077,0.647947129191907,0.513793307486684,0.7569036402317724,0.07160935022716147,0.39563156259631904
0.91,-117.68547581799928,80.81253728468823,160.40147714400567,0.17364048045737024,0.13855812231616543,0.03237717537726747,0.24916421397753927,0.49718643175716265,0.5154604424812481,0.2931111953244649,0.6983349386733242,0.21855208779015567,0.6117163076626151,-114.16297084663718,81.26090202890909,186.25244433036258,0.13239297124912797,0.5443370481506544,0.09195005262381917,0.5689373493108177,0.6442836757269647,0.43679010330217055,0.44166498469720616,0.6169872513230243,0.3884646264100911,0.5222763891791382,-177.78036641162873,25.204956997139412,47.111976198668835,1.3958766751196299,0.7412094954892623,0.2327513810395016,0.9467648985672209,0.776352739794387,0.6096818334411425,-0.1929375298454551,0.3941044902935177,-0.8924697944896309,0.10441464339617287,-102.1735122746031,41.26785070770368,157.77340129979862,0.9989038342433294,0.9884556173290301,0.49287396401969313,0.13772202191038874,0.8857563206036677,0.6417942054368877,0.5236282943803255,0.7554139681871999,0.07881865110307001,0.3807490636177142
0.92,-117.68599408531004,80.69517569833538,159.83467947076542,0.17382954547196264,0.13233556498723095,0.03215880932621309,0.26464415987362083,0.48307252941397555,0.560554705721509,0.2902561722845676,0.7001905815766051,0.21473222715737117,0.612801125592404,-114.27053598956675,80.72217851747294,184.90242030830234,0.12026796818568719,0.5396740120834755,0.09645840282455699,0.5710327936431979,0.6943168893869546,0.4214419725457361,0.4362624764789519,0.6245707854984481,0.3786408471989018,0.5246649146600625,-177.42382810974635,25.996937484290868,48.87352469902819,1.4150596412707743,0.763431585896844,0.27635550932741637,0.9849340753940795,0.7726738800914955,0.5860687229108634,-0.19656904046551205,0.4077723256214257,-0.8846451626336631,0.11287851572755761,-101.93309744234502,40.37406575908411,159.3321572915067,0.9836762615667302,0.9100317079663393,0.4890497572075898,0.21084246160137926,0.9563503993972158,0.6323347481727558,0.5319301310177614,0.7545107770253181,0.08544632041522135,0.36693823579976004
0.93,-117.72789028193858,80.57563097968253,159.2986556071208,0.17486052136966362,0.12405717972508042,0.0334316721783175,0.2771350557710843,0.4714212353867992,0.6096652375441158,0.2873585985994307,0.7021251587730286,0.21089395690473334,0.6139403514790442,-114.40653793809769,80.20151508174696,183.4952042516263,0.10908281295512169,0.5287261374722565,0.10080381736627665,0.5644892435913047,0.7419409401561387,0.40620565263121855,0.4303717165893556,0.6322200823493168,0.3684054474075441,0.5273988469861447,-177.03338976024713,26.813651701845433,50.67380284128508,1.431859685437919,0.778554024499104,0.32294350750190676,1.0173924425820975,0.7721108324813256,0.552959830203925,-0.19996549426202623,0.42164246801084626,-0.8763644431789029,0.12188246245415754,-101.82210517481136,39.549429832232605,160.8165211025904,0.9579641192279985,0.8401178677074268,0.4750574363527507,0.2852660629076926,1.0256630186344906,0.6193030349700925,0.5388527104225028,0.7542160329131049,0.09131344914343738,0.3542240678743886
0.94,-117.80713382555584,80.4522593009785,158.8064866996427,0.17685736930963902,0.11374630715214934,0.03646033477720441,0.2868555307191493,0.4646767576193727,0.658832075148157,0.2845377489423882,0.7041117660724892,0.2071316520709524,0.6150750291034925,-114.56376921406029,79.70034147352062,182.0663255066714,0.09970036210955247,0.5115505655081262,0.10476446790666284,0.5508607136947883,0.78479609302485,0.3925070665417188,0.424194788069116,0.6397811855370917,0.35798504715203106,0.5303250499333237,-176.60592806614324,27.651080495895012,52.5124405702779,1.4456413112714284,0.786110711321598,0.3700231025330059,1.0432345370242229,0.7752358351761018,0.5150649825809621,-0.20304555585330086,0.4357175778311617,-0.8675821984406619,0.13142500011451488,-101.83141612138199,38.77423504853239,162.20670233991657,0.9212234056649866,0.7782738452298325,0.4511070629391076,0.35850372288324456,1.0900134821809684,0.6026886504386113,0.5445486683471862,0.7545086769351128,0.09624314432750543,0.3426142563086452
0.95,-117.91591170676189,80.32508000386734,158.37275552478374,0.17983029987091925,0.10198318360226921,0.041454595003305644,0.29404625048733546,0.4651267663643172,0.7043936986881986,0.28193488760103697,0.7061019643536188,0.2035745624991543,0.6161406954242804,-114.73390090712213,79.21981165481226,180.6486779388237,0.0928113388752301,0.48863948270255436,0.10816280674899577,0.5320520982988779,0.8210285846344496,0.38163882712749264,0.41793061902233714,0.6471121234561802,0.34759733735277254,0.5333021580842329,-176.13618193180463,28.50681895500201,54.388721695658944,1.4560851947064508,0.7860951231917361,0.4155113522025061,1.0612807604174466,0.7825789011352762,0.4769811267013996,-0.20573418370794253,0.4499977140603197,-0.8582459098724938,0.14152271387593526,-101.94427821434884,38.03132470853354,163.47915936364888,0.873443205665151,0.7235116570943538,0.4180194173959628,0.42884410773197973,1.1465550389138466,0.5826813228018392,0.54917110767675,0.7553333264917764,0.10008621832989895,0.33209964046811485
0.96,-118.04308548303979,80.19566206718603,158.01387640041554,0.18366971320991524,0.0898447547533531,0.048544187340871306,0.2988909843647307,0.4745894638527304,0.7432797935143616,0.2797111501144529,0.7080249808284874,0.20038528127963384,0.6170674622268957,-114.90784174733966,78.76118154502355,179.27087671875543,0.08888639139068785,0.4608251490359354,0.11087262215477586,0.5100667951837072,0.8494314315314662,0.3747079179100762,0.41176393455792476,0.6540871471654227,0.3374428736275939,0.5362100340146749,-175.6177401419415,29.37964207894902,56.3020448966197,1.4631018241422735,0.7790086100673309,0.45775522222401327,1.0701335376778407,0.7943106324160089,0.44273268931088333,-0.20796090365895797,0.46448132748631443,-0.8482997569239625,0.15220208895793313,-102.13878415274283,37.307196760637495,164.61088973742946,0.8152311152410465,0.674370998586352,0.37717966262805314,0.4950475883473965,1.1932818719496532,0.5596443167100726,0.5528730258229848,0.7566100444789167,0.1027425212879849,0.32265444545026783
0.97,-118.17496681731474,80.06693755573228,157.7484386168133,0.18815349100753498,0.07878106008193819,0.05775132647801177,0.3014940833341501,0.4941244052781099,0.773219001088897,0.27804396189553404,0.7097881976364199,0.19775632964222728,0.6177798956450149,-115.07612938857116,78.32612220705627,177.95643717786703,0.08814776117800989,0.4291743139855889,0.1128179420971531,0.4867861738437417,0.8694806186883114,0.3726121175435768,0.4058577510557917,0.6605988203785745,0.32770054320095315,0.5389549061916035,-175.044136181333,30.268972668002238,58.25224030058249,1.4667432300145047,0.7658726316389257,0.49552582791429056,1.0683770854436103,0.8099877023222929,0.41548133680614785,-0.20965856971954133,0.47916510861027456,-0.8376889037849866,0.16348983443366633,-102.39057335189763,36.59278265931696,165.58319093202738,0.7478658834151839,0.6290953040296964,0.3304602057707077,0.5560694492522896,1.2289373362451739,0.5341138646958237,0.5558045160889318,0.7582441835326178,0.10417596116654163,0.3142369272772707
0.98,-118.29634402912569,79.94296196213988,157.59749883645617,0.19296321330339955,0.07044389436267913,0.0689649831799926,0.3018964313145944,0.523805316156189,0.7928442720512662,0.27712201137307696,0.7112789529940736,0.19590486091722015,0.6181966607404507,-115.22934206691747,77.91694130789297,176.72374774792942,0.09056033515363941,0.39488615060320625,0.11396615993730065,0.46379538095038425,0.8812676592490049,0.3760374550038424,0.4003494952020907,0.6665582663647,0.31852642072342174,0.5414703005889742,-174.40993963100723,31.174307414266284,60.23973290512114,1.4671257030431517,0.7481996369103594,0.5280007754756859,1.0548620960152058,0.8284063071281093,0.3974064401667095,-0.21076282674051286,0.494042812580691,-0.8263637169837621,0.17540295533017944,-102.67546697187146,35.88385820908514,166.38451154009462,0.673295298553827,0.5858787433424228,0.2801188439212594,0.6108473290537434,1.2528791150600675,0.506813781100876,0.5581081032261064,0.7601355589151174,0.10442174105481064,0.3067910119574238
0.99,-118.3916707810011,79.82862950658078,157.58470225537664,0.19770555138600018,0.06648814640586188,0.08192196740797679,0.3001103359573247,0.5625915798315748,0.8016999771781439,0.27713871047192307,0.7123677146493238,0.19506526755369266,0.6182301533857273,-115.35852465982465,77.53668459755906,175.5866784747777,0.09584144067279782,0.3592045077944177,0.11431894821268782,0.4422702087252025,0.885348765106279,0.38546470662074644,0.3953502785369329,0.6718941691306336,0.3100550902975463,0.543714524478131,-173.71173102190585,32.0946640430879,62.26556387517012,1.4643704666327877,0.7279209249942694,0.5547438935074145,1.0290046138604165,0.8475980954627885,0.3897280141983014,-0.21121231915430244,0.5091033888880033,-0.8142834259374961,0.18793976608753266,-102.97179866889307,35.1810674725465,167.01213110382324,0.5940641960015975,0.5431389614809062,0.22867897466036843,0.658176324907909,1.264954990994163,0.47867200740100585,0.5599127469201914,0.7621865166040557,0.10358509010420522,0.30024934973654743
1.0,-118.4463152430274,79.72934246807696,157.7360752221074,0.20193612732329191,0.06836776585206848,0.09620000979499069,0.29615801661508284,0.6083310255646371,0.8001791577616205,0.278284083332716,0.7129127560399687,0.1954794179982053,0.6177865936175816,-115.4556255972489,77.18909369818188,174.5555738702977,0.10348900200634518,0.3233493955226196,0.11390443888922898,0.42293710345927465,0.8825469442407486,0.40117049764071894,0.3909464361770762,0.6765512888357724,0.30240211946435597,0.5456658566140905,-172.9488610149043,33.02811079549042,64.33129863208387,1.4585640707635354,0.7072743857500393,0.5756837454085598,0.9910319798952512,0.8649894637478293,0.3928267931202461,-0.2109495820071611,0.5243289145553763,-0.8014189068312718,0.20107282516437372,-103.26227147198877,34.48957176939926,167.47256137949122,0.5131690908239754,0.4997657681897671,0.17879919490071566,0.6966864317360938,1.2654221826117034,0.4508268481954591,0.5613271667253508,0.7643087391141778,0.10183176808046021,0.2945379043943105
1.01,-118.44776102525114,79.6506306743315,158.0793345229151,0.2051838143865543,0.0771471896739335,0.1112272351994827,0.29010470439631697,0.6579162056551353,0.7894321947604106,0.28073515071069033,0.7127664796429788,0.19738440219426379,0.6167671911055547,-115.51393770434528,76.8784101329655,173.63834455383204,0.11282770078014985,0.288465027022352,0.11277238199408296,0.40610896123267054,0.8737520782769619,0.4232114648785194,0.3872022051438789,0.6804892143211098,0.295666325461052,0.54731672632391,-172.12392222044343,33.97143165049039,66.43886411171417,1.449735367121259,0.6886599841979323,0.5910879034387668,0.9421259656212888,0.8777214456460939,0.40641383073109955,-0.20992249861263296,0.5396928947249747,-0.7877544260966769,0.2147445045694527,-103.53524155488732,33.81836787790116,167.780736491625,0.4338501499860485,0.45530131307753907,0.13314022701785097,0.7249281468206754,1.254917502130914,0.4246110097483879,0.5624332592242742,0.7664287834140949,0.09937175148435252,0.2895818242753919
1.02,-118.38664985195929,79.59772227658954,158.64260598126404,0.20697460640331133,0.09334632117504607,0.12631049101368855,0.28208410679040613,0.7075966207753537,0.7712783345237045,0.28464507819586193,0.711783439589513,0.20099797676694478,0.6150709578773924,-115.52852684935908,76.60903754436076,172.84140101024892,0.12307192079955738,0.25557597545268446,0.11099143069708271,0.3917853928379846,0.8597615874412522,0.45139012137403206,0.38416244646702813,0.6836818377006757,0.2899307746872827,0.5486680456461852,-171.24289402013613,34.91996998241947,68.59036328878202,1.4378427778271317,0.6744743608613875,0.601530240110038,0.8844424834225556,0.8830939158090287,0.42971147481493444,-0.20808616241240493,0.5551594346942927,-0.7732882562277652,0.22886566638119282,-103.78539448416878,33.17934644839143,167.95822338939806,0.35934461398899764,0.41002025760711674,0.09423664704446069,0.74156034239133,1.2344636630946182,0.4015031889841465,0.5632804748148073,0.7684923506736256,0.09643849502207626,0.28531196975217216
1.03,-118.25756432594734,79.57507933008657,159.45252439297207,0.20685653672290372,0.11683403060842952,0.14068176303163277,0.27232008080753967,0.7534209693726021,0.7481224415534956,0.29013156818713487,0.7098299309220778,0.2065022782813341,0.6125995476824976,-115.49661926233877,76.38509831808302,172.17024825431858,0.1334023034560787,0.2255430163607534,0.10864587876138115,0.379792852511701,0.8411910420489487,0.4852140945482819,0.3818546122511057,0.6861176904204809,0.2852619822211186,0.5497245468969542,-170.3149508071385,35.86767868249939,70.78791161005373,1.4227661077547948,0.6669361503400226,0.607849153421723,0.8210171088041605,0.8790611745216745,0.46162168093463846,-0.20540492576708674,0.5706836362287244,-0.7580320897154829,0.24331769957592145,-104.01383365700423,32.58617865126405,168.03080142605407,0.2926341506170782,0.36489630649713456,0.06437819629322376,0.7456180114661732,1.2054794551698718,0.3830432477594165,0.5638820353024926,0.7704672046540555,0.09326671768588327,0.28167118023715426
1.04,-118.0594712766904,79.5859283686971,160.53177938551454,0.20442969605375108,0.14678221333326588,0.1535582258157394,0.261151144423405,0.7917523878514328,0.7228491778873125,0.29726516853330454,0.7067947836154431,0.21402672045694274,0.6092641941649377,-115.41790569844436,76.20993979026275,171.6296558539906,0.14304991808754133,0.19901616562241817,0.10582918117450622,0.3699330539231665,0.8184644338570992,0.5238691266159055,0.380289610623711,0.687800945802763,0.28170734126521485,0.5504915803018767,-169.35195410353532,36.80738058235384,73.03352541047842,1.404300650308543,0.667911417838836,0.6110927189939862,0.7555812343405306,0.8646762951341552,0.5008694508802283,-0.20185439538547728,0.5862133481197053,-0.7420092522114887,0.25795786969676304,-104.22764090794409,32.05312469707327,168.02580781250677,0.23621926718962075,0.3214608814092179,0.04550167151061099,0.7368165060812951,1.169751572866225,0.3707159164568633,0.5642137674531386,0.772344586531748,0.09007165468686058,0.2786192309558584
1.05,-117.79578176924856,79.63183249619136,161.89626673959674,0.19938593846692038,0.18168907634387227,0.16420895530065013,0.24906158038324344,0.8197754631444687,0.6986548159555477,0.3060583536045927,0.7026007677595274,0.22363126669137096,0.6049944559234248,-115.29471419998355,76.08565455248119,171.22341163179772,0.15137910436605564,0.1763904407916889,0.10263346382666455,0.3621116495943376,0.7918733019435984,0.5662270436435863,0.37946165613008515,0.6887526610911994,0.2792912658189765,0.5509734830830885,-168.3676855654332,37.73120649680725,75.32906221951978,1.382155090503167,0.6787471665232007,0.6124445233594523,0.6923131443629303,0.8403743120029197,0.546115375854724,-0.19742318800540798,0.6016920893840412,-0.7252519848520123,0.27262744804371,-104.4389939201105,31.593853395338986,167.96962427124555,0.19194736818882993,0.2815769723313183,0.03909192949980125,0.7158295951918974,1.129332498509586,0.36581614390456285,0.5642161085876373,0.7741389765574356,0.0870322182433953,0.2761355169109728
1.06,-117.47402755152714,79.71236278009341,163.55209745782406,0.1915596802004063,0.2194751297220824,0.17202097421552082,0.23671592136621902,0.8359043238329887,0.6787910680116277,0.3164564005828676,0.6972157865036427,0.23529149716569275,0.5997481198670532,-115.13200803297687,76.01267875548878,170.953745711551,0.15795808622418805,0.1577755689586198,0.09913698030009191,0.3564311246539168,0.761678436207878,0.6109023277516983,0.3793474896060412,0.6890117526841247,0.278010829445009,0.5511734279891374,-167.37691954434933,38.63113687065072,77.676167822234,1.3559569289590518,0.7001223284564464,0.6131255460082413,0.6355418908348115,0.8080153745091044,0.5960332154067599,-0.19211438870416409,0.6170625853558496,-0.7077984970572048,0.28716148433003996,-104.66393517461411,31.220349833380954,167.88560615581306,0.16091008673317253,0.24716306335226967,0.046090686138905726,0.6844713334431752,1.08635547384897,0.36931625194399936,0.5637995340415328,0.7758861030248798,0.08427970024735607,0.2742188014440582
1.07,-117.10519882991031,79.82492901268124,165.4927970078959,0.18098440315107664,0.2576475028847913,0.17655853769412908,0.22498698101935913,0.840010154835007,0.666229373267499,0.328331167000644,0.6906627906830313,0.24888708182624697,0.5935213227797803,-114.93718211609337,75.989523642356,170.82056584296225,0.16260621970258662,0.14299175430669275,0.09539362707862083,0.35324325982074767,0.7282235893287998,0.6563563135247642,0.3799054888425628,0.6886352635516606,0.27783183344962,0.5510945700339941,-166.39446510021787,39.49954456461793,80.07614141678967,1.3252694939995082,0.7319289919537696,0.6142741444256866,0.589417269949395,0.7706753003445364,0.6493505075594889,-0.1859467998011417,0.6322700456569191,-0.6896908590889048,0.3013986368952645,-104.9208887602821,30.941971190500347,167.7926504343507,0.14341328245720972,0.21990692938381354,0.06681421765109141,0.6457229798266887,1.0427943357384368,0.3817593849284315,0.5628532914404324,0.777639171549028,0.08189271647937488,0.2728837864065953
1.08,-116.70282976766103,79.96482043002611,167.69707373836854,0.16794143690511565,0.2935185622767971,0.17761103469441006,0.21496448823594147,0.8334165513383235,0.6632920647862471,0.34147877325823695,0.683027140312134,0.26419533971916953,0.586357750967175,-114.71965633191584,76.01268105150808,170.82066849018807,0.16540841914640583,0.13159952789305773,0.09142905857011034,0.35316063579227946,0.6920389976394445,0.7010325124675875,0.38107520674211404,0.6876976277717449,0.27868621564690566,0.5507422536775085,-165.43431026029606,40.32963682635922,82.52961531198437,1.2896230601645706,0.7731991660958903,0.6168148931381889,0.5575581782113778,0.7322411446600624,0.7048556709284021,-0.17895615517597302,0.6472642546252856,-0.6709748563417146,0.31518945708246904,-105.22902314987371,30.764692201894746,167.70448418479097,0.13901237086061166,0.20100745366601605,0.1008848071257218,0.6035751244249016,1.0002241898833695,0.40320131131221704,0.5612569340735905,0.7794634219073482,0.07989820748485024,0.2721547069323093
1.09,-116.28195064667443,80.12548447928255,170.12752597713353,0.15298314228018736,0.3244557977988226,0.17522608564676503,0.20793240220437378,0.8186603455451197,0.6713219065119819,0.35562186326506606,0.6744601000519732,0.2808913724054492,0.5783556977716274,-114.49029197285783,76.076724542379,170.9470790488697,0.16669125094263995,0.12296437788377905,0.08724639300198993,0.35702606040535667,0.6539256884977224,0.7434980975577785,0.38277778133525436,0.686288797464703,0.28047148661593907,0.5501269686087712,-164.50897294885146,41.11572493794018,85.0359772786408,1.2485596220952677,0.8220923385732074,0.621333119926123,0.5426971677363018,0.6969080133498966,0.7613829020220859,-0.17119645218146762,0.6619998276542197,-0.6517025762140602,0.32840199236617945,-105.60656434257514,30.690566479634033,167.62964875512304,0.14659849251975135,0.19097633434243066,0.14718481842008926,0.5626949139851428,0.959645027185417,0.43321299223163706,0.5588937614888193,0.781429349725228,0.07827760683393664,0.27205659838629775
1.1,-115.85803997167014,80.29903796257149,172.73058278446513,0.13691663922696887,0.3481342640500631,0.16972589365468424,0.20530738240023813,0.7990692263837118,0.6904637804592468,0.37041664760821513,0.6651774035947685,0.2985557481987277,0.5696718422788773,-114.2606822677094,76.17460496711738,171.1886335251591,0.16696154863032572,0.11634894752762841,0.0828415566269612,0.36584013096559076,0.6150181599671799,0.7825662992848185,0.3849174469013361,0.684511253450975,0.2830525083055469,0.5492676515113495,-163.6291164290748,41.85329649118377,87.59253602864581,1.2016878818146195,0.8759558713625403,0.6279734676137488,0.5463536991008925,0.6686716803542191,0.8177916713202803,-0.16274142143724368,0.6764345109285229,-0.6319378412948538,0.3409243179241634,-106.06917195669779,30.717421082858706,167.5720699093269,0.16451827115144846,0.1895230857156135,0.20384560739506052,0.527967187600001,0.9214156676611491,0.47094398513314567,0.5556649442987727,0.7836051997682796,0.07697682246014761,0.27260529894769503
1.11,-115.44609679579926,80.47696659060368,175.4378467873388,0.12074600478282284,0.3627621480897553,0.16170650194165778,0.2085372469130648,0.7782429436063562,0.719610723305849,0.38546451323392866,0.6554523253243476,0.3166899758772722,0.5605208474349821,-114.04238407837491,76.2981154473616,171.52985966772528,0.1668160669956105,0.11101942400680424,0.07822513291831457,0.3806518698006687,0.5768194616820816,0.817378313859068,0.38738408213450504,0.682476079973816,0.28626555513130536,0.5481948477496477,-162.80343793279587,42.538911132152535,90.19351740657113,1.1487433043059452,0.931463810449635,0.6363791314259778,0.5685857417515151,0.6508876215700812,0.8729561136863287,-0.15368596730801207,0.6905259418100964,-0.6117638320683836,0.352664332848035,-106.62849592126503,30.838798825287988,167.53204801283644,0.19071108441742066,0.195537766002132,0.26828481861117537,0.5039826374513541,0.8853189378425803,0.5152350689609344,0.5515028866902099,0.7860495338865687,0.07591844681196636,0.27379754692938296
1.12,-115.05991459137961,80.65093656342508,178.1688566076405,0.10558312054001497,0.3672541828591354,0.15202000049067102,0.21896491782574476,0.7595310378806932,0.7565275654016453,0.40032773925136905,0.645603310382778,0.3347392104234324,0.551170181321612,-113.84616262003188,76.43848049507405,171.95116777825933,0.16683727338972842,0.10634995911720736,0.07344549276118136,0.40242084627646385,0.5411955421302671,0.8474307844494472,0.390056493670625,0.6802984180129988,0.2899243407497042,0.5469531980068788,-162.0387962215493,43.16997590715569,92.82905173229965,1.0896478534452203,0.9848305524597843,0.6456852779473454,0.607875240287289,0.6459411834263311,0.9257702442434137,-0.14414722662332702,0.7042276658180295,-0.591291557918705,0.3635476631468427,-107.29102938581471,31.044161680837533,167.50747571009106,0.2228515991937215,0.20717629088787357,0.3373035421647073,0.4945488737647741,0.8507472012374773,0.5647575858210573,0.5463823258064102,0.788804716774764,0.0750145853019764,0.2756026181673599
1.13,-114.711588045213,80.81362379135655,180.83513481323945,0.0925434719557617,0.36133497414255944,0.14173849863809002,0.23766914141608877,0.7455854356748255,0.7981232365856649,0.41454872745650617,0.6359768066904047,0.35212089732502067,0.5419299058984147,-113.68131569261541,76.58701152859298,172.429331947259,0.16749343476523434,0.10191021163445314,0.06860779567113062,0.43185861254030217,0.510314121241111,0.8725472334703132,0.3928060653201917,0.6780926567185022,0.2938275702599514,0.5456027263356459,-161.34051009276916,43.744477253145895,95.48435346827969,1.0245644256538577,1.032085457679841,0.6545754007477573,0.6611891947530618,0.6550518534256962,0.9751624783459447,-0.13426473070932593,0.7174853942878332,-0.5706673791512534,0.3735147409689996,-108.05736062243933,31.319364019302537,167.4950913730498,0.25849010453673565,0.2220418629557522,0.4072486735668637,0.5022872497017657,0.8169666127570917,0.618148400961229,0.5403278302632754,0.791892032530238,0.07417883560967094,0.2779568219866971
1.14,-114.41124163107123,80.95946474108234,183.34524556771635,0.0826428398396817,0.34556269547509805,0.13209748872654425,0.2652977469479921,0.7380455475209744,0.8408148555557283,0.42767194718174095,0.6269264705678838,0.3682574104514027,0.5331376204945262,-113.55513247663636,76.7357675713524,172.93823202894092,0.16905973552228026,0.09752524951879533,0.06388479182006061,0.4692574855609603,0.48652076430331237,0.8928046146346719,0.3955004898738708,0.6759676594045247,0.29776754150823936,0.5442185014399017,-160.71273667086973,44.260751881406286,98.13929721197707,0.9539409331904639,1.0693844275667321,0.6614024434592443,0.7242277915633091,0.6782148889420352,1.0201056999999327,-0.12419904879648078,0.7302345149213564,-0.5500776267357559,0.38251811440293426,-108.92189958412781,31.647391985256064,167.4916006829799,0.29518708844593966,0.23744290337303428,0.47423665301708934,0.5283593942746379,0.7833975898231547,0.6741081296675396,0.5334167420761173,0.7953088994153058,0.07333623270446578,0.2807618815586574
1.15,-114.16694330686084,81.08524423510451,185.61046044125027,0.07670723286356791,0.32127169624528357,0.12441692650198509,0.30191255298971903,0.7373936737226514,0.8809217264184223,0.4392674021185613,0.618790386201628,0.3826101847923907,0.5251393547098502,-113.47252814430414,76.87816349238281,173.44982754027663,0.1715725014901022,0.09330156128504587,0.059516958795132975,0.5143217593201199,0.4721569221048678,0.9084330514637148,0.39800743012089296,0.6740222265613338,0.3015393165290501,0.5428884385907395,-160.1588277817412,44.717368296352994,100.76855840521422,0.8785380557659154,1.0933261529374287,0.6643677847345588,0.7918331429853566,0.7142679801909753,1.0596128382735504,-0.114128329671119,0.7423997113561489,-0.5297485531777155,0.3905208544383038,-109.87311266155507,32.00934314098527,167.49453995308133,0.3306402459064435,0.2506953246158698,0.5344246105736267,0.5723463803691238,0.7498431200464916,0.7314402211595163,0.5257771511471618,0.7990283784647633,0.07243036856342708,0.2838877865017117
1.16,-113.98475658467609,81.19045566651967,187.5505345045507,0.07530400895710825,0.2904404168426761,0.12000113383975355,0.3468677695034512,0.7429978835497076,0.9150375464865322,0.4489539595897756,0.6118683264583777,0.3947124640581425,0.5182679061539415,-113.43588062756118,77.0094748906971,173.935334578081,0.17482299601329515,0.08961616186282508,0.05580061840202402,0.5660274744862513,0.4693350750130976,0.9197080040619022,0.4001980531930846,0.6723409711468962,0.3049499712471879,0.5417092932859481,-159.68156843660492,45.11316603644798,103.34241434506175,0.7994340083234194,1.1012367139625414,0.6617409871104739,0.8584960587925422,0.7610631332514239,1.0927213970819691,-0.10424241755413233,0.753897164684577,-0.5099404080684415,0.39749662279685766,-110.89424590569953,32.38559042457301,167.5028056715606,0.3628014972918865,0.25942889435669353,0.5843053820009738,0.6322812696532163,0.7166068659172251,0.7890271162625455,0.5175811013996126,0.8030009273326915,0.07142735800288766,0.2871801228194112
1.17,-113.86888286989458,81.27739532365099,189.09904843291503,0.07869775093736381,0.25549912964553473,0.12002252733785343,0.3987456834920142,0.7533333019844088,0.9403400352030219,0.45642056757015653,0.6064012900342955,0.40419769288375845,0.5128207086909182,-113.44507914155051,77.12719601568554,174.36656707617348,0.17839190448285006,0.0870685544746952,0.05306378000622462,0.6225433009017785,0.4796932373348368,0.9268532613871618,0.4019504677931076,0.6709908244119523,0.30782740798990005,0.5407811999694344,-159.28322803785713,45.44746305622992,105.82819649054365,0.7180009559211191,1.0913893901654905,0.6520917913281611,0.9188763813364363,0.8157211310545781,1.1184853501937975,-0.09473466705159714,0.7646392494787266,-0.49093536112711167,0.4034315627531932,-111.96446167662131,32.75704377114692,167.5168273046151,0.389979399394275,0.2618567988828832,0.6209950536729834,0.7048176432303614,0.6844704690265367,0.8457590671797123,0.5090337743549102,0.8071581304265564,0.07031676566361653,0.2904712162620236
1.18,-113.82184794343843,81.35098246372507,190.20779543573437,0.08683062159485995,0.21909968173324057,0.1253983988813258,0.45537237462533536,0.7663413274611213,0.9548043450187567,0.4614434015576624,0.6025554376237013,0.4108208946084531,0.5090395642735939,-113.49777472121653,77.23121557248064,174.71738559211076,0.18172000486027717,0.08639930054544986,0.051631309970752846,0.6812430514356148,0.5041575367474612,0.9299694149959377,0.4031532006027903,0.6700184133468334,0.3100282325534538,0.5402013211365597,-158.9654031162292,45.720396801698904,108.19226401532543,0.6358512487607066,1.0631370835310598,0.634496235677934,0.9682599243627432,0.8749398676043327,1.1359962910565742,-0.08579209890553732,0.7745410627599825,-0.4730201994920171,0.40832768420994775,-113.06026886279287,33.106401927891504,167.5384073210605,0.41091976379501993,0.2569746564015731,0.6424775780944877,0.7855083000135255,0.654539171883969,0.9004436581280597,0.5003597633054185,0.8114179366286166,0.06910992203490277,0.29359382133326917
1.19,-113.84468967291862,81.41832682288307,190.84979298061478,0.09932459548154185,0.18387419339232358,0.13667394472401925,0.5139291219855171,0.7798600684293008,0.9572969401595289,0.4638973950677446,0.6004120565465025,0.41447112737871344,0.5070943454206766,-113.58980157858447,77.32378721175533,174.96517809532608,0.18420398300570426,0.08838407639679353,0.051783436041093776,0.7388307226347631,0.5427472260579216,0.9289943680667606,0.40370893544998504,0.6694484852457793,0.3114442991030232,0.5400572321915039,-158.72868914816857,45.933322038136296,110.40226101652955,0.5547560634861197,1.0169487260683086,0.6086779819994051,1.002912623546335,0.9353171176942683,1.1444410372977134,-0.07758496418624333,0.7835277271409026,-0.4564659175920178,0.41220693051084817,-114.15710201399165,33.419283226210595,167.5702887227857,0.4248560043121615,0.24466758748248033,0.6477729843165378,0.8691677057731069,0.628002363112735,0.9517272596297389,0.49178772166241014,0.8156907876948573,0.06783618727669492,0.2963957132869661
