0.02,-0.15586915596402268,-0.0075685836557275454,0.5859101807783774,-0.09565738758611168,-0.3924601968299275,0.2839992843004022,0.016353566481907653,0.018180901702471358,-3.4184297852117735,-1.3121389182953607,0.7653902786678032,1.93714152591434
0.03,-0.13882506026220875,0.25920297045840957,0.6950930206144527,-0.0827764920404532,-0.6581320488548236,0.15594765469445426,-0.4314841637520646,-0.2688920821964778,-1.5432217097395156,-3.7339359786980095,2.7166598946001272,0.3728353402511674
0.04,-0.1505928236343922,-0.2373143282393313,0.48820029161957745,-0.1022123837397477,-0.8689359936505392,-0.32051841937676756,-0.28601636000324426,-0.6247413753528245,0.78020574697122,-6.448947372664369,4.571537145030357,-0.9248367912895744
0.05,-0.2495231058789289,-0.10061431534205742,0.5798132586277266,-0.26887275020492785,-1.013942950470889,-0.5158274884854726,-0.5308845934316118,-0.9344643529831342,3.1868220796634126,-8.914123433812136,6.652576117462442,-3.000345398243476
0.06,-0.08354052932537717,-0.13172911465095535,0.32565200281613443,-0.20579968733162046,-1.4395670957086304,-0.818039355898921,-0.25487276285896876,-0.8927087365940662,5.537092371566213,-10.851581795647016,8.619362987867035,-4.679799516973859
0.07,-0.08544802856291756,-0.22883730196297344,0.630821860166643,-0.5607302786536507,-1.2059627777764492,-1.0215539228451134,-0.7224624353151273,-1.1563797034181365,8.196811169785402,-12.833127903979811,10.46418834818362,-6.091890267046395
0.08,0.023673649459127703,-0.03492147634277665,0.30005879564021926,-0.42907267752043404,-1.3816433955167804,-1.3687583811851392,-0.16880362207889543,-1.567775685631336,11.415508696539733,-13.929169258167954,12.525063267503361,-7.610146995813391
0.09,-0.2552205533349134,-0.23645012170701063,0.2965960894182239,-0.2481469380407115,-1.4714976175395715,-1.7256539342061297,-0.25932367455196237,-1.6171469096569406,14.270382219741737,-15.213693036451478,13.784802090007018,-8.504997557187457
0.1,-0.21339867978422217,-0.3517189660596148,0.5936717932016705,-0.5297339632070212,-1.2808240021926545,-1.6399474924607609,-0.32732662174866906,-1.3932585707778462,16.994890658116823,-15.506001147308385,14.959820068497717,-9.36032121546098
0.11,-0.4409231425013261,-0.42545126903394503,0.4361636540904734,-0.3436288758499584,-1.357959478159561,-1.6715909603795898,-0.20895236238187695,-1.862879665315884,19.794027648649987,-15.415639634242098,15.988758550288644,-10.341013673381743
0.12,-0.32079270910838836,-0.11636748543800592,0.4142583084000552,-0.28918504655541233,-1.2528453179308736,-1.989959997965145,-0.09714364106757467,-1.937393575821543,22.329667516762534,-14.333080204755658,16.72309731508137,-10.43801996575958
0.13,-0.49940621291931003,0.16633384784333155,0.44213555271248534,-0.31488413107996616,-1.2045392187458137,-2.2550366685325605,0.03770315020206263,-1.8844719585295777,24.859942684358977,-13.188109781138781,16.969760516322843,-10.547903992148397
0.14,-0.3866648612005353,-0.4665669861630479,0.6364463573956571,-0.446874721718758,-0.694324527470007,-2.12530691470905,0.21198895302933815,-2.0279131162941453,26.362102400894784,-11.343212248979093,17.019296679919094,-10.385542260880186
0.15,-0.1825081524121261,-0.3862381844569656,0.2912262341540724,-0.4076328432650352,-0.5830583843845685,-2.2611283573489023,0.3258511008748243,-2.197037474290467,28.000603971273506,-8.681880860608198,16.826412419007212,-9.808933804078665
0.16,-0.341323704951827,-0.1990456788681027,0.1680627246667179,-0.684647923132221,-0.47994524167544084,-2.4013541201945507,0.8809120021588916,-1.85596505409102,28.2812102715385,-5.072795304502397,15.61872318289129,-8.407957837774482
0.17,-0.371476486842482,-0.49209712158291763,0.5002655747350042,-0.1852016242486779,-0.31125718778544786,-2.3236094660937443,0.8992499893206892,-2.0100671409226187,27.737727680167428,-1.7941697314156977,14.084773074391185,-7.18331280500643
0.18,-0.5141999919465337,-0.23842418685175,0.416124510769486,-0.6264244009875315,-0.035739457399958985,-2.2815745619577927,0.8082472041318632,-2.0541582965554905,27.11039844719659,2.5611822459218154,12.425723054170799,-5.017399959300584
0.19,-0.3050878829545384,-0.33306005004004136,0.3032456971639793,-0.6902119112982786,0.2991072174471229,-2.3810104998589345,1.0114069754123927,-1.670069977939148,24.77243716048329,7.486013258976453,10.233613416225342,-2.803673229782411
0.2,-0.4007179277991346,-0.23423344025112242,0.524473352723204,-0.5594049665502315,0.5734005268640192,-2.0150106392200717,1.380184335218204,-1.8712401694166805,21.76072275663474,12.446955174225781,7.454620823039828,0.342626914345281
0.21,-0.38434086782752996,-0.4183185492200237,0.5495788516579435,-0.5090922882950207,0.8396716120082471,-1.828341957733001,1.407006758091655,-1.4306771274689922,17.805999184418535,18.014126628359264,4.42854102573214,3.5152535703953873
0.22,-0.3360242921782185,-0.6092881330038488,0.4198298620497072,-0.6461976635286323,1.369426536359242,-1.8252839950533963,1.5042525821988946,-1.4528772266120642,12.514711103615475,23.584753284600925,1.346431981279165,7.117002347610583
0.23,-0.353167595862189,-0.6568219198277957,0.5008913289640713,-0.6250320490247674,1.2987409019388787,-1.2684850472211058,1.6612514980999338,-1.0948878532524502,5.823020015391319,29.13212907968635,-2.5270671694748787,11.115975877596721
0.24,-0.25042278893322734,-0.6515794595268952,0.5104408847123441,-0.6803367970516738,1.5205436415438693,-0.9551949749108063,1.6673813519805896,-1.0208032390159592,-0.7459585911179388,34.70430050473617,-6.17896976649076,15.48202809037046
0.25,-0.6075823254599383,-0.34309966025194205,0.40445061724078846,-0.5022253040787138,1.3658294018861759,-0.4959098107097066,1.8497696125728142,-0.8193236613409439,-8.557090938731363,40.013600452207704,-9.94936891056797,20.01916130548026
0.26,-0.1237851116889261,-0.8258333907561572,0.7303480196929779,-0.5081274637933285,1.519552567132403,-0.3376333284926565,1.3787465523832525,-0.7782558695136081,-17.06037364764311,45.03273684687255,-13.846581735790833,25.156933075022355
0.27,-0.29176084610811903,-0.2184745592106784,0.47600736021883316,-0.4262729516739644,1.4262357412137572,0.5166268748494084,1.7095804970350796,-0.41708967704219396,-26.295171361167156,49.60138050053953,-17.650332445176236,29.743187936849143
0.28,-0.5879343095787661,-0.4762150062651059,0.453282409297054,-0.7590023391787732,1.0040264989656797,0.6351125946001452,1.4217060386125902,-0.2776567540783006,-35.48969056057242,53.16167881154338,-21.08941547013406,35.0747741789561
0.29,-0.30705665541349275,-0.28374533603489066,0.860310633241608,-0.5948307908604551,0.9087726424197232,1.2934186312174716,1.226861757878893,-0.010851533814010855,-44.918029637539455,56.321863349135604,-23.835724707865975,40.035459129109285
0.3,-0.4249805653451701,-0.8913101116213535,0.8451942040272569,-0.7324066816746678,0.7072015556113203,1.8920462963895883,0.8739169962573886,0.5830267834398185,-53.62985602143518,58.803465671693004,-26.316984251519788,44.703769904562485
0.31,-0.122250225363028,-0.39684200805183045,0.7165100555640316,-0.4281190523679348,0.39765656765656543,2.436721556842825,0.6405763301154501,1.0224749040519467,-62.17898746311145,60.20796071352579,-28.56917256594167,49.04724717029269
0.32,-0.5602789541547875,-0.3119775342566175,0.5821823836217824,-0.3316863570307366,-0.6582224231248259,3.2218193708855716,0.3218831194357814,1.5407987294620045,-70.0626308651603,60.352017772873836,-29.623271748689984,53.12352886431731
0.33,-0.34590449818939145,0.021317231399247905,0.7033220575674948,-0.329298385046274,-1.217251124426011,3.549516161412069,-0.2613026635317363,1.9182304760061313,-76.69555644594769,59.457188979649715,-30.170512826613244,56.62921686184439
0.34,-0.19155232543636827,-0.36385708054276944,0.630268322216301,-0.354443330290165,-1.8484572124944645,4.1456519769538005,-0.5131377558180171,2.238402572002842,-81.00551847521987,56.63997496147872,-29.06938102940939,59.03481625705475
0.35,-0.4904315656607038,-0.3216365209037148,0.7357054017300362,-0.4741795455487322,-2.565900255312782,4.5931215242545465,-0.7936051933098455,2.710364173771408,-85.28293516046287,53.78786271007544,-28.152211246402565,61.73593090644914
0.36,-0.34243956694751027,-0.1146689066678934,0.6216846220819532,-0.3885127655118271,-3.5330546045234064,5.291454876831371,-1.0479830448731653,3.3212630260590603,-87.10780464654802,49.03241603959526,-25.885879005223632,62.346985364514154
0.37,-0.33021385216978394,-0.20795876815226805,0.8182597719956509,-0.1011145731142422,-4.112574054676562,5.576607094274704,-1.3762432440106358,3.8094153467582443,-86.09215188542007,42.8308786806351,-22.053435685200196,62.722853281641775
0.38,-0.190260210705913,-0.1032177913769649,0.5905894692786255,-0.28851057049060536,-5.052305466501871,6.358512273437635,-1.718133502933354,4.464293299227719,-82.83181177816283,35.48873762106924,-17.63785178858927,61.20343158205595
0.39,-0.4910809812586304,-0.023895111517093958,0.6974859588501995,-0.4253847213321105,-5.924080078433029,6.403620746818185,-1.6920559711593095,4.90374476975759,-77.12342042638934,26.7840191890075,-11.861057255848477,58.75221462664422
0.4,-0.7638657520846831,-0.147936483301029,0.5961335712602969,-0.17300380666130658,-6.646616778716918,6.616045207922212,-2.124436539263251,5.839176418906506,-68.63230615287732,16.799196331408023,-5.605899165811881,54.37316932418389
0.41,-0.5294938204637261,-0.1672844223164739,0.6889881668335853,-0.15640661957779153,-7.291662724719872,6.891419673817631,-2.071009764350738,5.77281380556682,-57.09230420305085,5.356892152683736,2.4527564938137942,48.73296158664408
0.42,-0.5316358161862409,0.04312262218426348,0.6121755363747722,-0.15377851247185545,-8.111751505582493,6.766727910479122,-2.0884377044787636,6.54152461248317,-43.05452060339408,-7.013769334866654,10.804440260326796,41.225496480688314
0.43,-0.6524499044295469,-0.07414584692674138,0.8370288515935596,0.010308889141954014,-8.565556127958837,6.468710449821073,-2.1133355039579316,6.733653114164845,-26.100710136682416,-20.456554476091867,20.105246767267808,31.930075842053704
0.44,-0.894707058080238,0.35206793157785093,0.2923626119025791,0.14388574572089685,-9.031736034277278,6.40137028751225,-1.8757531201606097,7.172973795778922,-6.387665602122078,-34.61425851156728,30.117892509965007,20.90037525790724
0.45,-0.8152948779246942,0.3276592046053309,0.5143665186526464,-0.0367718206024089,-9.00678225203488,5.847188194439903,-1.6202740020101487,7.299738441839394,16.845016361415865,-49.904515709600446,41.00110244969629,7.507933336422162
0.46,-0.8384169542087853,0.12640473856663947,0.28405997597301486,0.28155713003639526,-8.923188242199721,5.2511792428095045,-1.082060631458495,7.177532502646226,40.05123562252906,-65.2323662266344,51.685272950281615,-5.705117280827606
0.47,-0.9780265085881605,0.7002445966057502,0.42083112726163313,0.23880467639349526,-8.603710670875582,4.622742750378451,-0.37201911407403776,6.961980644722674,65.83653376836561,-81.5119752355817,62.900662083484235,-22.00098322409576
0.48,-0.8014564714627068,0.4485209097523322,0.5994492490176498,0.4089251753150228,-7.764484502116485,3.464192804700083,0.23353873963711463,6.986061605981531,93.37637453417265,-97.85773840383686,74.25701553125808,-39.27079019753014
0.49,-1.1566558639667324,0.5295134751008415,0.3413560771818509,0.3419096530850909,-6.764272549617162,2.346637024868717,1.2211764798917728,6.399924032757708,121.50130218709003,-114.56925381453031,85.90602075011434,-58.790835740950435
0.5,-1.5994277436678799,0.7360949084960853,0.4337749207370985,0.2511359019939033,-5.357255607259012,1.206859905503232,2.273770611060921,5.582934677791011,150.40789898002166,-131.29739842902129,96.7440243718112,-78.87596926412235
0.51,-1.3004976907488188,0.7124639053224633,0.3821664848283655,0.5126306230942812,-3.880202742405933,-0.40013293375317616,3.193609945617115,4.950991180281647,179.35705280094885,-148.01382483594065,107.57330353333495,-100.57339878584986
0.52,-1.3673079000476438,0.5536089108358258,0.34994288027522835,0.5035714531760691,-1.7094240973118755,-2.2460982522853086,4.528423337226064,3.6409781804218744,207.5416702341482,-164.06089333038378,117.77804261716997,-122.78086042570263
0.53,-1.3223881837986202,0.7724457957855966,0.6910850613601415,0.632221137325952,0.415925240319535,-4.132182094165418,5.7999700070834574,2.37725440282635,235.06362763804154,-179.6858969356789,127.3209186505587,-145.41096722934844
0.54,-1.4136220537916544,0.6377309503368706,0.508786836535353,0.4232128091084484,2.877679653516604,-5.74535498921652,7.457515081128459,0.6256323270495493,260.0922583061621,-194.81284514301808,136.09896294296425,-168.38667552930005
0.55,-1.4601247126913899,0.4070041365759721,0.5954311974268035,0.798726407522447,5.753046440858958,-8.0153862449652,8.896735069280547,-1.3249349306126157,284.1238285713293,-209.34927992200736,143.48913180698293,-191.7090782297015
0.56,-1.2583654270218587,0.10279642431843902,0.7851520698271985,0.5127247768887524,8.990996077821258,-10.498672216495494,10.821659306178761,-3.450967843354789,302.7061171093119,-222.2285426329857,149.8458871632089,-214.3072410512213
0.57,-1.4043525171664315,0.08906342771387774,0.8502134766531683,0.4895740533275531,12.182991726532924,-12.7602588533856,12.2716076323697,-5.772345492577612,321.6845190055364,-235.54324454116957,156.3122603240953,-236.89706004748393
0.58,-0.8681920576620707,0.011551865321462507,1.0131209511295387,0.4771709165785406,15.504961426492958,-15.693254136182917,14.325310666102066,-8.218051146365639,335.7417869398505,-246.87921653188056,160.801415695025,-258.3570450218693
0.59,-0.588894797595406,-0.18215270982289108,1.3342984607475288,0.6185589515905362,19.349773274761144,-18.26443314375489,15.95027242435382,-11.039382573560246,345.3548873667843,-257.05917407311443,164.2536841973731,-277.9740588516083
0.6,-0.5198108032110736,-0.34273131643000954,1.3380550155896578,0.4110770227002625,22.89814788161876,-20.806043151783808,17.797811929276477,-13.931083988195514,350.83422577385403,-266.40375636685536,166.19436935157856,-296.7070262043793
0.61,-0.5496910366762063,-0.7020554246362776,1.7349840237140743,0.04520873151951782,26.687175004288054,-23.568110136572802,19.516729321143803,-17.18548913146736,351.80680912063974,-274.49621593944886,166.9426800952251,-312.79315525003625
0.62,-0.24041422388148798,-0.8135726844722894,1.9365020760727536,-0.13787758050191118,30.669225632604046,-26.58393569841713,21.340404501075202,-20.690269915271006,348.22265618092905,-280.5469177084887,166.69558619074434,-327.23016215723703
0.63,0.16625469483643945,-1.1578345551143725,2.1006972208262344,-0.31575505345531807,34.10987264773399,-29.70852925913271,23.099899542716507,-23.8905062758273,339.95889171014477,-285.7546474877192,165.0014634809571,-338.9572155713907
0.64,0.7245383094410928,-1.5166776851405412,2.243442027266398,-0.7248130275546872,37.82667075316036,-32.50067296505569,24.65776073041835,-27.58099348470173,327.26719679959047,-289.677411692146,162.09617925195244,-348.06592426376534
0.65,0.9965577440675233,-1.851129486556895,2.5774257812944197,-1.05753617815782,41.20354522394701,-35.23969487274213,26.316979036141348,-31.158231691752164,309.9760674581171,-291.8158491559661,157.99891389548287,-354.094504948254
0.66,1.263691089802611,-2.4639150303605,2.7559293393706694,-1.139993446863207,44.262340690263116,-38.50707855100866,27.570758376236196,-34.852971616193365,288.723311173806,-293.1601726235669,153.06346187980273,-357.0998907811596
0.67,2.178318765197262,-2.7297748168124283,3.375938040870237,-1.4525612334886606,47.20504478240651,-41.32877752356736,29.035646729678273,-38.38900394371003,261.9219826524308,-292.18164105807534,146.24686728525168,-355.33745690957045
0.68,2.5291516039775526,-3.3217124142153764,3.3935106469382315,-2.1273603182744294,49.69704350739045,-44.22060217903438,30.419174331862152,-42.3978937539964,235.08113457185263,-291.06775491270696,139.44602450751978,-353.40987112333187
0.69,3.11551430556683,-3.7563887391295387,3.912808254588029,-2.791705093263143,52.054075536878976,-47.14299586985423,31.7079321782948,-45.905390710539976,203.78109116654028,-288.09829102647603,130.9792079927346,-346.83543740016637
0.7,3.6231128794759786,-4.281541799474916,4.2188818261931065,-3.130014443661533,53.930465625285315,-49.78091229522066,32.82456551266867,-49.39481915768121,170.21780556162074,-283.5440876753088,121.70587047033766,-336.5403287173112
0.71,4.149647231132141,-4.492204506839334,4.487296066236458,-3.5925724195782163,55.30232965117612,-52.472139754871655,33.73213270263006,-52.469953964373076,134.80200385941566,-277.6279390932832,111.41063250969732,-323.3084317745405
0.72,4.540911826025931,-5.2217989242069835,5.146464718865133,-4.06119728978949,56.440642475070284,-55.126395371242424,34.446730004681136,-55.62946755744814,98.48264546543786,-270.7612140232479,100.03188543277115,-306.83086680008176
0.73,5.251555719821838,-5.6017141196877835,5.559656718927411,-4.917883168908667,57.07059774912662,-57.524129072930585,35.262122904509916,-58.48548354772138,62.35142766115683,-261.7969342365567,87.53613065031288,-287.4226693593516
0.74,6.051802078164616,-6.581291449534678,5.570631104114601,-5.553377618613178,57.43165746655319,-59.80610444381743,35.624646421230565,-61.03607994506866,25.91668154229197,-251.8685564376815,74.36594628293045,-264.5904549827482
0.75,6.594223770657536,-7.151842964395474,5.933074584029408,-6.136293015945346,57.25808396644764,-62.16123195327751,36.26228665469073,-63.59985086796906,-8.859388969858642,-240.4801810385868,60.22909865946781,-239.72080496578633
0.76,7.027384043880989,-7.64592402770726,6.21002588650171,-6.714098311225117,56.59989875757898,-64.46831263821687,36.26228533657352,-65.74424028425874,-42.11939271711736,-227.47255822302645,44.651926990024755,-212.15984812434175
0.77,7.92720874287524,-8.296767938883052,6.611278427638348,-7.716552839329761,55.94670558067453,-66.28221487272044,36.28657432595235,-67.55462092821826,-73.15871372890817,-213.26284659179203,28.59569855751628,-182.67056813953965
0.78,8.24666645201849,-9.029234205446768,7.002882466164355,-8.129485807324002,54.50406005814864,-68.07652460222486,36.23766379929247,-68.81992550413904,-99.31628475149557,-196.7750350776587,11.230414195813797,-150.87037871751775
0.79,8.608845653139229,-9.910667738597521,7.601676289011147,-8.838726091258076,53.14246870418557,-69.86794995778703,35.93810410919879,-70.04421531764793,-125.6025229044832,-180.1366799388599,-6.284295033571906,-118.98375710498092
0.8,9.493994332537644,-10.310588584832832,7.85714351704612,-9.41532570371378,51.54895179966276,-71.1928563831057,35.80092413402879,-70.98994217978684,-146.58679029065448,-161.3625854140848,-25.178905725190234,-85.08643655320166
0.81,10.046635623729017,-11.101703390984317,7.89218463130728,-10.380116909366144,49.76871308954304,-72.77915692728249,35.06560119933661,-71.22857994325999,-163.32100081436144,-141.0366293857535,-44.532650761768565,-50.23612133544353
0.82,10.317484721598825,-11.934647684434836,8.617539896774773,-11.075472466817548,47.4270479670111,-74.06114584555563,34.097787184414386,-71.46286995209742,-175.50099956299175,-119.71103288666059,-65.10421817416066,-15.478872843479142
0.83,10.681463571148067,-12.374915614477844,8.514690875418294,-12.01567179280453,45.185562610763405,-74.79800118095719,33.39429374687181,-71.22123223783588,-183.5205910758441,-96.48011657372678,-85.38197363393861,19.606519043295485
0.84,11.43636676489331,-13.48667865963859,8.92560078562108,-12.462646288844185,43.08329629548187,-75.35638173563696,32.7439034572684,-70.33382616208357,-186.66585364695965,-72.26475619023994,-106.99079308696635,54.138107020285034
0.85,11.440754490211292,-14.093279983831541,9.27294375601124,-13.289198284322993,41.02804356477766,-75.79706409109913,31.220859817947527,-69.19778298474071,-185.6853621645985,-46.692824131651,-128.23858974298847,87.75279524905832
0.86,12.18826439302983,-14.71614916120113,9.622606003105677,-13.643119332923176,38.962844870708054,-76.2324005517103,29.88660708818495,-68.31229187948036,-180.875223289764,-19.977407358409128,-149.58688985170275,120.45611376426423
0.87,12.498521734673957,-15.647607743109935,9.838404495838214,-14.187828715997828,37.07313950535238,-76.17569433959453,28.571590791627976,-66.5535948820341,-171.70031028914752,7.485412611362929,-170.53556702966097,151.68936957812818
0.88,12.59837011909277,-16.628953202594207,10.241808929246051,-14.94884193420861,34.75247298231855,-76.04344302357929,26.910609855685777,-64.88364813498168,-159.54807375802704,35.32993295651834,-190.96678962513988,181.22084344792938
0.89,12.773448650404847,-17.17170855392495,10.511568405323878,-15.659338018416417,33.281768826532925,-75.64518744558576,25.05113722444264,-62.75553153762978,-143.18401415158453,64.16805101631073,-209.4691032794575,207.24098605796098
0.9,13.249462276073073,-17.568545052895246,10.53454994727317,-16.22045562253035,31.9476369317028,-74.60096212894352,23.368171957112366,-60.39660559079892,-126.92129824133819,92.97599445786666,-228.18237033744376,233.49042705926348
0.91,13.710478102229672,-18.499777497541658,10.741636063596063,-16.51894070777517,30.858834093973776,-73.85080532023242,21.34496850122619,-57.69040753579207,-108.05375467681802,121.86213031324634,-244.43444852279498,255.65532791672706
0.92,13.817675367940106,-19.22300899783401,10.698354823010623,-17.39778986345977,29.948321899237637,-72.61047026178935,18.87721235739984,-54.909946386462146,-87.6559326680113,150.4169295623282,-258.67431376270014,275.2566375923208
0.93,13.954749718646195,-20.103029205142,11.070039705786835,-17.88464008407388,28.964234345651743,-70.95095635611187,16.743340257914767,-52.224980680656934,-67.54950797590047,178.14775662551895,-270.20472038254195,292.1905835942769
0.94,14.431706491100286,-20.700267430764956,11.286975061615236,-18.321005695785214,28.43710451306745,-68.9805461873233,14.176892458285975,-49.388365298528875,-47.5907219414212,205.09811597348278,-278.28612093306936,305.5517300404029
0.95,14.720900562627948,-21.22022613067507,11.537980277559257,-18.804406045350472,28.794223614649678,-67.19157589433517,11.791479688114109,-46.0690571594219,-28.775911350116573,230.5544721335439,-283.5669410491539,315.8197061328055
0.96,14.89922447123703,-21.951630420881564,11.430551275023085,-19.30487143511476,28.375167848254048,-64.76173040617525,9.084972284830174,-43.129259551137416,-12.113163359804018,254.34410553904385,-284.4865104692574,322.4668134371793
0.97,15.270162253598643,-22.64920452359239,11.601211328306512,-19.51196579061452,28.58128154591252,-62.11670544198312,6.763529184369551,-39.87148304432444,3.0618758604263308,275.9180999356976,-281.37259794030854,326.2327418491756
0.98,15.496571342303245,-23.286385383452547,11.416494701927212,-19.925743316968184,28.874236150988228,-59.35951588371448,4.189712489055733,-36.42893256895723,14.31086570896184,294.8701660731874,-273.7594354188405,326.12679269859035
0.99,15.840489469228137,-23.771821986545245,11.680453706362144,-20.51359960633844,29.389947792086755,-56.26745562306773,1.6787652890768243,-33.587887228769596,22.408328661790026,311.48258671560563,-261.44411035845116,323.07159236771275
1.0,16.006497559860904,-24.31585334595868,11.85476035733074,-21.033685795664688,29.851829152264667,-52.993307183783756,-0.5186382584420206,-30.49778159337154,24.844531203413627,323.26236792504005,-242.0781960552185,314.9808185735804
1.01,16.538173859833876,-24.885345878947977,11.802703681068795,-20.877044757977682,30.35443607920332,-49.90968104410879,-2.730949449106513,-27.504658424680997,26.86340493904702,335.07016834273685,-222.43317395147182,307.0418663986321
1.02,16.71281049070061,-25.39607049736431,11.680584371334183,-21.221274716909193,31.072831616569456,-46.337501756318446,-5.216367321961915,-24.507862679004592,22.165838865827595,341.55567693933324,-195.41944613551308,294.45554982315133
1.03,16.720695392804373,-25.926064853808906,11.88092439729642,-21.951816515550643,31.423057783180635,-42.76570099372936,-6.741676249065903,-21.487940056400035,13.956250321092812,344.52639190994313,-164.1176845560039,279.0177214604258
1.04,17.458159099004195,-26.05319026649202,11.6188748431292,-21.77260136844337,31.759162325416003,-39.482367978689446,-8.393179378230155,-19.23512749215251,0.8451444362741235,343.54479236440596,-128.6164825692356,261.37089986453196
1.05,17.77294228356837,-26.346694284410713,11.807427796527346,-21.65687460061156,32.30152419486784,-35.960518813380176,-9.810658965003354,-16.792564047906616,-16.11928673914829,339.14021613632076,-88.28006994739197,241.20470613560974
1.06,18.106001191885053,-26.834413298185932,11.630656488526705,-21.890065100471762,32.03818369268572,-32.58263752944932,-10.676802579406473,-14.462667934114497,-36.7608689077506,330.8036476908289,-44.84442633110164,219.1769112875746
1.07,18.45943955144521,-27.2858688231508,11.390999085198022,-22.27474491454126,31.59374342390084,-28.86935296766675,-11.244029954750255,-12.469711169282608,-60.95108452388567,319.07284927474046,1.4956177500215584,195.5821277195587
1.08,18.510422560253755,-27.61494542464845,11.236723055691312,-22.376548871475293,31.172954429248264,-25.235625764951408,-11.699043138213955,-10.453739065793068,-88.13660434018766,304.08061880557,50.00318454532715,170.4429052833476
1.09,18.91582569692659,-28.000166123124416,11.18689119741036,-22.392076506480535,30.193315910416786,-22.190528475059462,-10.978239544828055,-9.04724477138498,-117.83076703906966,285.8371245852914,99.80720084641847,144.4209267919937
1.1,19.13747101641129,-27.99174758323663,11.109093362515484,-22.143928653616584,28.939332109454323,-19.281942257229595,-10.317698981507771,-7.778963311778531,-148.23091025093547,265.08456828706824,150.20303665675067,118.01220416934463
1.11,19.36588697170112,-28.247688106368564,10.929553162799264,-22.398460554338314,27.073251527503135,-16.51882517359795,-8.688168338382791,-6.860028231715707,-180.034122336755,240.8063356063093,198.5687728235188,91.35567166196441
1.12,19.62379213591139,-28.32471989681034,10.723996609107356,-22.369795852977795,25.237988110014406,-13.888222843952187,-7.257719121207421,-5.960850939437601,-211.8417748493722,216.72344519643957,247.4140829078783,64.94915125062388
1.13,19.87802334341812,-28.39576308432005,10.827857015006055,-22.493888675262394,23.00966163286035,-11.59482668123665,-4.909103980442646,-5.46710280990754,-242.99637832604648,190.3852799515824,292.793154075171,39.23573711167805
1.14,20.28376051970743,-28.419667601602875,11.017063524533219,-22.6446158362727,20.31648539563865,-9.655889102961252,-2.2755297572504154,-5.4048974033264985,-272.45775654876866,163.21060854349045,334.12240890986095,14.61568969874989
1.15,20.555113098562646,-28.30727192775268,10.931733797892788,-22.621605700248427,17.1302216196869,-8.34172362383421,1.1863708542363733,-5.370517947172703,-299.81815049015063,136.16315312890504,370.8452079990645,-8.629797359728078
1.16,20.624293605968475,-28.574454000747178,10.828191218556993,-22.703873162178247,13.574296338775193,-6.65027020047754,4.8674344499588,-5.464521571533417,-323.5862043687187,109.31514774540375,401.9143974037023,-29.62106515541769
1.17,20.63927717814284,-28.807311438456832,10.950659224755162,-22.90457531245222,10.252226463535816,-5.634490896870934,8.789931228369353,-5.911698070355969,-344.3088776981079,83.54551445666088,426.3470216878543,-48.851299126180294
1.18,20.8380928297811,-28.627089976518103,10.934443179408365,-22.744976744440255,6.3897650248411,-5.17958155978044,13.161038308111511,-6.74389985929552,-360.6392414923847,59.64415204937318,443.61959789839364,-65.40365659327529
1.19,20.700140398424914,-28.724304283905663,11.186344066577199,-23.019275516960526,2.4895450628407483,-4.317410590061709,17.789205901345127,-7.485648956045672,-371.5322450466794,37.812130337658104,452.96769181871014,-78.8578632064936
1.2,21.111789859493843,-28.61445604228709,11.209504457365544,-22.618539627005497,-1.8558515287136428,-4.19958606947453,22.595758648152817,-8.488194410892396,-377.7823647897817,18.487566383506017,454.26706018647235,-89.81317546989716
1.21,20.894296080091976,-28.764448906104988,11.672222325522624,-23.170999371380436,-5.8113475434885205,-4.664897719659023,27.562731872225587,-9.135280368987747,-378.45045101555695,2.431132866838375,447.3636489564682,-97.25448490215932
1.22,20.58125262130132,-28.688897840385795,11.753720266437872,-22.966530653372363,-9.751458924240293,-4.758009228826671,32.160243861816014,-10.330719252164837,-370.649049843533,-8.256346492623502,427.4644881697528,-99.32912196132625
1.23,20.571790231927455,-28.600660793948308,12.076166638028354,-23.011685927447395,-13.80921395597084,-5.288213104175563,37.032573876956484,-11.571988670975255,-362.57725448929665,-19.036757946595568,407.2386533896737,-101.10154948166418
1.24,20.49059275939091,-28.943118698295415,12.262563696629158,-23.20578346706288,-17.937815250143693,-5.743362653550334,41.59476088083812,-12.627869522613203,-346.322704008818,-24.234265859156977,375.24355267124747,-97.86326161791742
1.25,19.99513446352291,-28.81424670117398,12.698099139394932,-23.64186310415397,-21.672551374444993,-6.506886391727865,46.10425030889568,-13.494035107135325,-324.8518012849866,-25.9672657294501,336.21900789384176,-91.09997881047192
1.26,19.887091897899566,-28.536836019041935,13.207015447499176,-23.887709556179573,-24.93592926907596,-7.014394880772486,50.22007371993047,-14.325333426624773,-298.8672423071151,-23.41281984974889,290.8815669040549,-80.63716950793636
1.27,19.857914227492792,-29.013783156289378,13.786245126807621,-23.843602107914247,-28.05379139110677,-7.725368389206592,53.541308453657685,-15.179957663458172,-268.17088590391955,-17.237473194722565,240.1936333558567,-66.76462654708776
1.28,19.361843021295197,-28.98085666557362,14.267667610351912,-23.8301217797621,-30.893742081643495,-8.83637658157657,56.428826374551555,-16.01978751875262,-233.97936663060017,-8.189156663698016,186.36032320728557,-49.71210377620275
1.29,18.751247868339668,-29.082706174397583,15.049865226342904,-24.02157096223164,-33.39537626708031,-9.017692173150996,58.997171460346834,-16.20204315509957,-196.6881845336226,3.6829922732090026,129.4012580194359,-29.575363165283054
1.3,18.94983443971633,-29.29494995827246,15.420638743284561,-24.031475070041324,-35.18175071941821,-9.37919823315359,60.819223873108,-16.368273226130388,-156.9505051634274,17.768084479982786,71.94591707142511,-7.195836326505285
1.31,18.23901338218041,-29.331983734199785,15.979748460014145,-24.414412934469087,-36.82240853346504,-9.34545186462435,61.764506029261746,-16.271772756511858,-116.12190554827991,33.28350503077076,15.400156248824828,17.916452149647718
1.32,17.916822462741695,-29.33453637895566,16.680707024304365,-24.74117999071238,-37.27812008436651,-9.84307030934431,62.24892676525692,-16.065716282593527,-74.60070164821309,49.98679663705235,-38.19539660040693,45.18794728328383
1.33,17.544663062515877,-29.375138026350957,17.402513971034935,-24.782436893231324,-37.460225690428075,-9.306246266487568,61.85269465196333,-15.356420274359055,-34.148424088888945,66.92537600207281,-84.15727240802524,74.21668376193574
1.34,16.73196365286629,-29.344427623706114,18.21534914897984,-24.852580351605372,-38.018841554729434,-8.886616212796591,61.55912503360986,-14.43183318735131,6.548178861835271,83.59268891459872,-129.68459264514752,103.50423872669289
1.35,16.70979167572853,-29.627106950482037,18.996709211636425,-25.07407412198279,-37.27809142831916,-8.192816326544806,60.1028081803381,-13.223399815252698,44.38558442689823,98.6990426479046,-164.51095859906255,133.6616142158221
1.36,16.196732048733224,-29.675378722762293,19.716818465222023,-25.38429325509556,-36.307817253196696,-7.0230638898666635,58.69299764493731,-11.854590285343871,79.73720886846989,111.37574780802076,-189.8718022196213,164.21790843481176
1.37,15.835098753325122,-29.86403639700413,19.956885052752956,-25.31331984636079,-34.67003401205,-6.1249683766513465,56.15185735902389,-9.563081133110753,111.87675611587285,121.4063937572707,-204.4067505422115,193.85272290204952
1.38,15.478972068516635,-29.97737339909956,20.659485682722497,-25.448801677087605,-33.07826418527268,-4.579413611570826,53.81935788888912,-7.374815646244676,139.97829618412084,127.52252278916615,-206.61942105915355,223.09570610520373
1.39,14.97761937875381,-30.02303453725258,21.638746711358962,-25.260321126799298,-31.191602163648366,-3.0458561859539794,51.51180089342333,-4.783642624939465,163.65355812294607,129.46398086429267,-196.11964071583236,250.68919283056908
1.4,14.779886861898778,-30.207850947006587,22.43442465650583,-25.589702474051194,-28.86996350710093,-1.5725922509508878,48.830997466999705,-2.2589726164197943,182.9425164001275,126.74986297132133,-172.6614071862711,276.8121996862131
1.41,14.385448563868803,-30.352547557095612,22.73056194242442,-25.46465480882194,-26.502783918257727,-0.0873073450223833,46.48113136798309,1.064680104939172,197.75633621380112,119.1474559364851,-135.02361137515558,300.2448536292923
1.42,14.317636400536855,-30.184654647645832,23.165092002186263,-25.494408865100645,-23.473348257828015,1.3186393077559657,44.32092856544335,4.23270295712658,207.8078348102056,105.58073920543737,-84.1113211152476,321.35517206364284
1.43,13.996876584891323,-30.3149436901152,23.649202913545615,-25.123313154497083,-20.999407322895504,2.928405391644247,42.40739723987329,7.786542635548142,213.26127104311058,86.4614244021553,-20.67761153410674,339.5238959547326
1.44,13.990629099688148,-30.17833692678509,24.21938837426904,-25.308857813153292,-17.94836284434283,4.314503571012553,41.796891672777456,11.551065777424517,213.35952047790866,59.55486300499201,60.0746895277853,352.6239406724776
1.45,13.813674283572494,-30.19511596753897,24.712507003412995,-25.32759831526071,-14.84169639499454,5.402912942987663,41.33536435194848,15.497533474957223,213.20619585455776,32.74269212547935,140.66328938811395,365.818530648348
1.46,13.56810185631104,-30.021427478174097,25.269776689267825,-24.87099223639521,-12.513607024866788,6.119966306984312,42.04904849370622,19.38597189498104,208.23717801953254,-2.111925740255523,235.48891703258292,373.88427685468156
1.47,13.851019345339601,-30.260937332672032,25.523891294744438,-24.867229559253342,-10.246240970419473,6.49155598029438,43.52463004957134,23.103585413107293,201.4832424368656,-41.01167102205398,337.60899061290144,377.83343894231245
1.48,13.65840323202909,-30.276790641952605,26.281814534685463,-24.464473683207707,-7.419846766738927,6.353582795278122,46.54126584915816,27.24539732705535,193.36867733522791,-83.55406252442201,443.6284354505024,377.9487645416131
1.49,13.42686687864655,-29.97339545112849,26.172598098836545,-24.059631755221407,-5.338106638036306,5.816832389731875,50.630238431975066,30.93063138276701,184.9457248842213,-129.17994635053128,552.3559064202138,374.3130663710282
1.5,13.437033514800849,-29.839623529668284,27.130667323774663,-23.70314520754053,-3.1700000648728306,4.285860779023185,55.48992848485357,34.75230999322655,177.2582378148461,-176.54093634431663,660.0333263179109,367.2768036728836
1.51,13.360165120244597,-29.880134067986543,27.706185647287857,-23.527773293862342,-1.5269108225748347,2.989340411805589,62.25420199547561,38.24649373659701,171.46905493450691,-224.75012493609208,764.1121955550708,356.54497189687794
1.52,13.36288859326118,-29.725680355239867,28.094897607794593,-23.054281990343046,0.2429522114193154,0.48997652998688734,69.96082407781076,42.04898442767632,168.08566006071376,-272.45826977183145,861.8956826837136,342.6682226815354
1.53,13.587918611399251,-29.67251329890303,28.6546171632578,-22.157317111490155,2.343703061535496,-2.0704605627014594,79.15399921767273,45.36825878075546,168.3534844328958,-318.3298988664692,950.7442784825314,324.9293748389247
1.54,13.663467660537028,-29.85187115666773,29.506625863697856,-21.978636370716597,3.9915548093858644,-5.9922869647917345,89.19903373602212,48.43543095323431,173.63911606894143,-361.6468028832149,1027.9892649339397,304.8262079809415
1.55,13.674369111304763,-29.858574034961002,30.52806338302585,-21.2603659393314,5.626452973191496,-10.290227525377114,100.35306376273438,51.06778975969792,186.93256530811942,-398.3028846866888,1082.0265672124187,281.7247488344619
1.56,13.808953694931594,-29.905045953847015,31.157266722450483,-20.960489473683722,7.343857958703564,-14.448899780398735,112.0297607143528,53.87357634172462,200.30982747572992,-434.90819112548235,1136.00661550051,258.13484769051513
1.57,13.931470632770289,-29.991943496819047,32.422753980885176,-19.938636011546855,8.813273269991923,-18.877666602341755,124.30083935383672,56.17887863160763,223.45186647821768,-462.3703042243552,1162.9413518514718,231.59215535147194
1.58,14.074006822817044,-30.07895353762587,33.710556330950375,-19.766073112207856,10.762281347590918,-24.315385084980687,137.17927120904864,58.19833133077044,252.91081865767285,-482.3860384792327,1169.4437900638384,204.2069775821488
1.59,14.318128451502929,-30.442482390035195,34.94676811755316,-18.973336748916108,13.18686954862562,-29.908432365692644,150.3788424189892,59.83812922806168,289.4567468416036,-494.67424941531516,1154.643287612491,175.82126197983865
1.6,14.750162576787453,-30.552524609857564,36.27796101575242,-18.50806536970787,15.567864243334194,-35.458890475850836,163.4098347908997,61.247848090133154,332.3745300632173,-497.4530003330935,1117.8506116769356,146.83154437473715
1.61,14.720876501322131,-30.91814626064752,37.93264527943521,-17.885557821195416,18.519020472839433,-41.39347406207953,175.74839342529341,62.199207950271116,381.649815480807,-490.8615844600706,1058.8109489888975,117.61653014479826
1.62,14.929418903626095,-31.4945735319417,39.56517088515873,-17.30044450977969,22.19536980718734,-46.905801878218554,188.01726991872587,62.93243842398319,437.0966799525607,-474.90933498940495,977.8214844249,88.77616311923633
1.63,15.340410400081804,-32.03740191364877,41.61169152609788,-16.589735496996436,26.277600392745093,-52.27903388504159,199.13988510034167,63.398500407455934,497.49967320322367,-448.56809847512886,876.7067566075651,60.733860606415845
1.64,15.449624216000977,-32.61498461250452,43.622746727181244,-16.146739765069103,31.369735500970453,-57.48894826657852,209.0174777367832,63.432371452967985,562.0873178040778,-412.40140223434037,756.1142794623328,33.45981407672278
1.65,16.00644883234536,-32.875917039240065,45.87483698918526,-15.317874639292528,36.60665681027262,-61.868057045825815,217.42586088644583,63.78418201333483,628.9981750432014,-367.1895853521515,618.5209700804224,7.427126418404194
1.66,16.250713422944628,-33.7193595163876,48.20460962525474,-14.528760962690221,43.46203143127567,-65.6069198274126,223.43653775321658,62.949814075127186,697.7901430440369,-308.57044285261355,460.7542521145462,-16.050380031314678
1.67,16.846618868549424,-34.36588220916312,50.62652152486535,-14.00268435031485,50.068741655649184,-69.16165191924449,229.55824905474526,62.66419817127828,766.353924334577,-249.38251402306952,303.1120661349814,-39.60799749158784
1.68,17.52379522876032,-35.563627951795645,52.92074547163034,-13.372374182061685,57.66709947870309,-71.73722771447433,232.54114997061757,61.75593053326983,833.2977298421779,-179.5873029558322,131.4533232328738,-60.15604816310496
1.69,17.980096015831965,-36.07042617213145,55.45827245406716,-12.905890703022887,66.34419109914293,-73.15210115232829,233.48667590116037,61.16398924534428,896.6781924315183,-103.25594765383704,-43.77583986470199,-78.96310999171222
1.7,18.550830047420355,-37.17259579134958,57.84019823169053,-12.351353372268449,75.88135005463349,-73.86252651220619,232.2380374222738,60.167910377279625,954.7794533381018,-21.863301577343876,-220.3501781459631,-95.92566023564608
1.71,19.179286902817186,-37.960197301264046,60.4955145744057,-11.619562685198867,85.6634550638583,-73.75096324982944,229.2604668805271,58.72994721592772,1006.2849079079741,62.92444267407083,-393.1988720065818,-110.51038748832048
1.72,20.412915860559778,-38.527111565829834,63.21717191327623,-10.951477013325396,95.84714579342106,-72.36168949027922,223.82203495599953,57.42634218382055,1049.105136690156,149.96771595136576,-558.6713513514651,-123.06448744072439
1.73,21.35574410297371,-39.33198144340506,65.67384527044713,-10.283231811756567,107.16648954474007,-69.69391906610639,216.58636447614523,56.143585655835935,1081.469991939045,237.21000612400533,-712.5990182357865,-133.3374822773309
1.74,22.284811923217788,-40.166334117457424,67.66895926381042,-9.913195454498934,118.50878919457118,-66.3827950063926,207.23566290473013,54.736118361215375,1102.915969811322,323.8893699748383,-852.1216581180043,-141.6362847775428
1.75,23.799626819047234,-40.97603253482781,70.01113839833025,-9.614063235835701,130.3217569176343,-61.87271428658187,196.35722144139217,53.36953605602221,1111.0478131147752,408.2338755288488,-972.6993270189362,-148.442722458794
1.76,24.936623077978776,-41.65464461752488,71.87880337879147,-8.92358932125549,141.6820654582043,-56.43032738397471,184.17932732920318,51.87815440944062,1105.6371267519864,488.3664817153024,-1071.9429464526131,-153.48330125516702
1.77,26.557499938635456,-42.05575663294922,73.64606916163176,-8.458043600969008,153.35587255374395,-49.693504864227236,170.04432798132044,50.38271368557392,1077.4956174079268,560.2896634805882,-1134.7057492357708,-155.9462671705934
1.78,27.9161553615017,-42.63596275556084,75.52562554880649,-8.051910612907692,164.88073489620058,-42.7300216385032,156.10121975931796,48.94874662331244,1049.176447063247,632.0440335182293,-1197.2731158140996,-158.73191957672188
1.79,29.364413128819205,-42.9818248583521,77.50431837680895,-7.587879808112534,175.50868534888374,-34.56888044929194,141.4698013763752,47.52512108600767,998.1834139086243,692.957636936787,-1220.2035799186476,-159.67335238816065
1.8,31.662907920945646,-43.385807814837804,78.65167317183656,-7.097458377936648,185.8583833442753,-26.28079187885019,126.7381697824214,46.08058326791549,931.6099677154451,745.27105800152,-1215.2572950906028,-159.17553699384334
1.81,33.34835282810076,-43.69585618527839,79.93871009262321,-6.795759806841272,195.46182254273387,-17.783308122486186,112.08335207607423,44.43140029809841,850.1029050669864,788.6038425674292,-1182.6212185891973,-158.4437959584517
1.82,35.723718141862186,-43.64918064253447,80.89879677726543,-6.313216714245088,203.99284828791437,-8.415463045857994,97.94172838523257,42.86995241599576,754.3861939236781,822.1689782407062,-1122.624516315309,-156.65315921178322
1.83,37.79009907891592,-43.51986029985179,81.5733663631441,-5.6494206600036865,211.45118357472487,0.9458273877318151,84.4127226961902,41.4206552595153,645.1430407067234,845.3619885615446,-1038.1454576748836,-154.69235123381577
1.84,39.921944802072204,-43.40266892346087,82.17121214984464,-5.455681867284923,217.37328788728038,10.335771271639802,72.50135002157504,40.174722468414,523.7555600591053,858.5617295852128,-929.6048273574738,-152.47980985357893
1.85,42.05107695488208,-43.09664697855426,82.77843308355125,-5.035497479205126,222.11378442424217,19.846280083180183,62.17274303352875,38.896724804881764,392.5581490176047,862.2635991848737,-800.800266198765,-150.4113101269331
1.86,44.41755548400403,-42.913693650820065,83.10644773075884,-4.617452871937043,225.45795282397322,29.138507514615164,53.721251219198834,37.55248518726001,252.96647348419728,855.5797608327734,-654.4005144586383,-148.03019861091605
1.87,46.863264468658855,-42.01680037656252,83.07845796228226,-4.353880580039843,227.11758808900595,37.854657365871994,46.88558794160262,36.34941149833633,107.2284273303383,840.205755941324,-494.7468590440685,-146.15943357645966
1.88,48.999084180698055,-41.710679576368456,83.30447424892137,-4.10958351680077,226.23126151149899,46.21358123019566,43.526887714712316,34.89069923308808,-43.611819965682415,812.383019812129,-322.7299532705978,-144.4583713448207
1.89,51.47790264627013,-40.85282009677058,83.33959356136691,-3.507745186144062,225.29879002597585,54.24447243387675,40.42146851070426,33.398956940206176,-194.48861061489634,784.510214649977,-151.0502615401878,-143.17763406058694
1.9,53.92566491616783,-40.09550894905451,83.67251516761463,-3.361232716182932,222.00173522496846,61.78012966364597,40.377519116756325,31.80948121485931,-345.37118426421654,745.8870062414121,23.707802547313623,-142.1604530119333
1.91,56.08680004603801,-39.262389721485945,83.70791000298748,-2.9067018426577667,216.846677638204,68.78064904335535,42.69101976112777,30.392377249578605,-492.79529824680384,701.6709488416053,194.255465780231,-141.81540884529477
1.92,58.442055008226426,-38.40223493205224,83.58083243505845,-2.5916751452189093,210.27885525073705,75.04362814500521,47.29035696319636,28.864999425778798,-634.7413063349063,653.0937296653678,355.9355359500486,-142.06681576985298
1.93,60.16237717632189,-37.642056119378424,83.77333678025512,-2.3399662681147038,201.82989187231314,80.27120283160482,53.79777200503787,27.716667914057503,-768.8815341464016,600.9413246533995,504.58228555581223,-142.7355297981007
1.94,62.38066813677892,-36.63942502995364,84.36717090643482,-2.1502592884561524,192.25719372786122,84.82164508240429,62.02503770720507,26.233020074580747,-892.5733491319696,546.6028215693276,635.5826640998741,-143.98747652859828
1.95,64.41947541554084,-35.62668267978269,85.09686526986607,-1.6667216152478663,181.80714597937538,88.90354327398241,71.63168431434887,24.59174283682166,-1004.0297415253293,490.7751894415747,746.2529876417958,-145.7415266736204
1.96,66.04052024612452,-34.77580691891527,85.51169385033468,-1.348550689490405,169.77652172043793,92.38081040361855,82.94635192334131,22.796173071431838,-1101.1832752282232,434.4339392416062,832.7217331607706,-147.78840730377956
1.97,67.85086283297805,-33.743341028064904,86.27509469669836,-1.381083982581022,156.96181919177843,95.17666498760741,94.66135551206374,21.25598572248714,-1183.3261432933148,379.40605482788794,892.9586482000097,-150.45210967655834
1.98,68.87242074330874,-32.99035287003986,87.17152135043101,-1.0848244042716477,143.5063447398343,97.61609564994637,106.97943438096475,19.507918688729536,-1248.1006320543333,325.9183843380923,924.2614744559979,-153.6644216488455
1.99,70.34116018550894,-31.935640798172958,88.68228286246267,-1.0424342297791007,129.1769325699178,99.14862140130829,119.54449376083247,17.82070516581705,-1286.3033592226461,276.0088038972928,911.4616273272313,-156.95608315891596
2.0,71.73213582162577,-30.90697975768136,89.8519052544573,-0.6281321691882246,115.20296486254348,100.86273172605702,131.847714232659,16.224702087056112,-1324.1837118750313,226.1872534711485,898.5562013381971,-160.60736265453733
2.01,72.74719242133443,-30.229152133093766,91.61791041751789,-0.7763296286230607,100.88699096590807,101.64786133790241,143.033513472286,14.3129886293192,-1334.832085990418,181.36931661565336,840.3040343446013,-164.04096615344986
2.02,73.62536746666994,-29.279293760565647,93.59405409791775,-0.6869967266785993,86.51939689019706,102.52896460971098,153.4700451800229,12.807976099599998,-1327.07762015068,139.7582493329889,754.0986362837855,-168.2280917303681
2.03,74.11140337269048,-28.312183353779776,95.10517967984356,-0.6761846242550581,72.80750822262297,102.93723251331458,162.35596399109144,10.932890786132063,-1301.5289396101732,101.81483954948635,640.8064144429658,-171.9865033200066
2.04,74.90618890607163,-27.012346116915882,97.51934432986978,-0.27702894239559606,59.2974140257941,103.2032979297081,169.31442540540885,9.195647595199148,-1259.164566956549,68.29561030331985,503.5360980906383,-175.62256364167004
2.05,74.83446860973768,-26.494525889224025,99.07889548365131,-0.38204246010488524,46.74061467181978,103.12741027193519,174.47353237591597,7.406257961536466,-1201.036110507729,38.30618991339559,344.50528318224866,-179.2343693748812
2.06,75.44407930442277,-25.278216835932504,101.32941413837318,-0.21856280141767714,34.97192381343138,102.99097090080117,177.19583824442847,5.5516986017695045,-1128.8978968594452,12.035172657450849,167.87525402860518,-182.91648461246388
2.07,75.36604303323524,-24.34483477642039,103.52195922101643,-0.6173493320346082,23.999868539490155,103.2766811004159,177.73399738582665,3.6247531439068954,-1043.938518136106,-10.953294223500492,-22.30059018691835,-186.29302506199636
2.08,75.45322388721233,-23.61807675758649,105.61685404787993,-0.20939155351333355,14.752563511313678,102.96081892877098,175.29763618934115,1.7836198210737437,-948.9037376097983,-31.407459123796876,-222.5032398413021,-188.91521890731357
2.09,75.26891653579173,-22.695606449992873,107.56081475287934,-0.34178142084198054,6.298818433649275,102.92267270030788,170.44147182704288,-0.03430213342383205,-844.7203223149135,-48.78736635202817,-427.6323321411584,-191.3117942505838
2.1,74.95907731285371,-21.519812037196328,109.52940726514097,-0.30927031395394594,-0.4803888171193621,102.99599937133122,161.5086533218663,-1.6874010743966135,-732.6484656495895,-63.694280942853396,-630.6228090166538,-192.84754778746697
2.11,74.97027152762753,-20.73897897103302,111.38819051310729,-0.41842194674371536,-6.957249835743224,102.81787257324213,152.62128526980882,-3.7275670353697583,-620.545402772186,-78.82155415220342,-834.0472803849777,-194.3297620524933
2.12,74.72494097632075,-19.502275491380157,112.93049992534648,-0.29335210576857185,-11.28761198410397,102.81484358706533,140.61099791829443,-5.49257446477657,-504.6066256310267,-92.39224104084444,-1026.738923169285,-194.30285278108337
2.13,74.79345004579162,-18.620367313046007,114.29023195281327,-0.4720387876727242,-14.641382100718136,102.4981713031029,125.91921937695324,-7.433783963081443,-389.40213650349773,-104.31594959663168,-1207.173549723616,-193.87932393900843
2.14,74.59332755944666,-17.55675581845055,115.59282471313436,-0.5485698356390968,-16.557917891727012,102.38774685335166,109.44654298400576,-9.094932192292847,-276.84105473238947,-116.46094671347868,-1370.6151728196471,-193.02700496574562
2.15,74.24475150595549,-16.60754340978997,116.41306661581115,-0.5961615211822543,-17.023908291364954,101.63392532187231,91.37296429966992,-11.02875289178071,-169.1030111420384,-129.0457238173471,-1515.0772167712041,-190.52201352803945
2.16,73.97386568198468,-15.408444513453919,117.23579364731908,-0.9116842910186064,-17.087294351533775,101.17793167877394,72.00640656471732,-12.943944080515436,-67.70041399776706,-141.65820877820295,-1637.380664738211,-187.2697054281527
2.17,73.8236524356539,-14.428135293161986,117.626687215748,-0.9768762286967059,-15.582597597101326,100.47115660476047,51.57943364651421,-14.643291708325409,25.378674096644133,-154.62982517894832,-1735.1991390716307,-182.77978882406043
2.18,73.65052782592522,-13.475512412977258,117.51128839917507,-1.2131540139352206,-13.829578613651966,99.28409641679244,30.390041070978917,-16.30902479734682,109.0163012791475,-168.73454358134447,-1807.1872558511725,-177.55982149216175
2.19,73.76621423646414,-12.419103514538403,117.64423169926103,-1.1305374670499708,-10.949395687664628,98.2463409527462,8.764532284009906,-17.849021615967967,181.6470282631364,-183.03036536986272,-1852.1167568561937,-170.9472256600156
2.2,73.738012249575,-11.25538747526565,117.30614047743092,-1.6395649818545492,-7.795963298460397,96.92613237183697,-11.937490537084116,-19.614271480667114,242.75072976911918,-198.3581459591723,-1870.594258251733,-163.3032346634485
2.21,73.70108413201616,-10.244830909983838,116.46285684709542,-1.5698254820030129,-3.938698173063975,95.04832691617395,-32.59022258208829,-21.16057064576434,285.5767043812664,-214.02077264477558,-1850.027009435858,-153.67536490770496
2.22,73.48225863994553,-9.147701204149872,115.66379316778486,-1.6160617043356909,0.02366593771428905,92.92935511576903,-53.03816044992766,-22.63176128955172,328.609599317593,-229.97107517026345,-1829.465030231174,-144.13845301424786
2.23,73.68764005508568,-8.300465840620404,114.64251261472761,-1.989766207731097,4.289746402668291,90.29568617269632,-71.8641729621314,-23.722070521076148,353.01484735251967,-246.06132957055044,-1772.5528046611082,-133.19391905732195
2.24,74.17371804358545,-7.386135503687595,113.33481404464372,-2.2709272265841953,8.751291240698087,87.60854169539022,-89.98556036673381,-25.134272225488953,365.3211984189309,-261.74725811085995,-1695.173466444902,-120.49555156239586
2.25,74.25081954319711,-6.309377958971327,112.21051860772884,-2.7679231918991793,12.742967602295524,84.46140984859503,-106.34118685754862,-26.178990232601993,366.45309082931715,-276.8738318867712,-1598.6056203368105,-107.26596973278629
2.26,74.50081651004916,-5.451236103471842,110.81711437266745,-2.8762519779610685,16.20625336042568,81.11432375713986,-120.83651434251952,-27.13384759135589,356.96079736068674,-291.5454217378319,-1486.678714394677,-92.41320735599331
2.27,74.81595840610552,-4.41880130450619,109.16455898027073,-3.172502756097518,19.58286779807049,77.46948738121414,-134.29453371526023,-28.413821196198686,337.58457459915707,-304.6664892202154,-1362.3827939660434,-77.16758707604251
2.28,75.02477419965477,-4.046619943804044,107.41023744091727,-3.204983433822515,22.8450574358926,73.79467029324448,-144.92524415367348,-28.831884031525806,310.0276408261818,-316.93747402664275,-1229.3556146162564,-61.10339661917502
2.29,75.4936116215719,-3.0946882457197926,105.87535626355202,-3.657245814072934,25.099285634089767,69.79896879303382,-154.4454748613893,-29.45699636489574,275.83036607443194,-327.12689156595695,-1091.1412214702239,-44.6375265646947
2.3,75.63848933891286,-2.646736343937239,104.28898107943708,-3.5275613184700427,26.95112057383361,65.80685082891935,-161.92188389034362,-29.797635603847276,235.3667537664043,-335.593145116684,-950.4425709765941,-27.466389376363395
2.31,76.3091791512841,-1.9264451312393618,102.49768766838015,-4.190036865131643,28.450345987709955,61.56028574284609,-167.79604520626953,-30.09072202719527,190.8817122890821,-341.77351129079375,-811.452279965686,-10.112621450536809
2.32,76.31327328388501,-1.3261543115849541,100.69145296215514,-4.4839251135195,28.755227734703954,57.10282532249572,-171.36113096881132,-30.056276207890853,143.2851518939776,-345.6532659778671,-680.0496457683532,6.9255968310050795
2.33,76.73689440148856,-0.6673522508748115,98.86508093539163,-4.827426611826162,29.366071013016093,52.84916566056421,-174.9778164808848,-29.9674399102524,95.49219034980288,-349.3203455378283,-548.3364790987354,24.069048993129847
2.34,77.30894457971127,-0.7507707704670129,97.30216757439456,-5.16339821644539,29.170069870618264,49.0241692102934,-176.36344012125565,-29.47772167941161,47.4257479028834,-349.6972035046778,-429.33853472844095,40.78149319691322
2.35,77.44188906074201,-0.34283844117592427,95.73117178495673,-5.5092359029567906,28.327185610278104,44.82448900602198,-176.91273010014595,-29.27221112085847,0.8597831150789661,-348.2871605538254,-321.55872519332473,56.94749272221598
2.36,77.50927577234685,-0.20482038391507168,94.02108698415768,-5.515203785479343,27.177885455708058,40.78194413471929,-176.5198796158868,-28.39635190587771,-42.59164224205883,-345.4187951297638,-225.58794051767373,72.04846243594196
2.37,78.1862975931345,0.2711976650210358,92.56019404545975,-6.168528502274179,25.378001030930825,37.352742892795455,-175.60063045225624,-27.62746154268633,-82.53476672477217,-341.2067429236891,-143.4465596390237,86.22779282116718
2.38,77.9387665568266,0.8762458314119613,90.8483361644695,-6.387155621325062,23.666602420059153,33.39915279774493,-174.19998695766628,-26.591778429345688,-117.97887743680246,-336.2140274354479,-74.38959703268375,99.29923714837125
2.39,78.10784621601778,0.8699080254305751,89.37459605424745,-6.51646580700632,21.273188353972905,29.826470325743696,-172.69243846570689,-25.395524245420557,-148.00852429713933,-330.3420313969881,-18.336078098956655,110.52020466958113
2.4,78.45411705151274,1.2319622334715161,87.80436161187396,-6.901742162479725,18.95790731713606,27.024108271229554,-170.9071471561471,-24.384585539999563,-172.27307750794375,-324.1041226740162,25.08024184524868,120.41563102837233
2.41,78.55467691087966,1.402771553784781,86.33490770535603,-7.192955913526047,16.455182957532624,24.233632635619653,-168.9663771837398,-23.004966145482648,-190.1631152944532,-318.1148147965287,57.21520984542948,128.0559260066677
2.42,78.49431435581614,1.5690032947258294,84.9627256373661,-7.309233185458021,13.874314360721906,21.270769099281058,-167.6224715269437,-21.64633405150482,-201.59226019949793,-312.38051269266913,79.7487873117298,134.2234702646475
2.43,78.67010429383343,1.791054509642936,83.23261972926824,-7.5971527042459535,11.474846891113653,18.562230449776376,-166.21089222726377,-19.976100911343476,-204.50691406384007,-308.1410575778056,91.64894781237876,137.1414235972672
2.44,78.64231116437684,2.0954425947042163,81.97502193876255,-7.780089133380897,9.184596949572565,15.88819533039747,-165.18185650095194,-18.46757157451757,-207.37271584611253,-303.8156743468538,103.56875205636896,140.093482047373
2.45,78.42901777479034,1.9245269302364827,80.12305618474403,-7.848283017898924,7.371133018207454,13.480150716142095,-164.60752703673694,-16.98986999139545,-201.57161991591468,-301.8613678537661,109.63671418511402,140.2076499701962
2.46,78.5585241894858,2.2719530511703483,78.83078819822349,-8.02212779580378,5.318745366847526,11.135347358368792,-164.42326509610936,-15.106213977269178,-191.3422764865745,-300.6064026923461,114.1474981573541,137.62020180993184
2.47,78.48476216237931,2.460887832053534,77.05751077259475,-8.138335697896181,3.8736054038894,8.541078407911382,-164.53621705363287,-14.39533930960966,-176.48997143953696,-301.2772169394914,120.72711892220396,133.6926463847358
2.48,78.66743965786365,2.2553657785986205,75.974090351313,-8.49610662951328,2.190770912170613,6.062634841898364,-164.65113769062813,-12.967559891719842,-158.28826619331184,-303.65231667815675,131.08664804018204,127.77325614351578
2.49,78.61063428430252,2.4775141941268153,74.17323639067031,-8.359285638031366,1.4252347164964252,3.7335020686661977,-165.0771989663782,-11.33306467095015,-137.84480089571096,-307.9814856481647,147.5407233935202,119.59547756051212
2.5,78.67489096074593,2.719071094615019,72.65752487469686,-8.81568651703383,0.54413581064418,1.3202269214279627,-165.53380917806234,-10.072249792812698,-115.61393515105712,-312.56635197207953,171.89402541008934,110.37668884528185
2.51,78.59682671342001,2.7618628567411347,70.66486602050408,-8.709936937991266,0.5982738238965051,-1.5333369394012648,-165.42563355153638,-9.200662245540872,-92.1406025252098,-319.7295689493525,206.21131204275082,99.64193180959874
2.52,78.62542946578878,2.357149355096508,68.97820010053265,-8.744885071713762,0.0668690348236459,-4.093278464635892,-165.2055251680178,-8.126860675964211,-69.16592168187927,-326.99322604755423,250.87236620087452,87.5048722981513
2.53,78.80657505343615,2.1423473509178144,67.24102373216995,-8.756186931516204,0.45337005044696027,-6.94561274267732,-164.84662275804925,-7.297834312811203,-47.04140018804688,-335.1051009168958,307.22070318772364,74.58860267384674
2.54,78.84699453291178,2.17589962678612,65.57104893690466,-8.85908084524751,0.9539355553861849,-10.157677522485633,-162.80807145684474,-6.660861959254494,-27.461727052323827,-342.7549619335823,381.22761901672186,61.024448301167595
2.55,78.77655325453198,2.1575739435147403,63.919137550185035,-8.971568374663054,1.2710473270691343,-13.297748786468416,-160.8595006931791,-6.0226379085602035,-7.848097810840035,-349.9755257421734,455.753555416075,47.45696518763006
2.56,78.63669982736485,2.0204706680091586,62.36031383103109,-8.999856998878887,2.1019136499654363,-16.811779332386987,-157.1516500075203,-5.66400103572296,7.82736170430506,-356.4759013645601,547.4229901114879,33.71247869231123
2.57,78.91333893738981,1.943698372712502,60.62906098404975,-8.865150997847232,2.9487826509292177,-20.338893756842307,-152.35593484528766,-5.43457631530265,20.384044332129747,-361.13972204267407,649.054160233062,20.070121871135736
2.58,78.92054084822817,1.7057343689556719,59.075170316081284,-8.645008437848876,3.729427388654709,-24.03245948416801,-146.63548766656345,-5.538223067304193,29.400987762691937,-363.39594851635275,759.0780517729208,7.216101985337826
2.59,78.81058580884786,1.7354282380092183,57.38326627021278,-9.244903027234924,4.5524963323645276,-28.118824899637893,-138.85419755757331,-5.351943541718392,34.506282047873725,-363.18514396409256,875.804937135449,-5.0020306278863185
2.6,78.84260146053757,1.2938550188536955,56.208955947314976,-9.197160404045038,5.011545738502939,-31.83595236418675,-129.87928670494537,-5.776028359332906,35.91975149902193,-359.14253680890783,997.0364901633338,-15.610250526177648
2.61,79.10263051461102,1.0307234261252693,54.93313737396285,-9.042967817739946,6.035593534375383,-35.671902412085245,-119.18779006399195,-6.124841670692843,33.69545174649445,-351.8373812515118,1120.0510827810726,-25.47160033602581
2.62,79.20669532026223,0.4855063871628239,53.71677185452043,-9.039905461603519,6.624842964839753,-39.54167602332021,-106.91818480983821,-6.468597483803003,28.17447732017686,-340.541017058164,1242.3693333445838,-33.51544810401619
2.63,79.40119613812655,0.2248590186624908,52.98058053916312,-9.249274857372088,6.723864017851443,-43.686916460531876,-92.96381758371531,-6.959042945093436,20.19369537854685,-324.392576719836,1360.0218097902423,-40.02496126734874
2.64,79.09841472516126,-0.503774715550725,51.72945381711171,-9.380993985055815,6.758774412558494,-46.99414448277006,-77.82109758996504,-7.962497879932392,8.458099512060484,-303.86662277829265,1471.6228773866233,-44.41791243065614
2.65,79.5480371660319,-0.8749572170442229,51.408363040038516,-9.374319110489909,6.819228153379891,-50.36368847078311,-60.5600930846417,-8.524787957247863,-6.0004022109524096,-276.4541408760869,1567.0533162461602,-45.91246473493878
2.66,79.62647894040374,-1.1210419434432182,50.48903943246559,-9.324761380377467,6.3915992062135665,-53.450761865382326,-43.26768760987298,-8.875869486587977,-20.24006368753383,-248.71243975884906,1662.4171793226515,-47.58702863991298
2.67,79.67994077378314,-1.9512244908362288,49.99178215494997,-9.519511097891852,5.833939364266066,-56.36304710905316,-24.42784716456551,-9.83291142376094,-36.44685748420165,-214.3696877826837,1735.9462607918522,-46.312017719570285
2.68,79.64735851815495,-2.604519877100699,49.99334582682164,-9.529298274921036,4.941179550085118,-58.75935280302635,-4.89514047460052,-9.793689588713393,-53.061733597330175,-175.3650725548085,1792.4450824054704,-43.005895367429346
2.69,79.84927752369832,-3.2145028569751872,50.04709474498031,-9.85676547494472,4.062424463501389,-60.47717882330366,15.38072515347669,-10.572130885468253,-69.16552848987578,-132.854221544937,1828.9769687476112,-37.560238407892484
2.7,79.5513101730495,-3.836379395490497,50.44259862831702,-9.877741740057484,2.4116196620910553,-61.94153544123474,35.86793000165595,-11.028883856862342,-84.87105907280723,-87.04058295852403,1844.1491648986998,-30.92578852258688
2.71,79.85059870956665,-4.284936763232496,50.83073888754898,-9.892285114855172,1.1564547695065095,-62.4992863041688,56.33198832320398,-11.468117111765098,-98.8664354405034,-38.378176618706036,1837.5085501775295,-22.461048668707747
2.72,79.68050263170062,-4.930165650754633,51.755816389985746,-10.147214136742477,-0.41776550422630165,-63.00423093302203,76.66609859902827,-11.766304926516648,-110.8441593319152,12.291415833335037,1807.7060389188248,-12.775931263792028
2.73,80.01103275244334,-5.737557678441109,52.53972651534076,-10.284306865541662,-2.127567589110146,-62.51693636715399,96.37608055029082,-11.770688801990348,-120.83510145686981,63.87393889853885,1754.9751495268956,-1.7114257261623598
2.74,79.7981407483932,-6.409356960847194,53.98661216941872,-10.104916633172024,-3.9880787346701965,-61.34620588508411,115.3589759363794,-11.584951164345956,-127.93294794703182,116.39102123462432,1679.4685887379542,9.849457165616172
2.75,79.75165393857995,-7.1003209010260875,55.22398022944441,-10.605687464584634,-6.153176844014965,-59.75722250203585,133.01163772025288,-11.38423229147437,-132.05860815315194,168.5092886900097,1582.0031036278317,21.712787409843173
2.76,79.66160736321268,-7.758346680498336,56.78435962255954,-10.809986038741881,-7.9716297848048665,-56.96947561034633,148.46629159012366,-10.869314522073752,-131.254260929829,217.99542326321017,1454.9286249223292,34.375283929492475
2.77,79.4513068067323,-8.216604457107396,58.469134250611425,-10.910478837773507,-9.68037327728618,-54.4894859240532,163.74173287887717,-10.77287070107872,-130.76522763080243,267.8516115247901,1328.1052987187138,47.11688251915972
2.78,79.47925297105601,-8.930751580525527,60.57156251306719,-10.803164738533848,-11.131272856055098,-51.029822472140054,176.869235657441,-9.768497810714262,-125.31595941785062,313.5827971708028,1175.3510387207325,59.20818225373983
2.79,79.13421506119626,-9.42787610462052,62.56329977777266,-11.104381256017652,-12.716078737298007,-46.732371659207814,187.63589455702635,-8.749843892141293,-116.56568879384733,355.6152054714289,1008.9998965656441,71.18665911018493
2.8,79.09326674315282,-9.669374018233587,64.95251082374772,-11.12336374314372,-13.914824865134321,-42.53902225161128,196.6415859507992,-7.938609673905131,-105.18864883781197,393.48301266541887,831.76694702827,81.82411517020542
2.81,78.76515106304018,-10.30120389335839,66.93105107319792,-11.420284979209871,-14.961577590342456,-37.41352775608722,203.30424858268046,-6.80439490590437,-91.07827039932401,426.14334541116244,646.3520048504721,91.88193797039187
2.82,78.71901799115538,-10.647914841800402,69.21225784436606,-11.131482967405486,-16.00702372432013,-32.38638315525111,207.66794572457786,-5.835490324692791,-74.41927384690183,453.98230010333555,456.63806018731043,100.62029915531015
2.83,78.68432377653798,-10.49259779246675,71.48669414662464,-11.271007957946424,-16.551171214702055,-26.978758384122084,209.68545210455736,-4.502729818902128,-55.86970564081901,475.74130372785976,265.7617953963529,107.82528661647974
2.84,78.05263789885241,-10.937029842974265,73.68091902913434,-11.509072027436346,-16.592909736957967,-21.350890900424787,209.5420437823596,-3.265648046005262,-36.0795760671962,491.293693270303,76.35097772535434,114.32269655422782
2.85,77.81663033245324,-11.128973537701746,75.82880200333548,-11.384311082175815,-16.58469941132227,-15.737816738740667,207.05597577619517,-1.7923095779142617,-15.283628308297065,500.3805454924652,-107.95455321659765,118.402290045534
2.86,77.74756058175635,-11.419332874813394,77.8178127242884,-11.466942657659487,-16.4496967722143,-10.27751130940401,202.15199354593176,-0.23177890336153753,6.046822122408074,503.4309780532981,-284.7604458280002,121.47649397395354
2.87,77.77961497558844,-11.266606083357546,79.98388774013624,-11.34406093129716,-15.50124867702969,-4.865541563487535,194.82271788311044,0.9633693678101318,27.333233421717665,497.62057221091584,-444.59652989796064,121.74309468123398
2.88,77.66327359095332,-11.379603532512885,82.0641748883972,-11.308253160066322,-14.573693590917237,0.805630961047085,187.5396747285471,1.96967483819849,48.68918601761829,491.93370817176344,-604.4585398135806,121.9181877706632
2.89,77.22390490566455,-11.443763826853004,83.8352664247648,-11.343288221250054,-13.438548248543654,6.248611353020346,177.8193796315211,3.565506386683538,68.8782964188448,477.3636683768146,-743.6768842920492,120.23040133368035
2.9,77.2342900415207,-11.384723865925553,85.33666767946434,-11.347308597062558,-12.088060950017837,10.785637913665836,166.80809043954616,4.652489983017183,87.64849597594062,457.9549729968756,-866.9454426405282,116.70221084514795
2.91,77.224437705447,-10.989864507235158,86.89206336719997,-11.108272418157176,-10.647070765864537,15.119190222905825,154.18905804828083,5.824949094344601,105.08715314879393,434.02499275648756,-972.8751831539672,112.30024213344662
2.92,77.14607482597846,-10.481675279971245,88.09381557244235,-11.167461555549666,-8.85413724171318,18.781644711479142,141.23690855334306,6.8671538636968394,120.69249801056378,406.2906852490825,-1061.4213870407834,106.21428192915052
2.93,77.00948682708784,-10.3785482685203,89.09136684112732,-10.876828983929439,-6.582847162344191,22.718906809048878,127.37725188857219,7.976443144600685,134.68196553561322,375.24103083143297,-1131.9744434357344,99.28574257349528
2.94,76.63293047854692,-10.157325129950474,90.63829983770428,-11.058855160544065,-4.849037633555286,25.688071370705256,113.40101058357764,8.68735847248448,146.3531529508813,341.6290067927732,-1185.2522415320993,91.98654044982244
2.95,76.95119486487972,-9.567172993770896,91.10624138742232,-10.59973111420648,-2.579560311900957,28.506367586565133,98.9050815299854,9.436561809279704,155.62413719713425,306.1295665929471,-1221.613593925697,83.51610702965846
2.96,76.93636419276062,-9.36777664980658,91.84001206095448,-10.5824001757547,-0.5148526282075914,30.57746532540177,84.74545354146719,10.323585331133925,163.0032946088565,269.5561279360948,-1242.6060956701656,74.69245571347328
2.97,76.92901944008783,-8.645760324300603,92.62882339838015,-10.223843161220753,1.2669808074133255,32.30348202588548,71.27699785183677,10.854113827939406,168.28285539578278,232.64172893151544,-1249.1474489455804,65.67316961107741
2.98,77.19382378921256,-8.35276789766032,92.83415541219532,-10.395415345642597,3.232537867462975,33.781695637998865,57.94622954707354,11.264721119682575,170.709530712394,196.2655284439513,-1237.6036836325104,56.83923319833188
2.99,77.28648188805015,-7.738344193978613,93.20737058603368,-10.352544920074152,5.079699271560193,34.75940123330111,44.9330591335285,11.526015601906684,173.38233500775956,160.19092338460206,-1226.5311025463932,47.823204868306966
3.0,77.26716671915251,-7.273448840450918,93.24775988697358,-9.914868765318971,7.001428895151526,35.67121084414276,32.84202394337249,11.793861413986976,173.41043526158464,125.51543019738631,-1200.3218647482754,38.65377689437912
3.01,77.48808135574427,-7.073439343873519,93.38288223180946,-9.969813453999112,8.590520770815074,35.89400403553505,21.76521014450798,11.82027669224605,171.85335606253747,92.87824435999634,-1167.9888051406488,30.403931421062286
3.02,77.66408611338144,-6.662913642004105,93.56488815272515,-9.561836220904182,10.046887115705294,35.75796870642485,11.818169511917585,11.877783228335417,169.69681087277854,62.11451889548107,-1130.2607635698964,22.469938137833775
3.03,77.72122301759596,-6.413067321319679,93.23403804551829,-9.558746381301754,11.462665649837037,35.87144407339539,2.6682250155893286,11.999817169127615,166.4321543014257,34.2177202655969,-1089.7501131561312,15.18307754720529
3.04,78.09150156028701,-6.055845762940784,93.10335446765541,-9.811986245657934,12.503870520735532,35.55322758000468,-5.645062881452789,12.192066715962465,162.74416722117493,9.190360552039785,-1048.175123546418,8.673866235313682
3.05,78.12112377457011,-6.051037098491783,93.0951352568466,-9.507354441026816,13.86679737203321,35.25402875311529,-12.448004642497915,12.03177175051462,158.87202146931574,-13.561670849713755,-1006.9017876006931,2.7269445165999273
3.06,78.27454888306714,-5.535794483652502,93.08355976322794,-9.395161378776452,14.854990316930744,35.013078551395765,-18.526635318619388,11.810462262290935,154.45221648091066,-33.1615587546681,-967.0478695354262,-2.4481835268051597
