0.02,57.12396584937679,65.93286932958135,165.378422373961,1.5329487412994502,0.1078994950513593,1.3764574530528595,-164.20452936743823,85.73887699194853,4.3683540770135485,0.5199094127080769,0.3962575869666879,0.2981441951734664,-183.79552247271985,3.119947310448869,11.759194174497344,0.0640362323562093,0.768019733966517,1.533870357598898,-157.7730445605644,15.88865032591088,18.12029876555779,0.0198321505332156,0.1411549469258927,0.008605873950864
0.03,57.08150469360593,65.5678592782138,165.62121705041378,2.0724416666372307,0.1267912117686946,1.2600726562774542,-164.24056396395886,85.56152349630936,4.4202660247135634,0.7101498186789363,0.3106362343369749,0.8175166995045088,-182.9423249710524,3.306887721835835,11.364116672727649,0.133249592690388,0.5157191274603713,2.637068338156873,-157.7627288592842,15.878641974198391,18.119550606689465,-3.523625302908537e-06,0.161191215547704,0.0447509439605493
0.04,56.933657409197714,64.85979997400705,165.79789597608763,3.3869192155984336,0.7974469833203026,0.5104979143651044,-164.31642197723284,85.07011683443498,4.508452687472777,1.1253956646807777,0.2291490718022663,0.9044980809851992,-181.94483153427515,3.4446388449375416,10.958208039626632,0.2876614630361963,0.1857040254463101,3.312875417802876,-157.74567764915244,15.856009066339658,18.106105799510317,0.0354161720015423,0.0249579891471434,-0.0050276248127014
0.05,56.64357723882283,63.75682262610045,165.8572911708707,4.261561438531594,1.0526747748832934,0.2692725024272445,-164.37825181818954,84.32037207381096,4.552647818591946,1.38322284827707,0.2596390281056979,0.8359503727662635,-180.87937628278905,3.618921548324628,10.304971280131666,0.4690488225126379,-0.0028926375347399,4.595799191948685,-157.7489910506705,15.804887341067449,18.119521103339533,0.0423844138958045,0.0466975274958527,0.0060487687731185
0.06,55.83989301252071,61.54619268694162,166.11988517927165,4.198225025442024,0.7974468435105644,0.8149059737189468,-164.36927851282817,83.10017742778592,4.571785422684076,1.6593144791827386,0.1496028820077533,0.5899069544860892,-179.67074774069792,3.8763458839457434,9.696406127544874,0.374827800753195,0.0272566615328117,5.300076837856387,-157.74940030143424,15.813188676027174,18.11960558832998,0.0615680313189121,0.1468408859893787,0.0057605757985276
0.07,55.02616296552463,59.36978262966487,166.31633962611178,4.136849579046327,0.4775011669379842,1.3301800877514856,-164.31244753135397,81.69201309027851,4.549321098895423,2.495241224129908,0.1185394386771734,0.0435465386756681,-178.32047444740618,4.184144387721454,8.976180280957411,0.1457995794569824,0.224467470020428,5.122345889064302,-157.75489311829594,15.808052728231347,18.11763489403587,0.040793619823773,0.1856617655590423,0.040152246113075
0.08,53.5240420378103,56.464565001635805,166.55645936174184,1.9200172131243425,0.0412745571838244,1.8984087848957287,-164.05435998150313,79.96053942182684,9.43458872393736,3.0242098648110955,0.1833273476163485,0.6447868974247016,-176.87433004747214,4.500295458792817,8.43362468031042,0.6074919880339158,0.0333638503291859,4.430499970752235,-157.748504273363,15.814323097608591,18.12404083852022,0.0545594929792261,0.1079618899016884,0.0050745243661863
0.09,52.01899742349462,53.64107345566421,166.80301097392953,0.8535809795928933,0.4518584368856234,1.4412414639690525,-163.8774284644426,77.92739038546173,12.997948824307674,3.5006806580028167,0.3013084119354824,1.5836083404348102,-175.24595622973365,4.761872185012772,7.939543235865785,0.9123425733195074,0.1394263748139815,3.92609390154416,-157.74666748427666,15.79712063956116,18.1144074063696,0.0997732548278203,0.0801815670787612,0.0073730824376775
0.1,50.57568923249025,51.24714525396931,166.95444063271637,1.2386614271128318,0.3083477857895377,1.1487558587958846,-163.5658190295406,75.79155155606713,15.94503850167806,3.486947264814348,0.0056288966523755,1.6208068267747489,-173.81805827693327,5.060246261542628,7.494990988931009,1.2910255428027335,0.1338558232861152,3.150773214884425,-157.76863847810193,15.74906935230068,18.122037906100548,0.0964335768909386,0.0980562367898709,0.0248962879205411
0.11,49.6360982763256,49.62588391616212,167.13945958152448,0.318457909123814,0.0761571065590002,1.1121986239277548,-163.112776795296,73.52128904732076,17.997661644715837,3.047347080656831,0.0539520702876836,1.3434373932765715,-172.4292611324862,5.245295036158079,7.077952245335556,1.340130482081033,0.4867216717129996,2.431009862172298,-157.66963482829047,15.74973311601268,18.120078617397795,0.0689880528916414,0.1353976151333733,0.0488043245306973
0.12,49.48462485690415,48.93310973276412,167.28435066107605,0.2727634552100776,0.1091258654116053,1.1905911203539057,-162.7948305900929,72.476392466964,18.536440993642504,3.045581260370424,0.1758531499285314,1.2234200945132765,-171.85486537888576,5.360856730793228,6.9183508179595545,1.142943042896174,0.6199881629153595,2.4223698576992123,-157.6758539472344,15.756002272074095,18.08402243937442,0.0725458014445481,0.1647505398663303,0.0372030033437815
0.13,49.31618871977834,48.18507777892732,167.50749269308622,0.2532197585004051,0.0896488734681617,1.3122148601155474,-162.4960064884402,71.44001224080752,19.049952429107577,3.030202863312461,0.2972975821782744,1.0537445171932969,-171.31542050983165,5.443926778345742,6.8122181670559305,0.9291621018002484,0.7788146802219058,2.462873886711101,-157.69932142572557,15.74983133453776,18.07212119016161,0.1077781573145572,0.1635918628337901,0.0055514872982626
0.14,48.90706185606965,46.13396165625179,168.06291856805646,1.871083756250819,1.130625294799567,2.232849008003181,-161.73693186751404,69.45822602222215,19.61597092797507,2.286907508067932,0.7338566214028864,0.9643278455486004,-170.60125040637166,5.502643224886285,6.710213099535694,0.7469018071918061,1.1688335495987674,3.3090444828952004,-157.68665457178557,15.764075200119606,18.066828585422098,0.0962596817854099,0.1133711025423022,0.0362476282201713
0.15,48.07838435039693,43.86897258248177,168.4924086298979,1.785483940142903,1.274539311703103,2.100235210728262,-161.0565201291658,67.22837970001935,20.03567331554267,1.7198174726387878,0.7375430996403937,0.8895157646792687,-169.79861319804525,5.61506052021804,6.669985566700601,0.5760760015106225,1.083954607982749,3.402762017767439,-157.67660395811583,15.757811751945786,18.078550719899003,0.0724388657146598,0.1262726146882872,0.0414282379237136
0.16,71.57428527298899,41.50656501089318,168.8818726725566,1.7514419089958717,1.2599774978192997,2.008400629594926,-160.55838771948387,65.1849488937613,20.37764418109995,1.7174246414523138,0.9059515333775648,0.520072432319,-169.47981357898504,5.753381244305006,6.946855464224401,0.4766898294874753,0.4472822291515851,2.923870022750908,-157.69639887267348,15.75103523604637,18.05759718397986,0.074885821207955,0.1254171712140686,0.0319961518718586
0.17,71.20567663954645,38.53414098023678,168.9965668269831,2.158717644417546,0.9357018051253508,2.270745245821892,-160.11748353632555,63.31877170893173,20.612134416354152,1.8739078640473312,0.3926251403859204,0.2478513278111654,-169.11871100351627,5.947316624482306,7.246816775425988,0.7722581829923669,0.1499013742540529,2.397420399271625,-157.694866410571,15.74808880254945,18.07405500516681,0.0733477571483153,0.1587366232852388,0.034936614948621
0.18,70.8223561917762,35.557137003281866,169.11951124201087,2.572436604977104,0.5737288408248641,2.5155739624290754,-159.68052973599097,61.23684704715271,21.121369391507216,2.1428156233742555,0.2229063023796471,0.940513993057156,-168.32015339520385,6.177472827001452,7.503477774253303,1.0998616833726926,0.0190007162487672,2.297670407738145,-157.65202988416755,15.746477158617326,18.046153286990865,0.0541676389998233,0.1481274093122749,0.0206088902571534
0.19,70.82983290711437,46.36334131471883,168.44883565286486,2.840864878723097,0.8309108250581301,1.578539562453893,-159.25837658363247,59.19957939446349,21.618689435810985,2.393158718122709,0.0781133268527757,1.6117573213095704,-167.4503568577856,6.306120507450433,7.839229142925187,1.077039098410592,0.5837645249280258,1.4734981232648292,-157.619970036516,15.75384837648677,18.063991454574065,0.0685680299993942,0.1433580447580099,0.0305822262193568
0.2,70.82888447014221,50.92081767263696,169.5399272902306,1.6890719015829732,1.5075983229299,1.3212433835621744,-158.4429308594025,56.93319815101528,22.066853469162027,2.4834910095464253,0.0131199768806362,1.6475575283839192,-166.63581406592186,6.459360101410643,8.18445516611667,1.034545546931855,1.1320906262948367,0.6304668681967304,-157.60524179847954,15.762909122891005,18.01301365102159,0.0137480588218264,0.1407478533841809,-0.0066842018180434
0.21,70.81640206588365,55.49836815535615,170.62964991963253,0.5572617583654146,2.1709890434474413,1.0154595875759973,-158.13202196480316,55.02535467657329,22.49979890329176,1.9986453807950388,0.2108515109221661,1.215249059250695,-166.27034778130673,6.584096678612333,8.760948062087232,0.3901291228074459,0.2397024855608314,-0.0153970074663891,-157.60173396712224,15.76467493712338,18.019989903104907,0.0314233296006382,0.0643539248655967,0.0476082770802614
0.22,73.53126887692845,58.80199249287882,172.23928962160147,1.4277894172708183,2.6511281773238538,2.077019445536593,-157.83847972541005,53.057854932583744,22.938258403067,1.5328397711222694,0.4346567932524008,0.7982738416263776,-165.97874715308242,6.686978742576069,9.239845473552291,0.1769057057486611,0.0173026368727731,0.2523563365375666,-157.60891976634764,15.753988140372014,17.982709761199427,0.0080891092001447,0.0603894486889543,0.0651751605688744
0.23,74.57289574350322,61.55427784905832,172.7511140708454,1.4028138575944122,1.4635563637189728,1.222109167218295,-158.1905047548846,51.364694326024726,23.55780811689777,0.7827232520479402,1.116249338639106,1.2371287440305014,-165.1836236578452,6.803997442859576,9.810568206681197,0.124506394573492,0.2230360731716605,0.958574973226202,-157.62596619254435,15.74759919982004,17.940036781660353,0.0463129391880037,0.1591012592924472,0.0066219053482875
0.24,75.42392981299537,62.50269634641801,173.50708791861933,1.708585391193258,0.9548371527365992,0.8136105883240864,-158.44358052868802,50.550514203925474,23.834644663955988,0.4271553710002658,0.7791371761041774,1.244596566829666,-164.91596786512568,6.829211543948874,10.022652095227578,0.2395486701346106,0.3329199712868287,1.180956100050864,-157.6345403367145,15.76880776174847,17.931056467161657,0.0403820465770794,0.1796122213455689,0.0232760287928532
0.25,76.27360608899106,63.43641918510122,174.27657992760314,2.0140174014970564,0.4362927485189919,0.427359720022219,-158.70024811461417,49.76192672961782,24.12053170650921,0.0627256277572519,0.4499630158205531,1.2871756184366314,-164.61452308839714,6.880580048239665,10.26150848063566,0.3892421459976735,0.4280634802333998,1.4211846865340727,-157.6291738670379,15.81046571236801,17.943275222744713,0.0288432332353581,0.1842021454448827,0.0167490345146351
0.26,77.83630165859923,66.62509290239319,175.880927358946,0.0328512286239385,1.893063965140388,1.7252846371798822,-159.45683091669113,48.1827540413108,24.87631616826585,0.086489219253164,0.0351452366257375,1.0489326935870271,-163.9439769721856,7.000004606735647,10.623045230479118,0.7136299967255355,0.5521112626094659,0.8714078421525259,-157.5981076372273,15.79289034815243,17.94791904499608,0.028266800551155,0.0977310929509762,0.0384908566215599
0.27,79.39021477413753,68.39479457928714,177.8090065254435,0.1201904275352062,1.8016836590751888,0.362369193426469,-159.8729989812543,46.68540588826402,25.42569387638188,0.5782523758568154,1.1184601060582295,1.2396922151644745,-163.3183359791483,7.057223604971475,11.057416239661984,0.8246694408481721,0.6305293168772547,0.8568759926424454,-157.61654370051926,15.802065701829251,17.923401346834634,0.0703531154548217,0.0229650907815867,0.0731908977601725
0.28,80.56184702209987,68.32082213522266,179.3985451233459,1.6985690807337257,0.9972404066292953,0.075160984881534,-160.11036331897242,45.11516682135961,25.916915499518588,0.5244211101845767,1.2615244251791835,1.4108590146223778,-162.75941769056456,7.153018706639274,11.287042861690932,0.8128943174836957,1.105858654491931,0.8037618991742278,-157.63082577494106,15.81560947413129,17.940414845539458,0.0214246364639498,0.0574189685635342,9.984160091490792e-05
0.29,82.34006749740259,69.53696171889372,177.04145995036285,1.3993378714495912,0.9228293710858432,0.2329701319113007,-160.1086524042626,43.74935965114817,26.342243108582533,0.5712007549940765,0.7663605682972434,1.0219455200321983,-162.1999341384027,7.267652727010353,11.506626761612385,0.8241596740152555,1.5602192097353995,0.7517958846449696,-157.60747416230973,15.820331426676388,17.94054536086133,0.0209579210383939,0.1458144071102868,0.0213605820858867
0.3,84.08062513500681,70.7472905912585,174.6970466130582,1.079468770308854,0.8654495543085275,0.4453364730310009,-160.1065160997243,42.40066325185658,26.71938570246267,0.5806871573879604,0.2822908473078881,0.6466119585234861,-161.67321207706482,7.246482124478916,11.860500364347018,0.521358447997338,1.1306204108164566,1.3568832019271984,-157.62687483730258,15.800394101671491,17.963152113192525,0.0152460930113842,0.1814396486071874,0.0393415729138324
0.31,85.63600829000335,72.3569316623326,170.85717544582354,2.235290364456121,1.7345359156442883,0.982800622740868,-160.36536329518702,41.166741272569546,27.24646106194895,0.6750522591608952,0.84889071649042,1.030135995271894,-161.42833126715445,7.24939794875343,12.247099420445876,0.3570072711575068,1.3697510435626763,1.855421605855456,-157.5920673188824,15.799337821134856,17.930473124925125,0.0294366488696066,0.1132312944759971,0.0592580056413357
0.32,86.57781337762295,73.80223628066176,168.1457417869441,1.4715693487850308,1.827283143858315,0.168138401539353,-160.62449043789076,39.99652150948697,27.697839198012517,0.3192619588594205,1.0166818462534075,0.1754433442356977,-160.95991132404308,7.247126489016563,12.62390006022372,0.6666310151298356,1.1903587610125976,1.9054713492493691,-157.6224530064223,15.74035166650762,17.937354120683946,0.0144379357661242,0.0757775768443644,0.065977768750296
0.33,87.1322774208846,75.1269358657897,165.87218557937834,0.6965049407076227,1.2909187280329717,0.3318168245982509,-160.81832311358562,38.49114893386415,27.930506594898755,0.6680394704208618,0.7603279151047126,0.0755291764351399,-160.93316916348243,7.185869330378296,13.059483445617657,1.5377133899805726,1.4834676533987945,3.7811675191560328,-157.7221950168752,15.747687858636546,17.93696087400797,0.0185678219992758,0.0914170505891377,0.0174390738935102
0.34,87.86709203540615,76.11090553158652,163.37667612984177,1.529525720977036,1.5342195303808202,0.9658056971802252,-160.6728917532773,37.20592234327523,28.062585458745914,1.6609397793012803,1.4665486833082308,1.7361570572625085,-160.69948855780083,7.207944328970124,13.500267834215762,1.5533131242811962,0.9280972094874376,4.435455816743491,-157.67350503427366,15.749694431400266,17.937216013487824,0.0242944406413117,0.1559679718113148,0.0425217799833808
0.35,88.38264613433955,76.742637732824,160.8093555133685,0.4184331745775941,0.1048062036319811,0.7625491844234406,-160.5704346389331,36.31891488550848,28.07050848014964,0.766024979539599,0.7066963753538195,1.145592317713295,-160.68044758983484,7.126951909226759,13.881848678478828,0.1463808044117544,0.3249574542139287,3.3257173261398973,-157.6898194061326,15.741661147289962,17.936381366666215,0.0332669542174793,0.2132220437729859,0.033400811315779
0.36,88.69660857394213,76.85278434185118,159.46514674132948,1.3818015664162486,0.1927003666250312,0.6274757937083609,-160.4993397454418,35.90634242351645,27.973191585683253,0.5999195672252958,0.8890560006189443,0.90558630868456,-160.53251094304676,7.120768783743719,13.97592820088448,0.2482029684048388,0.2202623100886631,3.338965522168549,-157.69542447862676,15.75514046900516,17.98451185843774,0.0551550377903664,0.1600373308894378,0.0161909136805508
0.37,89.00983250311917,76.933004830166,158.10561867726364,2.350274535843913,0.2735155135805694,0.5274196410401664,-160.43324688542282,35.50099111994615,27.86730394319975,0.4378625853656037,1.049765281757148,0.63651301448941,-160.37195519879606,7.119468583382168,14.068793775358408,0.3445324563164832,0.1339272186169175,3.342285566991043,-157.694284823419,15.738477696077616,18.006567391056297,0.0305147029244401,0.1163461073366206,0.0172843044457471
0.38,89.70458161226006,77.38110233822586,155.17360185418596,2.031812973620728,1.336719837866008,0.0328517081134214,-160.29389832920762,34.560123404990044,27.749829670591776,1.880103990953004,0.2697079219526853,1.0718072642719123,-159.69061699571523,7.12162681591835,14.057172942207783,0.1190636451163613,0.1402776933840429,3.705594399656967,-157.7004419964376,15.745294981790664,17.995069289683645,0.0418307508907265,0.155343480771972,0.023650501843675
0.39,90.2581209736806,78.00355882783857,152.69763072992214,1.6341799992064148,1.6674248986452818,0.2907956130378491,-160.31042473580953,33.74150202694893,27.87623326041746,2.650046986828025,0.0897111125958041,0.5606682516168926,-159.2681613721736,6.998236282091177,14.148507244087206,0.5452588363282631,1.0139221771083895,3.959130639319439,-157.6906726969096,15.750102636615235,17.985301011455437,0.0617165954607651,0.1503659175511909,0.0652772054061581
0.4,90.85598453257684,78.54335720797211,152.69643296503773,2.07354952084004,1.2883114643986944,0.409530318394233,-160.30700801933696,33.11846466143432,28.05198396828309,2.3624935368550144,0.4451558847519576,1.6088819726934345,-158.88639731230003,6.865609238384997,14.255347047442596,0.9514825598038328,1.8318979265841708,4.189015012146808,-157.6816877684134,15.78076503433164,17.990974519500757,0.0722193877643587,0.1749724438833023,0.0047733563435743
0.41,91.46187202934236,79.11775866340288,152.69991643517344,2.533800060636316,0.8769288982548317,0.4964454511902347,-160.1720091439097,33.0525252310283,28.27141991198378,1.5509652208993965,0.4675780205868819,1.981667999270034,-159.23904704901176,6.748222623055525,14.631263247813877,0.7238376060792097,0.3021019938349789,2.281577130431353,-157.6809705768746,15.763992180606442,18.006817410091024,0.113820179645831,0.1675306076922951,0.0352263934439849
0.42,91.94965836347326,79.76092000890466,148.63039419200214,1.7708957198998612,0.3109805721441737,0.2751627428075929,-160.0472647325504,32.99871770666219,28.495116417559498,0.7479119506108349,0.5153497824375621,2.3599263370870034,-159.80642305020316,6.7126023128320815,14.86676523031653,0.4989418638200586,0.4818532448825109,2.9682020590771936,-157.71943768173318,15.71444628652124,18.03769413153505,0.1276765804366638,0.1107320810807357,0.0943549003551052
0.43,92.49634073860966,80.62827379074673,148.61135933615785,2.2564914826681632,0.4038963698656984,0.5438970166082281,-159.59788795194166,33.2604209328732,28.11929236937857,2.116966193972025,1.579988360461915,2.5515277558170784,-160.37803110184544,6.696914706495047,15.135234215483848,0.2457900424129205,0.6368718573583275,3.70212132714105,-157.73639971839984,15.6830233959342,18.047680197253687,0.1808565916319276,0.0769934550172251,0.1618987620273844
0.44,93.06537638498688,81.50529403018328,148.62111757190294,2.74261597556809,0.4645598849253856,0.812204687826568,-159.47547346677533,33.03577257529619,27.98635411979077,1.5659457705656987,0.9895703630322534,2.528106600545847,-161.37341160106,6.677676857846651,15.256290701873894,0.1011427376566519,0.8761135073918068,3.0316763741714103,-157.74789994544355,15.693963610315294,18.12314299785999,0.3692535604893171,0.2491374645485309,0.2644716888695995
0.45,93.38992292369436,82.05704667467606,148.64236421246574,0.1226981028558913,0.4585986007792508,0.2266391922820685,-159.3034682411295,32.8184202295767,27.87558775495753,1.0129348321202782,0.3953194954485938,2.55354670759354,-161.68933760189674,6.614177447224081,15.311887358961716,0.2591210477119779,1.7164124442927826,2.5356251676043366,-157.7438928679289,15.621808978348929,18.18226635095655,0.4974856906102341,0.3861263037223907,0.1745230021156298
0.46,93.70482954537384,82.24494683784154,144.75843816013898,1.4769492694220363,0.5765497092042926,1.501784210507045,-159.3290968639858,32.80472301525651,28.121989285152203,1.8151427961531936,-0.006857045558066,2.125285798424162,-161.89720785817724,6.490512222388352,15.301795564039926,0.1140863823246925,1.2537962838335517,3.618738446107261,-157.6953875735325,15.629291209017952,18.314292780703727,0.7256947740221776,0.3517957580539341,0.1564115522152278
0.47,93.9581330783687,82.25487129428551,141.5108101150797,2.539472694409085,0.5381957237746352,1.5557138305654985,-159.07017816450838,33.07367953593361,27.99099332021537,2.15402339064575,0.158445894951633,2.758459422969984,-161.604650848571,6.525904889307831,15.31296590448748,0.3372095580965125,0.8625823895981106,3.726711596020326,-157.62788638121566,15.539982432810447,18.432592293956024,0.8199823010901424,0.5464463615157188,0.0020992112256496
0.48,94.01522646796688,82.29836255036464,139.6529227256842,2.802837103232793,0.6196655665649882,1.4374968022102446,-158.9852454997869,33.12499610126835,27.906382527787585,1.6708323560005802,0.310144527639745,2.5562320049028875,-161.55967948741068,6.435477549083541,15.35767812471553,0.244613432856523,1.3748746564300314,3.561952554061408,-157.56101242514745,15.557667371079196,18.543107772605364,0.8314206018496476,0.6490434693919176,0.0199226293128832
0.49,94.06888268388776,82.31484379103809,137.83676536064482,3.062304372864841,0.6876406226986469,1.319998056627107,-158.92901992534382,33.1954436821172,27.873987800375104,1.2185916102164411,0.4702129887938112,2.3759446524243693,-161.50008272259598,6.352795377757364,15.448976168290285,0.1160635160759874,1.8513690589246048,3.416720034060576,-157.49716743340082,15.56595661278936,18.618953946454013,0.8433982490283614,0.7882128194580863,0.0251731660910335
0.5,94.26138786296472,82.30698358463152,133.19140636593735,2.22604111659643,0.7894761300569135,0.6418231262906596,-158.87772879461514,33.38441815035514,28.0536921652607,0.6888466736468827,0.5055449575636536,1.3887066137140325,-161.9371528099036,6.249398227478269,15.54580549506694,0.4699170372749946,0.2166874269547037,1.898610509821626,-157.30455494172327,15.629889906525335,18.764643084616907,0.8374171262220298,0.8790735960800914,0.0441910986926077
0.51,94.314736425647,82.37903394857368,129.80840267173704,1.6073824806523382,0.7366848578816879,1.2801665065474508,-158.81596204109113,33.688612746434046,28.183083219943992,3.0276075531177,0.656062976523698,1.8579352857660671,-162.6901411408344,6.231525184539091,15.814720087302357,0.1475645692381023,1.1748362605426248,1.4514733781277809,-156.99271140832886,15.747831715462674,18.858719624073693,0.8244376199717129,0.8624090343063447,-0.0028271401179089
0.52,94.58973021026078,82.30018867531938,127.68655627543238,2.092721063076778,0.4742888806943636,1.2877754319807777,-158.75470647647057,34.15040379487047,28.001259181666548,1.87503151643676,0.4350209541834791,2.815678866716302,-163.37810827630676,6.23984364117477,16.12147506536234,0.1829674646687249,2.6633619931671944,1.5357496047961188,-156.6384013953109,15.881364567821567,18.99591214161236,0.7567809013549628,0.7249987721100761,0.0428808882899168
0.53,94.58224936388146,82.25189272532556,126.3097163551127,2.119085113487711,0.5784822008858584,1.3456966343934924,-158.69326106230426,34.63409130035768,27.815528115279275,0.7545535911931659,0.2367215358680233,3.789636666012166,-163.500012547233,6.25660441912835,16.375770479732378,0.3008233381460835,2.2547897155127443,0.983241525306274,-156.11065001368718,16.293960791205926,19.25461972177715,0.6419312797526695,0.6603807694003407,0.2449155033078262
0.54,94.5777291592968,82.1995815395228,124.71478850408586,1.7296711947140309,0.4090670240444782,1.2068933208671533,-158.68142842504292,35.44585847879519,27.690071874097757,0.2770536420645457,0.4189296328774685,3.8933277185887616,-163.0548018571382,6.258752275083276,16.552261673453543,0.4259986004671092,1.4364971778358222,0.8582694624704267,-155.61652419059254,16.706987033442925,19.505764287944928,0.5271288948001098,0.6175556220613605,0.4104918296054735
0.55,94.57138429971812,82.19790241215263,123.13005135361072,1.3236357111292285,0.2614305732027573,1.0699650278112114,-158.6933168068938,35.805878851394134,27.55380862041162,1.0794420865872778,0.4486288976394635,2.478699093803664,-162.5652965494521,6.110807812670534,16.86285411416718,0.3201163204706277,1.1971326554046644,0.7056165764576073,-155.0765403583338,16.941731965721594,19.498432904326364,0.4073019497124794,0.6121190139814056,0.4915200395866378
0.56,94.33023303581996,82.22496758488114,122.7005340397611,1.3767787422606146,0.2505528970294351,1.1843925398838548,-158.69582481320367,36.19015546209352,27.426773873258263,1.848323772477149,0.46149104992962,1.028662407297913,-162.00542653968407,6.011792606750501,17.060457830285426,0.327835457667432,1.6486614783755336,0.4630447701934992,-154.45095112944014,17.23808683137172,19.49844716521269,0.2767646384636179,0.5895507351012295,0.6640695028789202
0.57,94.33542243649904,82.20911121630357,123.47989979278654,1.6490059385161038,0.879910844614041,1.1761668070825193,-158.6691655554111,36.12921862677196,27.171465961385763,0.7829728510047256,0.2097244986208984,1.3440592238136526,-161.6281348737948,5.936767064697023,17.180503272708265,0.978578248818529,1.877166233776576,1.3735239203886564,-153.78541161713994,17.508660819469004,19.433101484107343,0.1295353646629164,0.501149234622228,0.869959933703384
0.58,94.32576238026849,82.18524154388132,124.272924657925,1.9294635037314232,1.5421491627939534,1.1580555108947503,-158.76249913743692,36.31150702408718,27.12101362754444,0.4916409400125925,0.2791354620563676,1.3471004344814006,-161.30784691424552,6.069981842455754,16.949075663795163,1.699586607035681,1.163119812340915,2.8780765265094064,-152.9988727850765,17.823143284992465,19.30328998075873,0.1703169940641244,0.2936617747231517,0.944843393861048
0.59,94.5004540190902,82.00719120728344,125.07205195556492,2.662578888126702,0.125460314008069,1.469594869004814,-158.8169942790057,36.39200603798712,27.129874313554204,0.472848019061987,0.6308020945218588,1.9677433041812145,-161.30564412955803,6.383333247112494,16.69010374270301,3.367656319492503,0.4033215816229881,6.466169529275442,-152.24154601838634,18.103462693496457,19.110733322936756,0.1866044834936211,0.0445519626784757,1.5728152232099408
0.6,94.52360052129112,81.9818482718731,126.23867653170612,2.8656792659527675,0.4045131418081137,0.9230186307987176,-158.84127602836082,36.08975169780155,27.06874476205628,0.2447176603430205,0.6181002304889148,1.6515309020894384,-161.32550927118007,6.497082881317924,16.59702209198934,2.1664033612352465,0.8098415882440828,5.883622215989686,-151.88751401018564,18.23289701218785,19.032499353403992,0.2969988935453503,0.0345336888737111,1.6874870588687223
0.61,94.5154604636369,81.93253016212195,127.38862983553868,3.083029201146179,0.6713867227465958,0.4034782530843331,-158.86417205686337,35.80179278988141,27.063633601622588,0.0275824814225193,0.5947437166905051,1.339655842209611,-161.3687951101934,6.618433846328013,16.555388636089763,0.94783711839068,1.2377035920295558,5.301845915823787,-151.58258183288044,18.363986497689837,18.930208920056188,0.4018990465185318,0.0315947352988102,1.82351286624661
0.62,94.19527678782669,82.11852030624358,128.89268399674793,1.9288603823475572,0.3396197955362254,0.240166950164414,-158.99922729491612,34.75368865846278,27.111487834176387,0.910122616060423,0.0925912982430547,0.2297640179344013,-161.50884362337757,7.357257002660901,16.503967825866237,3.155103455875328,2.8471826930175728,2.4046111585489025,-150.952258549563,18.558868538032662,18.7530371676604,0.5235763454853715,0.0373797644123889,2.275842551166782
0.63,93.78973036794378,82.26088261326501,130.06503102511135,1.6496383296903354,0.0264318937758582,0.9589677467008242,-159.13622019690567,33.8086022681153,27.165089893764456,1.3543856057690398,0.8027268554997391,1.538432604392249,-160.31303272424302,8.259899864794177,15.999807627585575,3.2922252609709126,1.7458393557295746,3.305535506209192,-150.2383979925531,18.688826269802,18.573241291803804,0.5144691909513701,0.250739067426519,3.3413677092472063
0.64,93.37641710873442,82.37757340066342,132.75626353391704,2.4042372557939418,0.3384266537203166,0.2930118866667086,-159.07427109776322,33.250371124661065,27.06320418655096,1.3559695282545312,0.4989061369088799,2.437294110306057,-158.64549273946815,9.05797495373791,15.350924170585218,2.523657393770624,0.26150869014869,3.2829746570599494,-149.51381497546515,18.75063098437085,18.388603563613238,0.5567565294109776,0.3126117238312885,4.096536470550662
0.65,93.20182557691297,82.30604899296847,134.93009354342,2.212113361037682,0.7830622864968633,0.2982663735317786,-159.06058376995674,32.701379433936935,26.92957076285126,1.359814101914107,0.2146090811918264,3.3141965810368954,-156.94491228155917,9.630988552203531,14.992140462474548,0.5226497036509198,2.643330088216916,4.032824090230363,-148.48737710895648,18.88373064684784,18.177441555654912,0.5673686355794534,0.4830528885104707,4.851174978421298
0.66,92.99436465956336,82.1699821475107,137.03238799833858,1.887522480069235,0.1419547200145597,0.563555584609107,-159.1246124483589,31.9399168026142,27.003519994583247,2.2503757222526644,0.945114615717228,2.773569381509948,-156.13324359928868,9.931400678354208,14.955610365625573,0.115147564233912,2.156185340364597,3.917148150956424,-147.31433854938106,19.07050966446308,18.04385613378958,0.760457272312025,0.6138941483330389,4.955187368141838
0.67,92.6535200816208,82.05895258288174,140.57220127536098,1.951047297052875,0.2455693438349269,0.0873125390229568,-159.38808494020623,31.6939836755679,27.08055631265628,1.732962164485384,0.6590479163909245,2.945956478840213,-156.50216949750393,10.052275283964144,15.142117328492818,1.073315852240576,0.1000142446739743,2.960273689162832,-146.37675819558726,19.20019756910051,17.915578304168385,1.097396471167835,0.6933546545739245,4.359312951887441
0.68,92.28570496036096,81.94051566405454,140.57444476981894,1.7850675402654486,0.5353932178970245,0.3775071359802071,-159.67770381089915,31.513279719871694,27.16897762089913,1.2331790798738171,0.3999593719193927,3.113767658654958,-157.253462746879,10.175765135694853,15.252805076717324,0.9966267249864368,1.0584286832432934,2.3821409189143328,-145.44922680064036,19.383238444248704,17.75508367696005,1.444437696837185,0.8000988614033294,3.724742080724514
0.69,91.94037959331476,81.63286754423953,148.0075459583076,1.8652610078224785,0.2393353579540428,0.9356808053379688,-159.6767218537518,31.53388855142337,27.265541833075343,1.4444416207428483,0.3409537514678378,2.8316399829652523,-157.81353518199128,10.374916590983569,15.30178848649614,0.5325146865646659,1.0281062247054276,2.3691627153187254,-144.19169783113117,19.5714101750564,17.46578820835906,1.5248337476992744,0.7063428390336284,3.248188578501805
0.7,91.56931928241346,81.04943942059307,155.95679875639416,2.1876216982166223,0.7566889032322922,0.3146480694081269,-159.50067421142387,31.62520054258918,27.301054661647623,1.65838510089063,1.2458795888004135,2.259328968985899,-157.48496884181688,10.802286345029088,15.1245807043696,0.460847167956844,0.8580783006922853,2.7051412528760865,-143.19358181711618,19.681279461231,17.151476885342785,1.2746185869816191,0.5875081220379914,2.673329106549573
0.71,91.27867028450494,80.30187245690256,163.2687389018817,2.2193609643814174,0.418243474812476,0.3125851612635211,-159.22212582716844,31.80209914345551,27.11209005432205,1.2705875322242717,0.7790669119140377,1.820381510141544,-157.10186134569034,11.247618421077595,14.934515828925669,0.4074855363957857,0.7181101362932515,3.056566805021217,-142.20295088281958,19.797991770334782,16.863826658859235,0.988978662577658,0.4293600330181342,2.105762730414738
0.72,91.0882153106291,79.98105861593451,166.32771211482188,1.3152151093658928,0.4180435800524185,0.1752593738997671,-159.1260430556407,31.95239874407816,27.011212346598523,1.1269171710257575,0.4804759896141351,1.660610283388887,-156.8499830041221,11.485215969025084,14.780036191252783,0.3787119963174228,1.1133090156639518,3.140013613217877,-141.78721651737425,19.84361109490673,16.706071529063095,0.8285877137121974,0.6320173035958166,2.492160570929611
0.73,90.89055795002363,79.62331327176918,169.3942015893301,0.4688339094789025,0.4101021088209296,0.0186370118981167,-158.98984244016077,32.06925526763722,26.920840065943544,0.9766004120171052,0.1878619382535944,1.5215674311560232,-156.54045823304097,11.773627546426257,14.63260118912908,0.3681291592824451,1.5334056288278797,3.260377257161776,-141.36436207275483,19.8626582177961,16.567230135987906,0.684428258180145,0.821540728613302,2.89456154008946
0.74,90.30943198009412,79.05642057441624,174.88410753363746,0.1825597830262053,0.397821726427213,0.0694582100772088,-158.82464247346488,32.247559695482906,26.811977651157576,1.2894303538598932,0.4266588309572402,1.358384028711218,-156.40682141467036,12.25605704692634,14.341055312040904,0.2802931286928806,1.1590827739972545,2.739914188511922,-140.80484496934866,20.0049269627574,16.359956548940147,0.8994308652905311,0.9604848676097792,2.913776669569472
0.75,89.26942790233858,78.25106066532047,181.75576945700664,0.3246018313239509,0.5895753028003299,0.0132980843230628,-158.69296173133452,32.430030537157776,26.757303687927838,1.2076936532701117,0.1683532398067418,1.7711657058373411,-156.24420865389797,12.808214155307354,14.068756314727375,0.2060276499918887,0.7895778268397562,2.2655536262712515,-140.5569092730735,20.06289572245454,16.447098978827714,1.1039473599862115,0.5116853588966208,2.7847426310388506
0.76,88.4559717231913,77.36541560590955,186.82918684010585,0.7337096816188308,0.4784243091474895,0.5687205188319526,-158.5017568551022,32.89794665602513,26.628615915277283,1.1161369799787977,0.4417648583401871,1.9066309371542003,-156.50570759901598,13.364004589749593,13.743075380872725,0.0785596919783244,0.4608647004271469,1.7642159054627518,-140.54730235098498,20.138813071487764,16.68248340315082,0.8872530745038413,0.1207551697710232,2.371046499801005
0.77,87.94373645835263,76.75137193869396,190.27113878854692,0.8502121717385916,0.7062832662292051,0.4086232148462487,-158.38103149386308,33.373531581410035,26.612244244599395,1.4778846679370028,0.3487343728546719,1.4620938377309562,-156.63497493698458,13.992199571879436,13.390748667356888,-0.0054021582424982,0.7333357877603047,1.3880653940541,-140.35645604240338,20.18288747321738,16.943633166757124,0.7137637801011051,0.0784381481943049,1.525780210786944
0.78,87.26670170163787,76.44165988913274,193.50614738000905,0.2625434228457023,0.6547802087169121,0.53647426622673,-158.22580978925328,33.71142267657665,26.550823203056844,1.866285123150916,0.839984325476373,0.8455860119644624,-156.49714313650676,14.62895168219428,12.891222734405916,0.4159201255538086,2.1346898899048328,1.3601543695117158,-140.01336185691886,20.448241687213617,17.063890468062414,0.4584314031312138,0.177056999752495,1.2669702150579334
0.79,86.43998760082023,75.67520913266728,196.88175364082952,1.021315179458936,0.5306158897310953,1.2864691832555042,-158.10787310851396,34.1306873038066,26.499980897907115,1.2468796272418303,0.6572436237433005,1.0016644885095578,-156.3553813303892,15.189689023236218,12.315027771446449,0.3566725936833749,2.5732670027897635,1.1039557616411466,-139.56210797943268,20.81681818064905,17.05815046088652,0.7810361761452007,0.4584520575762145,0.523280036558648
0.8,85.81727617666182,74.23811601588991,199.87414295638905,0.6465320235014245,0.6199549873300914,0.9229712188800332,-157.9336608335783,34.93317858290946,26.425673976454547,0.546170162324054,0.5265071154904324,0.2818449198303231,-156.63157331731992,15.760071149980927,11.750607725928647,0.5277783359390472,2.138835160638083,0.7133979276328611,-139.32372762896097,21.25663793675601,17.128939563443218,0.8876200644680599,0.4628162695673382,0.303285268866578
0.81,85.14262009640491,72.87329130836315,197.2082603263028,0.1808030597743026,0.8517287240042948,0.4833762444217997,-157.80490325107468,35.68545967463736,26.38420331021713,1.2391756793149755,0.1483605034840363,0.6835303715801562,-157.11602754476596,16.31037757991625,11.111070533414557,0.2133377945836537,0.1652109561637702,0.5585660446577925,-139.4583826651905,21.503844532073217,17.30593465479126,0.8178326909478659,0.6514559501459865,0.2382244182342381
0.82,84.2039737638491,71.35895807396034,194.98238667508505,0.90663300072333,0.7044136108904241,1.5022783129424568,-157.66884957164453,36.239682937705695,26.381158074276534,1.6335916984908296,0.3726827523342311,0.5991608404706352,-157.5619902816747,16.871497470990725,10.500262666508664,0.3110034453255844,0.882684729303892,0.3200869302008889,-139.75068958788736,21.606433988347888,17.634084313220605,0.3908430054851486,0.4843213251607421,0.6493473576123618
0.83,82.98061643992676,68.37961945240929,193.76819419342195,0.8090764059303697,0.4295666664477768,1.2123410442289484,-157.556924093564,37.05674183506542,26.260897740702035,0.5894081463058786,0.0537411958513022,0.462788432187751,-157.88685108614413,17.642550623321803,9.815695500350076,0.5175980930551499,1.0075373728216823,0.6178025478207888,-140.11673860978902,21.744863187502435,17.992046573059774,0.1626493765592141,0.4922915785251441,1.0452807645981863
0.84,82.35689309025723,66.88737265885004,193.1395769276917,0.7728042779794968,0.3248512490261098,1.0813409497983375,-157.55213708774698,37.55368186142633,26.188149201721963,0.3298298638663033,0.111041091659274,0.6782887124620459,-158.1087175579352,18.01895233103224,9.434717141496591,0.7381847553860194,1.009673061453343,1.1618056523697395,-140.30924164408404,21.813679945426227,18.154819727730104,0.4345290079406322,0.7008784268636158,0.8836779982539039
0.85,81.76458437785784,65.3635509673015,192.511480138707,0.7273105777004253,0.2174883616287118,0.936716117019688,-157.5655615644736,38.0691152040208,26.11358621024567,0.0361698689594571,0.1498760808037397,0.8936679382949748,-158.31631395066188,18.425994387460545,9.07330365966362,0.949965267120221,1.0494944168193592,1.7105357114570707,-140.49527085080996,21.87492198629337,18.309942216520263,0.6868629526334671,0.913159348466955,0.7059170300258409
0.86,80.46207503027199,62.94215693484222,191.48770773355437,0.1020077005783266,0.2320593610846488,1.3932071643254702,-157.43922497696906,38.98110733096303,25.93564781445103,0.1181917067093449,0.3427411877782007,1.1678330161957469,-158.93380332804108,19.168872647642534,8.301244664445138,0.692347476217604,1.3748636843986632,0.9228551304565368,-140.68007053712617,21.999163950543743,18.444912859551163,1.0333782582456392,0.0860718610226115,0.2694992529820938
0.87,79.62480393588014,61.3099528144247,190.7001706447672,0.0545935349096054,0.6358249623438162,2.616973526493417,-157.35816249386465,39.89329664704432,25.753926176598803,0.2682470785816189,0.2932887382709429,1.41807890711957,-159.86929161879937,19.933591964615704,7.422165505332323,0.424117221330894,1.2730093892223358,0.5537472705956032,-140.71795576695845,22.13087282223255,18.50449946755448,0.7803310820376291,0.4376420706179853,0.5226496253349084
0.88,79.70333029647249,62.30555698440088,189.76552805541,1.4446440639199596,1.0947350960002726,0.885722895016855,-157.36653784668763,40.95521360686865,25.493574619372616,0.3966099669496655,0.2753119137751422,1.326301670905507,-160.7535701964129,20.877584046152773,6.741598458369609,1.8991001256943547,0.0547027437357631,1.297278909107728,-140.75712437303238,22.24266470311581,18.57076205372951,0.5708642259861021,0.8037379238516912,0.7781562224910648
0.89,79.94694377553304,63.240158557352885,189.0687608663552,1.7841191933017608,1.0973205614813544,0.8081046713883484,-157.35815943947597,42.0539184045136,25.263819621677424,0.5239526635010903,0.2344272349465917,1.2562430518215095,-161.735606409642,21.817427163383883,6.253403917905954,2.3873046080717475,0.3755381865159085,2.299511714293079,-140.61895762508473,22.445996007278357,18.51274244741678,0.6528280881372273,0.4509930852971137,1.3539139771006905
0.9,80.14173793243988,64.13676943562534,188.4463508141392,1.7982052821424963,0.78448926601703,1.0173015798165297,-157.3212647010633,43.23823024883349,24.856964421492712,0.7819091116278769,0.0480653842761898,1.716554316247363,-163.1982142654876,22.62348380241719,5.986660650092009,1.5295298301742444,0.0527123369682614,2.1094255221367426,-140.6736928690273,22.56390248596744,18.41176667862014,0.5150449862114227,0.7088764222537448,1.5348061994574709
0.91,80.33425867343593,65.05393190049705,187.7004055279039,1.8221748532728737,0.7625158299443299,1.1565715650334871,-157.31465978368269,44.350817280727576,24.615298378487388,0.8407114434313709,0.2424738471573879,1.6215236330734883,-164.5697405242562,23.446475898596216,5.698038960148175,1.804584292336313,0.2662640180108418,2.0249955640629858,-140.76274736660898,22.66471126895961,18.37989212409669,0.352560908469154,0.9625977181425812,1.698173177543827
0.92,80.4373279550718,65.99882022720436,186.9426006871149,2.3605256846795104,0.3701953364211552,0.585007489916929,-157.29080881707935,45.41967576479536,24.30227626192008,0.9082743480216364,0.4558845882175545,1.575182776978317,-166.24134006845532,24.17789212842823,5.392189831321579,2.4714740638504,0.6649659255750494,2.3063790084622893,-141.1784214474924,22.61849124289693,18.426435926638685,0.2748001803963071,0.8367042338310027,2.8530949648544963
0.93,80.50313041651064,66.4420353640694,186.5567187327728,1.380005529829288,0.0689026483914719,0.875091984823855,-157.18156287592825,46.53504194436334,23.804242977212294,1.2382403428255764,0.5979934692841745,1.4835558719810045,-167.6077619093757,24.8052970291593,5.052827851713229,2.013786735194282,0.7542606152679366,1.7048229552813043,-141.49949838376966,22.49367585281223,18.563789417496945,0.2252728938175467,0.1134676657399654,5.03772127671414
0.94,80.62193175126151,67.13057415023276,186.0152707121464,1.8300316390700324,0.0740773187822475,0.5896890750668372,-156.74877097883078,47.74122656102846,23.18812841161513,1.259752654252544,0.2399635052797363,2.087307648704222,-169.12789658527842,25.50851161182586,5.038665283016162,2.204879964229335,0.5595409733563141,1.725355470024915,-141.98570179652825,22.440444546778277,18.74090179507426,0.2403772004382913,0.0538698451479963,3.8401647860734807
0.95,80.81014031230141,67.99258435657923,185.3940888863177,1.6487796396110168,0.1629514586837132,0.1051467118960274,-156.73244521898465,48.9472049065948,22.68395801457131,1.5629548266332274,0.7386509204274634,2.22932288641959,-171.2197902458847,26.24790412946237,5.501659296667492,2.016130238255628,0.9514948229059114,1.691830343029631,-142.69702423245172,22.42328878738677,19.11073981603297,0.2559277167053454,0.1125344916642113,2.668402013632001
0.96,80.81412198871101,68.36987923273384,185.1558475137796,1.6999163097891823,0.1776125512237813,0.2361747756111376,-156.93315365276072,49.56723801635823,22.554752386373952,1.6563886233949934,0.7048577171621223,2.119959186587708,-172.28015328367871,26.631640176828174,5.722286792610035,1.9282772385135225,1.194961502824578,1.674876265587898,-142.73524739765602,22.43125506525412,19.205270484954745,0.5696980648181486,0.2004795766288442,3.159465299389157
0.97,80.81922108642036,68.68248391586357,184.901131157189,1.7570830870989051,0.176181338106187,0.3817239225879594,-157.1318078128022,50.198945185280905,22.440985904334248,1.7232554465322238,0.67242528521939,2.0343846450635805,-173.31494579657812,27.006741354472027,5.934834719349371,1.8113586460072495,1.375945108561862,1.644850667931674,-142.76523002553546,22.43051748121115,19.32238173986073,0.887846675635344,0.3214592944464761,3.625189724855512
0.98,80.70001061452487,69.06427760513753,184.40408696107943,1.7722196430949086,0.2852255165284035,0.0499213626458849,-157.3773775500054,51.43585563161064,22.01119311731816,1.588891135678204,0.5103981870753626,1.3277861467437544,-175.4867605237269,27.70144430167812,6.859131875138951,2.140602146590062,1.3703521792710391,1.9508873609554895,-142.7370272563156,22.485828421469627,19.261304287994264,1.0930407242429592,0.2403636854793686,3.5731003047364904
0.99,80.61914874275229,69.37627242179427,183.94071869236356,1.4109781045089036,0.2366019986299985,0.1123512882420546,-157.2864500859837,52.69308136259874,21.36304610091276,1.489440381906992,0.1536621199425248,0.9971753965577232,-177.17022677002353,28.227527495658855,7.842313945637311,1.8093312433063984,1.049819926541565,1.9513206561624237,-142.75876244354055,22.536266069974072,18.96527078182295,0.7721081777732712,1.158874892241677,3.9295229418232607
1.0,80.51736575397699,69.99215239763983,183.128295411976,1.5681011372010345,0.1212296926971496,0.258892600289142,-157.44815993316456,53.62790494314513,21.004835273629023,1.5360293061103454,0.499625908790319,1.2368936132838726,-178.8808591840904,28.744625232329625,8.804010667310283,1.472482157079807,0.7093245924003329,1.9372458643892945,-142.76492498373074,22.580067538543855,18.67843046373077,0.4387621872685437,2.121014636775952,4.284312561652655
1.01,80.38046326971781,70.57094092566537,182.4005835126833,1.7741688625287255,0.0137730978181432,0.0332692776482266,-157.55109200899102,54.534264585976345,20.61303929137022,1.566884976136545,0.8982409584906147,1.4642835255649316,-180.36747011370667,29.12077725319029,9.804905695089092,1.557876627839935,0.810135931381405,1.6480540794721812,-143.8581840342441,22.36863830918561,18.97105945634254,0.343160695992285,0.02097006791188,3.541935795899567
1.02,80.39365655530884,70.9305033675427,182.12857588651244,1.687008170147826,0.0630271684356881,0.0075130461539909,-157.98477947391876,55.68330711304809,20.244565510302923,1.858655855178025,1.1354756104017376,1.5112024350710502,-181.70239829094,29.49033144124708,11.000783849367858,1.6932146153933705,0.114757213077939,1.3589985072181447,-144.9569152803257,22.055763226309796,19.61574669540424,0.4593371479981668,2.409200751951214,3.1634920327471456
1.03,80.26769944402854,71.19155721987983,181.828169362055,1.3608865087634865,0.042402662418718,0.3775555688253162,-158.54516148970393,56.82668009778156,19.925143426499453,1.1275657995065664,0.627419327258421,0.9713291357347736,-183.4406807279024,29.74939463299749,12.292990016453592,1.9649395223055424,0.517627945048639,1.402627571536713,-145.50784598812504,21.872038544067223,20.135286639180013,0.0122408892912728,1.6023069978711726,2.742748813091819
1.04,80.24377781377424,71.56368640063782,181.7530278163345,1.2413687418196242,0.194416555162617,0.1552733695112644,-159.19375325216382,58.0016559334183,19.570922732034852,1.7872448956112017,0.5053373587916609,0.556730657175207,-184.9474702692415,30.06045114923229,13.888992921203856,1.3741158977999883,0.6639377057218224,1.9235785090260689,-145.70226785402158,21.731197567236062,20.51533407598217,1.080416381590794,0.1037640496339104,3.176509594177813
1.05,80.12825210917529,72.07780409630777,181.2509389142485,1.343942635106606,0.2074707540313998,0.6806866538563433,-159.41689145845007,59.19054288116512,18.915753640307223,1.1712650175595172,0.1737392801760285,0.6301140440505298,-186.5114461341624,30.322550027847317,15.637856121048728,0.7264102813300791,0.1117305791957286,1.2992823203396413,-145.73817713733152,21.71308085989295,20.67950922009094,0.0955352727511673,0.2883992555937023,2.667180212750486
1.06,80.00554386190477,71.98338321730289,181.1237656124056,1.1095258283663247,0.0894724926788572,0.5304275211626913,-159.79051957978425,60.37316840705305,18.41469831143582,1.3522564580864904,0.1006835109727942,0.4308756290078601,-188.20781734483305,30.31184847757166,17.417187345336476,1.71691172567236,1.41857342070785,1.9947245941369045,-145.86896685626047,21.6257904940368,20.75967852112893,0.7717701401372692,0.0090845594693988,3.620953316631984
1.07,79.63014312753823,71.5699768654985,181.13239214182684,1.2301128777553414,0.0819891208167169,0.4723190983932244,-160.17440615216302,61.55627761465464,18.056315682959568,1.4525403718540857,0.0335822474836991,0.6806822569668384,-189.76124583756217,30.30866577644778,19.438993681078124,1.318261922770283,1.0958630195053838,1.0227352327300667,-146.52888944982612,21.13019308101279,21.172276768182886,0.8774246478171919,1.731636421711502,2.2536699906037683
1.08,79.54777003948413,71.47026799179864,181.0609563585136,0.970624454329606,0.118348699156141,0.3962850992504947,-160.3739690911723,62.09420626320453,17.8124383918731,1.3061472374658698,0.0765424647404274,0.3948367911644799,-190.4716135430428,30.21825531711197,20.447491721624235,1.6233246251815507,1.3926792007610331,1.2377484519404125,-146.86423747849537,20.87076622342347,21.351637792726518,0.9046916787777134,2.5873277619295454,1.576282941491561
1.09,79.43498107864811,71.36979502697754,180.93519706115623,0.7122165778443139,0.1684047357557363,0.3252386750830603,-160.55908257096002,62.61800850839918,17.544030068167697,1.1438648458560416,0.0973290839793325,0.108418935853466,-191.17433661372465,30.11907896348472,21.46634941735035,1.9055999560466363,1.7279503877330316,1.44818612433694,-147.1802601390069,20.60624413717577,21.54421894057493,0.927527562603979,3.4255462846707085,0.8928806061574106
1.1,79.26086951073961,71.20470968158658,180.75333772844107,0.2078015137021883,0.2626858717635068,0.1952343972155711,-160.87347065373768,63.69602834748942,17.01972995084752,1.3621957708139978,0.190358205396633,-0.0092513586939433,-192.1993396304701,29.922425295350884,23.2615059268424,2.1339962584388177,0.9939847971216388,1.5838069631156853,-148.0457806312086,19.9358882225635,22.4843796796124,0.0604508075510555,1.3937581553379073,1.118321221603566
1.11,79.3229253289112,71.69692961391809,180.21348270605503,0.4813757618748507,0.311101207371617,0.5975151708280432,-161.01885879579743,64.74286005564082,16.338327750695182,1.1272960900826714,0.1278590235713625,0.0943139062473163,-192.99617520868333,29.61395715920291,25.195206909773148,1.2593170344583338,0.4988605003502261,0.81818293878603,-148.24868995032753,19.42553585827778,23.433368551123262,1.7898909589693195,1.697009893090357,2.3066563310621824
1.12,79.59086098792157,72.1926734309566,180.2793069536478,0.496242375472709,0.2261692161346207,0.6381002820781055,-161.1703203269329,65.7372707009251,15.666136269720612,0.8972788331601728,0.0568959705865555,0.1855567019853479,-193.93530000666243,29.06024427413952,27.258651993952444,0.730166803521368,0.3855670920681751,0.6689390041690069,-148.43497207804336,19.05495987196812,23.99879315918379,0.9378325270217728,0.9747262059653102,1.2466974056624334
1.13,79.62759619365359,72.43926831110095,180.202797019684,0.8026961691042349,0.168761106199982,0.7296723519796517,-161.30668658751105,66.68642569067913,14.929961654469762,0.6463811388130126,0.0168223905022579,0.0946798878894904,-195.04854797293817,28.249499740548583,29.63860471317504,1.0357486371300069,2.435037153948671,1.1261655274071851,-148.05115939035375,18.75632428531318,24.18223703027503,0.0158478117286222,2.171809551815212,1.2300263600933423
1.14,79.69467521254872,72.6171819619334,180.07379885687752,0.7369848423812144,0.1998871587795048,0.9098426857722584,-161.3074641032026,67.55324365759576,14.069220456938924,0.2927464763182983,0.1703809453973944,0.2399727279207553,-196.5601180847239,27.31437330566864,32.37786313475679,1.469997036310686,3.737338983366947,1.0990926896593685,-147.8086922421669,18.446192369758894,23.75675227155686,0.0140863133680062,1.204548296185899,0.721505133308181
1.15,79.61989151791182,73.05621852761773,179.59384821403216,0.631580088361017,0.0986661599285672,1.0852681997529916,-161.31381329386303,68.52990343503822,13.066439480921108,0.7478276656048953,0.1375481879812439,0.5146106830423485,-197.568168181134,26.32046766388512,35.23646542754889,0.6398913275102505,3.257589585422424,0.24254808787483,-147.684624914135,18.110251594046478,23.40383203664556,0.2506857151704241,0.7121815293404802,0.0474143393490463
1.16,79.70424488088616,73.44887284668998,179.01490676637692,0.403225420248976,0.2123248300494916,0.8555734819343869,-161.36061965129628,69.56639873874953,12.062584507034428,0.7761735360257729,0.0133108563659389,0.5774905048866888,-197.95781203336136,25.324133609049973,37.94427847460841,0.214925864224451,1.4668566571882644,0.5496030853790435,-146.9620155389763,17.961959405949656,23.01648054453198,1.9019594152184345,0.1103134128044866,1.032076783262032
1.17,79.4455509434727,73.5632796655707,178.281691693533,0.4185343900116248,0.1207218324417916,0.7914482666088009,-161.3856760281942,70.49657049620613,10.920044077160789,0.5642669306835659,0.3939983126970841,0.1258793705651614,-198.1276014684865,24.32326410832473,40.627837997625306,0.0835988194633544,0.7389021230107832,0.8653654649255124,-145.87163129229452,17.94983817363388,22.754618545598383,4.111902305360297,1.960567937034916,2.872141996426045
1.18,79.25984535906744,73.79687639457724,177.890900196196,0.650484460104068,0.1745484218691864,0.3126079544054664,-161.3708078641671,71.36559524329776,9.679255901805746,0.5088027677845927,0.3820409920060322,0.08370592318914,-198.2034492018001,23.30555587704979,43.18897889501677,0.404434234253409,1.281952310139787,0.1987338720801495,-144.80373493720495,18.11556114188049,22.87050829881248,5.797685694852936,1.6113622366307894,5.081355605558409
1.19,79.3255176129975,74.16623690349863,177.5022050106859,0.4155436237548832,0.4364209016003483,0.4970419087074985,-161.37936812478387,72.07242389263911,8.427648065525077,0.1430334179847233,0.0127373722815465,0.0521294621610968,-198.3235739176965,22.33251792627233,45.874449223531535,0.2331303857416513,0.9807431291628742,0.6005994070960057,-143.43466407861308,18.555011999803003,22.87359285631904,2.873678493663005,1.231791036016475,3.912505142758859
1.2,79.37289599417862,74.29858251177747,177.3761099143242,0.3780500774836686,0.4480667373532266,0.5443090456711966,-161.36513318901282,72.4559331253922,7.678369925468695,0.3830911410242932,0.1219143370042945,0.0347370922406551,-198.3328699398216,21.748191392896988,47.254694556000175,0.3157949458154543,0.5148937352882901,0.9724200185381382,-142.6178297472624,18.815231672366192,22.918566239760107,2.7488749274161086,1.5244940303697605,3.8734178768664127
1.21,79.41478499671383,74.39095749472091,177.23585495481194,0.3631999009488352,0.4579725678916239,0.5962426232018695,-161.37119134109463,72.80490609649608,6.934281896821294,0.6503385391909783,0.2138590525387244,0.0187504543354459,-198.37789609834832,21.189793612644248,48.62707269720227,0.3911057695732961,0.0425828249231462,1.3866140730736771,-141.77297012430267,19.0723964183508,23.01815991859264,2.6446973896925328,1.8113797777628624,3.819670813828101
1.22,79.53572033089107,74.62354916278811,176.94705217129246,0.2526533915818315,0.4706721470958288,0.6486875348979962,-161.3025831050479,73.54963391114305,5.359409889533697,0.6277399732760967,0.2004181930392965,0.0331753418700924,-198.50133933131275,20.118729373516896,51.30772381603115,0.5659322807360521,0.29668406250634,1.5561052601147107,-140.10797020270306,19.55683711805451,23.12090131472982,2.450799847491896,2.4172391537162423,3.711259812919008
1.23,79.68509848357068,74.81458922434159,176.69334821368946,0.3463367791392457,0.4406865208342048,0.6647053180832772,-161.2957491914697,74.24231869527101,3.912699177547296,0.7859079352507552,0.0236096381923232,0.4072117671970929,-198.55258679199096,19.19735581216446,53.75405081157162,0.1609395194913036,0.5619308399845433,1.619242794758587,-139.74207962130603,19.817076118645957,23.40192287637018,1.1292938553182543,0.2253049848800956,3.193749918210966
1.24,80.08025276217627,74.8616019960862,177.2521051000427,0.5103708697014537,0.1442804195379449,0.7193508103813369,-161.18204289222703,74.87614140462608,2.3488877981248195,0.7155473669028615,0.2410093782962316,0.1405944106509106,-198.39235983171977,18.292208203813868,55.87006664863289,1.024664883333001,0.1920401605489002,0.6274761078223454,-138.81739111103764,20.35106989959603,23.71030588167269,0.9605015210713644,0.8290705175173434,3.5145370118671524
1.25,80.13140169832283,74.92520174778836,176.89221859938527,0.3065879791439155,0.0057837010996368,0.497432022382762,-160.89119084069858,75.34937000903803,0.7111019150386196,0.464549329440461,0.1491068089257711,0.1259779043095502,-198.3090862102656,17.697175988109272,58.08263465754271,1.0517449624363189,0.9604627819275596,1.20178117561268,-137.87199999715492,20.858854308105503,24.06660401637528,0.767484173015328,1.4590779128547278,3.8007895345945353
1.26,80.32680794057725,75.11238580638035,176.59337915891484,0.1646472579724066,0.0810448084240911,0.5076097916570251,-160.6229135429758,75.81486061939296,-0.9351570891134234,0.2098917220242873,0.0479518073019992,0.13071584347561,-198.2468182211796,17.05379411853369,60.50418678533183,1.515065303614684,0.3296703769182484,1.288720299769123,-137.7492172157184,21.128356713631568,24.49558050239663,1.251325700896396,0.9559962459006826,2.7454009863597424
1.27,80.57298051499595,75.31601011260948,176.65220947055676,0.2720386395063738,-0.014776606267977,0.5562111936072067,-160.43701558707266,76.44506223647792,-2.700261703448421,0.3631705243821591,0.0216565710127237,0.1714517609330437,-197.7452038741613,16.81450556158737,62.74362611403006,0.0648605297824178,1.2739863502313773,1.2791353173368274,-137.74416504413847,21.246947187803897,25.06774198717781,1.551643060578877,1.190658100028302,2.475713670357797
1.28,80.73932718519045,75.49468274624542,176.50362339935543,0.8685796724542467,0.1986894766774066,0.9452588173409928,-160.3079286394921,76.93237406676442,-4.204793287351094,0.627821357194543,0.313912691910266,0.3636678073857641,-197.44717712723,16.76446565808382,63.81127810135827,0.718189338193085,0.737167715505803,1.5298038186269138,-137.6892118658954,21.436721542229066,25.701691811457152,1.4358021282871445,0.506371431999947,2.36980443237546
1.29,81.01471792193885,75.62830624851526,176.4974968560233,0.4120222529156775,0.2882071067938354,0.9117249773235958,-160.10929939331393,77.33106804140768,-5.380156599716169,0.5487345912924264,0.1452201274548961,0.3036666466063912,-196.37751303409328,16.871854216686252,65.80269720781176,0.6034603727704643,0.0261979772968825,1.0834391847640716,-137.3060170874993,21.7406807916216,26.18520309087304,1.4232994412484548,0.25734339508047,2.789701354972051
1.3,81.17496467803727,75.75020856228568,176.2289261637753,0.2647999978352423,0.1971407342335223,0.5548080027773638,-160.0019258321961,77.5074112516234,-5.943720446788369,0.4371921037484251,0.3705182211865443,0.3504476934689324,-194.51350618734716,17.85361629341824,67.48652733700438,0.9736825486905154,1.502606140590094,1.2232198904284104,-136.805629975063,22.056366307670544,26.679259282485575,1.6398687485737238,0.8834669792093613,2.6627752452189783
1.31,81.32202235231877,75.87700626363912,175.9465503284585,0.1004910647535066,0.1066689270110105,0.183382150449153,-159.79834990002377,77.73515364986933,-7.258331157832276,0.0376217792081708,0.317394521182944,0.3811855630923492,-193.1199546604466,18.496576902770435,69.31663633316263,2.2397839660332184,2.15087084338825,1.9491035107002623,-136.37763815868647,22.49003585782074,27.14142588129281,1.1193411247597949,1.0064950545716274,2.801089458241333
1.32,81.42034980429632,75.90346535820923,176.12397713825158,0.0638467953037619,0.0997466070307424,0.1735654115370698,-159.70638935628205,77.91175405471279,-7.962566142228221,0.1984968265871995,0.2776966523222449,0.1913252853257218,-192.66736640569883,18.50563081867809,70.30738355660715,1.2891385091098015,1.1987201995046637,1.7981799541873016,-136.14550792279385,22.749621992362066,27.33673283720999,0.8757142900321607,0.5730175987025431,3.0090562932575797
1.33,81.51766396505663,75.93273489251706,176.25851409381548,0.018309743585194,0.0961475984743299,0.1767469550617362,-159.61052203719748,78.07200072680969,-8.704824762342236,0.3377380482452394,0.2643861181501233,0.0154899399734414,-192.1854934028524,18.563472116070745,71.31251563387526,0.2983681414283659,0.2662513399590462,1.6641401343247508,-135.88426442035475,22.98941976379848,27.555974405828305,0.6200439913396101,0.1670954665017899,3.2036093650058097
1.34,81.53484140926054,76.05637459211655,176.251589875963,0.2450036183551834,0.3231552475301685,0.539474399511454,-159.48236566887925,78.34075327736059,-9.689025456021094,0.320877716498639,0.3389069728221662,0.036628567875497,-191.44930558029515,19.005196207277116,73.19344655136508,1.3289709992884031,0.3381880446403865,1.7601321765470928,-135.44184501820274,23.377469873971265,28.252201720299475,0.6892399512004581,0.3741522915425985,2.805603842261754
1.35,81.49743873987708,76.12445158409155,176.07031619314392,0.3894651288137598,0.3186534078787731,0.8797260359983304,-159.36117632526944,78.61485579972441,-10.702156524198877,0.3246337336144995,0.3797021403271127,0.0197588637253902,-190.39525877622012,19.50811993584105,75.19131583966838,0.0363869280624313,1.2167353083260488,0.3508011123805142,-135.01548670722528,23.68361198898176,29.119201693316757,0.7914141914746042,0.1646445616366478,2.391341193903302
1.36,81.70235752501463,76.18866533490375,176.56871102049865,0.2403237740074332,0.1753770842896954,0.6309207083638715,-159.4320969335301,79.00360375330506,-11.695318908796956,0.4849444437359243,0.4038588133295802,0.2125534722317809,-188.6786926825367,20.301432280563,76.68250102388036,0.9294281914221788,0.977604064337064,0.6446856827345198,-134.5525167410681,24.127885019269097,29.995314500882447,0.7735766907696793,0.9233101977107336,1.968917456493394
1.37,81.59064260920785,76.24150939271668,176.20200887790375,0.234023124150804,0.0516504704498126,0.4246419612126846,-159.47579991273824,79.25022482337643,-12.443463912167228,0.0754433093262278,0.1828935639263915,0.0616134093972738,-187.35734805522685,20.975750108164824,78.05605207091413,0.3304433128394157,0.8375679875595659,0.9046731547720158,-133.93836586338614,24.62675358198299,30.67414727828966,0.7328136035054219,0.2512223140368757,2.189620199840126
1.38,81.50768928405982,76.2432096615246,176.59400255958312,0.3135991513220605,0.3341873610171436,0.3274997870370966,-159.43509914551726,79.3811583187756,-13.066205248103918,0.3273636124411769,0.4122374127016249,0.4928080816411397,-186.16673741462145,21.50783435544636,79.57066148262889,0.9657418652294848,0.7031521828493728,1.291397755760893,-133.61124574652197,25.164124366042056,31.49386725486335,0.0213374458750019,0.1989910493822101,1.880267056183071
1.39,81.44314277303366,76.24447443315333,176.76785325820802,0.2468627782826629,0.4153400765021997,0.6584446102505905,-159.41980732032172,79.55936766793735,-13.74588998968148,0.1657898594975975,0.1567185195097963,0.2524035741878676,-185.4940913662571,22.039650914355278,81.11850929649475,1.2963311919903504,0.2210372897340859,1.4489002948988363,-133.50904402789354,25.696025804212905,32.51155025598622,0.384498603980238,0.434339651632104,1.8639798172903983
1.4,81.19417330490062,76.11394298870067,176.63262686974005,0.1194363431792041,0.2003180293236725,0.4452295979921043,-159.6320874170293,79.94860746227859,-15.265128405485434,0.3449226427485977,0.1240698889876332,0.0476023247329148,-184.00747536615648,22.95643139952664,82.61139647442174,0.798452644420969,1.2548718229606417,0.9531907083489192,-133.38139608047948,26.064470301696264,33.9911209810667,1.235144685595731,0.1526596655325987,1.3390158743827962
1.41,81.04623221681493,76.08374889884185,176.6816586279974,0.1713670411488528,0.1962456148111664,0.3350861373174496,-159.86988859387242,80.18554157320825,-16.125442026148747,0.3068120439859748,0.1343189613678098,0.2104352329467139,-182.67233871217428,23.46604658515,84.00818975389292,0.7268771808241262,1.3031500949606774,0.9570601349249912,-132.93324572646716,26.43989529731001,35.62466058313162,1.019221115521564,0.2041875169998294,1.1271898918073942
1.42,80.89594734181222,76.05757236614186,176.6878157059073,0.2331577944873088,0.1864279364703641,0.2537920905903101,-160.12686560509675,80.37674928370187,-16.569560518915946,0.1057038961400416,0.817926263008747,0.1551812398968253,-181.34812977800505,23.987229941730043,85.37793267386007,0.6612249933615714,1.309743012588789,0.9536254415846492,-132.31738705066385,27.14061388685354,37.13583917686354,0.5147431267000565,2.7442725533648646,1.2683369764112054
1.43,80.69106022794917,76.11787967540596,176.64259752503187,0.4504636812578877,0.2346703775926196,0.2784719593764482,-160.27818781455022,80.5000823360983,-17.055079946627806,0.0094240014911632,0.7768023176276476,0.0402388977660537,-180.5643345607608,24.31790006703336,86.75358516956848,0.6002597604878187,0.2135726462365423,1.1567848883010128,-132.0144736869634,27.79778026795136,38.70261727049621,1.1606124640407838,2.409927620295392,0.6672862274378359
1.44,80.56541540055201,76.12358525738891,176.5727538407295,0.2750827503404277,0.1308515299509103,0.4584491345724716,-160.45813292240246,80.57689358095674,-17.32593081459079,0.0708253129239309,0.6245612198958722,0.0795117815389678,-180.25252515254635,24.564708097063985,87.40412429248286,0.8436869243812487,0.4192830528284127,1.659053904369493,-131.88997031688015,28.11478093192836,39.52668643475588,1.4939267004280814,2.2308621133514324,0.3759993125134303
1.45,80.44706602999975,76.12341662111498,176.48896491827895,0.0856472319906255,-0.0003900795326997,0.6497522455580189,-160.6178193911506,80.65208433672265,-17.583866538344065,0.1004664259631394,0.4349183153140122,0.1233662311599808,-180.017875116781,24.803467627429697,88.07587612844145,1.1063361063999324,0.6051595891180868,2.1802581157061662,-131.7323324627053,28.43663295890477,40.2974409997274,1.8323817135230431,2.035869918304879,0.0634430224015807
1.46,80.33509158729566,76.19610321344645,176.50829604128708,0.0146516356720743,0.1313055203221158,0.65144582360025,-160.92175977914275,80.78867452510266,-18.13431516441915,0.1549008882838524,0.1239087405185676,0.1839176670601494,-178.8142908596562,25.612471951439,89.44322113517697,0.9332829369869412,0.6827612644596694,0.249490463125491,-131.5634669386288,28.821427963644584,41.14032942015401,0.4776250433276973,3.134135318058318,0.0416050029892179
1.47,80.12506172512971,76.1833281526893,176.4456762234091,0.0634417992691796,0.1985673966805919,0.4463466079014744,-161.1723102275433,80.84934651594223,-18.133183314615334,0.3583472166095266,0.043105361904293,0.3938615356199026,-177.50316612356937,26.37061666947753,90.69539088789732,1.0490308010174982,1.5226871378478788,0.8299611149440502,-130.59738018044175,29.894713210884326,43.0103744641971,0.3401695379931173,3.501232538341562,0.3524521637269336
1.48,79.88464534290426,76.20146760910754,176.19389047613188,0.4110291124966054,0.1577851029978288,0.3063004279998584,-161.3461409944706,81.02685086544865,-18.01891188248517,0.2318770618542971,0.1527793682050744,0.2627776504395813,-177.23922171011515,26.608843589173805,91.31225204365262,0.4889654170217932,1.21654260558713,0.9776909522624202,-129.63785613765117,31.010002870448616,44.88992708766363,0.2390489495876834,3.9100869293134153,0.6548665337459303
1.49,79.68501953880128,76.20403190142046,176.20233056100767,0.3882540325875124,0.0318075883587622,0.5391107860698943,-161.4907351326267,81.19351886714041,-17.885758895384484,0.1223949325594689,0.2892885435344307,0.1244178391791193,-176.0523353432723,27.373630831954195,92.4931079573862,1.002919487765788,0.8269877612130097,0.9961863765192146,-128.92809742730117,32.124770078962136,47.13135672597099,2.464921396191313,1.7373656830716833,1.5745148487671576
1.5,79.62296476678193,76.18876341290496,176.62658970624256,0.1704781265785292,0.0192964614437278,0.5150319449610585,-161.80722986102333,81.23510297872271,-17.62214118087399,0.0288969750177535,0.1853470237815985,0.0063867059033144,-175.17570032198205,27.945031702740664,93.86893002369052,1.569838959358072,0.7950600640974894,0.6236971189126946,-129.03098987766106,32.800737695872805,49.75222027902436,2.504040710401188,2.100620931625464,1.2839470546553255
1.51,79.43017714741016,76.19528605678497,176.68509647768838,0.089089456610123,0.2555883457571271,0.3182078882306568,-162.16779872994042,81.25512927632779,-17.186769597288972,-0.0118228547012974,0.0286890735919975,0.328176345143737,-174.62984648798772,28.56228335077509,95.18098299971346,0.0541998449103058,1.204933968650802,0.3555367820445338,-129.3302234119628,33.384953274219804,52.63395570641707,1.6622278617241524,0.9200391789741909,0.1382398652569307
1.52,79.18432987625205,76.05411829119966,176.9445960346523,0.1311419275635102,0.2477504935605641,0.4786084241146726,-162.49338148699692,81.24317305258785,-16.323142296458222,0.0382780808765568,0.029920055553091,0.3239040138968274,-173.69199864845274,29.11304017543527,96.17135412202722,0.7667333936647489,0.8230237382677984,0.2641678894114327,-128.78691590138166,34.38588502645721,55.478259711403744,0.95801825475457,1.837880957886585,0.502154925422549
1.53,78.94054598724648,75.946753748845,177.12636543244653,0.1737850244892278,0.2192057373001796,0.6384724046737585,-162.67269910985183,81.12463773290138,-15.200985130229546,0.0856937402799863,0.1012931504706603,0.1680748201962606,-172.74347748942742,29.696077004031352,97.19298742170945,1.4732237186789408,0.3723919890479572,0.1425977097993946,-127.94554697265528,35.68747634847745,58.55112685306064,1.484980866704825,3.4728360163357253,0.3345761958291838
1.54,78.62251230120758,75.86170020474826,176.95493172961412,0.1029849753651008,0.1822402127885093,0.9028514667052596,-162.85782783208256,81.0435177293563,-14.55904104860418,0.2923950678330017,0.0197315444980755,0.1654118764049031,-171.8677952653008,30.00170698051627,98.04423900724882,1.3565496860832336,0.4894583659708392,0.1773604818659992,-127.3086023826508,37.008137348141865,61.88001600680335,1.759031307301779,0.7814306235453737,1.3937321526842432
1.55,78.51935520590189,75.80132373116075,176.65136580418735,0.2892956034280589,0.285003830169399,0.3369277283078362,-163.0845597621018,81.07018512912764,-13.985479790195804,0.1827761074176484,0.0386894386509747,0.3254588549867024,-171.1740667925322,30.099051341557374,98.82002128916936,0.9053693808675644,0.3370249130915776,0.4281962046705312,-127.30128136062002,37.791675911520514,65.44419960024885,2.3346995419950374,0.148365810611422,2.9182257381097645
1.56,78.47908034337605,75.7650353713093,176.86582334808486,0.2742173844595492,0.2358307331126121,0.3640801628990439,-163.19317219368398,81.07104497253528,-13.680557002939311,0.1216620150970183,0.0509029285728586,0.4379855144249212,-170.8482296310865,30.13829030805504,99.1859181224704,0.6915035546061128,0.2652195824074498,0.5339704028513629,-127.21561654596718,38.17544106920428,67.24717343608968,2.112213356923176,0.1821192218910239,2.5253467230972237
1.57,78.4448227677973,75.73852812023698,177.08656313405083,0.2573416306394477,0.2039966034845774,0.3873024337721923,-163.3054839361294,81.04689586924465,-13.384750100264087,0.07550981804207,0.0608932116716241,0.5401383991813914,-170.49436991421786,30.199401346658988,99.56666952411511,0.4690987005461959,0.1705786577876355,0.6501170468622819,-127.14788859802027,38.56991179549907,69.05615852794126,1.8541205478589955,0.2542957478213622,2.132395504201702
1.58,78.38291970179411,75.69349154945705,177.2504443102871,0.1591931256096044,0.1629371786251885,0.3446706828345901,-163.5047758428254,80.93172771715346,-12.695082599039992,0.1123903221594611,0.3758716457043378,0.2493524794481457,-170.24747566136048,29.991907512808638,100.30629943778985,2.835509338915604,0.2133232451018309,0.2060260310321987,-126.69680163675736,39.37769105150472,72.63487624235293,2.0713606356167005,0.6057058224823759,1.0356910864927882
1.59,78.43623142595652,75.60454325783755,177.4452851014704,0.046206654670685,0.3295704306540221,0.7867060774189265,-163.61233832594388,80.81517079379667,-11.915794519986363,0.1522138285413038,0.3326492452530165,0.6166513675851691,-170.44239035449158,29.561337868412924,101.05009751683885,0.9598307915106186,1.9771337064249468,0.4759916731870154,-125.93393539682016,40.248707075732256,76.44511106436993,1.9070824501479384,3.605546011436593,0.9788229692948972
1.6,78.57980582919834,75.56104934880852,177.8242709175759,0.118551958905305,0.5423896029437459,0.196804442465894,-163.74204129209673,80.70846779873271,-11.141544350272634,0.2203626243827286,0.2699159301521936,0.9793519371779312,-169.20177216956088,30.19943802058674,101.11663915725414,1.078311689655512,1.687405353330298,1.615552947670502,-125.30832025964123,40.9471047113038,80.31345687570303,1.2854277171789872,2.1777873202204305,1.2534192309049763
1.61,78.5776865988742,75.37632008710821,178.31993447656208,0.4886370744104366,0.1748929021863075,0.1862799170650506,-163.88363317150765,80.55446048621396,-10.447195137728102,0.0981239938551557,-0.0006516225414301,0.2696038381664467,-167.5142011615121,31.12343988649489,101.43460926608824,0.1130595683555751,1.20648151227282,1.088791107623337,-124.9977912881211,41.19258135398156,84.1943782159026,2.1190713731295934,1.6864647113371527,1.1736321566696908
1.62,78.57631261951406,75.25383583509203,178.95424336418714,0.5134550076875017,0.3030486225088472,0.3972047027614355,-163.79914908700152,80.24876447339066,-8.588590775580155,0.3859025471939855,0.7542243292905241,0.3813802353648243,-165.9533338197101,32.25537281397761,101.93911406031276,0.5962808983961252,2.205451600242599,0.2479017753981701,-124.5547071933119,41.5692123261555,87.87613293840202,1.712315699639542,0.4206101309026728,0.5358425421462677
1.63,78.50515402758212,75.11564602504782,179.1344821613188,0.4116999208835978,0.1170265954320873,0.2737798821651754,-163.5637202632885,79.56119467767725,-5.679636438584946,0.739809799798704,0.1170391449408135,0.7712984018699702,-165.2026758203327,32.640408153049776,102.57320476773064,0.5541804900199584,1.0285100167595802,0.2097900918555746,-123.99122491564884,41.80332441999932,91.36393326443918,0.7750511625796191,1.590748016684682,0.5122492248327917
1.64,78.63833591975731,75.06904235607776,179.05458280532412,0.3441166710495107,0.6208831227904331,0.2166537579447406,-163.25554434513882,78.99069523297558,-3.641109948120602,0.2480019551898092,0.4493253884980825,0.2314364920527281,-165.11212153320994,32.603811783079514,103.0296322828816,0.7805098530684443,0.6938319425338529,0.200797409748313,-123.26977705537668,42.19532200979941,94.9856218013866,1.419850918830956,3.266258478817041,0.1861835368003916
1.65,78.79867119790934,74.93483768471394,179.32362816691693,0.4674703022050064,0.2685644401332422,-0.0088879389243285,-163.3646936400454,78.68445207139048,-2.371170033255769,1.037639168553592,0.9886479991444032,0.1887189374608902,-165.04676696803733,32.56361273660742,103.49457669867536,1.0022698744852832,0.320733532636743,0.2058650889394797,-122.45413541280595,42.68852770584793,98.69650218585755,1.4526253855445368,3.270516071220088,0.5109824171569783
1.66,78.89743644322793,74.78779943676496,179.48544860786706,0.395246602984254,0.2474576601134678,0.0358603951312731,-163.67947880916122,78.44341733571687,-1.0054419163842423,0.5251212402092701,0.2853191852510224,0.2313408903016121,-164.94249502587212,32.48488759954375,103.99350093359016,0.6500875668191538,0.4989216251808356,0.5412272200403492,-122.0009235706989,42.8014768386474,102.25317830362724,2.568109226752063,1.3379797793945318,1.2683346879748378
1.67,79.00839684742866,74.61612696212173,179.69644866189068,0.3128986929913252,0.2372180933474811,0.0688568958723841,-163.50447923760592,77.86925884578461,0.8955700187636079,0.5939927978984755,0.3206698012787844,0.103848408019299,-164.9421458731868,32.63153157106088,104.49679179549166,0.8033985018447621,0.6672217626539828,0.4934592853967697,-121.86452655259944,42.61327304737155,102.24086568542444,2.0551189947240283,0.7834916870618241,1.2570466080239553
1.68,79.09880124468586,74.52861839876131,179.75517394485252,0.3304358622530302,0.2231832170096181,0.0691539349386949,-163.40397969095753,77.59522053581563,1.8626362617730656,0.6388734273238544,0.3474106910329887,0.0622786971197308,-164.730829707467,32.68032813453669,104.64618703246998,0.7605943024062234,0.5887791756711496,0.4613056031160027,-121.75026390255933,42.54002293488551,102.24731014060204,1.8221474092355223,0.5362460436767951,1.2366294118948924
1.69,79.20944224195247,74.43601169051747,179.81964650155703,0.3341227735323064,0.2272550671612972,0.0559564917063688,-163.3014971548396,77.30302541068043,2.825646288290544,0.6901740768668201,0.3505645911492415,0.0025563804234845,-164.4930595168119,32.74817916686845,104.82920949543266,0.6605262455231334,0.4365867028562291,0.4159112844861048,-121.69439567569164,42.46334314356144,102.23903460322104,1.575654221893585,0.2686748122660076,1.2289211670847826
1.7,79.3919930882039,74.24338903543212,180.31209016752763,0.0997624961110575,0.210145560794632,0.2268790391308753,-163.23112253815432,76.98274362425622,3.8218258253119415,0.3313158426658062,0.2403835164140888,0.1465905508269096,-164.3601302051413,33.05062602728767,105.07555401143958,0.7023723631252374,0.2800571039159902,1.2076804620225492,-120.9867446465073,42.51086608126783,106.12811690804855,1.2585703531007788,1.1768648732354194,1.02628118727372
1.71,79.37770027070545,73.94405085524922,180.58549133591737,0.1441597592364817,0.024117641356332,0.0931684347129955,-163.10815822068503,76.688565118878,4.691175750627631,0.1222033385528038,0.2694390577703156,0.1766496566887352,-164.01687329109788,33.31217385341585,105.50365792430784,0.4027722752009114,0.8123844492626807,0.6994973108782887,-119.81248198270384,42.26825768926529,110.13682105528584,1.566394593998499,1.4837841894348252,0.3097668051575104
1.72,79.2570610577819,73.80904084307765,180.57203614892435,0.2487964122014948,0.2578161535820319,0.077014149571091,-163.0585045213796,76.299881368884,5.634939504182712,0.228956876711362,0.3092371535520533,0.4692308626529951,-163.67696283807965,33.502511185082305,105.744772383798,0.4287902584262698,1.0517271744400687,1.3141564348638928,-119.17822924783844,41.566907861354906,113.80755747261728,1.55859400913034,0.7146212344773193,1.2033174009913146
1.73,79.31372417312933,73.62838183505868,181.1347690513548,0.0819474373752249,0.201692374659426,0.3749285996732642,-162.9361753497888,75.86655024875576,6.43332153830847,0.2916401089834943,0.2267994686074289,0.5725497658361792,-163.9965711346171,33.56951616977387,105.80944515676782,0.1531215819531556,0.5549950020927946,0.9994181260032868,-118.12006811812036,40.857448185545415,117.56849222354428,1.7322908457763235,1.535212556659515,2.9637303989317068
1.74,79.3286278117549,73.50882475139971,181.3927099044595,0.1118825075774675,0.1450933573074655,0.1891136342760246,-162.75178791045647,75.47826319870262,7.190287493954516,0.4992977355184909,0.3055355315027396,0.4628332770348213,-163.55835333541006,33.87575996703678,105.93507573289646,0.3758043345503634,0.4152602114851783,1.0454419571089524,-116.30870651812704,40.38099577780992,121.5469695039428,0.132885083714747,1.4905797742770297,2.950994783430971
1.75,79.33190637682594,73.48079963885041,181.44668821653048,0.0033968577397756,0.0210053438120317,0.0307485269440657,-162.69587422746412,75.1147752981081,7.940926026894371,0.2819484887332832,0.1939986877048529,-0.0050885269044615,-163.12273936326687,34.42047878218701,106.15844582272705,0.7351146752520044,0.697654588396354,1.6222784865446742,-113.74490187737268,39.75150972392523,125.82860222379168,0.5472649771291379,1.9467132241170764,1.9769296995626016
1.76,79.26063050782804,73.49377658373625,181.70646880861463,0.0518396052086754,0.3213053170034246,0.0618708265995746,-162.68431322460887,75.00018569459225,8.414134811665313,0.283034106759731,0.2211482659908936,0.4362172825594181,-162.68733016295343,34.93114935009801,106.36882904049511,1.0848382598544013,0.9385033529899838,2.196938797725782,-111.19757376499663,39.056051616977925,129.8660629428963,0.2381684801042307,0.9306856042789028,0.0675582620918329
1.77,79.03334162624802,73.48931906767044,181.57876884873127,0.0974446148381536,0.1912687141176436,0.1794131432179319,-162.66059266687694,74.993347727337,8.734905713616275,0.4058499246161453,0.3818408790504063,0.2533613566883937,-162.31887020897642,35.06125631885103,106.4475098697756,0.6624598457266877,1.941956808679238,1.3420919551754529,-108.80588816115244,38.12921489075503,133.42942009874767,0.262619513878039,0.7026687132873519,0.3238303601235626
1.78,78.83278110974963,73.51088565483477,181.45222786085316,0.1247870542240025,0.0498475466802872,0.3012041997835431,-162.85889983338268,75.11347286849025,9.06583392139847,0.6330742931932953,0.0088436302779143,0.226954147067361,-162.3002823997744,35.19136198282968,106.32216842303612,1.6418355256471373,1.8243215717959191,1.0993667953047626,-106.36235535830868,37.06117949943593,136.85940967304376,0.0162663182619413,0.8265122337746897,0.7310584089446194
1.79,78.85416682030578,73.60846745243984,181.64121331136263,0.3532288908371107,0.0874747259461415,0.6438012201504943,-163.2913271094672,75.11666464341317,9.552946354345355,0.286721256053125,0.593952394962784,0.6507185467149004,-162.30044606671035,35.32930535730174,106.19574548902756,2.6210177847239686,1.684802537873768,0.8420632883341987,-103.4498483757332,36.03049320148898,140.38974972668206,0.0084421027091987,0.8992550522332273,0.0500209355020496
1.8,78.650923835874,73.65778481765854,181.6111103795392,0.3606651517732557,0.0646191973979638,0.5035489342527639,-163.67743033735883,75.14013593515091,9.774203577384435,0.452992724482626,0.9479372506857908,0.4932078189029057,-161.80384949562554,35.9041576945958,106.26116844078771,2.530436502346835,0.8571169665059369,0.4607790555016684,-103.4498588086315,35.494892685926025,142.07451418525184,0.4048827533789786,1.571592044582784,0.7869058301142681
1.81,78.49594722437958,73.70379952310797,181.5746716857065,0.3529336930471688,0.0046720664305449,0.3788708043067948,-164.02760620429484,75.18689523041462,10.01345414724336,0.6189857998576088,1.3690396546626065,0.3212163647097503,-161.30203304051614,36.495430971837685,106.30616298576042,2.448166313722397,0.0397456333256908,0.0966854668969158,-103.4407244168817,34.92970922554092,143.74325247470952,0.8168977199858645,2.2554987796248147,1.478298182605131
1.82,78.0716754333236,73.4351576891939,181.51991492725023,0.2885008059619336,0.0453892017654107,0.354873914987899,-164.54546098189317,75.29449582385918,10.188114128937904,1.013858860432823,0.7056202698029973,2.224770130585833,-159.9580036760193,37.43088817634461,106.314893581536,0.0621737369549746,2.004377504542854,0.9369432628714764,-103.3877503951825,33.80444373376581,146.54474464202937,1.1532813819646293,0.9130457596871804,1.584072718396008
1.83,77.77209939039383,73.31490338005058,181.4392329055468,0.0313630758775729,0.0501636257634695,0.2587870050775493,-164.74144378855186,75.25828879123662,10.548160646546227,0.5536893088481091,1.2468230904955688,0.0558667345933639,-159.29541757699704,37.625099389018494,106.24496104799483,0.7161500655236094,0.8328109417043243,0.1936759337687238,-103.4241068214979,32.56219062172372,148.73913123896287,1.0003680158375592,0.1744938188173879,1.19534316390017
1.84,77.70491494210482,73.383273322631,181.5724435283733,0.2070371475346417,0.5030605633427904,0.4433539645643999,-164.74993132590242,75.06233117274625,10.810058329005615,0.0426370241631667,0.4185047358869763,0.3398386085617636,-159.76808072107485,37.56944522092815,106.24642885939303,0.2098567848417805,0.1773225373155973,0.3794801578619387,-104.50303221006932,31.26524112564828,150.57853594247567,1.2579573319465387,1.5299118040303992,0.8702414275750053
1.85,77.75339400546109,73.44720637073324,181.820874328018,0.4293080274031208,0.6444016340025065,0.5532408591681092,-164.88637669661625,74.87671436873102,11.239368526997778,0.6117269715685011,0.2065131912045452,0.1291474518748428,-159.73531317457662,37.56729221314706,106.20640937432428,0.0720664467198617,0.6558010939724168,1.647244282631923,-104.25904505996986,29.93859980315369,152.11394139614043,1.15923714740272,0.5133360083385745,0.8834597644083625
1.86,77.52027446547864,73.19273003983665,181.64124981767569,0.0809934363624334,0.7074881819036642,0.3369583743246672,-165.23802027326272,74.9324821876567,11.433126077062816,0.2187917072030874,0.3240296464024578,0.2769785513334251,-160.01369579573884,37.74658181167793,106.316065197903,0.1024925731963714,-0.0129337407910727,0.7778934515081793,-104.57354352140806,28.886656096288565,153.61047282168573,0.3641364136529692,1.2643119348083187,0.454722469141167
1.87,77.33315477801439,73.044610884006,181.5022687431256,0.0160953957891482,0.2730286909194328,0.201024338487866,-165.493524171277,75.01548441534035,11.74467612670422,0.062142339875236,0.1891398283637128,0.5437155987958916,-159.73483913546917,37.87290391611787,106.29967640444715,0.0631404740229395,0.1856680384493833,0.6381447600615702,-104.00829285721292,28.19774515466457,154.8048736637032,1.6099877352920775,1.8142488548309892,0.0608539151060038
1.88,77.45016579914139,72.92177611754308,181.8754961185724,0.0175818175644133,0.026087373636164,0.285092553435569,-165.49031887342005,74.7873469536632,12.291472615333502,0.2344496582920772,0.2663943548874504,0.5162696390596254,-159.31486297402077,38.38596765482868,106.19573361219108,0.8433678013333933,0.5442506580603613,0.9508968907199196,-103.8777409287032,27.55607457920037,155.60628793053658,1.4772934618167477,1.2479086740078136,0.0708798653035148
1.89,77.42898587439701,72.95917027477059,181.75371679602145,0.1841583066187881,0.0872175143144005,0.4042278697716898,-165.47731886375232,74.63146536514007,12.81963067396736,0.4141537368978336,0.3114845776464218,0.482268145098622,-159.18203445067377,38.8088919279342,106.18379544112696,1.4003064352802057,0.1184917683610083,0.9303296415442348,-104.4502820816007,26.63838858252257,155.85882363791666,1.5344975742221232,1.6596441806129467,0.2589645685293597
1.9,77.39099795957141,72.80125561780673,181.8912230849179,0.3181426497387416,0.2513811770715919,0.1886428356429716,-165.61113780713865,74.56120282273349,13.184312442125972,0.4780020481719034,0.5092054027188951,1.3239234445234576,-158.94474285611213,38.94868122419667,106.2575375987148,0.6283186974146413,0.319377106367621,0.3390804503881499,-104.98913466305362,25.688608994817717,156.13456812150088,1.5996038111425237,2.0712178164752792,0.4406656179390406
1.91,77.2720681476284,72.70061954582417,181.745514949598,0.1689756346759795,0.0843231870182285,0.1054892900373466,-165.6237017275243,74.58144881013584,13.44394565619475,0.2597467249725723,0.5412585842802622,0.6743228134164758,-158.99803126085823,38.94019209536904,106.23454672309448,0.254391695289505,1.4130736526928158,1.056938776859193,-105.76509080905576,25.05918037570011,156.26491735845727,1.1586926450645203,1.7212163274393877,0.7594575708607714
1.92,77.28093813214309,72.68957910042336,181.7630333917623,0.2148186577984765,0.1166996318016757,0.1992040416322268,-165.61089570438776,74.60654149915565,13.543534647994612,0.1420161789010624,0.5659982212092787,0.3482853244974493,-158.96629192963547,38.85175829132658,106.30481628245622,0.8198554342139871,0.9945786312988706,1.1998471268201354,-105.72266866695566,25.002115228361625,156.3487114870473,1.0441859644418283,1.2796463256460848,1.1887328976275142
1.93,77.33751833399921,72.68579244008889,181.75734343303836,0.288183879832153,0.1801502906797505,0.3120456862566028,-165.62157004661,74.63548530539721,13.67639146583923,0.0369531610485719,0.5789480600162967,-0.0060646299332696,-158.93669902165925,38.77401430347191,106.37817038876534,1.4015632056505514,0.5995020260964594,1.3380595332822656,-105.66490004456196,24.9183806451007,156.4403954934631,0.9563244332127376,0.8412832875228423,1.5913517514703863
1.94,77.5809221351994,72.61390852105441,182.39566593753912,0.3069732335123383,0.1632766015881739,0.4193515185372841,-165.55764099683103,74.62466867564692,13.803527261385796,0.0198995653249045,0.0873493486457912,0.1174525981572415,-158.81913909629986,38.62514519422806,106.48420961357338,0.3927535475778648,0.3057476068959535,0.8645920687603634,-105.82113291428308,24.75742501133089,156.30814040645572,1.052526086748649,1.3348167652716056,1.8346279009877648
1.95,77.68985910820483,72.57028610120321,182.50490791805785,0.2306436887852188,0.0464125261211906,0.6258428685175377,-165.68505135846988,74.61220744938356,13.94262430373879,0.2628311808288033,0.7591515380721393,0.482371115936972,-158.44956785201242,38.8100942299708,106.75669596264076,0.1852240336605034,0.1126796584471165,0.8331097446782373,-107.02109240145676,24.181702215679856,155.81230744221173,0.7972258772594264,0.1330606762089736,1.952650135014764
1.96,77.75439161742115,72.45543784761809,182.74289800901295,0.1185112658338936,0.1806782720492108,0.3669042606192292,-165.61269759458537,74.74793501927621,14.116046988789082,0.0825849479770869,0.6210953241572779,0.074320254315964,-158.00917207624192,38.995527368203646,107.01130377770151,0.501434904183303,0.3102714561029427,0.8327159283000973,-106.99078904328576,23.938142920969742,155.49356802314324,1.7195574670995026,1.212381740421251,1.2798125451032498
1.97,77.82505495800581,72.24203946017484,182.8891353804185,0.1141989871642358,0.3102929315121064,0.5734168081956067,-165.5296748117629,74.81647248725159,14.31684309492126,0.2403889042258152,0.0394592258806936,0.205427106184713,-157.7512734530849,39.19381993406024,107.24954006733353,1.04529359138649,0.1998249440002762,0.8680978181558969,-106.68343978534467,23.43121943270293,154.9330873393278,0.6089076245545137,0.5879877361542062,0.6823502946213857
1.98,77.94784336858544,72.11066404405251,183.3906859238275,0.4844273691766443,0.0096213138061252,0.5117702316694873,-165.50987952622432,74.75196214860551,14.38120221758234,0.3177609045560284,0.3847756249473462,0.0114932246220901,-157.43800398165743,39.14145493978093,107.57825453599249,0.3709610964182993,0.3130022344552199,1.1132603854691618,-107.06439853364662,23.195569850566777,154.4395247289202,0.4832663684808067,0.6440099677998353,0.713243142011199
1.99,77.95085047501802,71.93848537796902,183.3768021735513,0.3931922231033481,0.1758537562720525,0.4925207380588678,-165.36430844803024,74.90151641683923,14.115594753814731,0.4137637194750125,0.1917760257280908,0.2651600764658702,-157.31009891067495,38.92958960782748,107.86560855825596,0.2485486477355367,0.7516351987417016,0.965973318014784,-107.0108377742575,22.86187800900982,153.74903081203755,0.1550314753849087,0.1187582693586703,0.6879255079576275
2.0,78.07383342679522,71.94992868287862,183.6376187879332,0.2785603789408908,0.285214535072288,0.3742164055990002,-165.2442322043408,75.07138872949305,13.865139612683029,0.5108715039259332,0.003789620835136,0.5284871971022566,-157.25280524483244,38.62149465168744,108.2523837046739,0.3053841165874068,0.860476347197456,1.1441650979223523,-107.58661818470988,22.40369066676607,152.83692625598317,0.5015608791729211,0.2312520612030928,1.1446041901469302
2.01,78.08128102959942,71.76026751819008,183.70862611337725,0.0788387050969601,0.2195954630104045,0.5189293453301611,-165.0483159590503,75.1828263549436,13.764675430319866,0.5639776788204609,0.3268559834011811,0.06153966726745,-157.11378352488953,38.38019717260687,108.6072506956073,0.3050363936313016,0.851402485759373,1.0444147167241569,-108.1632599440132,21.934122941547116,151.938647759811,0.8423127511462098,0.367601139950278,1.6115699007756812
2.02,78.13941542001834,71.73899462875106,183.5781155655825,0.0678234529544405,0.2446132579984797,0.5893564241369832,-164.95593598879594,75.27937642551379,13.785523768408236,0.303273386033161,0.2581846271841094,0.0438049181209496,-157.06239542787125,38.1878493152527,108.7616587320369,0.4754957309417768,0.3829294749042958,0.7379110599195327,-107.93966312548774,21.56715084403691,151.14244605689228,0.620350560320149,0.972320508590138,0.7530856956147176
2.03,78.1459998471857,71.6193531136873,183.3241304430766,0.1358565640244429,0.0738880641870227,0.6588062725176227,-164.87766715798637,75.36713603628777,13.80483542624548,0.0351936681856122,0.1985079347566835,0.0309966498142919,-157.26296743612986,37.887892251436384,109.052987544884,0.1818957218489809,0.0486016799009251,0.7743570608083861,-107.8809585993633,21.366555608438365,150.05635649843444,0.3864482926715786,0.991306836899896,0.5673925524254114
2.04,78.23755867927245,71.5705148960619,183.41876271252136,0.1304115396128952,0.0617579982834477,0.6208176090086241,-164.76718689676153,75.37869569997108,13.720557790776596,0.0538214136275717,0.1479842595762139,0.1850580085180328,-157.12811610083432,37.871168932010455,109.17038908250404,0.1159153376197031,0.148472060826438,0.8722417490889707,-107.84527780562152,21.293320997926628,149.54086683150354,0.2539690953918604,0.9832457779447812,0.4594698513196735
2.05,78.32645451764202,71.50403177091803,183.50725536943065,0.1578072644108223,0.0544072277214953,0.5649915075044359,-164.6776841704042,75.35494862203007,13.626874565944242,0.0908562799798725,0.1404752278511196,0.3242170419458604,-156.9843223849088,37.88431878100597,109.2388460283815,0.03703409018036,0.2621627421977128,0.9485264770476574,-107.83074081281676,21.19231208585423,148.99429108295965,0.1319038740231446,0.989619311021212,0.3668665394293611
2.06,78.3252381079601,71.35878893664959,183.51893452297423,0.0083402119860471,0.3948355778046775,0.2767863681502812,-164.42100851154623,75.35994746444892,13.521438706970343,-0.0026294429375398,0.135905610628905,0.2786962793351984,-156.80915564432192,37.955309793426885,109.4968669151559,0.0015547447042278,0.3010093686943778,0.9485151092706804,-108.75267305790685,21.19887741958733,147.6372905788375,0.3210149534498381,0.3706042591298523,0.9348698636144964
2.07,78.26081965586737,71.24470085852032,183.6375790955138,0.121057383722306,0.2913743394114074,0.3366025612662354,-164.29895996317137,75.49146818064865,13.421145435450804,0.1019076456437512,0.2456236274873808,0.3903555790476915,-156.7475226338743,37.943948126302494,109.61369917749433,0.0783889930288341,0.7180955472838486,0.6893488859017056,-109.38206211289054,21.36643745974137,146.42512469636526,0.2956312571142468,1.3341324116812885,0.3774856754379429
2.08,78.31718954388033,71.25527000572589,183.81162736319203,0.0251356743484123,0.2121240586926782,0.2992886507374018,-164.04792101438895,75.50137666887707,13.294872006705322,0.1522357335783149,0.1470135669823135,0.2713831104781549,-156.9317881618329,37.88735042984818,109.79933251930302,0.0677813521022252,0.3105877269463278,0.9976289940174766,-109.74905691846828,21.700897231479,145.07654589281597,0.3225185997426931,1.515539422349876,0.4189764097610346
2.09,78.30432954958617,71.0550841765484,183.8294092883652,0.095592947251953,0.1284631613819127,0.3120770282023155,-163.81962715958693,75.43274965711989,13.23582719598394,0.2286846311123397,0.1922769046219913,0.1075582326949173,-156.86464491679848,37.87442138748876,109.88757582482675,0.0319785137894005,0.2812880494913454,1.0972627362172882,-110.5024710181355,21.86627644895472,143.3481404306925,0.5399704519662741,1.3069004898144223,0.5247181214565929
2.1,78.2417189165182,70.87501573623553,183.8226290287137,0.1745877770894794,0.0371051119548185,0.3301147719577796,-163.69845212197242,75.36881134509525,13.2976490893915,0.1807516145311407,0.0444730244245704,0.4933678981331846,-156.8082886897248,37.88861887883041,109.9292967679711,0.0092986563614656,0.2836918452176079,1.1467459620791547,-110.7633323912168,22.00428559419628,141.55940469298727,1.1870744563600106,0.5074203402162376,1.1258350000363713
2.11,78.00618067740457,70.75952215404263,183.80491398939327,-0.0212380659757212,0.075108286012454,0.2538858930209291,-163.67678313522444,75.35691118216774,13.191092988573088,0.2717545247083062,0.2124684951291229,0.4304417708713728,-156.95277627972777,37.94552804069338,110.00832598812184,0.3009394858904974,0.6951681969335022,1.0437987260200794,-112.1966781997163,22.4472849375138,140.05759867245317,1.1558501547475342,0.6269702018931744,1.2451612332570765
2.12,77.93807255418719,70.81096077609237,183.74147008102184,0.0743100077465163,0.2394193910541189,0.3281002688225401,-163.6804196192189,75.37049473475871,13.066590448583629,0.0582423444500895,0.1955546981165321,0.0859109091858332,-156.81009963949262,37.99947480791301,110.11625473245604,0.132188628002998,0.202190560267107,0.8095048082178521,-112.50392490411537,22.63873293620396,138.64572534143983,0.8133146684193435,0.5247951036687469,1.214581909267221
2.13,77.83661586979775,70.7451461245906,183.6516791838129,0.0445220092817413,0.2459732199091999,0.2939789875387198,-163.69636698498132,75.3109601043937,13.071704298688566,0.2028436642064139,0.1214820577474561,0.2386027116898064,-156.81675717745597,38.11827730984511,110.18697999964174,0.0676591033461214,0.4512112196271495,0.5380741227780508,-112.81237353432188,22.79777532976976,137.1742672124582,0.4868251745956944,0.3652628548118581,1.183254956316262
2.14,77.6438084572116,70.74803137916582,183.57310430677717,0.0655837197753332,0.1991524275290686,0.2509007650783967,-163.67623896912494,75.38052583902738,13.056962062143256,0.1216193518818965,0.1705155986254179,0.3951519210288686,-156.74300505443125,38.18221885505992,110.24542847995372,0.0036672997296013,0.6466546198396813,0.5512641868213763,-113.32786368329364,22.56668206387944,135.62190156356127,2.454386642135188,7.708659208574778,2.071842772681617
2.15,77.51314538492578,70.73330217143167,183.4984987519292,0.1885291274748885,0.0473919321154717,0.1698499701998053,-163.7143114052375,75.45254049521367,13.10510647770468,-0.0010968138033229,0.2148718650255907,0.2335571452319476,-156.6790905675888,38.18058910574511,110.3123881785448,0.4325919660399759,0.4538297525985817,0.6122352160197795,-113.99675012228552,22.800094456360075,134.86888890825574,0.6284851710411022,2.629717846640225,0.6773364328440061
2.16,77.48304301965123,70.70593144265924,183.4131777360797,0.1462893122888235,0.0543466166393561,0.1788590277665144,-163.79625254013456,75.40041976610976,13.172139226318782,0.1003610667372187,0.1011453060162787,0.308615547421243,-156.65448218899337,38.22742615896886,110.33435538356038,0.3526577309314598,0.4730426404848183,0.6879537022913083,-114.60137946921157,23.111987489817874,134.50546958664157,0.5915422374450129,1.9133992767572048,0.6986934255169228
2.17,77.4383243333286,70.682802565271,183.3047682584869,0.1307032440631244,0.0480404195648783,0.1852320467160725,-163.86071434178487,75.37465673428456,13.245161980742022,0.1920264959705375,-0.0010059237569761,0.4210019789417793,-156.62884482488107,38.25092974806329,110.3842279550914,0.3100805684884306,0.5064214939928136,0.7385328034889811,-115.18973868043554,23.45798118632049,134.1423204236673,0.5331281122607808,1.281887796537354,0.7197179172361584
2.18,77.37488491491393,70.64249652895373,183.43229085393696,0.0011636742044621,0.0998888299117294,0.2983076387465119,-163.92374830974398,75.30767756751592,13.374961677374545,0.014039389238711,0.0519118808229472,0.0167763416198881,-156.30266383138036,38.44516086437864,110.36640806345414,0.1703975442493475,0.2956629389686885,0.4836172767676921,-115.20095676035264,23.31753908345462,133.5553384631036,1.442104094544753,1.6302462118222705,1.302244620172926
2.19,77.1803003641936,70.55352224865722,183.46174699495492,0.0207545308994984,0.0295189092139467,0.2273518378295977,-164.00001859369863,75.30600059768481,13.441329316585753,0.0947022334341011,0.0725438744220783,0.0736677807716003,-155.9970801197895,38.612642386393,110.44520540309196,0.0345717888046445,0.0139172794065607,0.6157869020145352,-115.63522073380852,23.609699671398182,132.94495814130764,1.4230644406455129,1.0614902680943776,0.6783796317930499
2.2,77.11763619759562,70.54422985157593,183.3048097571215,0.0243361968574304,0.0020639289950687,0.2092793430680577,-164.13626607630164,75.36417513096477,13.569003012409532,0.1211346724735415,0.0947451822005545,0.1598233802666193,-155.88087000384226,38.7645272348268,110.53993405582912,0.047987618213085,0.0976085391613341,0.7561764151504219,-117.39791939147418,23.334328251395892,132.02061688466222,1.361304048272208,0.8989533898061327,0.4724503721656614
2.21,77.1398806902587,70.60225926983316,183.3952074308652,0.022528081988836,0.0433823956507177,0.1934063203967417,-164.17177308379726,75.37830438383892,13.72715573210332,0.0205851879801815,0.0998635578194585,0.1199354719240702,-155.7292246877796,38.87399314027133,110.64049170557692,0.0502198597523773,0.1796514222301763,0.9037325142710402,-119.18242030587142,23.06013845476936,131.14465200211538,1.291154904524539,0.711006885357136,0.2522601760857698
2.22,77.1538418587863,70.48880683812428,183.51668830498448,0.0669958248605909,0.0802896401927502,0.1788505334956377,-164.2360011654698,75.35587181036853,13.947702918225218,-7.713249786736598e-05,0.0170835110757695,0.3613309916619481,-155.75935709049554,38.87751517011203,110.69702906621444,0.2760596712082319,0.0717874248518182,1.1296052569235946,-119.6845652515174,23.552621472999448,130.44958643374795,0.8386002050594276,1.6550747920943891,1.141205964241795
2.23,77.18911503018201,70.45912059463589,183.67444967858643,0.0400168862254095,0.0460919588578937,0.3214269052085378,-164.29605350961623,75.43336143077354,14.050229047439892,0.0983936615643241,0.0237248815440119,0.297193415304693,-155.80945605813588,38.80440648050503,110.6262080832365,0.3772795291173927,0.4105384531679921,0.8779480626593,-120.30091905159038,24.0061566514808,129.867613581849,0.2790578833865255,0.1626186220148874,0.6625178726588633
2.24,77.24981405206316,70.45153021466645,183.82632185302555,0.0082673679284198,0.0115996392011903,0.4284461558978462,-164.3255491073309,75.39899785042022,14.170292820658323,0.1059910857032811,0.0857448805196375,0.3727572109363028,-155.85438246499567,38.83098446242552,110.29771193961425,0.0024651836152861,0.0403762514549764,0.5864982928132028,-120.80932390928068,24.046863544542344,129.36513179446143,0.4260643456659097,1.1905977022489256,0.0370012972321006
2.25,77.2082078305445,70.23895513003028,183.89144678367427,0.191211823122103,0.0805261379840771,0.5351539293880788,-164.37078377399615,75.37131274442103,14.3113259865615,0.1088489520228226,0.1638486264843479,0.5054330464767063,-155.95255581175314,38.80098426916048,110.35383533858888,0.0480639687411199,0.3193275649961481,0.8398982614609014,-121.56749522616006,24.30531040228412,128.9432388920466,0.8221592407910903,0.3085801564373344,1.035261400505595
2.26,77.19652734946033,70.19697699503674,183.96969638414205,0.3219600279239283,0.0508255584224972,0.3870401934103002,-164.56687770578816,75.31185458357393,14.498949881840412,0.235196415942683,0.0298241202773119,0.4253444099066496,-155.8246438135591,38.87670475378102,110.41269389610936,0.5174128221696022,0.0377121886857426,0.4411970749275201,-121.41483541212769,24.67520684055497,128.71062741779016,0.1544644865304017,0.6472107515483678,1.1752550700127955
2.27,77.32230931094838,70.24045345983659,184.21084913260205,0.5324436438623712,0.0064741770137082,0.0684009649294171,-164.6042173775819,75.37502486811266,14.428914760981105,0.1818986616426129,0.040056004108673,0.1462320124435251,-155.99577461647107,38.94491425288838,110.43611114793384,0.5508104910723063,0.3216077154705179,0.6364570983262331,-121.61943571518864,24.682350941174683,128.44349829056162,0.3989179820697068,0.1836924208182331,0.1496150494258798
2.28,77.3111598278397,70.26482553134176,184.1652676978772,0.4792994297462263,0.0177471503567991,0.095489873990522,-164.5806554425937,75.35687497127947,14.397901712159875,0.1461429373341372,0.0543391574153062,0.2821657911406625,-155.9703817298501,38.969725069344825,110.48445671812256,0.4125760597849743,0.2403862191400992,0.7757149186745044,-122.010274499654,24.616061852288844,128.29497320548745,0.4047993411982511,0.8540563935856568,0.3711901143555691
2.29,77.26736821316065,70.25213060480766,184.13517917700096,0.4437330232619143,0.0191869143837741,0.1384960648449505,-164.5543470199484,75.3730140096659,14.3642773168746,0.1001900374068955,0.0680759220639585,0.4200655970971214,-155.92750200843037,38.99700785209125,110.4959126542117,0.28855386082767,0.1698143955247759,0.907683007593978,-122.3735970665464,24.5683643006142,128.17915934979447,0.4034647696710322,1.5210330257861029,0.6147133021750539
2.3,77.19796169526376,70.24885786457028,184.19074061566312,0.1686199650226539,0.0556789007519675,0.0783046262703187,-164.5480164724957,75.38260095363822,14.43228431030506,0.3281073830507832,-0.0028360130177282,0.3871542786039811,-155.93636380003284,39.05060249210672,110.5462006976676,0.3246143721528431,0.2779892273240519,0.6186452600537542,-122.25093770053688,24.73824560288148,127.98840248094608,0.56081063684793,0.8106974247507095,1.3596478071386549
2.31,77.25174806009026,70.31662701684095,184.199995921075,0.1505892872935296,0.0443204489869734,0.0863465568491745,-164.63003530860422,75.44175170778286,14.371925395476383,0.6785766825842364,0.0860074136964126,0.5661938633681327,-156.11090397691245,39.03882172196428,110.63807110237867,0.06889181836305,0.3811425928594598,0.8375551500843992,-122.01336851139357,25.165551971370736,127.86949384443676,0.0338265336511818,1.7767185537614576,1.785739506196274
2.32,77.14519881337407,70.28660124930603,184.06296482933965,0.090073380498242,0.0342100998078866,0.2158198627566121,-164.6186194913179,75.4535515346552,14.432838726973516,0.4716319607301821,0.1427617422621535,0.1995981950825849,-156.0669513829173,39.03492803589388,110.63573049719352,0.0400020295528504,0.1568839349723269,0.6095079230802191,-121.9105137600083,25.36643060275142,127.756639236746,0.1758519677951396,0.6744442913377968,0.890939650279248
2.33,77.01014301523281,70.23534456893913,183.94708058123567,0.0387990803846344,-0.0057823682929507,0.3391994463155339,-164.53171592698726,75.31223710863605,14.554345894168543,0.0902898325624401,-0.0095550624956063,0.2964028745984938,-156.11991916267803,39.06431112159955,110.69256006581072,0.0430068623066279,0.207557026254148,0.7429429285688253,-122.1861864225574,25.26015765091169,127.57785074301268,0.4052076275454199,1.155035945762579,0.6279162552085379
2.34,76.95805323492615,70.25826364122706,183.8242921501977,0.0228637806293325,0.0167260438674028,0.2864986382965132,-164.48291341322647,75.18744915341279,14.621767179283776,0.3907861049108221,0.0502878849481926,0.100790248896304,-156.12733444829448,39.00095590540116,110.68434128687188,0.0556655918410587,0.4130062389889185,0.5150348404403837,-122.34961682820033,25.49716566850153,127.43433418369092,0.5740873968538611,0.390814809082241,0.7102365058506471
2.35,76.941509229406,70.24284719377674,184.06773423327112,0.1074045272205845,0.0297183759718679,0.3001865324013009,-164.44787046717607,75.1836218046455,14.57344005277465,0.2513692746522247,0.0817238494595921,0.2116468194110448,-156.1818623312118,38.92135606864706,110.51278827625497,0.0775697069316049,0.3756886425534813,0.5213339147554908,-122.65289535766377,25.659037123181545,127.19068543686772,0.5870116673578961,0.3197607839555794,1.3752476011853878
2.36,77.02965933646564,70.12353620139707,184.02514054337504,0.1654913207449517,0.1358264547006144,0.1533405383219025,-164.44029597269238,75.18539497386776,14.560430572931176,0.1364532241180235,0.1279244673689855,0.3247237193090235,-156.31084587956522,38.94767362893408,110.3142571139351,0.1708156838459271,0.1617382601409557,0.6258650001986541,-122.9301529334666,25.82003880755636,126.93484967124586,0.5933343743090577,0.2768849327927777,2.025672027502228
2.37,77.07854457947576,70.12671236341697,184.02323784238703,0.1994201267182755,0.0464609922463653,0.1293585273282139,-164.4277955820443,75.20926853998014,14.514645331415954,0.0639202686401047,0.0440668219950449,0.1547729662622842,-156.3084767369654,38.93859605023905,110.1834757070024,0.3373254729974627,-0.0059419827789238,0.5927661891765252,-123.49244760343564,25.747703929561112,126.61280029006323,2.1018962064363813,0.9945053476218944,0.0279322448603425
