0.02,-46.53322621563193,65.26773198233332,166.41078518410512,0.2399513045707244,-0.0090548472471254,-0.0587019513544531,-108.85800127461503,87.97998401755518,1.0979007926454605,0.0275523553096503,0.1899103925812941,-0.1248497633643796,-183.59143633231116,3.988303155186594,0.2729903671794058,0.0056533835472287,0.0974661968974329,0.2330641831087628,-129.3332768907245,16.053042237017305,10.48486062790428,0.2100701493961325,-0.0593836719185754,-0.0476339442714087
0.03,-46.33634319667996,65.2858780123511,166.3577453509826,-0.0494625698428365,0.0674107158816664,0.1095248618982284,-109.0329232174414,87.93763558591985,1.1355127688326778,0.0944738498800792,0.0322745957159692,0.1159343066361519,-183.5013791937102,4.123420448095266,0.4141303173239931,-0.0588470058127605,-0.1548386765670655,-0.038331206237178,-129.38559515371932,15.848287426691709,10.39858612949007,0.3143273988009086,0.1591666966524221,0.0979927444445354
0.04,-46.23647443325272,65.26533925506307,166.50039357819594,0.0006707569790946,0.0658815565324537,0.0327466893440778,-108.87496798088404,87.94500648700289,1.0466745284501309,0.0021106849723457,0.1391107215112247,0.1870423940439958,-183.50049613448195,4.017067948864048,0.4247564412287259,0.0086812459038253,0.0438433699655942,-0.0289742008093717,-129.59747286943383,15.78544513056416,10.32189020332932,0.2189740042170206,0.0561076759754662,0.1267900259813761
0.05,-46.20091565658476,65.43978360682168,166.38657192179244,0.0353828804191496,0.1561775704076876,-0.0003447388078373,-108.94252108959353,87.89745637340343,1.112706721634317,0.1349344588214262,0.2063745748436453,-0.0662406762378301,-183.67498631191592,4.098459685926023,0.2767202743393053,0.1170576183103231,-0.0768967565469379,0.0585067455745218,-129.44808259188224,16.01191827228889,10.320604839275294,0.0006653669459943,-0.0185369787749081,0.2035232846995985
0.06,-46.34747082634812,65.23152855177919,166.4363218856439,0.1127747279925281,0.1016180254529411,0.0124051452495588,-108.86365609773368,87.94866872122307,1.0172640235765278,-0.0467593035412194,0.1914520116389793,-0.0460770521937691,-183.5600546629375,4.25818398482672,0.5110328275770715,0.0822186157889583,0.0778509297362775,0.0020535419216712,-129.3563708878769,15.74173846456063,10.34422288563437,0.0855482810431841,-0.0900642245974058,0.0382717142820238
0.07,-46.30351939421518,65.25792488987754,166.5287951462451,0.0048670427168102,0.0482522729502468,-0.0754936218744629,-108.90161931670708,88.1111633828919,0.9729849059878136,0.1907584950396399,0.0556881764806445,0.1202290753526193,-183.6895478540661,3.9041763957252607,0.478132142250794,0.0770566643804245,-0.0107835066689046,-0.0056289192229866,-129.30140458126962,15.72764036556335,10.5617293932518,-0.0705690026742541,-0.1023593632148107,-0.0097714909048615
0.08,-46.25451897001096,65.14731591669666,166.6617429848259,0.0457948333698272,-0.0009523700495537,0.0144265293388696,-108.98905176942658,88.15589430645167,1.10841057308384,0.1470248860747428,0.1260644814736757,0.1653819147461708,-183.8056603194193,3.9947793899544792,0.6395494302531806,0.1149050242855398,-0.1946098215928141,-0.0052297504479433,-129.7616057153935,15.647835301913512,10.487586595355785,0.0803456776709563,-0.019843324833498,0.1701281185505809
0.09,-46.01214859180702,65.17372545886877,166.60299032632702,-0.0850894491202241,0.0579686040588585,-0.0027368156194669,-109.07244279743016,88.07235573017745,1.0856598940717772,0.1456157644141862,0.0715100008010822,0.1685627912491473,-183.67537463533463,4.127720687163182,0.4127680344592688,0.0333857410865608,-0.0957856369941499,0.1894569381620723,-129.68735846095396,15.374850480014196,10.400125890605665,-0.0373747567231803,0.0748930537703391,0.0433419827008818
0.1,-46.18139488749837,65.2402990689959,166.60016507176775,0.0246797603280067,0.0022423866439182,0.188719216572439,-108.93292084541038,88.09897654749834,0.8210740253538544,0.1601623841103787,0.1307667039504162,0.2068778347950863,-183.5455749826608,3.936410228176632,0.4056594192158838,0.0784740233881038,-0.1173683311748638,0.1383352987156801,-129.80277876577347,15.30405826884291,10.685316389063344,0.3701558278473816,0.0716057510550635,0.2923130719954733
0.11,-46.43977913269971,65.10735737300489,166.6586858572817,0.0964771415884657,0.0292095147525867,-0.0164971935417308,-109.07290006458778,88.03244240774552,0.8541357428899208,-0.0612147665581937,-0.0347139400542375,0.2391473421388908,-183.62048494582564,4.057432513560796,0.3887792885749443,0.0008015609681557,0.0491869889568431,0.121592311338387,-129.50534317397094,15.531346911315753,10.590028496893623,0.0708127504933482,-0.0211889462621008,0.291062929838089
0.12,-46.395220912639424,65.09017789889242,166.43977425128512,0.0677703584131437,-0.017402489677297,-0.1577883562359081,-109.02870626700684,87.92243257233929,0.9453094281211728,0.0959324900779965,0.1412120285509818,0.0598854235795969,-183.5516000333996,4.086058960105196,0.3591816118139205,0.0363876249116229,0.1994475646793971,0.2270216360686849,-129.52598424903871,15.421684308944831,10.601492093098264,0.5381991705117279,0.0724802983886864,-0.1148682791135094
0.13,-46.156036604691714,65.26216071632183,166.4685689417438,0.1874150198517911,-0.0145557764744722,0.146554889686981,-109.23833133740702,87.92968515776862,0.9498086488855292,-0.0080858871132313,0.0506803076162974,0.3061626501677515,-183.52017705915256,4.048143643772854,0.3825411482773334,-0.034669935893113,0.068270996191402,0.0502646416212808,-129.62614404733324,15.603719013542651,10.71739194300154,0.2816208893581268,0.1763593410731641,0.2289048954973507
0.14,-46.38937106359104,65.22063446817891,166.4821281280834,-0.1011639228582722,-0.0953743994398611,0.2940208333132832,-109.35094367478357,88.10391177404419,0.8146476537264509,0.1148833351790934,0.0572935672479759,0.2161879455507669,-183.70793569417248,4.19122269625168,0.2377751481338189,0.0133872249694555,0.2437000608207976,-0.0189082469871673,-129.7326878043409,15.408645848417075,10.479985208794234,0.1653939372192506,0.0658910535814249,-0.03221927779432
0.15,-46.46700299653009,65.05368118164301,166.53019488254407,0.0293585697027925,-0.1241786413266262,-0.161635701293643,-109.39911314239934,87.97793533801295,0.980461038959296,0.1689210673224572,0.0146071785618244,0.0304465708234049,-183.57397292876985,4.188292949674571,0.1355776827923551,0.0123206245230385,0.0537981646539604,-0.0215566584119282,-129.70618873291343,15.31889232454734,10.418142877681907,0.3263955891141271,0.1004248616708049,-0.1760846247285598
0.16,-46.420266525914826,65.43282972278276,166.29736270473546,0.0446357185779076,0.1614329477405264,-0.1171362837758115,-109.12370555763512,87.93955533975812,1.0519865314257084,0.043409381520901,0.1323312700972248,0.0605223574916349,-183.61154159235335,4.323656619748991,0.2515464553457961,0.0631161954364052,0.1708015002046236,0.0874714951397355,-129.5989936356322,15.302305008713766,10.602299128850332,-0.0045090096079383,0.0415838376042044,0.0745727459448254
0.17,-46.48189441394097,65.34747220913717,166.37831772263416,0.1532998720530503,0.1231100096987017,0.137036597651194,-109.31639788949512,88.1219910919484,1.0188794430934185,-0.0705995622489461,0.1478849770695501,-0.0314506812351044,-183.74763848139315,4.231800203703482,0.1836380121330589,0.0300648787420177,0.0308465727172856,0.1036332515534379,-129.64413314638915,15.191085105928638,10.390825014047778,-0.0526909363193603,-0.0385231950051099,0.3208483506710693
0.18,-46.54415154895858,65.20152242475567,166.4834775888041,-0.1678458397312231,0.0759756052842962,-0.1173903438144203,-109.48703184563178,87.9453772729345,0.8871738155861537,0.0125125567333957,-0.1188963472910523,-0.0956520663595909,-183.9367181723758,4.353759979994014,0.2777556596364282,0.1807999558432534,0.1503425116229103,-0.2128063159302125,-129.69914305365668,15.247743994324717,10.568427584756831,-0.0123928714480591,-0.0210809162708354,0.3144189598137211
0.19,-46.54331687326317,65.284978341646,166.52094450291298,0.0452128959269048,0.0050184293252401,-0.0463513644711152,-109.28664731076432,87.80013363729779,0.7157169975404936,0.2139017711247615,0.0610643956287449,0.2094230456710855,-183.92457091141327,4.347991819808831,0.1964422308600313,-0.0668602190999878,0.107933202195524,0.1544671370105092,-129.61817299657508,15.23498369189572,10.531897014099346,0.0546903242000441,-0.0309544076679869,0.1533266600231211
0.2,-46.5260164654107,65.20881682643036,166.62111939815432,0.161268941481315,-0.0553302633358046,0.0160718102572066,-109.44600728783789,87.82676842217253,0.8315681075017292,0.1026118424917122,-0.0772530468509676,0.1084128962914136,-183.7936858672184,4.306275454676462,0.1366291155545606,0.045557433705309,0.0693772965856588,0.1672302354781606,-129.62519380782317,15.238902326213006,10.375725436198596,0.05779967226751,-0.0274555703446201,0.3446465654925446
0.21,-46.42919794680831,65.28127726951497,166.65522875014602,-0.093096837438835,0.1247561575989961,0.1428115691104375,-109.32423111218722,87.89802980784559,0.7190527350537883,-0.1104718343613564,0.0667048354370261,0.0959395398913985,-184.1087758313233,4.352089041120315,0.152686365552231,0.075782874584727,0.0582490507887616,0.1043836105065367,-129.85688987553831,15.014226725043812,10.499103263619812,-0.0856519074660467,0.0605096769615257,0.1867682461749731
0.22,-46.69829166598259,65.0299669797457,166.4946836363334,0.1619684716814669,0.1001971292476041,0.0889522054024968,-109.38887307164326,87.64005830214543,1.1297920919071498,-0.0450096742275075,0.1066938581727907,0.1767869602666127,-183.9637055809326,4.345977263824122,0.3201082147512335,0.0991032647713177,-0.0329369723148553,0.0587243365104901,-129.60621072601836,15.182779008904982,10.398142933500772,0.2481741924788687,0.0542062825085867,0.4229128459285678
0.23,-46.42857407350174,65.11249443893973,166.53968855096198,0.0629488625900054,0.0676104816362483,0.1834996654260988,-109.40519876469682,87.65115444201791,0.9616574437329686,0.0911015455055915,0.0190050044208077,0.1679045744908746,-183.7846553649441,4.604653345958213,0.1621528934881138,0.1338999395066864,0.0066323647513617,0.3099019356102355,-129.73473540400406,15.226446269688916,10.441201372689052,0.0220419655676369,0.1033699352939886,0.2714625458331229
0.24,-46.36101244647013,64.91858672162435,166.68268562037562,0.0010316125076197,0.2783977799440348,-0.0781035105379251,-109.43368857508057,87.62631689328414,0.7888664274679403,0.087252292043213,0.1315554766852208,0.2918110151510223,-183.58972073629596,4.522845967399672,0.1713229716657166,0.040539740127371,0.299328965229826,0.2172840659693837,-129.48015399807042,15.047208427583838,10.331883843683835,-0.0789101117369942,0.2233066420697956,-0.0071775375400519
0.25,-46.50557961514364,64.94212731702001,166.5030059816543,0.014394372370299,0.0080492861868958,0.1484338991959301,-109.63478678964351,87.40428881761831,0.832467608397808,0.1292551148406032,0.0005702257936373,0.1668038240265434,-183.71088667825543,4.596559360299535,0.0137169818360334,0.3495778672378781,0.2052178675601403,-0.0320678474192615,-129.45361057791638,14.983421559554582,10.541736203960427,0.1635169982142548,0.0940286686277122,0.0168224843298475
0.26,-46.86068405417956,65.04301448761248,166.58401867125474,0.1144587007298147,-0.0126072842832839,0.095375275843531,-109.68320221491422,87.42399424578333,0.8756880358368815,0.2524463396382709,-0.0924157695617583,0.196856470674813,-183.85488665794148,4.708057995884809,0.0978171731745377,0.1648020003538036,0.0685206767775702,0.0890052970804053,-129.58570486850124,14.859039309377142,10.472039176811148,-0.1994272501251438,0.0827048836875522,0.0073156481841357
0.27,-46.72226919300208,64.91726097729317,166.6622311708119,0.0406704108520392,0.0472768308206433,0.1552312600599225,-109.5734756160691,87.48037391859835,0.8617981021447906,0.2363777865475149,0.1822085506524518,0.0686419340099502,-183.91397772021472,4.701545326689109,0.0445532593292943,-0.0003830465002469,0.1229584500082021,-0.0237448169831413,-129.55007204648973,14.850940079771746,10.582856664241874,0.1511412169600113,0.04142367691444,0.1397513782625948
0.28,-46.48831024929562,64.9246776073029,166.5882432812935,-0.053634012757814,0.1061111643649278,0.0602531873963887,-109.5613123187501,87.3988393468051,0.7512259795688688,-0.031226045852868,0.1350500850493159,-0.0016807636140961,-184.15926374861692,4.621969192438253,0.1460496418602163,0.0741671292543686,0.0505690388755754,0.2146262730196022,-129.44097973433145,14.903571061589645,10.296423317331252,-0.0746777107511029,0.1002777818532338,-0.0541312512003832
0.29,-46.6278227239201,64.82444699987525,166.45874561297958,0.0787518258645757,-0.014969273736784,0.0009443390688456,-109.39777344749535,87.80456427209332,0.760988712872533,0.2128321204900573,0.0315598691804673,-0.0872905068399957,-183.9694110027149,4.619774803785193,0.004920637029277,-0.0462532922917537,0.2777229738484001,0.1670060826513646,-129.42094494178193,14.683747895565135,10.3251148184359,0.0546649161471579,-0.0236035659054989,-0.0937537681503806
0.3,-46.82293814925775,64.9096280926429,166.61284992116606,0.1834739078724538,0.0695948548817696,-0.0069563318318909,-109.36938488389254,87.38464932120718,0.672425006367611,0.1364235003831596,-0.0127684177042484,0.1124523219172837,-183.91048047403933,4.526305319957372,0.386005671415279,-0.0142757250584153,0.2414194322095548,0.2374796247703971,-129.3659530480579,14.651563653009068,10.341580450002134,0.1772636255682427,0.1239861346935522,0.0496181159911371
0.31,-46.44023293977245,64.75509222752977,166.83335657361243,-0.1684175729092105,-0.0914667126402699,-0.0191942948902332,-109.33857057966502,87.43393834596374,0.7035941667933815,0.00571517667815,0.0766876563782555,0.1114956318013912,-183.829959582191,4.6034375912305165,0.1793949882947046,-0.038981468311542,0.0981652597183366,0.1411671065651422,-129.24447485084238,14.670323363372678,10.673954586432918,0.2525049026040558,-0.0508749433438759,-0.0208521442850036
0.32,-46.82075838979889,64.66183858495152,166.83187262119182,0.0585123720951825,0.2072604341529606,0.1733432611689648,-109.18836105732136,87.65429676921046,0.5999693041477389,0.1120901575659147,-0.0422934260526668,0.0132275627905436,-183.76627340924296,4.697284594176048,0.0399800446601681,0.0956668499987957,0.1067614951444513,0.195548920129429,-129.02199584888584,14.630832007389746,10.219851711977007,0.3851681740832836,0.1266346626445137,0.0664174925075711
0.33,-46.441412184889984,64.69147522764032,167.13366640140362,-0.0611236151655922,0.2784761696735196,-0.1580218989132367,-108.98627253838062,87.75204411036519,0.4887925709429416,0.0375447568039579,0.0658678281360448,0.2641030666363338,-183.69946182158588,4.862690756248488,0.1206326686085376,0.2248077199012397,-0.1653158309718203,0.1312096426869491,-128.99181691576717,14.632649418491528,10.385416381871757,0.2684158459519087,-0.020155173272944,-0.0569502854210907
0.34,-46.547819451709,64.74104013543347,167.08450564676167,0.1034951558203085,0.2941819056698733,-0.025415373797068,-108.89526630268738,87.7770207364367,0.5443938137550853,0.1184977178011699,-0.0022547948740464,-0.0813382480015002,-183.41080398089383,4.906676505780991,0.221319501216225,0.0321282451990408,0.2424751773307177,0.0889489812060895,-128.65810859335943,14.60921402425822,10.40050955752258,0.3456120296191382,0.0983983931820003,-0.0694164703406509
0.35,-46.47096118442639,64.7300986436195,167.3083147606988,0.2494454561371188,0.0906727247099481,0.0142431221619646,-109.00660017424082,87.55362829482038,0.495583971326332,0.1196346724875573,0.2715476846280869,0.1832372941278904,-183.5633844157443,4.835401528179242,0.2183928617379041,0.0450625918259527,0.0490117154974987,0.2930535355285402,-128.48469710853993,14.624049396414312,10.181977613298107,0.1818149350910979,0.037075378028947,-0.1232272414780695
0.36,-46.43779559566944,64.5398111619893,167.2696582396584,-0.0647155758746775,0.291956847762675,-0.0328774436106991,-108.97465093620882,87.7899751509063,0.5607978801897978,0.1642209967521204,0.2041267195719245,0.2887614053683668,-183.26080917790463,5.000568834097296,0.2272572129812787,0.0315100023589527,-0.0342221562348968,0.0350928484754113,-128.42380754841142,14.649867363565113,10.23194161856821,0.5785516775657733,0.0535628476174492,0.2189863400995865
0.37,-46.39489469461063,64.55602964648286,167.5512286561385,0.0731133006305748,0.0346175960372245,0.0867685362471715,-108.90304570333949,87.94343627776915,0.4832104418691808,-0.0323638591718658,0.0375984153814112,0.1428539676262206,-183.33306286426665,4.920539927503251,0.3288807379680091,0.1231556279435494,-0.0238277053110204,0.1696315762751122,-128.21142699334885,14.817647595410293,10.050100471964448,0.7211297518532965,0.2828989467546553,0.1964985889292604
0.38,-46.19261343027867,64.6629131741071,167.5388546400059,0.0022163704991759,0.0686950223519794,-0.01843472367008,-108.8181404701302,87.68781517645945,0.6117823723370015,0.1131357978642176,0.1053036145165103,0.2659531026656092,-183.03187431628632,4.943157312676113,0.2754656257059704,0.1440223812534866,0.0278184287101624,0.1096834692844455,-128.06898323895,14.600058195977969,9.832338007074195,0.5581797590230241,0.0565565256730818,0.0486983934876831
0.39,-46.10856529770866,64.54522172467937,167.45582829022317,-0.039268615153953,0.2297410897685531,0.0478240387999395,-108.8786068955908,87.948680368542,0.397297257655521,0.1296693223578635,0.1886265248312696,0.2135405246701855,-183.1962935330902,5.088805094899484,0.7214362924474436,0.0517640837405408,-0.0791801151218187,0.1454206157645299,-128.0556128160448,14.86032086663457,10.06676560993984,0.6629969665833179,0.0625412481091341,0.2182520823569104
0.4,-46.12293309231787,64.4465473564029,167.6360103435618,0.1899596231807893,0.045324759479077,0.188841560959343,-108.77891635331592,87.71053118973543,0.3871478075922049,-0.0440839224649104,0.1173548141213173,0.3155137620064399,-183.04555407073775,5.142462920815476,0.5710598304006951,0.0321532285640012,0.02269305777406,0.3588663423033074,-128.10455453046438,15.168960896558335,9.923703171353406,0.6308747542185839,0.0550840362933792,0.1420070031181186
0.41,-45.90625133418835,64.55757686127308,167.84205106815082,-0.0798961568339428,0.1169353931564482,-0.0279748946768481,-108.94838612983877,88.00970512759741,0.6997411757762939,0.2031944153676219,-0.2514217308131287,0.1274149477907825,-183.04986106567867,5.182636027215616,0.543544226271857,-0.0466509974333242,0.1408382088230265,0.1039838668747334,-128.0286224953067,15.43795033652623,9.957357927725662,0.7878718210020943,0.0080795213859687,-0.1107198816100262
0.42,-45.7316153427321,64.43947331699532,167.891905576898,0.0839979418052676,0.1504591905462503,-0.1398473375656594,-108.87332319704252,87.9877580514913,0.7161212389107006,0.2115970243296317,-0.0640279687099169,0.1351397556222925,-182.89491953784977,5.098551925455011,0.8437584989331754,0.0274251093858694,0.0805185067360625,0.0015517547348618,-128.2803056762579,16.02623776112004,9.827078480808288,0.8927511453919278,0.1781361739117864,-0.0683989257102758
0.43,-45.79552509571077,64.36314169211226,167.65179358759278,-0.0039004764665547,0.0762956017020529,0.0894288828492713,-108.82126650101024,87.81518028938073,0.6859170127513295,0.2158304447412578,0.0216894469425895,0.0473492373358304,-182.6819333304753,4.996829589701492,0.7822408848028822,0.0789909900174753,0.1758169740614735,0.1736146592775956,-128.41459927428352,16.507111526505362,10.043434633717348,0.6022392468238078,0.1650830099807626,0.2343738203363844
0.44,-45.68078235915837,64.38464313212472,167.87309781520332,0.1963343397487284,0.0397775839486187,0.0286474545578993,-108.68790953311574,87.91660270491568,0.806448789675564,0.0498168531686576,0.0731005214013206,-0.0409140451161776,-182.64516013880103,5.036400426074098,0.7796665738718668,0.1398250467667581,0.3142637018501308,0.1783875586781652,-128.61595634764055,17.061365804684506,10.033564522144069,0.5840790681698426,0.07932533012186,0.5125970555764205
0.45,-45.84167178735391,64.30275759098298,167.8860166360613,-0.016176410961041,-0.0604774977084354,0.129177922006958,-108.65933344034944,88.11151072343773,0.6247384994254594,0.197068523375193,0.1657124403433604,0.1556809743223672,-182.30358203025048,5.0645968605091545,0.9123954431075024,-0.0098139221026328,0.2369847778095196,-0.0359873692658918,-128.93582471062695,17.342189581723854,10.015668484482248,0.4686313517029011,0.1670221107873927,0.2121835777846918
0.46,-45.85833889252693,64.33018263712623,167.78887775846974,0.2494553134750513,0.1573325447893139,0.002814206312355,-108.86804913548136,88.03716026743675,0.8134018421218449,-0.0667490276291443,0.1710897539373357,0.2330769729940188,-182.33314139224592,4.907003878414568,1.069072752039098,-0.0128621331153307,0.0771604298106432,0.0907261896881075,-129.427006366292,17.804002883425966,9.99505401297474,0.3511953134705589,0.1396783378627402,0.2046300291842166
0.47,-45.73559846925655,64.27728177662777,168.03164623295078,0.1863125859059012,0.0856650715869553,0.0592803658534377,-109.10995671427794,88.05774263229183,0.9969998080711562,-0.0515878586311935,0.3310650853046271,0.231211382248361,-182.10393272509668,4.827262194930894,1.0974566275447175,-0.1701872050271554,0.0928189974500892,0.2930881590487027,-129.87963623527148,18.45092832201813,10.103011829436166,0.4373325988258262,0.1535534253887709,0.1525303798826812
0.48,-45.62815066280925,64.21758761726304,167.9600096664258,0.0355912198340438,-0.0924319749565734,0.0270094174170083,-109.1903463814384,87.87421853986747,1.1108387869859837,0.1289947245075821,0.179694706356465,0.1432735013628247,-182.12964441093965,4.769690464859643,1.2651720600288847,0.100863899856441,0.2653026848069423,-0.0745183485644999,-130.32513138064607,19.19761549160008,10.47032439057169,0.2012955018291081,0.1746764927627754,0.1285931062517837
0.49,-45.82299330085408,63.96910632433024,167.84674353142816,0.1650557220068695,0.0397532461366239,0.1691096878076695,-108.9619991203986,88.16920571935754,1.033076025427802,-0.0139468285550446,0.1612033044208752,0.1188188719922513,-181.64222562963988,4.645946966805261,1.0879972248877423,-0.0551680207585352,0.0259167179694881,-0.0332984716455836,-130.8615986110331,19.847372837533545,10.050244181285665,0.154180941509935,0.1729817313799788,0.097810815134724
0.5,-45.727870286664384,63.92487880982449,167.85656047587364,0.2377453303501647,0.1414228032567979,0.1286768576479381,-109.0607914677937,88.12877205768895,1.1360904142200368,0.1327002114535854,-0.0986039901969948,0.0087814674964645,-181.4946300231872,4.485292451493744,1.2209086608382314,-0.0652466621332747,-0.0407669332600461,0.0018281296665568,-131.2729325347182,20.34993881805989,10.289895320182284,0.1707969756857536,0.0233168933413826,0.1716707529617995
0.51,-45.80087066746108,64.00372231019739,168.06502396964967,0.2871181113753649,0.1682441119492451,-0.0125954254054872,-109.17376008657354,88.20610859670478,1.1473732181920768,0.1310574985099512,-0.0513728388920304,0.2406025267449215,-181.40292549016448,4.585334759509794,1.1687580360458112,0.2235754094460743,0.0814180274803566,-0.0906895865355955,-131.58811462610265,20.75266147226161,10.298237646509763,0.296071269965956,0.0253154404644485,0.055711676582245
0.52,-45.7627366031467,63.856026700918456,168.01246845993714,0.1822885543556018,0.1463017458872332,0.060393063667338,-109.1541485931873,88.30122618290626,1.2829223775379568,0.0332129590598903,0.0280866596806964,0.2274181658627322,-181.2797173743038,4.350957219141708,1.1460062483582718,-0.0138608658408871,0.1499938029635998,0.0871337961341358,-131.9631432411208,21.311305190512453,10.190042036830745,0.1132892667881745,-0.0219313960365225,-0.1348085422628117
0.53,-45.962126721587865,63.49410995995151,167.9937765958651,0.0228244795210648,0.0079071048327523,0.1906796332004731,-109.2333886398428,88.2716504068312,1.2141049396687535,0.0127751442362021,0.1121650258441518,0.0532889269299802,-181.3676986365477,4.051722569832863,1.1138426994050752,0.17463346636748,0.0712741691916422,0.1631781423924784,-132.55548054891966,21.863493439419827,10.38637961264473,0.1401033032408482,0.0137465264581326,0.0370863056238434
0.54,-45.905129889828615,63.295276851549566,167.88324514299893,0.0089586438190608,0.0266409299581866,-0.2559305160274521,-109.23087122812566,88.33227014278224,1.2036780765026185,0.1824228321550824,0.0599367193469961,0.0347878050308203,-181.4783618353447,3.629021791980362,0.9055889072936104,0.3256227944064783,0.5221609251081436,-0.1600604575176365,-133.35990544463073,22.34950538186484,10.532127380920372,0.2628607005481058,0.2983550557464012,0.125856022089441
0.55,-46.048200265829095,63.43183725518485,168.0675708288375,-0.0754722843012965,0.1574405279552225,0.0007398748195125,-109.44489405869784,88.13073592409364,1.2449905129421923,0.1196491944739329,0.1535299130848672,-0.0416770822727543,-181.7398141051948,3.5475463117529302,0.5828052512391577,0.0836520398899241,0.3494817953150737,-0.0200198375556321,-134.1425431412451,22.935090222844916,10.793194591312735,0.1818633837435197,0.0804346076645916,-0.0016101124782714
0.56,-46.053447592633,63.05682329315275,168.16888437630175,0.0347791988490969,0.0551992108672405,0.1306909138748017,-109.18223550295444,88.4005073924758,1.3349626540743178,0.244229989610098,-0.0147950319823943,0.091720257368743,-182.1384873651598,3.144830124611339,0.2418108724042158,-0.0597622056632174,0.2479632737639252,0.0431356051248698,-134.8075718220559,23.57102486709213,11.009469548977094,0.2858252584623312,0.2992838597322838,-0.0043851137372499
0.57,-46.00304472759451,63.17043632791731,168.18553055870723,-0.0727943116031188,0.0648407321489542,-0.0172718896685088,-109.07367935481896,88.32591993531527,1.31614944112129,0.148332541177508,-0.0192681275823168,0.0859766846662382,-182.35261132423568,2.966058325844989,-0.0446516447597528,-0.0225718223266875,0.4201660154984379,0.0311940963586688,-134.9762483453245,23.77380815710791,11.04701413589979,0.3321241141363989,0.1177900481008251,-0.0114134372595047
0.58,-46.077764236702,62.93429354460452,168.31144076589766,0.0811542389774118,0.0115120896007058,-0.2064102243204613,-109.20890660449042,88.2661719475992,1.3091865634735766,0.55160256307355,0.0421744428989011,0.0523850641865809,-182.2882281694805,2.709363773552975,0.0841220005528186,0.069912307583938,0.2135103389345341,-0.0394169801045999,-135.38870287051992,23.86984309617093,11.25522943815404,0.3096999745145889,0.2328755894724222,0.031253183530906
0.59,-46.01802181113896,62.93049969348,168.23074436611054,0.0885385413870982,-0.0088552520122368,-0.0347484455720525,-109.1659504205063,88.3151958104741,1.3629508520979403,-0.0224936662504053,0.1450444924550443,0.0806905976617773,-182.611806010784,2.513459076365837,0.5919013016415381,0.0273029728482699,0.1258182483036905,0.0846788106231544,-136.0790366580415,24.362228752946685,11.33999733312041,0.3651010980816687,0.2627898342881921,0.14071408819829
0.6,-46.11015915013082,62.76468381615433,168.22639676066152,0.024377268429439,0.0625641326200495,0.0903414879621173,-109.19990789874392,88.50664102214752,1.2810304505508807,0.0526107128460765,-0.003651760752866,0.1088089646989697,-182.7362590337724,2.132778557074298,0.7623914908797043,0.0982026517658915,-0.0738029571746901,0.1098189612044462,-136.647811076069,24.897580493831043,11.75514899922487,0.6023349482466348,0.7056395100994692,0.4744322784828866
0.61,-46.13767065304512,62.63510246095465,168.2469930773121,0.079522836447177,0.1190483258276554,0.1644405146508644,-109.2185093209555,88.59143777092339,1.2275070366373493,-0.0040958071606729,-0.0916562640455351,0.171722534319075,-182.90715820488396,1.782424669724741,1.3511547519512463,-0.1028424637431853,0.1208654751071464,0.2766926075452818,-137.04742552484586,25.505987968116465,11.757064458949229,0.3505160476608213,0.7292141393473885,0.458830497781689
0.62,-46.15191767252892,62.55188225266014,168.2584741662276,-0.1202904822259626,0.1420434148736685,0.1008738545533248,-109.06976251350451,88.69166474268762,1.153666314751761,0.2565634506311743,0.0605584892455451,0.490512591825732,-183.15976849234312,1.6762515728401597,2.017118353773791,0.03225491482021,0.193429225121235,0.0217486252325941,-137.89728067037737,25.837851692424977,11.77998808361241,0.4151236690146951,0.6761385277001956,0.3625868150517825
0.63,-46.16433694661378,62.194504473566845,168.27429871165776,-0.0344384341392747,0.2318234961759948,0.2808838519625025,-109.27961345646696,88.69817264171337,1.298115693894645,0.1744189262630876,-0.0104706407667829,0.3892268944933553,-183.35096370325616,1.3718093837249827,2.484006889155679,-0.0450954867108013,0.304552265055012,-0.130329355066671,-138.22361995207768,26.006702280718063,12.13819768543662,0.4555116999387102,0.3126152846487281,0.3167707299582662
0.64,-46.30116187605666,62.4475758826112,168.50214721518006,0.132511952393294,0.0519666521120245,0.1661354501668629,-109.33974109731447,88.64531322664503,1.4023494442472504,0.138516982644997,0.0874139816538508,0.1170354649101556,-183.4435101152227,1.1662224419456468,2.7003811259499653,0.0502118333911363,-0.026229915376731,0.1286889252283316,-138.38746534993646,26.55441669281837,12.459546785606369,0.5407747381381588,0.1978096214657439,0.206191548049833
0.65,-46.17575919706026,62.12298176180315,168.66593144340936,0.1358720292086836,0.0613360401501857,0.08132281939858,-109.60538935601092,88.64979785469588,1.2263121610427854,0.1332228057862736,0.0462156567924403,0.246474523138153,-183.44988561911063,0.9001991780738314,3.0933934108409287,0.1927887161818346,-0.1962863438388985,0.1833309603762292,-138.57085637312227,26.81832525545656,12.372333751558871,0.6058508832153005,0.5151492504114079,0.2331889291767327
0.66,-46.12340669240213,62.11992865883852,168.84343264675823,0.3151483648958801,0.1068507297206245,0.1396398879961795,-109.43058721212624,88.47041562004901,1.1983218137286584,0.4084152987874102,0.0512998187585183,0.5739969704390183,-183.70633126083607,0.6940325504748078,3.602792918982812,0.2317239782543149,0.0541079719545659,0.0844065192333888,-138.8133571880867,27.20606397074039,12.652604329838788,0.5692114589364203,0.3780808937664529,0.4199202164083415
0.67,-46.17979113764292,62.0037446917662,169.0250359975626,0.1924393339019821,-0.0784556255103218,0.1498750106767403,-109.43354802778352,88.33740362915059,1.110623201605459,0.5247313568944866,-0.1181956553769833,0.6950395174602484,-183.7630390019042,0.4630032698715963,3.8152851601704514,0.3887708542635986,0.2716137285168667,-0.0124202709486441,-139.3687911960167,27.434038760821423,12.933936953412651,0.2291341431689715,0.4034782232954864,0.4367742383593918
0.68,-46.138409049892495,61.81737419152466,168.95045839783674,0.0904288698981719,-0.106067383507029,0.0386324416867224,-109.34622270156925,87.96163147241708,1.3479883653087117,0.570451550211747,0.1046350629305171,0.4465601303501112,-183.76525188067157,0.4146663749392514,4.148008855490857,-0.060317278615217,0.0722479380486536,-0.0368437363549681,-139.30135910639666,27.42886493914204,13.323186951557908,0.4268388225993017,0.3619967016221347,0.1131841503625816
0.69,-46.24266915607832,61.47668449704389,168.96211647560872,0.3797881658280665,0.1522867254299572,0.2274008540135706,-109.507173075352,87.63739116942021,1.3458209688931495,0.8497562968204795,0.1834962702187891,0.5218250661878056,-184.0499101265319,0.3073228131080622,4.645152358878603,-0.0036662466331683,0.0727965828848627,0.1450375823322773,-139.43533344434385,27.75554853681037,13.29313257437128,0.3569696275921201,0.0676285735863309,0.364399444768641
0.7,-46.29086249489861,61.28605785967383,169.1717903364617,0.211512122520086,0.253579390612844,0.2845252183114549,-109.1295926547337,87.18840242825615,1.5656116766612107,1.120501876625796,0.4311663887841002,0.5026405742898251,-184.41914542666512,0.0827119932103021,5.16123748875099,0.2758758798018227,0.3768295048091345,0.2661446194250694,-139.6811959256791,27.96036297742792,13.54742206875082,0.1561014206250471,0.2448698365179706,0.556064134187553
0.71,-46.507364764741055,61.21527136088661,168.9487831565926,0.2206467646393312,0.4091771844537678,0.1715200906281525,-109.01550494894067,86.56031583789063,1.5526726470749528,1.009413407024485,0.2987653914468155,0.2670590296314624,-184.65378204000376,0.2593539486864895,5.625590190108158,0.218822673424187,0.3866175138705927,0.2534938516678851,-139.91672659687055,28.183959311862186,13.518620771545809,0.9961536350202724,0.1951145058537333,0.5962488741502037
0.72,-46.446404552106266,61.01382199724196,169.06652275705014,0.2778736236654418,0.1113751539869747,0.2356879523033475,-109.01456296063424,85.66972298123616,1.5936269947487445,1.1746962020224327,0.0854460172931832,0.5432949294777492,-185.03753896195704,0.1245312548144682,5.997699817498764,0.2198014654108894,0.422278206364855,0.4039985711470809,-140.02094895961358,28.114504557735064,13.738426497955766,0.5950710024341834,0.5316841217700872,0.7646158101603702
0.73,-46.35224566736087,60.55020376658158,169.09705111530118,0.4324289270102137,0.2261924588006795,0.3778804727011186,-109.0181898159091,85.01718122161815,1.6158835091617885,1.2324510820611962,0.0423181864022279,0.3490661042599435,-185.11766454025584,0.3966410203303405,6.56293307329707,0.0711030367345265,0.3507867526016528,0.2038539092419481,-139.92433960661145,28.138957836773887,13.850924467103074,0.6112149518208038,0.5143623917155504,0.5088411654324809
0.74,-46.38216884131015,60.36564256415696,169.27134863588,0.3483054494902162,0.0990853147082655,0.4452124159165497,-109.31497097470688,83.9241574463599,1.5475402847418571,1.2008898361302027,0.1745367664105344,-0.018603359311986,-184.9107142798516,0.4996786191017034,7.159523692476739,0.1545056170165053,0.0723996599389943,0.408223269736862,-139.95835630085182,28.61424873442503,14.088332513882197,0.4699183945070196,0.0825593372513485,0.4425727670245518
0.75,-46.516636577651454,60.09936829171253,169.48331974231442,0.4535670854862781,0.0893627916027492,0.5362402029567263,-109.01549931806656,83.12815882525109,1.8834738723599391,0.5816567876196045,0.4523143804773309,0.2885577324376249,-184.8942486916176,0.5786041024021724,7.523406712221245,0.1209936850564418,0.131875490279077,0.2854847450591018,-139.9330707128133,28.985527812735707,14.41968762427168,0.089806925648402,0.3823441745373597,0.9726256739450267
0.76,-46.41791536552125,60.05791780454492,169.41570058594402,0.7784702627109774,-0.019312833165493,0.4253127089146852,-108.95580176236706,82.3973597836713,1.3094893210555705,0.5198989785469676,0.40857602031134,0.1569626479810102,-184.86007238479976,0.4247425521859202,7.745390827645065,0.0048604495835185,0.2413359183293711,0.1547443171049319,-140.08639828723665,29.07068443404684,14.666031594295765,0.4221144316123625,0.5646843099469397,1.0838369878893528
0.77,-46.572126143905166,59.72988708929992,169.5975159654508,0.8956159952917533,0.0807670977591289,0.514127961619764,-108.74725398503618,82.01288765078452,0.8883128444093822,0.585430849579376,0.0129395406004804,0.0116007630238877,-184.85410723753333,0.4026046940644944,8.138172720949761,0.0051184233605516,0.2430749166999427,0.3745580395272804,-139.83864650060585,29.219383907179253,14.545755233893743,0.5955598247978673,0.7094899489381634,0.9498221385231036
0.78,-46.89111078411468,59.69203867276845,169.6033917584281,1.228292577656244,0.0158200417595256,0.288578376627607,-108.52285413045227,80.95444635746246,0.1772405094732026,0.523348407896585,-0.0460312551324191,-0.0538728632740106,-184.9675889070572,0.2331360495809916,8.352924959725428,0.197337749514524,0.3702118939087977,0.177732108023746,-139.9445204748442,29.4131029664663,14.725724096496322,0.0249446506507013,1.3530008805380782,0.4656846500809259
0.79,-46.7685757788648,59.38660993532056,169.69438428108177,1.213259202154772,-0.2506115837416205,0.1339075209029211,-108.22599426458645,79.77413911508975,0.9581298159098794,-0.0767387338844639,0.102011824999606,-0.0312990021408999,-184.54720970751447,0.4985941968282967,8.660626511244866,-0.0991210830106769,0.5191885082160436,0.2622570299037328,-139.50658033126624,29.55510273762888,14.400608382072615,0.4788622311846155,1.1724537281234804,-0.0719705691991294
0.8,-46.88701054269377,58.684469054138006,170.1909535991199,1.1752828532604978,0.174792819091718,0.22858291380882,-108.09555843382668,78.72432604772948,1.4693580936342023,-0.0279335731248066,0.3680344662032787,0.120228839988811,-184.33158308007452,0.3152034292842456,9.167779140619723,0.0968661595605663,0.1245293133771367,0.5375615011390763,-138.62803127392695,30.011970381239088,14.338272937140168,0.1353125652870909,0.3946296139143593,0.1243856220989679
0.81,-46.94722602257332,58.09648658231998,170.0918216351187,1.0645380218304603,0.4324773511626484,0.1137822589894551,-108.03384470068728,77.82748727029295,1.6985427876301675,0.2907028315844946,0.5364788687081047,-0.0418358529630593,-184.11308337046412,0.4403123417518553,9.380478432745615,0.0029404504273817,0.1378681048215291,0.5901085723320357,-137.66289762210485,30.33440387765479,14.15102854561712,1.113599757045436,2.135944943388962,1.041302630907982
0.82,-47.14071398917783,57.4923611940446,170.23540784468193,0.8288443509113926,0.2815128364380994,-0.19959473823102,-107.92785047227272,76.61274424932743,2.1400741063953554,0.5131198415677778,0.8079115043177002,0.1653616970767973,-183.7978119308395,0.2359229474476152,9.430482513233258,0.6297324962701591,-0.0781940726052964,1.017956100039164,-137.01368156487248,30.76309790715741,13.853666336073578,0.0506552952115781,0.8988206330019275,0.0140667806675565
0.83,-47.105026260924376,56.57880115586554,170.40443689814725,0.8574268838708649,0.3893134052271942,0.1871165793891656,-107.94789299823312,76.21048824959162,2.4300589736707887,0.3037425780859112,0.0554035364303122,0.1110433222659903,-183.5284662004713,0.1447045664525809,9.606648696572746,0.2683639375463749,0.0885052532839694,1.0164784375818563,-137.09702398081225,30.5801332285241,13.835483072085252,0.146740422098182,0.443902093216876,0.3036727864071357
0.84,-46.59948263981666,55.90680645025168,170.9044926094488,0.3444405966792572,0.6250108432976273,0.31162843137515,-107.72306524048204,75.05790554656237,2.4740256508488554,0.0249358706157453,0.0712690881766294,0.0388726927318093,-182.95527810750053,0.0453909979760935,9.808897533482112,0.0751664140752295,0.0988339085500592,0.9871980466479852,-136.692355011044,31.109259360435807,13.807846082824945,0.0849517503060489,-0.0218620664382611,0.5753834926143911
0.85,-46.36725733795084,55.14445256998238,171.57718793508565,0.3854243060386043,0.2178758342528143,0.0436499319753182,-107.72759022235836,74.2653746534698,2.8035550863471146,0.2778973976793667,0.1019113272736497,0.1211279469776601,-182.38887208159,0.1088458726110301,9.858163264265574,0.1162505633678136,0.2455093798999784,1.0327171279432497,-136.06547596347875,31.617565374995543,14.20495788315578,0.5329151250500272,1.267039782894164,0.2048263296501575
0.86,-46.09741128171595,54.08122640294338,172.1430981738433,0.068815667397439,-0.043210639337995,0.4966338805352285,-107.47548273394582,73.27816049608565,2.6261207244472207,0.2139159274114585,0.2832364618355156,0.1188066996049764,-181.95338009806787,0.2512014509464778,9.77545721347976,0.06914991317464,0.3698579199207591,0.8633561500798694,-136.29530667906863,31.947954762057744,14.191632973310098,0.0476842701431392,1.1044360048562925,0.785439555257997
0.87,-45.87341603863474,53.199772172316514,172.2082148947241,0.0537777613896118,0.1443363465370559,0.6321619306642555,-107.2957835257623,72.29106669904249,2.377486179035832,0.443936102188618,0.5558528040391484,0.471574733013745,-181.58304001406609,0.4733016677837726,10.150903978526165,0.5692422485909884,0.3822609042770001,0.5123798458404074,-136.16952067033446,32.23001282204406,14.100793734171546,0.2298729441277642,1.1151249152479932,1.0432580529273652
0.88,-45.86601275960149,52.20509450919414,172.52546792128334,0.4859663902292437,0.637294267994812,0.6407328236106917,-107.49625093464164,71.48345665756206,2.3340350127964324,0.4910277246634392,0.3762172911610414,0.2511282782430712,-181.3392980280096,0.1680505436112788,10.213569372711357,0.5049675629649982,0.4355474975115453,0.2494821221007811,-136.44913288621035,32.52601368407142,14.14244218897712,0.1317149379767175,1.288477140838178,1.1538254738246938
0.89,-45.98306017110094,51.50045331824037,172.63592738471937,0.1367225841732228,1.023714764648045,0.6334363480142939,-107.42371215559903,70.53928444997923,2.225589959019756,0.2156720364356242,0.3282443508520302,0.3422195814951214,-181.0282292283604,0.3880979139279067,10.535164810882955,0.2128950325764222,0.280525283688971,0.1965848963277565,-136.56430973169654,32.70297035814753,14.559965963218923,0.1072731485976375,1.3173188876407464,0.1520285441331665
0.9,-45.64175918123324,50.62539544336149,172.56476898286343,0.1241300495986911,0.2878388579304615,0.6314789630743526,-107.73809468227944,69.97573239116201,2.2173653268868967,0.1019167996366307,0.289658770683029,0.0829801034165859,-180.7690983650776,0.2402933565658437,11.06607144165068,0.3663419270131298,0.1750411121399482,0.1045174513915317,-137.3121129980745,33.052378494632926,14.81350672602011,0.1984022384341274,1.5770476480431557,0.5405944780968738
0.91,-45.91074405668557,50.0551249498304,172.9763349162963,0.1432290059121043,0.0467228278607661,0.6002826336673537,-107.88727438512775,69.25089843367398,2.159376365784631,0.0946533132440473,0.1755848917097937,0.4625622634837434,-180.74972766789253,-0.1000604721691888,11.30873195019434,0.3973560597466893,0.435254001579183,0.9389130657602744,-137.96197040032723,32.92866311858702,15.188723155089178,0.2611227467195026,1.450932536259519,0.6056201527432078
0.92,-46.05591233273044,48.897992075235216,173.0556539257816,0.0591624248325189,-0.068464453342202,0.4123301253509078,-107.90666908432108,68.53551038158513,1.8510229339456985,0.2848009877605413,0.0861701161311352,0.3160308403761389,-180.07457419846972,-0.150771761594898,11.266053971681307,0.0611255154377755,0.3165027015278582,0.8113986864910456,-138.51083341741716,32.835683647217785,15.563868303573202,-0.042211758874958,0.8248010153214391,1.0086656833464969
0.93,-46.262616257185485,48.16916807163948,173.05203749566294,0.2109105272589179,-0.0040516178852305,0.624516231067041,-108.1023629000636,67.82820511340861,1.982988864002342,0.5281158755637407,0.5146037238336388,0.1033324318959575,-179.70327535805438,0.2245604996149705,11.410972991856452,0.3129333336485743,0.2733526590913133,0.5949474645869118,-139.5021093666859,32.752742588187104,16.159221999712088,0.0055142766652221,0.7565382770858297,0.5930505595136166
0.94,-46.49653988841145,47.56707042688431,172.9280353563926,0.4658164062090048,0.1374484081133464,0.4364715268239063,-108.42068262280392,67.20931884405397,1.9346260045875712,0.539212359302653,0.2711742278763256,0.0844574003288763,-178.9101881578211,0.1059396875166966,11.23721521428429,0.3809199170938896,0.1194529337328279,0.0205822799600917,-140.22236742681346,32.89822595658848,16.672835224362125,0.3462426313342625,0.7754862328160341,0.4542384858857246
0.95,-46.59027780214862,47.19514174705713,173.04223839434846,0.5802762551412433,0.1893597467958168,0.5618536388584393,-108.5156492602012,67.17808384343509,1.9128199719821664,0.1502261415422166,0.4923628296066841,0.2926166119697756,-178.6215427986123,0.1832975277323481,11.427906833044538,0.2573720921302508,0.3851273407540294,-0.0337531371562668,-140.33116354220672,32.77300117483067,17.061796204522857,0.1395987045636706,0.882595469574267,0.6147624091041339
0.96,-46.58018828134978,46.7482310961707,173.0832336512714,0.6411014075253557,0.259357545441073,0.392562845216565,-108.42136367019664,66.57324226182372,1.7805344280437068,0.1428763070344296,0.0275163847804825,0.0627113816946345,-178.4152725753679,0.2140203295069433,11.487945794186675,0.2691065747530535,0.910265765215661,0.0251031371835397,-140.57364432079643,32.898489397238635,17.273711345322305,0.3179285541550586,0.8301002531958261,0.5393408185514964
0.97,-47.19212706329986,46.12601898554929,173.18929623031613,0.8657891860700411,-0.0984296853442959,0.1030272446840301,-108.43286605388133,65.8306522641439,1.437072325595888,0.3096050874857859,0.1079396524022364,0.2897999832617308,-177.9651198795314,0.0329516812294863,11.700671263048935,0.5103453228040917,0.9383029636173408,0.5282063826140297,-140.97707024642992,33.04732048069418,17.53611888814011,0.7303901168749849,0.9776920442957272,0.5578027095909412
0.98,-47.55440978692999,45.405963174506645,173.3912887048943,0.5288119563489831,0.1086663618188465,0.3629034867205237,-108.36921530555236,65.18185944481017,1.0511633815255952,0.5957311339803655,0.1468745714477108,0.2064207731743804,-177.22038088816146,0.2135316427537442,12.163302040825192,-0.0822896913476649,1.2523370861889065,1.0468670256057755,-141.34046265167666,33.15720131934169,17.86265334371167,0.712165645978349,0.5462086254953382,0.5985482311876118
0.99,-48.087696753409936,44.846508803985344,173.1738819962665,0.1282311631347706,0.0607595669544463,0.4596016532320667,-108.38209702283956,64.20097253484737,0.9580392396769188,0.1214340303620203,0.0528117439091537,0.2968060466580459,-177.237419132326,0.1501127381406329,12.352837835774997,0.3628978370499183,1.2301268769724367,0.4923341570534859,-141.78925742429055,33.375409214239944,17.384817619315672,0.4802963546968019,0.2626051972978782,0.2887694691094609
1.0,-48.07243908319143,44.45725073614332,173.1976932640808,0.250908362566108,-0.1774683012761464,0.5489734419163201,-108.21145760740322,63.73772923458449,0.7100006313676376,0.6838474628753295,0.147782968235017,0.2448199932146136,-177.59194928235567,0.046674770351851,12.963798734913276,0.418283308327148,0.982770556669826,0.756889283995891,-141.79732776336192,33.54336544601066,17.36598804869071,0.6752179088589761,0.2891671023823281,0.4994371712306321
1.01,-48.28494285883949,44.08054806448562,173.42831978299907,0.3963899724421666,0.5669239814676234,0.0909038580489496,-108.24763726239097,62.89039078204272,0.5379945091186087,0.9790956687544922,0.2364454951107729,0.1802138111128244,-178.12124887100146,0.0707573610633921,13.24918768166763,0.2668935390667566,0.4892308971440309,0.7142185008809007,-141.63994031286958,34.09294821221561,16.820185784534118,1.1377078908353344,0.3989722469021222,0.7875790757957328
1.02,-48.408567981859264,43.63828248588361,173.66296567341686,0.1978807595770763,0.9394188460237544,0.3137554028933282,-108.3281884112436,62.18081929057583,0.4250315465358306,1.0380503827126664,0.1906062008374595,-0.135072445665724,-178.74583121285949,0.0900826294158313,13.522874390483272,0.1896801854613725,0.4260460506363687,0.1396574088103014,-142.11658983011114,34.06173988389929,16.168020969891746,0.947620012598118,0.7443790439186959,0.9103924822368046
1.03,-48.46036985987358,43.37431471744484,173.62436592982755,0.0477616473251367,0.5130404878276866,0.5110884599861522,-108.37331661720152,61.95550654883722,0.3205937123581521,0.8594849613683035,0.0553934862927431,0.3251500527771169,-179.22294855862864,0.232315108380274,13.915438832305124,0.4501958855769167,0.0050313759173827,0.2339009015432347,-141.7154023305614,34.01858394107113,16.084281836546314,1.203803069751466,-0.0095483322144283,0.4010101322334555
1.04,-48.90828648783848,42.5404284067901,173.7542670461135,0.2511009962673141,0.1635648895519637,0.303877866412399,-108.42539370873284,61.4431666144551,0.5078688933493213,0.9302105919404972,0.1923795894856033,0.5331057214918561,-179.88516042989338,0.2075207306594551,14.23801172658886,0.0878588963438544,0.6908637446058211,0.2232600173237551,-141.98549402666848,33.68277474208683,16.0680764071142,-0.1883289303085311,0.4085161322740138,1.1163433033746688
1.05,-48.94672242591448,42.11285498336289,173.98117332848295,0.0224781379595222,0.0937625682821086,0.0485840443783999,-108.28300128702352,60.81683824239722,0.3358149975270819,1.3769730014316028,0.0304244436560698,0.1341481775485176,-180.1762104779015,0.5995600191322562,14.477057867195033,0.3867881033603773,0.6887785317943604,0.4656622213390164,-142.43760428791003,33.436275754119045,16.214779867308636,0.163753713735304,0.3843891249679219,1.2829597525021863
1.06,-49.20746741625992,41.47493666651293,173.90048627191814,0.8695221331389352,0.2194853247633487,-0.0506284877909069,-108.01677471196926,60.53333119610626,0.2860349392116825,1.146418933964498,0.0056413810290668,0.4787046796936793,-180.5112627399738,0.8095142088678604,14.677368280866787,0.5864441385761896,0.8808685032434598,0.6514241206045083,-142.5432642306873,33.084186741704976,16.045637327048865,0.5352532739117561,0.3564496458515552,1.1633319589305002
1.07,-49.49753661118988,40.83243700844847,174.25650635674563,0.950257822769308,0.0572048954025064,0.1516182866230898,-107.92690028653344,60.24720743624039,0.0699129697931785,0.7516917686500003,0.3163407979330532,0.3653581151074711,-180.73471393754485,1.0842370480818198,14.74379379733358,0.5016382492114239,0.1535181419972431,0.0794647034085632,-142.77936873327647,33.03326044748131,15.95037197356751,0.303667932802604,0.9912163974914088,0.8431862934771289
1.08,-49.37359319116863,40.34941285419218,174.1597836916967,0.2352379383207415,0.220894653305899,0.146838665998,-108.24259555420142,60.03962478376869,0.2033804352526572,0.2891367263222981,0.3899486155259042,0.1343669289357776,-180.4805847087385,1.2312691081684644,14.631316097660129,0.3509207209370436,0.0845921361324473,0.3311447623714034,-142.9674629709551,32.77541899156482,15.703801669198374,0.2656926197868579,1.2350775530788307,0.5620365312938284
1.09,-49.69404532163372,40.2473603950401,174.23421439529616,0.3379251725436278,0.1944920823243912,0.2419471394373699,-108.72358375737272,59.7203485264255,0.4163479313416179,0.4438000481361164,0.0250184133396655,0.1159313942486608,-179.8127053676901,1.374522341368772,14.590977744818884,0.0973393112103023,0.338988175828505,1.0893454947279295,-143.76488959320824,32.57755126091716,16.125674245300942,0.1843908222404622,0.1180449584031193,0.2988303651842124
1.1,-49.67028015955682,39.93937537934183,174.19206046459885,0.3465707734630377,0.2081580416489162,0.0473596350587379,-108.76353109995271,59.05921225643284,0.5047383330060801,0.3900386012846991,0.1016602299246482,0.3387159440014334,-179.29915328127402,1.489524741568894,14.447364237869596,0.1943596665033071,0.4566232229059963,1.4197314411314894,-145.18036772654884,32.20752048749564,16.130290734953256,0.2161581444974971,0.5536772425704793,0.1025836454093575
1.11,-49.822574605611614,39.43327634316815,174.24201912732417,1.1494056715493275,0.2215142395171954,-0.0313737175242577,-109.01513610904992,58.86926477554536,0.6935733722512262,0.0686504453157785,0.0872326503184382,0.2447094579544194,-178.8755566899104,1.8008311619876052,14.467039651118556,0.177717429064843,1.7505384299522844,0.940386122488716,-146.21253172946604,31.81594663973617,16.649937064218133,0.4906615876178308,0.3969982723460616,1.9125990108820168
1.12,-50.13794558757345,38.84870256660613,174.34009528346184,1.1586431748924166,0.1498455623046416,0.3268473431533337,-108.94259556101449,58.632289351593165,0.5224745413095093,-0.0295800449285233,0.2671155848440419,0.2093532959126151,-178.72737683336334,2.0360015722872933,14.46336642766948,0.4815681588228094,1.4681785318946443,0.2238867221615028,-147.21637919139823,31.182909207202783,17.049095311522972,0.7258947951497405,0.0246537907672085,2.045932405735168
1.13,-50.08728860405104,38.50713893408837,174.05285348308414,1.1254751971909804,0.3270824207025173,0.5142597333286915,-108.98039435972844,58.4223995371604,0.3496297052244876,0.2982841619885666,-0.1380092729989218,0.3727357906931453,-178.61803860231777,2.3685349261358617,14.208047820354654,0.5727001383853287,0.9871788377069924,0.2805816674150561,-147.39936073794286,31.17291014482142,17.578761600728154,1.4121472093750218,1.9291683657496184,0.554264518581858
1.14,-50.36784877313151,38.375947279271806,174.3051926175716,0.8093087703774531,0.1858148247632643,0.3666363940152082,-109.07691903834552,58.3332833270291,0.1231244968153022,0.1993652581870257,0.2840030181668309,0.3627881817227761,-178.7511028556927,2.3178837752699195,14.077311382782312,0.8131384119443377,0.8207616217281447,0.5996441974981129,-147.39448005587042,31.192976148127386,17.74053362085321,1.2550691525115742,2.00203354539554,0.3486449240522828
1.15,-50.13811340490548,38.27914495284604,174.40609439499676,0.6614341808750231,0.1214067987669433,0.2221144410348899,-109.15212799133236,58.05752645605696,0.34589584134803,0.1173754294916737,0.0171282712533609,0.5073291872043066,-178.79642658638429,2.366605175233369,13.851348012578145,0.8883419907556686,0.2419621117024509,1.0414935381665127,-147.5842442411417,31.450811556566112,18.10376093964095,0.9839113880132118,2.0528076829702626,0.2365857243410532
1.16,-50.40489894760195,38.15001635652565,174.0398470194975,0.5414953881786491,0.3529538570436968,0.0592486988307251,-108.8649479065184,57.67436334608794,0.3473988473481993,0.1263252345039054,0.2523895674944839,0.5659534364672842,-178.83996176864832,2.3946316920036086,14.014007024179746,0.6719318019932845,0.5233263613188358,0.6903940936550865,-148.01637859904588,31.501348264250694,18.324535433133853,0.2170775865103166,2.25919853754508,-0.0420845790656051
1.17,-50.342670461397056,38.08421435691512,174.02653113560882,0.2326562002295215,0.0399717034406699,0.3054064969472455,-108.7562390526572,57.2126687664247,0.0873212620158205,0.4990072157762755,0.1245381493562246,0.6947470547001264,-178.81413851553378,2.461716212538012,13.834694855909536,0.7079244253363813,0.5240563234884176,0.0608819376418519,-149.04065049116045,31.103435724992288,19.19228512702233,0.5519482452536496,0.7764787197451578,0.4171231026413071
1.18,-50.50126961650861,37.99248741186658,174.02286717612586,0.0615225196411566,0.3177989897339002,0.0922434783357465,-109.06286895565891,56.515319051821,0.2641392423279704,0.3408727151579895,0.1671936128997228,0.9328466822979644,-179.1514023004753,2.241042986986966,13.76380661744525,0.1620231999918957,0.1922483018959428,0.2061774006834601,-150.41663871963783,30.497413481069763,20.42415969980452,0.5476068402209237,1.202529469610302,0.8011633831873936
1.19,-50.56028567948896,37.68893343990301,174.08264304437276,0.0119502651618819,0.1825712930299543,0.2552228721848424,-109.02735125009416,55.85704417178108,0.0518672032222349,0.178232865230896,-0.1652303223920008,0.7638913392230516,-179.08626141178212,2.047478405920732,13.64448324543996,0.4623186454979332,0.1369592446064106,0.3102157351419571,-150.5499005283826,30.13391349608414,21.279943121527342,0.0596655122672661,0.8642791789084654,0.2339269098204563
1.2,-50.82728003160203,37.63161775079182,173.864446783501,0.2970184632306413,0.2264417437518157,0.0507942331434989,-108.75066206328644,55.41217753038796,0.0001700341100656,0.112373452076066,0.0221861956522056,0.4314916623857927,-179.71902195066647,1.936457213715128,13.280849440138264,0.6696585139817455,0.5425385663738812,0.6922133892084424,-150.63480426899008,30.11458590353718,22.117092889924034,0.44881035771836,0.6354425300096685,0.0405550112242975
1.21,-51.16496508469609,37.50436956628821,173.85493172308583,0.3777008517155612,0.2001704818190909,0.0070745504926371,-108.70017567524776,55.13552059440871,0.2351068944057405,0.6804620276825014,0.0518309695779992,0.3232889049674917,-180.35903879654268,1.8881753348363144,13.271437364651865,0.5121981447816212,1.588451222043644,0.9707511812019584,-150.79070435774074,30.071964929047308,22.503738282440164,0.8341989397729397,0.7842376039973534,0.5487859052890113
1.22,-51.12264594656485,37.43852054538512,173.55344913701276,0.296506462217121,0.2775784938008682,-0.0523298518995155,-108.44849025243086,54.704531337602646,-0.0283163619981097,0.945103920524472,0.1340253188857168,0.2296821907513188,-180.72072829856907,1.6573954669597026,13.592638853433336,0.3333307284949063,1.7957511449250114,0.944831662037031,-150.70539923930698,30.26290952887896,22.634740012271056,0.2558553321367653,1.35556132023557,0.4255775187291461
1.23,-51.178349639680114,37.33605846768819,173.78972724462494,0.1623646824839236,0.2891455893007827,0.0943000108526638,-107.76637685056146,54.54455225701217,-0.2139620271885488,0.6419880936831442,0.087477643640515,0.8714583777677962,-181.61501720863072,1.6013641146705635,13.052760321951665,0.5739876372962315,0.5163011138888102,1.1422231172452202,-149.94111909443603,30.32211437439427,22.82082928804636,-0.0446384300746526,0.4801707527321661,0.6620082312439077
1.24,-51.14422231816841,37.28951629285287,173.67398931379128,0.0750856825449124,0.0269965761076063,0.4582929513325591,-107.3259369745234,54.3251944035321,-0.4383828262125417,0.2546124474936043,0.1667518368029442,0.6916934537501009,-182.99609742060755,1.6716637958491407,12.588094377836976,0.6032252946721723,0.5372441376415945,1.1273596788122195,-149.85197947453224,30.58957605122572,22.9494856674576,0.4971337834391183,0.1291125652865294,0.3741558072024203
1.25,-51.03776253226298,37.11768456588514,173.78557946402918,0.2762498449142209,0.0544802323028826,0.6728909723984892,-107.05931098425542,54.12026776942478,-0.3893015563544909,0.3114033954273916,0.3125650204924212,0.2751993629669054,-183.41380341354107,1.7677893258091029,12.614500331019748,1.0658250873260022,1.6621611168368653,0.4165713340285376,-149.39589463695742,30.551299020038577,23.23769308100472,0.6923099915393374,-0.0603772862585599,0.5546559179725449
1.26,-51.01204309254906,37.15265124599074,173.62236095072376,0.2857002533288055,0.0538759771796857,0.7030966594236412,-107.2920386694936,54.33164133679063,-0.5385543751799122,0.5523692797429529,0.072155600561612,0.2403232186392403,-184.8466014173589,2.1028757905178947,12.390450042675557,0.7374962157485792,1.2849746027266953,0.2774870068400089,-149.2057852243066,30.676130455274155,23.615257821274128,0.0511026329816905,0.4206992842290313,0.6129320885245231
1.27,-50.89671480955907,37.4274913626723,173.6369601502007,0.5003021078468615,0.2668515954211177,0.533706424597086,-107.0526908865402,54.12957276039796,-0.7647703526569676,0.7056371869996546,-0.0730218344905899,0.0082593367612633,-186.2377822547368,2.035702283357889,11.950543010531446,0.3603522085350537,1.1091480495196513,0.4941757983763314,-148.34475662189277,30.767967054156696,23.770730387735377,0.7487162134541744,-0.0667112938676451,1.8411387317600372
1.28,-50.48140863296043,37.72136013273465,173.77992393708644,-0.0153457957589275,0.3524888169698795,0.1444346120118926,-106.54362890952775,53.77478631888432,-1.0744807159926548,-0.0301168043953345,0.1572428669605045,-0.0819344887647089,-186.95304009178588,2.443583959826837,11.656435126826398,0.7631288757482019,1.2006752960126248,0.3291811169454208,-147.04589162937702,31.04524561203405,24.046084299783743,0.5376644948180997,0.7259601595204729,1.8837039330215724
1.29,-50.60519260820298,38.03846055493098,173.7398189553778,0.1772963667108746,0.5334175416793578,0.1627239294849543,-106.010612112172,54.17919719528335,-1.3926815122093656,-0.0386367931576584,0.1630642716610107,0.2088373940534992,-187.8286642528465,2.806864730533588,11.647923769013651,0.5904457285530309,1.2463090148942304,0.5097832324577894,-146.70894628088064,31.31550515572788,24.327455208027683,0.6889557062064627,0.695739536088912,0.7771648739626281
1.3,-50.32701977101541,38.30481029546127,173.935634383646,0.119277082344286,0.0245688224441498,0.0238855395266695,-105.64908096694248,53.988850302571045,-1.3293999851256526,0.2988633265508416,0.0247661960827972,0.338136353149591,-188.18315506512823,3.1234313775510256,11.375773464684642,0.580095839957015,1.268992557420244,0.4090161533210826,-146.0304653347008,31.616874073038048,24.8126981616404,0.5669226398601427,0.8249023079467964,1.3271645132870922
1.31,-50.19053340745872,38.29444436950267,174.12299470530877,0.4587633110659442,0.0282790878939646,0.2686574323191495,-105.75075263064612,54.02262508884211,-1.5323598196563546,0.3839980122964962,0.1597408841626914,0.3987242964321773,-187.8117403574761,3.4871334660409827,10.96662841510632,0.4674887313125409,0.6213360703469067,0.7013370642513594,-145.283921176565,32.27107789552685,25.11987177250288,0.9492451926811416,0.3101088328055478,2.153101187806361
1.32,-49.95591395806672,38.51303399085902,173.9221041622375,0.3210508648279565,-0.0360393169614214,0.3936512081347825,-105.58193987250156,54.16771674988526,-1.523042377658682,0.6664442622584669,0.3169309107851886,0.1846942163769578,-187.4723481408304,3.378655134559343,10.671399549335987,-0.04473243026278,0.6702981687797264,0.232141095592886,-144.2790012138676,32.74701414169303,25.68870263038989,0.9807843778763288,-0.0003298425226881,2.1944862504181253
1.33,-49.804522304221294,38.8379903966131,173.92514861326293,0.310837066959219,0.0033901231792353,0.5392422573247395,-105.261119535209,54.29768486859179,-1.6032749243769049,0.5285204257565703,0.2746174092949173,0.3440727508266817,-187.0423321344536,3.3312065072689734,10.357349032475067,0.4027416697849126,0.8220480480996396,0.706126656336863,-143.64035894447684,33.106635132166375,25.900572755266825,0.5004898764464316,0.4266580361180856,1.6425770829339363
1.34,-49.84267452962089,38.77848105377905,174.14539726896265,0.3218165303374933,0.2898220816010696,0.5463345646812185,-105.19980080916272,54.355864583643815,-1.4038877223162878,0.883864185443471,0.3818436877748838,0.4944676983714179,-186.9533535902696,3.5726208919943576,10.321459614404096,0.6323015485399652,0.9485527523926136,0.7979565051183399,-142.9662940846847,33.40295674848383,26.207650344413477,0.2702786246614983,0.211072946909976,1.1892436423815276
1.35,-49.72826626526551,39.19000748384055,174.3628114080092,0.1086681648514782,0.3978009907891815,0.8809823778557825,-104.78547567757715,54.5996597466505,-1.6794420560150258,1.0911905592601965,0.4403230319539102,0.7900279277998494,-186.87843536263125,3.674398281447069,9.885623247425604,0.9992500009134764,1.229394717370004,1.2407769920897596,-142.04557812033582,33.90952382771771,26.677024359065527,1.2935463449200133,1.0116591210467611,1.7621075982309715
1.36,-49.65025382438361,39.45769874522964,174.63231569816094,-0.1880897211732962,0.2997251522217096,0.4629906373645061,-104.51978855849885,54.89245470564238,-1.9761956157207663,0.6996727440235992,0.1534151028715412,0.9869767921751864,-186.4911799839144,3.6255183739268544,9.669584780759257,0.371984278181885,1.1189093782080457,1.1706903356144072,-141.37705738364997,34.64869409702997,27.62865973967772,0.7128173407732734,1.0267265190389363,1.870704847787681
1.37,-49.50970857717238,39.9008827651614,174.95352623011473,0.1304115996722832,0.0615938843630691,0.1975488749154374,-104.54948961921934,55.59105279663458,-2.178874465026636,0.5995265302062834,0.0049404894292415,0.6433601766211231,-186.63206390896647,3.9121619050149774,9.162027487343169,0.0362856578579921,0.7702777508269374,0.9498703758689192,-140.08416255342905,35.3976273610343,28.444806170615657,0.5308924019027218,0.5557171670795844,1.5753209778718584
1.38,-49.49899866405857,39.82560519176219,174.9045898728319,0.2971115691301011,0.2236700594407963,0.1158959842541487,-103.99592710912982,55.84570400043927,-2.4848002561443505,0.9985080358355573,0.0057384547925853,0.3913487548168863,-186.83196303567965,4.268314854870174,8.743324321317052,0.0778979474278957,0.8445963550236524,0.4405958982074325,-139.03403920955168,35.9798527016804,29.653542735826694,0.5735890581528557,0.7246758664190103,0.9759986796504476
1.39,-49.16053772220135,40.23783463392721,174.8208154006118,0.3553228858341218,0.2950478313887265,0.0522416827523476,-104.02237780676394,56.319886925222406,-2.595843566088343,0.9498371993559666,0.0451813006353235,0.2991840336362699,-186.9758110718442,4.584513442955817,8.521461488045368,0.2557168571832026,0.2912737915470363,0.5981646323153973,-138.15472928294048,36.880633798055136,30.64264131382858,0.253267462880381,0.7730139074587413,0.9792108160113846
1.4,-49.05285338088601,40.71727049563967,174.87442889121857,0.1889889899522323,0.3907969511131041,0.2133782058703847,-103.82405644737958,56.79284543281095,-2.549807784648457,0.7631533868837127,0.0641697645431871,0.2605826960973043,-187.021580594768,4.9324845673895785,8.169990346322148,0.4127457609129756,0.8754899532668285,1.157808836340752,-137.40920688840006,37.535052920775605,31.902685596294504,0.5124316643374967,0.5539966053339884,1.3239220453095548
1.41,-48.8931681277148,41.09674501316291,174.98833917249277,0.1031199818254768,0.520706856153882,0.2076850203311895,-103.66552240143916,57.64397979881218,-2.7682625270191403,0.4385842759531113,0.1061792006105439,0.2535167029735228,-187.04543072642687,5.464419574396289,7.840799040230911,0.254188783376984,1.165462089917265,1.8156597612686776,-136.83988297404616,38.36661465448378,33.0480617524935,0.4305911846235459,0.4167831562059884,1.6983154452761522
1.42,-48.79611936554747,41.447670263994176,175.12410403270562,-0.0658801102646012,0.5897502503179497,0.1697352763042047,-103.364873335919,57.978129591346544,-2.59455064564408,0.8378785210402503,0.3560292110397244,0.3078784640932356,-187.41008633139404,5.530118604801569,7.310968508123966,0.2963428047458952,0.7018432057991243,1.5020673327738274,-136.5163005795224,39.17888701406015,34.470193239104844,0.5089071828245078,0.6119316538086907,1.6149842352160024
1.43,-48.58908572141649,41.59400437720548,175.2747717079274,0.6704877413525415,0.1630456100107267,0.5965453822382756,-103.41310344224236,58.75907204581324,-2.733131342704127,0.7318879929178628,0.1744786047590301,0.0298615438000551,-187.3650347448035,6.359142942440417,6.698841473713894,0.082286911560539,0.4561956044124837,1.1679995763981157,-136.0492276529405,40.10108904199125,35.863779015425806,0.2709566482034233,0.3984051607317928,1.370789033100262
1.44,-48.35534538187462,42.01599584150661,175.1930821322171,0.9092490688347614,-0.0425562938578903,0.4467865690888127,-103.37519855142617,59.41786298019853,-2.944984963529141,0.5291131675786146,0.2020407843633061,0.0755766665864948,-187.37978100750328,6.907519997679582,6.057223916024777,0.0683771397074128,0.4174686665492569,1.2299647621187482,-135.64870535894983,40.75231450854741,37.33671780145288,0.2632407309374986,0.1726535290814889,0.9367968749549036
1.45,-48.07539443577687,42.24252579953674,175.57734062537747,0.6060169809167051,-0.0103199893525079,0.2650949923369127,-103.36695932976038,60.06701512106379,-3.0284554452531984,0.5725902962779169,0.0171456993008644,0.0579107639792314,-187.23790271911875,7.636131630904376,5.721432788869192,-0.0559540442251176,0.4812251852754196,1.298924304686468,-135.12749982909793,41.818610575865215,38.16532286270777,0.2648626924421778,1.0989678711096198,0.6141736629900632
1.46,-47.76276736549399,42.9272282021438,175.70491105786962,0.6578040908858279,0.0013194927463633,0.141573349440526,-103.23581651143508,60.76351525615342,-2.809586983925059,0.3446912189898375,0.2704187084848405,0.5660624095408191,-187.83969191873908,8.259676010626634,5.354920846444515,0.4607847692082013,0.2457518443406162,0.8535939100683194,-133.2282625201297,43.02544361600862,38.38150466537508,0.7829291197117971,1.2767058404772749,2.606085947342914
1.47,-47.80096692342168,43.55416334418693,175.73312351810617,0.2634215854440673,-0.0398593626837128,0.1240715703921455,-103.30686364606782,61.87027148972485,-2.8851664290673265,0.0732363517452544,-0.0588521760582365,0.5435131896791279,-187.7972762528178,9.055149317942163,5.156024785886786,0.5914223680286325,0.0722374896743054,0.3933498654561335,-132.49054750739194,44.53208146770878,39.46150591072582,0.929287239882538,2.944008223245782,0.8417646402890681
1.48,-47.45184991973525,43.91347457909317,175.78465241549952,0.3790071726702632,-0.0859119547507732,0.0334895603046851,-103.32873477548262,62.71614684230292,-2.759123040563974,0.2503535702573342,-0.1070408757798135,-0.050224666784548,-188.1918571740329,9.68079528666967,4.791422123949557,0.4484496124124802,0.5968954099066026,0.5764228433024492,-132.40116583961924,45.09834865313104,41.92072154644016,0.9448231271006564,2.0366280768482063,0.6734275827027855
1.49,-47.25506566111118,44.60554180094348,175.4992827282537,0.4962825857847174,-0.1282557170566549,0.2101859599761454,-103.12700930983029,63.44753740178411,-2.879993013487775,0.5654147652338369,-0.013086191091588,0.2107402484615768,-187.9760801611077,10.08680223123731,4.607933492701707,0.5642612597766833,0.64783467918922,0.6822921079106012,-133.37028565042172,45.67105868116736,44.18192139968268,0.9080167383796682,0.5817580813220611,0.1768933427481937
1.5,-47.19743739970853,44.9572746324361,175.6043996958311,0.4639737103145172,0.3502203512804066,0.1976702909420653,-103.54346299741778,64.4694290291557,-3.115061574808049,0.261864710747408,0.0766621079201994,0.5901914850434142,-188.4568849056042,10.670297171869002,4.440959092249928,0.3288799105711761,0.8961112212809578,1.2177397442761944,-133.18616310975162,46.00232557897992,45.09835636496815,0.8628981444830369,1.797292183517956,0.1519025544151143
1.51,-47.05687539933295,45.72165675242911,175.44363180015046,0.5798177696351942,0.3095984130402293,0.0830486193905248,-103.50475495356169,65.45830833328436,-3.019621790947299,0.3974180863060151,0.1017021558128048,0.5217200411248023,-188.48641876327116,10.81428464473182,4.42145474685589,0.368642947981036,1.199864003202315,1.0817467435859245,-132.67091371397825,47.09418236821869,47.030733378206655,0.5998956745979979,1.6386000498101152,0.6336992236236101
1.52,-46.94875614326492,45.86903062027134,175.35667435831317,0.5619899145530618,0.6066597291222879,-0.0958575887058215,-103.5322253626189,66.04609663182646,-2.87249805161625,0.3242100906573203,0.0756521551679098,0.4345458007251497,-188.728192885968,11.26079350209222,4.301223603448577,0.2128312816280786,1.3885799169593993,1.1007070128262568,-132.41843548794483,47.85287371786944,48.02139315435671,0.4513365992175829,1.2654464449177505,0.9127961437870936
1.53,-46.78403914290224,46.39731558211129,175.46687504768948,0.1842790889933442,0.3878274722005689,-0.0021232518841136,-103.66781205098631,66.82961521003391,-2.9493926752576733,0.2783222544503652,-0.0323564093563572,0.2137005346723864,-188.77661376864611,11.683483639753362,4.158494427401093,0.1547162599498576,1.593614581509037,1.180027164092968,-132.3585205955547,48.21687857148672,48.84317488242556,0.0745532508796975,1.5420516143828624,1.183147252740437
1.54,-46.35099748847731,46.91458359481239,175.3578952636497,0.2032341991477353,0.5231456682843376,0.0576170291109026,-103.79659327518304,67.72298334283539,-2.988869398738135,0.2559778826764352,0.0054837200860968,0.0804983569356119,-189.66617102510008,12.005994697121912,4.159112695344087,0.1484771527068958,0.9530113093526236,0.7854083248811418,-131.73005628915607,49.50695026974163,51.08825574753413,0.3590393910832046,0.1049139728093409,0.2138563082378699
1.55,-46.10823702217107,47.73806419860288,175.36851451119668,0.1274878053902364,0.2733800475768012,0.0636828733825368,-103.83252111423393,68.7300449489995,-2.903367161187951,0.1349236867401394,-0.0421087191243537,0.0864474448268265,-190.7100022608832,13.008567173808736,3.9139570184346058,0.0258243540736135,0.3830145836547038,0.3980640045108711,-131.55349201207295,50.52685341829704,53.05524479846676,0.2332526691580227,1.1624090330794024,1.2801974173984805
1.56,-45.62300760017597,48.30744230466059,175.5558654558375,0.2333719777349517,0.1432117084221984,0.026981479819109,-104.18968710149692,70.02943727611985,-3.0178848045614317,0.372920703160114,0.1848918697542955,0.0414320545188649,-191.6132208650227,13.826688512546433,4.373235421974281,0.4174199715450394,0.0655403733636726,0.2617236556205466,-131.10941918451397,51.90678369446093,55.72735209802398,0.9551456067152372,0.3963392938857442,0.5104432229897808
1.57,-45.03007228023981,48.91697730945445,175.4632504290652,0.1681110523044358,0.1441397843897289,0.0573831994479025,-104.01493956815872,71.17886541775209,-2.9766042894823164,0.8103471813201462,0.0109458923627466,0.0540848336323213,-192.69841544299115,14.263880772076034,4.361330826668161,0.9131004175932236,0.6103562599655658,0.6641672539541381,-130.9207843745696,53.25234492045294,58.55869445909428,1.5574527525270714,0.1009466763972092,0.7143486586520268
1.58,-44.47095322584524,49.71580300662611,175.54768184453968,0.0635278165080709,0.1499816488327409,0.0435942592333337,-104.31380215265914,72.3083000914837,-3.044219353903162,0.8762016571941083,0.3949840648574828,-0.1089809010615847,-193.4951919342181,15.0482917322194,5.014422407597133,0.2620027948888076,0.1187260011033367,0.1595067546850436,-130.58912913076406,54.66237984250667,62.0454451476391,1.118628031609173,0.5869052892769355,0.6581909672332814
1.59,-44.37014122080738,50.37426251040209,175.52181570663586,-0.0389317067847833,0.1544825808943116,0.1012260619607476,-104.36693190977417,73.47426184240015,-3.047068521844926,1.1853010755548494,0.1704482926751664,0.0970080377100966,-194.5641586066688,15.9418250063736,5.288092595689513,0.2518507900816619,0.7249738926452892,0.4766764729755328,-130.58587152838751,56.33187495639993,66.26112876746086,2.960954699502921,0.975781968351716,1.1560039840045997
1.6,-44.26379811411661,51.4404391852652,175.12277335035756,0.2006878898228472,0.2151640996491956,0.0228034581885198,-104.52051303372832,74.70573053651053,-3.0442243544865994,1.041686030244006,0.167601576682053,-0.0251643081970008,-195.6299788543332,16.55470397659806,6.090751200371134,0.7677677896402558,1.025099535005093,0.5869997132251917,-130.04546124601777,57.49076024329801,70.63578187790898,2.1424767498797155,0.0546663868336224,1.2502737228685168
1.61,-44.478763559242594,52.3255742835637,174.82019722013925,-0.0199260866393774,-0.0626185802329139,0.155576903881526,-104.74296324073156,75.51469814435993,-2.946409150634598,0.7596758731648562,0.3538484150432567,0.0018650830580273,-195.85849813584105,17.37193646642976,7.046978819178876,0.6047032386298512,1.1319736588268363,0.6840324346859604,-129.54546424655817,58.04538404991795,74.86202951476895,0.9641901243312744,0.4452327840655491,2.0615044150378523
1.62,-44.36761717843016,53.20845060239165,174.45010522144833,0.1372852510773284,-0.0047454377901346,0.0034344808671707,-105.01681480636226,76.610110547499,-2.8095330348743355,0.7055818642402606,0.3344197610636605,0.050439808066152,-196.40896562617635,17.99544171304945,8.044101883191143,0.5225670850126841,0.941873819614271,0.5645816235065102,-128.7239066872373,58.58454387092526,79.56214894569571,0.1430638746065039,-0.1458564389783661,1.287291960643991
1.63,-44.54575542398682,54.388935299270194,174.43570560634797,0.8573198683545248,0.1731705747784647,0.6825479774809255,-105.06793274456476,77.62758438628407,-2.504379717078402,0.4026316249057995,0.0906630579894009,0.2205514248603475,-196.56439952999324,18.56269055324523,9.251893745375034,0.7422368007980431,0.789009777529923,0.436554354885891,-128.56391416633255,59.286990461600745,79.46258991553638,0.7038917824673125,0.8886499710637371,0.550843843722308
1.64,-44.41587878471797,55.735377222970754,173.96711043880325,0.9784504130553092,0.188160977940944,0.379938535055506,-105.41245442476902,78.5631087931378,-2.636469465985103,0.797600458747182,0.1567891366377471,-0.0441085451978845,-197.31664566016488,19.06543009737917,10.23237109978189,0.6626188500620227,0.5597355009308739,0.4560949079775213,-127.84686741641912,59.98985260752226,82.48825214503437,1.8698407244316144,0.1465836904958942,0.6313443533457492
1.65,-44.61239435522701,56.67289223812531,173.7669676796105,0.8877955186198261,-0.0548878590007393,0.433439771094931,-105.54462750943296,79.80499385624633,-3.098142837921638,0.6690894002960351,0.3989946511268899,0.4852927805414267,-198.06962561368488,19.36869030020132,11.677530604916456,0.6921194122191123,0.131790474134926,0.8803226557141393,-127.031729285073,60.304272740089104,82.3659595357127,1.179588979813075,1.243439862945274,0.4676340242576298
1.66,-44.71626781929125,57.632141491242486,173.29190682448518,1.0799883625326092,0.0209315157022397,0.2732647535246724,-105.47729085910068,81.07748624583901,-3.68515679826715,0.5457411171590898,0.1209227786080004,0.673366767825913,-198.8470380798105,19.54216401649129,13.289798553351492,0.1504237698163759,0.7968198166637879,0.6466554536049243,-126.48183780439788,60.98866772125755,82.27603988817152,0.6185529643701942,2.136478603434106,0.3790796647093896
1.67,-44.60948627862297,58.61699233821315,172.83199293758946,0.9618502771555796,-0.0163931962903769,0.2415566825519451,-105.55155928618028,81.50858636190644,-4.693812782760491,0.2503044286928148,0.3854036266698165,0.3758963330213303,-199.38590166847047,19.616659692326024,15.165439989124463,0.2232216878867824,0.647902488838558,0.2766950230224812,-125.5651437893145,60.81119908293575,82.27396753155753,0.5949647345909687,0.3841422986237865,1.7150004903477698
1.68,-44.946741821030415,59.56447294504162,172.44293827257653,0.6577346409313488,0.1371287098677486,0.0524710460860507,-105.50907953030162,82.09011515777323,-5.519400965267949,0.1552334294343371,0.2343020608027375,0.2872285712204462,-200.5398398688368,19.900813386766284,17.25099393896165,0.243017578565202,1.4924255710004035,0.5842265885294419,-125.4693256840718,59.77270681457348,88.68740664217867,0.687585513052454,0.192118740088394,2.213884105081045
1.69,-44.9705738625126,60.203134186103526,172.14929398346666,0.5557418821143958,0.2963318977272218,-0.0072224153227293,-105.28585202571382,82.73398546016081,-6.27419096726262,0.3876066686113595,0.3425981255730383,0.5959903239928779,-201.85875001776577,20.24735466037416,19.69260657324204,0.3634488522294746,0.8874731787952475,0.3130743649465393,-125.169105030982,58.77801510648624,94.4335745169921,0.4107297121768085,1.3369170887826964,0.219956614852232
1.7,-45.17347615583438,61.20785800475967,171.67110760269406,0.6729170434332498,0.176867164938644,0.0543967472030778,-105.30807790359248,83.08541309710682,-6.313944624024557,-0.0219042968141912,0.2017127054261773,0.1960496366915238,-203.68882051365327,20.35117692182514,22.16446871436031,2.2107322373332523,0.5201994410934532,1.9650677272282129,-124.12967164940436,57.91771735605541,99.60024991588293,0.9530104575095985,2.247140552732517,0.4636399837691449
1.71,-45.39683066146102,61.61337369592096,171.55345775799574,0.9553753359937772,-0.0218856210020169,0.0264587117296811,-105.08372170704024,83.52393530248008,-6.365804878114299,-0.0222472213864413,0.1344848931863937,0.1376745092358691,-203.74377440112343,20.292160787770197,22.91034093168064,1.8306629744186584,0.897586122491727,2.2739701582531056,-123.65585061395528,57.42609377362087,102.1739333026803,1.325468551202319,2.4400678507877185,-0.0148850626422431
1.72,-45.4803139234302,62.04747363894049,171.2016208696609,0.818760356566999,0.2397954175518797,0.1885471514398935,-105.10378197744804,83.64173432821808,-6.29993036037918,0.0777038573585233,0.1043841804541192,0.2565508357011199,-203.9833570034646,20.064461448192034,23.733708455404084,1.4491749879555915,1.7450848181398626,2.3230660361656272,-123.07384139591998,57.09097613858001,104.38103003632368,1.3786319330511327,2.699158920923604,0.1719207889399292
1.73,-45.47440453026876,62.68028781441455,170.75691952114246,0.819866927220604,0.0208624518424548,-0.0621051413646887,-104.92734239066836,84.16136616701569,-6.495044312245043,0.0537631868424716,0.0403913585725903,0.060594918568279,-204.481321818668,20.10038312300728,25.33509418657748,0.0764598023634903,1.330770498578891,1.5918838923261105,-123.18689628843391,55.32010433615135,108.73833086002026,1.966271837194642,3.908057558564381,2.3011266653594324
1.74,-45.5834228641561,63.46440012403522,170.2095416710466,0.6329296814278734,-0.0300267367627855,-0.0038801902679674,-104.6472914804466,84.63907756316956,-6.400468456175127,0.1021039160048112,0.6936638644182118,0.0729529182277401,-205.32540755464905,20.05062579120356,27.49342699090449,0.4462169380969946,0.2626987115695036,0.6133991242204907,-122.38654911112305,54.19659373443847,112.48932350584272,1.8259775291331408,3.44135994669043,1.802798756638711
1.75,-45.67127625662525,64.02138686362512,169.70030572834133,0.6165869973340831,0.0974225341602284,0.2819516111375061,-104.7537314903585,85.30469915349737,-6.525077036230618,0.1464173767864109,0.6646473765629093,0.1742173743401935,-206.2934293392712,19.50687546031857,29.529075092220975,1.5854401021020073,0.090961341431812,1.3825564863431412,-121.60053982550608,53.002926592937534,116.35624688525148,1.4564659655677905,3.0985382790239684,1.181218062775301
1.76,-45.90842782680886,64.77991498704178,169.40279169868265,0.369334870808335,-0.0299518610926266,0.3517933775496876,-104.32804773405446,85.67561393309339,-6.931128771488296,0.2477594323985509,0.7860388909207133,0.2858079822070453,-206.65602068373448,19.454513811689885,31.208680930271505,1.8027788714237512,1.5730233904822537,1.5731065379159732,-120.14165298412784,52.05851709561784,119.46010535395806,0.0121218879855446,0.5288883802093295,1.2020449238720703
1.77,-46.137180876090966,65.25952279600837,169.24510161722182,0.0540765886063628,0.1902360241364816,0.2496614963902076,-104.1693539569933,86.13867033971607,-6.993999849165875,0.4568337470141093,0.3739464987174245,0.115895647121176,-207.67568066791168,18.941735818416937,33.07293387193187,0.5203698585926622,1.9879201682533707,0.8409550849942934,-119.88153056436978,50.48487209795226,121.55299655733718,0.9713552551118128,3.604585456210233,1.7684110391360417
1.78,-45.88943639464561,65.794965597597,168.95935039429844,0.4148243633083116,0.6069566363379137,-0.1191499094863386,-104.06272424098864,86.35565311910685,-6.893622536346313,0.8346463271184912,0.3978643340243917,-0.1569183623298548,-207.7771518655132,18.71820404199224,34.434265905818485,0.4100520568017786,1.2712884472363393,0.2377365452978216,-119.76309676819388,49.31971867343228,124.15358172261917,0.4141307652401649,2.1739709389835866,0.2551491113781322
1.79,-46.14560612804648,66.19148017061232,168.56321735706663,0.0579560466328218,0.5963940697077716,0.1846643262835368,-104.00655771279176,86.53306001751439,-7.056187619815174,0.0955352479777862,0.7916113106072277,0.3018018605765757,-209.4011759414412,17.732934401392303,36.862417521277656,0.0587071540929278,1.548658806240682,0.186259490791538,-117.03914761194184,48.90814515147063,127.24566538132429,0.8446860779124896,3.294251341749413,1.3120626410350142
1.8,-46.21832884830465,66.63718196165959,168.1402317074731,0.0044707019503434,0.6192325621999806,0.4876754756097265,-103.96138530949136,86.91988022814327,-6.903013441792031,0.0563902116865632,0.6310813570892264,0.3657134205306304,-210.7517600205693,16.607872930119917,39.89394511554273,0.3872826351955329,0.5161485383498435,0.3585897338290509,-115.27565064021836,48.29576949579888,129.78923259605628,0.7806060981144431,2.5075280889494995,0.4633938126229531
1.81,-46.18298429043016,67.18493747727652,167.85874538187542,-0.0076657546240199,0.7181790976574622,0.5569139269406169,-103.86590310619331,86.99318733802708,-7.220313845843433,0.5505650028787408,0.3055208952156507,0.3175495470101737,-211.9805038584887,15.565774375427091,42.30655221747037,0.157122361665623,2.079255682236321,0.0106715433991359,-114.91976656490172,47.05775170756797,130.78694497202412,0.0719742580970074,4.213999033338163,0.4989541700800226
1.82,-46.28888271535989,67.8114837939575,167.60214953336217,0.0474571289754417,0.5901467964302008,0.3622610393053072,-103.61568881425224,87.12234655591472,-7.540834044890215,0.1162145480541279,0.3556388511061916,0.4016078363717817,-212.97060492051023,14.784762276086646,44.72331758068316,0.3596901626600626,1.8824853115214557,0.0935503567730734,-114.32697070504996,46.052760075466,132.34423484105,0.550443687103495,1.188041779028976,2.3594346945505182
1.83,-45.96965321122552,68.03462742975691,167.3621003474369,0.1935645472898675,0.2728723885955482,-0.1207628261398667,-103.42573762094428,86.87620312840588,-7.503290829363615,0.3586311246061009,0.3498713920274408,0.3139278560117007,-213.5412058906808,14.117077509150572,46.97958432740487,0.8107020105330762,1.4050895570811202,0.1043536449782471,-113.3202152126716,45.8763906041192,133.64411627005248,1.0680812931414227,2.138883084958198,2.098481272359936
1.84,-45.89945250142512,68.5844145762186,166.9561421531911,0.1601929913358795,0.6724479443998205,0.0566669169461049,-103.53251847030164,86.76186597047686,-7.634847078836443,0.5118235907751424,0.1233394930339256,0.0048434196550199,-214.38723669341024,12.886811926112276,49.6112049009464,0.3128223783010041,1.73336546423028,0.2052439277557723,-110.68450876773991,45.42682703474379,135.8697497143207,1.0450224566542738,2.422672026128155,1.827388701928656
1.85,-45.71799247503592,69.14363354169026,166.6957782453046,0.149292096093859,0.4549719345841104,0.2506874661952851,-103.12691872917452,86.42503483384529,-7.850494544900189,0.1968169735100144,-0.0404836216550703,0.1252304661538395,-214.0430660803607,12.681993741182676,51.86310673128815,0.0302092057072271,2.163999964775432,0.6249225642795566,-108.37340034430648,45.165036263770936,138.08002574147156,0.5047177202790544,2.836528466621344,1.6757037040608789
1.86,-45.682130122145885,69.7701723937947,166.20712071270967,0.1166770481463568,0.2146870106519843,0.2335569111403802,-103.06618142688392,86.33328666179308,-8.005026099327267,0.0884049500707536,0.0059562063359593,0.1880729109569132,-212.66920610228493,13.142693696391774,53.75706044134253,1.57233972469659,0.6845059951688682,1.119569774043334,-107.33728693178612,44.628795371239256,139.450706233125,0.7265095548523629,0.4545950211577857,3.1654157289100278
1.87,-45.57396393661129,70.02393383103117,166.5068038564397,0.151094896640369,0.2274873825050458,0.0200530902858364,-102.62442930436949,86.29392182276257,-8.203169004697719,-0.0178283042627071,0.2389687072366834,0.200876775368951,-211.4645611676748,13.124177816555108,55.69979050917359,0.2571238224741354,0.1693724136756416,0.4178374038469846,-104.93134625414125,44.03233873653635,141.65738047477652,0.8791016584227691,0.4111997851148198,1.7912940500837815
1.88,-45.35723135422608,70.41243088370436,166.2664195126247,0.2348483010603951,0.8219384326399755,0.3003954354839921,-102.5736679824172,85.72759675777907,-8.33676355294892,0.0558569622379018,0.0249159974134594,0.1235612784986557,-210.5111270725464,13.517282704896532,57.412674038574096,0.9999186195390112,0.4258963166853743,0.4194569722808065,-102.46192113395732,43.26602622973572,143.5490081837526,0.923542781454737,0.2249590030645661,0.3300045202322425
1.89,-45.1734888588013,70.57013455858016,166.44009425481295,0.0910116494360201,0.4125043211098964,-0.1037352957313714,-102.32036065441486,85.30616078970854,-8.392705498773301,0.1720630870578728,-0.0199890565161036,0.3889720789719667,-208.82905536602448,14.0507925822024,59.08587636778056,1.1052537981270687,0.6861274975797329,2.0735177941511638,-102.3158864906798,42.723680988339886,145.09748010143883,0.075407197324541,0.1811853091353496,0.2812567331360956
1.9,-45.18166524096288,70.80692061441403,166.35357743755964,0.0223391809723542,0.5866345821078627,0.4112315238728099,-102.37263262172648,85.4694292821669,-8.434605604160904,0.0728325947387593,0.2914711636118928,0.2346247308935182,-208.06015980552752,14.472531131525614,59.90493403505316,2.012154863059183,0.8849247527861202,2.0359278902302016,-102.1103333773446,42.35806885566099,145.4211527927279,0.2812441098627932,0.9191695452654244,0.0886330685977581
1.91,-45.05398960807855,71.00255474091705,166.6201955291689,0.0540348513529084,0.3777644025379219,0.34077185636683,-102.32326249500778,85.45322264625563,-8.304943626381318,-0.0370023582257072,0.2296742931468055,0.0657732619497102,-207.13876940746744,14.646465352947017,60.68831519587541,2.6898940084792637,0.9322577021870184,2.23647512201356,-102.09385020954754,42.20431182575688,145.7190832474533,0.4788160471157891,1.7100313305171275,0.0750865453067573
1.92,-44.8938614057031,71.2364759625906,166.30526887743667,0.2106827472568451,-0.0293723104920746,0.3175186417102322,-102.26359444979532,85.09945017532654,-8.213850738573385,0.6144085667641423,0.5618477706727287,0.228073972424833,-206.6174303295416,14.97931599445645,62.3058981634852,0.5020144079372673,1.6579477494320938,0.7005394545517636,-102.23168828910616,41.52537142922516,146.98319229229665,0.9577139503901037,1.2421595257885014,1.0413620157974797
1.93,-45.07758922722147,71.65838144181699,166.5688435673713,0.1939931737666217,0.2961787031892296,0.3381776503655529,-102.1100324906488,84.96453051505728,-8.587195868122832,0.7915381883213984,1.0919430253789106,0.0215621756996575,-206.5218349652364,14.839739438224614,63.97152198002595,0.3138616995915385,0.9919345114479252,1.1752722878989794,-102.76615216407863,41.30493211694117,148.70841465152276,1.0741304024143057,0.5866359630300048,1.0331383066693058
1.94,-44.867284569289616,71.75527723850871,166.62207760358663,0.3867579507744995,0.2018321109113499,0.2691059787218174,-101.91883053022757,85.11831799311794,-8.393694531008009,0.5533013143787758,1.1777901884312736,0.0058099296158596,-206.5998934724102,14.718109287155547,65.91447263125225,-0.051631566171886,0.2963028760926369,1.1496472352038194,-103.30074961708137,41.37436445150433,150.285632766129,1.323779537811614,0.2602422687131895,0.7708105318354772
1.95,-44.5939437045196,72.16572283492134,166.5238145793614,0.2312822875683479,-0.0481369290580108,0.2725197989810788,-101.70071823037912,85.30733917869914,-8.510414464863372,0.3435525614402845,0.8883320054363186,0.2943435943840453,-206.20198418704712,15.307253227205306,67.33284991855466,0.94498353247482,1.121674777678466,0.7462093117858599,-104.56943448729032,40.95999923113196,151.9539830433641,1.339983104877822,0.086112840695077,1.1531781549950229
1.96,-44.26690553268914,72.4920901525822,166.88979946750771,0.3492552506549745,0.2701475579019273,0.2947549559522792,-101.48525666080111,85.50938515734617,-8.079210724370906,-0.0602753767592095,0.200497396031392,0.1665556346889256,-205.9975368170577,15.480735844993866,69.02871818894296,1.068454714614524,0.6733033233540274,0.7755755013855915,-105.84302577601048,40.76077725923618,154.06499626687923,0.9844406481226864,2.60573151814713,0.0731915473830017
1.97,-43.92646618109621,72.70339235189155,167.0744588926892,0.3435538750929457,0.4807571372521255,0.2758296977308089,-101.09321357334866,85.32183866944574,-8.1382631441479,-0.0062019088894455,0.1113214573280929,0.4254017123478222,-205.7779636330072,15.845684833613458,70.33857118538195,1.2967274205528698,0.2813405713918001,1.1144961485759943,-107.388401490241,41.128721479299685,155.9367225205513,1.0214434379046535,3.7533884772772064,3.410517172617875
1.98,-43.45531785262992,72.92554392691207,167.77005991564036,0.7404260208109378,0.396437060328789,0.0654184696036341,-100.68569700429966,84.84709800026025,-8.219142888402924,0.3734550762967135,0.8024353715905623,0.2653777794275782,-205.8214596033729,15.882341216700029,71.87899788946302,0.3878354313825708,1.1738268293966243,0.7315477679819112,-108.14984498537515,41.89378665375988,157.02960128984714,0.6967323222820703,3.670615226743829,2.227042907502502
1.99,-43.50280151098027,73.07547572596866,167.97378540813176,0.5330201938136924,0.2325982896335546,0.1527327677707576,-100.4823614102658,84.67487842485521,-8.156240649108186,0.226459783553607,0.6809114524483422,0.2623951844643588,-204.76667639541063,16.973351309106775,73.19205217741596,1.183679986108768,0.8078614205841329,0.1767192130357576,-109.49838330777212,42.47116219255778,155.17411041251458,0.8117121617981344,0.5685849732590731,1.7934732190684763
2.0,-43.59476494275261,73.25449905394228,167.99185613115966,0.4233471172821249,0.5627934995289438,0.10586173687171,-100.2575065710663,84.27238973297685,-8.304939902518516,0.5707941329844765,0.2759299517408615,0.2074522815225203,-203.99625849752616,17.60035108439917,74.389912726703,0.5931325833217906,0.5203293637714149,-0.028545974403448,-110.65177015809395,43.25054135588531,153.34483864380832,1.0390580300376533,0.2428356279719803,0.3758038185852191
2.01,-43.240241400100246,73.53579798065203,168.32094995233072,0.0374178928124879,0.8051743143347367,0.5249267079118113,-99.88832489859364,84.13735896227153,-8.110751723081716,0.2409384455671969,0.5484434567578904,0.5496840515868405,-203.80928542077592,17.980835694622705,75.86959667626229,0.5473783557066135,0.4738488567386577,0.4699549629913073,-111.91183893089094,43.59452352768069,151.91893352184468,0.9318163865121682,0.8134620436380829,0.274827704135524
2.02,-43.24348915359075,73.42010810437041,168.5358776615914,0.3591377194056133,1.556466068142294,0.793025841474389,-99.95356422028108,83.99153482913822,-8.471361877938538,-0.0272467287405402,0.6503476420872338,0.6172174532700144,-203.744303144156,18.359006176100557,77.48467606716073,1.1823083245674948,0.400415701345604,0.3888469257888084,-113.385598322004,44.19480222441961,150.68126946803528,1.3803283100534534,0.9773196587449609,0.5404770606894547
2.03,-42.68725161139875,73.29746459379261,168.94463206829377,0.295866608586981,1.6542094250540351,0.1891269617055923,-99.78563236414038,83.67467927302066,-8.5552473681496,0.6089074063782243,0.369099080188366,0.678011320307944,-203.36732041872352,19.16054771188607,79.23051552383949,2.245755317014231,0.8887562825625432,0.8812610830069567,-113.3839781782508,45.27177985041459,149.75256247326618,0.294413507149871,0.455094195434445,1.0977318695775673
2.04,-41.52808834816363,73.10435191807775,170.28976911020257,0.1721214507751945,1.0586657337218452,0.3067070410106399,-99.59160299863044,83.49469078658792,-8.5346642498504,0.7851085738697059,0.6482597189169619,0.7420265000575259,-203.2067470411866,19.98764771798477,81.1802715255021,0.8000112444256395,1.8426350932180249,1.0217068228644504,-113.91703456286652,45.82409785292738,149.4353046833921,1.06052452403153,2.523250095440757,0.802351258232869
2.05,-40.52719871843299,73.01922910803466,171.0914478801555,0.5030179558765598,0.1136229703651256,0.1199631841800851,-99.42501771608622,83.0631922648796,-8.575240755677658,0.3035314989796525,0.5586122873523833,0.7730537786091731,-203.86439386729137,20.593522424739483,83.13661667929837,1.2141700620911051,3.028748369737893,1.1932484354541135,-113.8551400115673,45.90919875899435,149.43702370974304,0.996088646840393,1.820289135199036,1.921061577902201
2.06,-39.499912624852605,72.90211766566115,172.19680512462966,0.5904251804171591,0.583717795234513,0.748195522429483,-99.37655445469292,82.72579487040538,-8.708784123851808,0.1468851425376745,0.7690387892973758,0.633354020583289,-203.6474322694533,21.484960396646823,85.08806107926739,2.1106734328696666,2.8594771487449115,0.6384984771283129,-113.8191822280141,46.07092847402952,148.57586551600448,0.5714535406259963,0.3729434656611793,1.6112694892631767
2.07,-38.79562403210121,72.70882286422376,173.2286971075179,0.3105442793473389,0.5889242812758916,0.8954893814167775,-99.15789702716796,82.60832668947597,-8.812592305626321,0.3028440193995074,0.574624854170764,0.9378386410338104,-202.21865955506772,23.72563644144722,87.105838724663,1.8860821512566583,2.406701581877949,0.7507221763226032,-113.46585705226995,45.95571450323547,147.80371563950365,0.318228928545189,1.322488202471812,1.9567478480193403
2.08,-38.20906039101628,72.51077554652538,173.9036946592507,-0.0468194575928023,0.3248135952689136,0.7188672320413292,-99.25359102531613,82.36421443724912,-8.190522982037946,0.4719267305255645,0.3424687172000309,1.157816739937978,-199.5785275769839,26.646801110750072,88.41505572754426,1.590221699303334,0.2355030733083127,0.793074912628001,-113.6009876139798,46.101479486529705,147.4771685975113,1.3886244362917997,1.1350669984783757,0.9844605594070291
2.09,-38.24427908616765,72.47175013171022,174.01437232668025,0.4195500374412786,0.3811006118019369,0.4536182590414355,-98.95407279119236,82.42075132341168,-7.976450086633795,0.4396533450109594,0.2313991046156912,0.8017684427873486,-198.43204615259825,27.84173531794409,88.9176640131906,1.5451853775191822,0.4942097072387554,0.5348725939123072,-113.94559679173064,45.85666323716446,147.92984268364964,1.5480074705720377,2.4913589554159565,0.5452341310289709
2.1,-37.9179086700557,72.08963072308009,174.52406415650287,0.6612013795041275,0.187004185971063,0.5503723991294999,-99.02294479991308,82.55213520626121,-7.784789731602009,0.5177760595212567,0.1249280285865021,0.924313596224512,-197.44836054469155,29.233883833925063,89.6507279681861,1.586694636914107,0.6446150858125375,0.6282003069617753,-114.7524071606954,45.62192971944675,148.07326354413777,1.9252284381366145,4.006898084277429,0.0357548566197226
2.11,-37.51202187155513,72.47386626865048,175.1284295204904,0.7408438465635568,0.4559356477181646,0.2521452521335495,-98.94527009907364,81.96238900355816,-7.16297674969866,0.2875916186342369,0.6173830546914421,0.326564978497937,-196.0944939428276,31.07765994312457,91.06758764452997,1.8607370048499003,1.3143214450640048,0.2126287480322565,-115.3323321431454,45.38558009899702,148.22582899198667,1.1305059235534611,1.7916572145733556,0.4843329826326469
2.12,-37.51415696607325,72.26788303533603,175.51499839496196,0.7540293955067549,0.4729208938480919,0.7435503467685487,-98.86455873626124,81.7522291425412,-6.992336886093002,0.0764937969466934,0.6505732300654872,1.5393577396336349,-194.46376776036968,33.01258669446601,92.43701695045888,1.8733963821591009,1.3397756438535624,0.1221089579211824,-114.83837189630758,44.826698531655545,147.75289925578906,0.2440554762397012,0.6669655500503188,0.2625223102817645
2.13,-37.31974280341312,72.06850680531448,176.1943018663695,0.6336461400257606,0.6926188534270952,0.9843272347293694,-98.62164714027028,81.8474144650902,-7.176339683594909,1.2941808136738853,1.1593509246715783,1.2603190099926036,-193.3354064495264,34.48038791750938,94.28563773854728,1.218716612344852,1.5151797690845334,0.6246419399924369,-114.86660399858644,44.23318312843117,148.5410242806688,0.9568106241993364,1.081283410955414,0.2257153538562273
2.14,-37.43991665365798,71.81245335380656,176.51276939441792,0.4364553332189773,0.7699457204487747,0.9636726547661488,-98.56979577133872,81.44254559486433,-7.29553320306306,2.0680747363468392,0.7277447102066773,1.049784869433441,-192.9998554668909,35.05710893253564,95.21563130549713,1.673591979689799,1.5872540787146987,0.3604286373761176,-114.69183849926031,43.58692537544217,149.8338072714558,2.2000322894639965,4.30722030983909,2.2599554308214502
2.15,-37.46801211172433,71.6131203185903,177.03663613317582,0.4811442450397936,1.255143407804229,0.665677771397341,-98.19758391469004,81.10686050904852,-7.580729911976583,1.4867409513549437,0.0486562707341081,1.4446720951957408,-192.5225895720241,35.17562195137575,97.43055377380392,1.859617223051748,0.8764674943496553,0.2759216049793713,-114.7339468514553,42.448942081983006,150.6641225268172,1.695537982146664,3.7953653844122903,1.084207679446242
2.16,-37.57654352663248,70.94830692654106,177.3569293435978,0.7881002896105924,1.3581333740607129,0.4387677614595794,-97.57582113097884,80.43898267287852,-7.78452241563315,0.9735810931282662,-0.0289571691161425,0.9142453315355742,-192.07334217403815,35.54588508261931,99.58862400490236,1.96981348944718,0.6274749458686198,0.1839730040569177,-114.84999364350764,41.36401638680469,151.16560158433015,0.9795031083294088,2.9286695752590437,-0.0549127194170926
2.17,-37.96861097315087,70.38927020716412,177.45520700587184,0.8823541480552657,1.6510864670251242,0.4932648893722062,-97.64900729113928,80.47755602726153,-7.723901169205708,0.0245972536482406,0.5887800185981953,0.7420568775990167,-192.0050424175804,35.24409921986566,101.3668653820458,1.8280659686516991,0.5330068832549175,1.0378259765087814,-113.8602143323095,40.618703377177255,153.00805016037407,0.3635212725322387,2.166912518009514,0.0080893668588291
2.18,-37.819643381098544,69.71081796459744,177.5215505134011,0.8375773795079764,1.9145718525391415,0.5457762121047168,-98.09462603517436,80.43391032952607,-7.227480129730885,0.161543514578697,0.3588087046590015,1.0123964508055363,-191.25563338188635,35.39151137789377,103.07344858986696,1.9917313835936392,0.2315494425111269,1.1960850616054162,-112.84555941891662,39.52190635428821,155.16495039445618,0.3641580831003579,1.3198726642028602,0.7762643600491347
2.19,-37.00876646390675,68.89666692870424,178.33810113764886,1.5098636696761931,1.3348605818918788,1.2222878403168749,-98.37390997361356,80.19388235559586,-6.617757283074026,0.1898460293789232,0.2790822213162239,1.008435184441368,-190.6913390225449,35.69871597975266,104.73541735460836,1.917058816084812,-0.0051425020725939,1.337882122324036,-111.80599218181308,38.66387262339129,157.1061966222204,0.1867356063665593,0.3702560726539956,1.4503289349398014
2.2,-36.12260486448143,68.12497715166845,179.8297364933874,2.955798141386679,0.2851886109034512,2.6088472587300897,-98.92948056990436,79.96632198094028,-5.749289126095679,0.2627999477636154,0.3257939679193736,0.5607849090488802,-189.57939358432785,36.125797248716935,106.1889637498599,1.6006433576763746,0.2510700688464363,0.6182748914362494,-111.21691539864042,37.88254512938127,156.13644962710742,0.9117729554871056,1.978735000929411,0.946983511741633
2.21,-35.00038806803737,67.43258793310602,178.76554459439168,3.2397084385267543,0.114389565830263,2.736147083101596,-98.92949462663056,79.83080786843838,-5.155307315376001,0.0609190541303161,0.2773800569768956,0.7056975344806805,-188.29201596648647,36.48132408082879,107.34162952590415,1.298272179451203,0.313637322842573,-0.0743086988257358,-110.33107249991257,37.38225306004888,154.40291703092117,0.785162468224087,0.9486736260724477,0.8051522715534294
2.22,-34.147191701992774,67.4361902800324,178.12273089029435,0.7929568701247005,1.8041484040992568,0.4499408613467254,-99.40947903785444,79.4527099258311,-4.503816099666106,0.5990687387822196,0.1770790482288232,0.2368365789704651,-187.35754400494795,36.18838989204891,108.69749106382012,1.9560127935948564,1.066917592068739,0.2600347609774877,-109.59870755949709,37.03780793707783,152.5210462143275,0.2133223328942191,0.6155691045694238,2.019274892394875
2.23,-34.413051856425334,67.53496765013854,178.4319406667728,0.5828895356915706,1.4520663269100884,0.6020972056748515,-99.67197331709,78.98940188513376,-3.5130432651057006,0.3315692274913742,0.544302690199862,1.2511716105866455,-186.15723150663703,36.08339936518051,110.0604116575598,1.368239202154313,0.8720399325533945,0.6447733309083787,-109.92605497379638,36.450531733499496,151.02889052757172,0.0331439550002059,2.1973429714161337,3.0391893848715203
2.24,-34.738488244456484,67.47020791484526,178.66218025544003,0.1787035780771821,1.1514406068099208,0.4853505743827153,-100.12269837510674,78.76085332548625,-2.925741576530044,0.3214111568017814,0.4780792682696813,0.3072182736525228,-185.032038568532,36.06498817026856,111.18517182199496,0.783437950945407,0.5472758149582156,0.3150424814445753,-109.90960918156075,35.950905341014966,149.87259173085934,0.3288813936710941,0.3117647339989122,1.6131156614402542
2.25,-35.804797669846735,67.6716498819562,179.5891858918059,0.9627483822862398,0.5946993841646931,0.4791203214738522,-100.83145639951285,78.24449435384888,-2.282912841097993,0.2276203364253126,0.1850056236054876,0.306152439775916,-183.62729332570373,35.57942954136913,111.94807958139428,0.5102720617124841,1.350522248303706,0.3609608086749113,-109.44207360605252,35.50537682873351,148.58198824871926,0.4448686798226356,1.6704671354802412,0.6561509258480613
2.26,-36.70749736808384,67.44678155360305,179.78021129090678,0.7697957472565129,1.1099261320810756,0.3221240878405723,-101.26589649706877,77.7095873879253,-1.3780000232329377,0.866691308551518,0.0289879933328636,0.1009156116684001,-182.55408504762448,35.18399044509704,112.85151877357296,0.621108573194882,1.0763828963035047,1.1571500780816346,-109.04564353969874,35.071412847808176,147.31265431701556,0.3495913723903031,1.5340172504612095,1.185361772419291
2.27,-37.68816985196765,67.49514476742719,179.06417913078425,0.5064606377127677,0.9047228153935294,0.4863008102385295,-101.55309500713535,77.58115587436524,-0.3539658390687212,1.5912149334861627,0.0787150358994723,0.1191236007358705,-181.17444229415847,34.75435314876093,113.41317143459304,0.4327408470085349,0.7845021230458183,1.8969262267348244,-108.73735993684984,34.53662104558961,145.98137809945447,0.6376932809351514,1.4973535550316743,1.7607024945955716
2.28,-38.30008712495937,67.11286871178227,178.68343151156728,0.1718395912736688,0.5719249271583924,0.4441721192791472,-101.850807750812,77.44698778499944,-0.1047236963286527,1.8439534420100148,0.0771957465829009,0.3514248742785407,-180.56200442228243,34.3293764499014,113.61328446688808,0.4838842239642346,0.8753980814159144,2.3765297558808096,-108.72252753812052,34.17665347636689,145.12697385119384,0.4137746640467079,2.5230707210785672,1.3995460928499883
2.29,-38.64436006369751,67.38331713206053,178.3352283323245,0.4087668158960364,0.4736727508194421,0.518696869835628,-102.37083600838328,77.35082061942106,-0.0238871626138341,1.8708607429085475,0.0841262380717982,0.1556128827685705,-180.13636150230047,34.19687316833223,114.1577381799498,0.3270545905239269,1.003635132223659,2.804900715318771,-108.5714831231019,34.0732070307207,144.442762898795,0.5801332141438358,4.019921457755763,0.8681073632892139
2.3,-39.27861383755812,67.38314692429489,178.2156709020281,0.4922339897285441,0.4306736695627832,0.4612342872471277,-102.77396069410356,77.17125985843748,0.6280396642369024,1.2233408619091977,0.5915757610730263,0.2693034267209453,-178.9792568289376,33.79274033334597,115.0086816650122,0.7452062444847419,1.3448014260104475,2.13542931223287,-110.52397767148275,34.038216091891265,144.43355596881688,0.2153610558595167,3.1693029895770795,1.0557391611972549
2.31,-40.01001729545623,67.35544979925122,177.66208896881284,0.2622635358350575,0.7508040311830845,0.0547274610472175,-103.5884271352984,76.307753045546,1.5040294930416824,0.5898758175744674,0.5800709896929166,0.3774943012330994,-177.48071250248756,34.04061284492954,115.45309757199838,0.650117523281456,1.1100835909727471,0.5153829264110168,-112.11343504725129,33.56020704374563,144.54237479436367,-0.1387992089288608,2.3658974293905537,1.4965057559094697
2.32,-41.14607172696284,67.34806057409556,176.7995624939599,0.4848128403110009,-0.0187686627218669,0.3125979956524262,-104.13506022030757,75.93344597565505,2.1469218009567315,0.5921232388285138,0.3723362280384427,0.5824395656793365,-176.1243270077592,34.302992679969705,115.89391074479067,0.3609260162523189,1.4564552655378231,0.4682345473053005,-114.22793758779731,33.70513881838846,144.78452588611142,0.940466530052804,0.4132450940980644,0.7742127010574387
2.33,-42.04399202848058,67.0336889250351,176.46658637196458,1.4975777567094612,0.8056846025541693,0.3115291960121369,-104.71680448992788,75.26187763399734,3.005624132796274,0.7558548653077365,0.1912172294212188,0.0157907959500348,-175.4481185582804,34.40229800391689,116.07404531012244,0.0839396027843204,0.6580691257294085,0.6023478890504409,-115.8632036236073,33.75781797026425,144.45523334020237,1.3831650504914528,1.8317650166888368,0.1009913704272867
2.34,-42.93298229594416,66.88838108264983,175.79758789858647,1.7358995569774318,0.4639372485456946,0.2864651167327542,-105.56517394939954,74.85579633595131,3.887388668500578,0.3998366874172225,-0.0196349043550731,0.493352830702818,-174.50146623627165,34.65677975681965,115.99194393253052,-0.0745961090038469,0.2086992229320657,1.0564128459472388,-117.76640182913115,33.46717914375812,144.3800180252249,0.9887176723380552,1.2495431351936617,1.3877236748275543
2.35,-44.01111957331852,66.6772401493626,175.37489937231993,1.129958743397846,0.4647466541028973,0.1701312461031242,-106.00769663579034,74.56883989395186,4.884644115928119,0.4471818829135091,0.4784751615993213,0.4581782272650506,-173.8770134637441,34.590859681828626,116.4212635817108,0.6192065945283187,0.1671769425321083,1.1224370546918612,-119.26819631464237,33.14927883836611,144.57457690133603,0.5098059237016969,1.2222473862314125,1.4467725058679064
2.36,-45.01953153191427,66.39718689901665,174.34909778749682,0.9360906492077772,0.3677296286716205,0.1686861533629238,-107.06062019047448,73.9691611637384,5.390894359675541,0.4512373402611442,0.5596851877950965,0.3660374250170206,-173.74630751510588,34.26918754726514,116.81920654255092,0.4390054976919542,1.539610794957328,1.6770313103915646,-120.82904693436308,33.13878248786432,144.67396804665287,0.9434571514597532,0.1599366618571814,0.7347012468426568
2.37,-46.25901176516121,66.23240582221679,173.41980609269407,1.171216173070459,0.0724536282264868,0.2028122374507054,-107.5106847350555,73.61026501738542,6.252630319237036,0.5571943868264945,0.2067004814294916,0.15300591929589,-173.75001101697185,33.658692576044245,117.11794411874054,0.0890156352394184,1.545278053742083,1.4055155860136934,-122.18174489635132,33.47032378622053,144.7384039675772,0.7758394981542538,0.936091141195694,1.6168141021295832
2.38,-47.44960186882347,66.08299827258708,172.22420930237996,0.8284375829182142,0.4661961542732605,0.1343533694227262,-108.10980848556372,73.27796181185784,6.563739133731057,0.1066408270166552,-0.0468132239253495,0.2673337655975286,-173.15953965204605,33.46962633134169,117.26861204189292,0.3514868531390578,-0.0639354183703973,1.90424770693909,-122.9882464532112,33.41929549111618,144.75341834038707,0.2811086242480541,0.7704069573076341,1.664194852724842
2.39,-48.48861964516981,65.65080968743482,171.8936371216563,0.1859960457963318,0.6667650077315572,0.1165489924280714,-108.84783549847016,72.738051453445,7.081876702879015,0.1634365019086984,0.0457093545846651,0.2401564175389114,-173.0575896447261,33.392198647306046,117.58257402207596,0.5823130107031748,0.395537310218551,1.5771334967296182,-123.61834713797832,33.45476355277676,144.82817844197731,0.364658700852509,0.2029739263428089,0.5766028477622209
2.4,-49.24088170321482,65.27688590384497,171.4918593706269,0.1119126396247499,0.6437242487326855,0.3468413721139052,-109.27990868338664,72.58614742184831,7.380786276268976,0.2056390691232214,0.4501056127630629,0.5599665119383241,-173.37949054268856,32.84786909002147,117.80942614250267,0.9882618641207992,0.374423351153653,0.2150757410276343,-124.10765023378542,33.73360739571616,144.7796836851954,0.9812202322105577,0.5906676127412847,0.2356458104897206
2.41,-50.65441879215784,65.30672725955543,170.5814074020705,0.5344000366846966,-0.0158191659707597,0.3919238995750555,-109.78660220344877,72.31325503478752,8.009333748973416,0.051344652761415,0.4257933959474355,0.744504608679206,-172.76167860094876,33.645747538062786,117.88669567494512,1.3892110252786245,0.3895136720961565,0.2040432229793676,-124.7140728512128,34.61685554365995,144.41756790303504,0.7885836733960412,0.102076637750867,0.3169610830750669
2.42,-52.034823726926255,65.12379503861818,169.20818598119587,-0.1202108378536836,0.0150750614116932,0.1475293239752368,-110.5614506509364,71.78823771163124,8.580345823122618,0.0211378170149839,0.4997764742263113,0.3352058762658666,-171.36884414091236,34.73564800965811,117.96190613746508,0.7659074380492578,0.9501123112688924,0.7930488505783682,-125.54899904026064,35.491570695553705,144.27321068375016,1.2940201147206167,1.4696194410380248,1.5737049599761816
2.43,-53.5707124386506,65.11551497730932,168.01618462957526,0.4133917606618602,0.1343736616034089,0.8333847613871574,-111.06019919639525,71.34762570117054,9.08162708750358,0.1360739807440713,0.8990120303250978,0.4538534564244457,-170.2017754686541,35.753550593853625,118.0935901323767,0.9831933707951124,2.7855138459553093,0.9851911395609712,-126.27356326335676,36.07946715598567,144.07090449429248,0.2938390984194911,0.6722006700519105,1.1414646645596047
2.44,-54.94278828247069,64.90786270686324,167.0409137375532,0.3974378392380275,0.0338939963463927,0.4334953072418533,-111.22292169152762,71.4013556241292,9.421921952757303,-0.0020553170720729,-0.0577129279947398,0.0109951147933263,-169.97070998729205,35.74067454793231,117.9385905120501,1.2484008005132317,2.472298556424624,1.4666861973893834,-127.10631072515298,37.13123517692617,144.02695382503634,0.5082508308484178,2.401460438426662,0.740919055669901
2.45,-56.16346586822775,64.85653702485955,166.1732770840148,0.4167864121974206,0.0636256010451768,0.459694054354115,-111.7343273556835,71.13742030898727,9.8434158921421,-0.0027890208136749,0.6338128806039096,0.4853874815545021,-170.41638668989168,35.44245274760524,117.92227750186862,0.4975352747685334,1.1556851631984155,1.643134780556521,-127.64344864189084,37.85273862335626,144.16179469798865,-0.0283252516476566,0.6666647718878144,1.5367144875927048
2.46,-57.37850924838797,64.54075320725893,165.56775983815328,0.1008568273668061,0.6347164791397677,0.1236165098990077,-112.18335762102365,70.85345224458706,10.32364767993074,0.1292762253588574,0.2850873885185346,0.5665490878750878,-170.57200306256962,35.099114177854624,117.93768806137132,0.9831106062399704,0.9950976464999453,1.1676881607531306,-128.01523092808733,38.945374662375386,144.23256262829446,0.1787439695468427,0.1097506742885786,1.3435224609708492
2.47,-57.74856628748226,64.48118323793122,165.5870785947444,0.0310308123157499,0.418273438712195,0.1295765544954821,-112.42436830501089,70.79770767703256,10.686837026620156,0.4652252278954334,0.3106802361810173,0.4868529182308815,-170.65431757972854,34.9603317184841,117.8207107200698,0.7778270504077109,1.3917748011686804,1.213319686307783,-128.02540995062108,39.40748697702718,143.9267449367292,0.0052105570525505,0.5363033325849331,1.029536425778227
2.48,-58.40239939776162,64.2114974443381,165.33376919064028,0.2383951124305543,0.5424764041611351,0.3029314126196383,-112.3802761295196,70.36503474221274,10.757871218472925,0.8452524328476184,0.2669866142995896,0.4060255427505618,-170.98751094278518,34.877268897981104,117.645549815803,0.7477536771191043,1.4489419913938042,1.4042597249004445,-128.11474846068523,39.79105474275121,143.97523215209978,0.0699407490656745,0.8501994846010524,0.3061986341339984
2.49,-58.59667364650901,64.03611380695072,165.1450573601399,0.1606221495179837,0.2359176634508388,0.0340983693631695,-112.86844575058856,70.48436111492596,11.049626929920262,0.3790022203245016,0.2775704746223791,0.4548280271457021,-171.75731214649838,34.396262374421546,117.33183048310477,0.5187298178643299,1.746236614143066,1.8166171777901057,-127.89262316357043,40.48634327221233,143.4713744531623,1.7040115526495698,8.306441582073889,1.1482771432377517
2.5,-58.96104089526439,63.828340395142575,165.3150715673537,0.0489673512392863,0.2856904537633392,0.0226385513602022,-113.07876516669408,70.00883493945722,11.489989802439997,0.5389145787849354,0.0828529722866934,0.3326334425681783,-171.9124968356607,34.18829158679457,116.98594883876696,-0.0051807867314462,0.9089687587361882,0.4587745402211036,-127.76680997227554,40.2757704078065,143.05177711156125,7.110396995305493,0.8727983602945697,2.373008955950529
2.51,-59.32056562399144,63.825787426409775,165.2846056207216,0.5526689259013471,0.3436312889835875,0.6098324254652584,-112.81306018855986,69.64175188287929,11.764214148779772,1.3328343089533277,0.1303200750401049,0.58893208425756,-171.47034408380887,34.915020640251576,116.67809766573076,0.2316884367830566,1.0098408072944558,0.6148985436216664,-127.72083726935796,40.21531011646713,143.51957529720764,3.751903691217048,1.5355208895899504,2.238987871747709
2.52,-60.09014473084902,63.50653248405172,164.98495073028465,0.3044185042205607,0.4358574770960203,0.6001487910411705,-112.79949827022378,69.24174458439765,11.77142590368836,0.3265924602794095,1.0360580375999031,0.2352307175611641,-171.06863150341545,35.474795959819126,116.0731554532654,0.3859854585578057,1.138916579183355,0.9917163471587772,-127.80307991589886,40.13010819192343,143.70126419338848,0.4251988720558557,2.35760264896647,2.2397054562467944
2.53,-60.75997726446919,63.453401887403416,164.24335840063625,0.6313604551875809,0.5251901672887426,0.6046386899889682,-113.19278162227448,69.5792891535062,11.97432477796174,0.1883940888368981,1.0518035876877236,0.1429030482681458,-170.12405769189263,36.718734697741695,115.22129940342673,0.8521963788124769,1.7763046797141258,1.5773719507689874,-128.78308258388805,39.78305082137423,143.47238825299584,3.149968810008728,4.043533311844112,2.99233154509485
2.54,-61.59413595604478,63.29458203670119,163.6144552373653,1.1203615702519854,0.9727344785765362,0.1509464869388797,-113.2970533799797,69.75315135808522,12.219238664533735,0.0881941491205911,0.9699770845756018,0.9897651570730628,-170.0088283803618,37.39069744430773,114.62933596511576,0.068259034481216,3.109709607429307,0.1409929471225205,-129.4374112416392,39.53728325040531,143.3480164449574,2.4556471543561784,2.254365731041375,0.6251638223359275
2.55,-61.84939395050704,62.96895472218088,163.44670116464997,0.7188834519413058,0.468832461724665,0.1596803186655919,-113.58446861944624,69.60781143762595,12.54939030699596,0.4343968424224794,0.7586124273659574,1.9340844104957235,-170.44654685746744,37.50533399792177,114.186230680022,0.7412976613060386,0.9790568892940844,0.1442255869602616,-129.63841678698645,39.26511926184186,142.47563477510275,1.4294756872574068,0.2905103110660003,0.6396973915944091
2.56,-62.22072961972192,62.87815974757696,163.06368582878466,0.5412783438860455,0.0521472684941813,0.4164659867606591,-113.67343426034992,69.04254536977979,13.111094578847888,0.5434977900063374,0.7260602151922043,0.6176855949457887,-171.3068275953907,37.09619393303686,113.33593907002154,0.5549223826331869,0.8297488287056798,0.352706689844883,-129.52137959063197,39.36033090853147,141.12664552026854,1.8497670072174144,0.561189687153519,1.0301727720453702
2.57,-61.85393735309332,62.748391831954976,163.45042932935908,0.0800058004941214,0.6614093166340969,0.5240402838028321,-113.91644740291628,68.64616086049763,13.058137269645224,0.3606100032324388,0.1317272731703003,0.2086705348890506,-171.62940470625085,37.1737912481816,112.34337345338524,3.675111951939324,1.0923973619230205,1.7008912471475248,-129.38672522850948,40.02750980765448,140.62174244834029,12.05552665088204,6.042019185497143,5.826643222094468
2.58,-61.6937982007285,62.19443614873361,164.10125179145035,-0.0521946494992228,0.624570298468912,0.3196173003869641,-114.1846993875489,67.78469129615928,13.29051592748018,0.3584387497162779,-0.0889436516108267,-0.0010089195479095,-171.69200509320558,37.2480453666396,111.54833414613285,1.3789084529764897,1.2850290673221012,0.0933607534730682,-128.4856814116433,39.47559875563103,140.02879709208102,0.7809015234390478,3.125834295746876,3.891647513564863
2.59,-61.83622775975645,61.7507197583918,164.3217534279466,0.0378959958379469,1.036566563481058,0.5872378818877338,-114.41143380193712,67.29532125443242,13.439290886928726,1.0552296560140122,-0.0246429966803087,0.5899312412004476,-172.16700624760935,37.40727552812355,111.22823460017725,6.270859621352926,0.1288957808847203,3.137239500111804,-129.20065505199608,39.37927772809342,140.0196740673996,0.5081847379961597,4.8046183649966006,0.002979498239661
2.6,-62.26751642574544,61.3841830455198,164.29925972393514,0.3950604385048186,1.2037122954413473,0.3102066419336886,-114.7477622024752,66.8807229362703,13.6450129355009,1.060951349134454,-0.1700960336255676,0.8298158661214974,-173.11314770955838,36.22370514835862,112.17761473232356,1.0159873772715455,2.7683018800014456,1.1584120404569842,-130.0777756533533,39.85373416619211,140.6473289741755,1.4634821244328453,0.8576688114603502,2.0676172272065427
2.61,-62.69870988473912,60.74253225554552,164.2182456814403,0.0577775625968527,0.6382231046301884,0.9088168972111818,-114.71140405420309,66.4737725023194,13.871315626595129,0.2237822354968615,0.3084096679574133,0.2189714160280512,-173.57596871328005,35.786823110468426,112.43579236382072,1.146339743271917,2.0209544262238,0.9917229464877222,-131.5378374132514,39.99997987946192,141.17875993577323,0.9286805411543296,0.3844276741536748,1.7304621110417042
2.62,-63.55111938268818,60.1056396686287,163.89484411752187,0.5357342854621615,-0.1099126292152562,1.0939934891648544,-114.79106780670848,65.83264414575616,14.089492880264908,0.5488899853604174,0.1561354119746978,0.0104285593478812,-173.50417531777097,35.42664691611263,112.7481823693533,1.2403039699927998,1.0730546159758774,0.802041188017927,-133.04310084054185,40.46446922152348,141.87310480789878,0.3328362593731169,0.0744920507112077,1.616389037796558
2.63,-64.24642790943268,59.48375204477567,163.84258840137767,0.5066255778341381,0.2692449471672963,0.1139828244042425,-114.86645742252864,65.55340622331943,14.542205714322057,0.6112699209536672,0.0842956234975023,0.2479797355640898,-171.54364643818118,37.8734654792783,112.14324059143134,0.1247243749439701,0.7950940688786872,0.0021239032895516,-133.69964292860766,40.54838113601046,141.6195222113247,0.133987167107878,0.1548483878009775,0.726216339944466
