0.01,146.69,19.62,48.69,3.56,6.70,6.39,0.06,0.08,0.25,22.25,42.88,19.56,0.15,0.28,0.19,0.26,0.07,0.43,0.86
0.02,163.25,5.75,10.88,1.02,1.76,9.59,0.02,0.00,0.02,8.69,4.69,51.19,0.00,0.02,0.01,0.14,0.06,0.09,0.98
0.03,163.31,5.75,10.88,1.02,1.85,9.60,0.00,0.00,0.01,9.00,5.75,50.75,0.01,0.07,0.03,0.14,0.06,0.09,0.98
0.04,163.31,5.75,10.88,1.02,1.78,9.67,0.01,0.01,0.04,9.00,5.75,50.75,0.04,0.06,0.09,0.14,0.06,0.09,0.98
0.05,163.37,5.75,10.88,1.05,1.79,9.62,0.02,0.02,0.04,8.25,4.25,51.19,0.04,0.02,0.02,0.14,0.06,0.09,0.98
0.06,163.56,5.75,10.88,1.01,1.82,9.58,0.01,0.01,0.05,8.25,4.25,51.19,0.04,0.03,0.02,0.14,0.06,0.09,0.98
0.07,163.62,5.75,10.88,0.99,1.91,9.52,0.01,0.00,0.03,8.25,4.25,51.19,0.06,0.10,0.03,0.14,0.06,0.09,0.98
0.08,163.69,5.75,10.88,1.09,1.94,9.63,0.03,0.00,0.02,9.00,4.69,51.56,0.05,0.06,0.09,0.14,0.06,0.09,0.98
0.10,163.62,5.75,10.81,1.00,1.82,9.63,0.02,0.01,0.01,9.00,4.69,51.56,0.03,0.04,0.06,0.14,0.06,0.09,0.98
0.11,163.87,5.75,10.81,1.09,1.92,9.60,0.02,0.02,0.03,7.87,5.00,50.38,0.14,0.09,0.01,0.14,0.06,0.09,0.98
0.13,163.87,5.69,10.75,1.02,1.77,9.61,0.03,0.01,0.01,9.75,5.37,50.00,0.05,0.07,0.01,0.14,0.06,0.09,0.98
0.14,163.87,5.69,10.75,0.99,1.83,9.47,0.03,0.00,0.01,9.75,5.37,50.00,0.01,0.02,0.11,0.14,0.06,0.09,0.98
0.15,163.87,5.69,10.69,1.07,1.83,9.49,0.03,0.01,0.01,9.75,5.37,50.00,0.04,0.03,0.02,0.14,0.06,0.09,0.98
0.16,164.00,5.69,10.69,1.03,1.90,9.59,0.03,0.01,0.01,8.25,5.00,52.06,0.04,0.08,0.04,0.14,0.06,0.08,0.98
0.17,164.00,5.69,10.63,1.05,1.86,9.57,0.01,0.02,0.00,8.25,5.00,52.06,0.06,0.02,0.00,0.14,0.06,0.08,0.98
0.18,163.94,5.69,10.63,1.02,1.84,9.63,0.01,0.01,0.02,9.75,4.25,51.19,0.05,0.05,0.04,0.14,0.06,0.08,0.98
0.19,163.94,5.69,10.63,1.03,1.72,9.64,0.01,0.01,0.01,9.75,4.25,51.19,0.06,0.08,0.05,0.14,0.06,0.08,0.98
0.20,163.94,5.69,10.63,0.96,1.65,9.64,0.01,0.01,0.01,9.38,5.00,51.56,0.03,0.11,0.04,0.14,0.06,0.08,0.98
0.21,163.94,5.62,10.63,0.99,1.75,9.49,0.02,0.02,0.00,9.38,5.00,51.56,0.02,0.03,0.08,0.14,0.06,0.08,0.98
0.22,163.94,5.62,10.63,1.05,1.97,9.48,0.01,0.02,0.00,9.38,5.00,51.56,0.09,0.17,0.10,0.14,0.06,0.08,0.98
0.23,163.94,5.62,10.56,0.97,1.78,9.50,0.01,0.01,0.02,8.69,5.37,50.38,0.01,0.01,0.08,0.14,0.06,0.08,0.98
0.24,163.94,5.62,10.56,1.00,1.83,9.50,0.02,0.02,0.01,8.69,5.37,50.38,0.04,0.03,0.08,0.14,0.06,0.08,0.98
0.25,163.94,5.56,10.56,1.06,1.98,9.49,0.02,0.02,0.05,9.38,5.00,51.56,0.15,0.20,0.07,0.14,0.06,0.08,0.98
0.26,163.87,5.56,10.56,1.07,1.95,9.58,0.02,0.00,0.07,9.38,5.00,51.56,0.09,0.12,0.01,0.14,0.06,0.08,0.98
0.27,163.75,5.50,10.56,0.98,1.84,9.72,0.01,0.02,0.04,9.38,5.00,51.56,0.00,0.04,0.14,0.14,0.06,0.08,0.98
0.28,163.75,5.56,10.56,1.04,1.87,9.68,0.00,0.01,0.04,9.00,4.25,51.19,0.18,0.05,0.06,0.14,0.06,0.08,0.98
0.29,163.69,5.56,10.56,1.12,1.77,9.55,0.00,0.03,0.05,9.00,4.25,51.19,0.07,0.09,0.05,0.14,0.06,0.08,0.98
0.30,163.62,5.56,10.56,1.01,1.64,9.53,0.00,0.02,0.04,9.00,4.25,51.19,0.04,0.13,0.10,0.14,0.06,0.08,0.98
0.31,163.62,5.56,10.56,0.96,1.70,9.49,0.01,0.01,0.00,9.38,5.37,50.38,0.01,0.08,0.06,0.14,0.06,0.08,0.98
0.32,163.62,5.56,10.56,0.98,1.75,9.53,0.00,0.00,0.01,9.38,5.37,50.38,0.02,0.04,0.05,0.14,0.06,0.08,0.98
0.33,163.44,5.56,10.56,0.97,1.84,9.57,0.01,0.03,0.02,10.19,5.00,50.75,0.01,0.04,0.01,0.14,0.06,0.08,0.98
0.34,163.44,5.62,10.56,1.08,1.91,9.52,0.01,0.02,0.01,10.19,5.00,50.75,0.11,0.11,0.06,0.14,0.06,0.08,0.98
0.35,163.44,5.62,10.56,1.11,1.83,9.58,0.01,0.03,0.02,9.38,5.00,51.19,0.01,0.05,0.08,0.14,0.06,0.08,0.98
0.36,163.37,5.62,10.56,0.95,1.74,9.70,0.02,0.00,0.00,9.38,5.00,51.19,0.01,0.05,0.07,0.14,0.06,0.08,0.98
0.37,163.37,5.69,10.56,0.89,2.17,9.69,0.03,0.02,0.02,9.38,5.00,51.19,0.07,0.38,0.09,0.14,0.06,0.08,0.98
0.38,163.44,5.62,10.50,0.87,2.22,9.66,0.05,0.02,0.00,9.38,5.75,52.06,0.10,0.56,0.03,0.14,0.06,0.08,0.98
0.40,163.19,5.50,10.31,0.40,2.24,10.09,0.12,0.06,0.18,9.38,5.75,52.06,0.53,0.48,0.49,0.15,0.06,0.08,0.98
0.41,162.94,5.37,10.19,0.27,2.54,10.29,0.17,0.06,0.23,9.75,5.00,51.19,0.67,1.10,0.63,0.15,0.06,0.08,0.98
0.43,162.19,5.19,9.56,0.41,3.23,9.79,0.40,0.09,0.41,9.00,5.37,51.56,1.37,1.53,0.07,0.15,0.06,0.08,0.98
0.44,161.56,5.00,9.06,0.44,3.16,8.86,0.52,0.10,0.62,9.00,5.37,51.56,1.19,1.59,1.02,0.16,0.06,0.07,0.98
0.45,160.88,4.75,8.56,0.29,3.01,8.32,0.54,0.09,0.66,9.00,5.37,51.56,1.11,1.56,1.33,0.17,0.05,0.07,0.98
0.46,160.19,4.56,8.00,0.03,2.73,7.80,0.57,0.02,0.74,8.25,6.19,50.88,0.58,1.09,2.24,0.17,0.05,0.06,0.98
0.47,159.31,4.44,7.44,0.28,2.21,7.41,0.51,0.02,0.71,8.25,6.19,50.88,0.47,0.99,2.28,0.18,0.05,0.06,0.98
0.48,158.50,4.37,6.94,0.37,2.17,7.38,0.46,0.00,0.64,9.38,6.50,50.00,0.29,0.88,2.40,0.19,0.05,0.05,0.98
0.49,157.88,4.25,6.56,0.38,1.94,7.23,0.29,0.02,0.47,9.38,6.50,50.00,0.41,0.68,2.49,0.19,0.05,0.05,0.98
0.50,157.44,4.19,6.31,0.41,1.75,7.05,0.22,0.03,0.38,9.38,6.50,50.00,0.19,0.57,2.85,0.20,0.05,0.05,0.98
0.51,157.12,4.06,6.19,0.57,1.63,6.89,0.10,0.07,0.23,9.00,7.69,49.56,0.18,0.52,2.92,0.20,0.05,0.05,0.98
0.52,157.00,4.00,6.19,0.44,1.57,6.72,0.00,0.11,0.04,9.00,7.69,49.56,0.19,0.47,3.10,0.20,0.05,0.05,0.98
0.54,157.19,3.75,6.25,0.55,0.40,5.89,0.02,0.13,0.23,10.19,8.00,50.00,0.07,0.83,3.99,0.20,0.04,0.05,0.98
0.55,157.56,3.62,6.19,0.52,0.55,5.76,0.05,0.16,0.38,10.19,8.00,50.00,0.09,0.50,3.95,0.19,0.04,0.05,0.98
0.56,158.00,3.50,6.12,0.43,1.24,5.84,0.03,0.13,0.33,9.00,8.38,51.19,0.18,0.26,3.84,0.19,0.04,0.05,0.98
0.57,158.25,3.37,6.06,0.51,0.97,5.91,0.00,0.08,0.13,9.00,8.38,51.19,0.01,0.17,3.49,0.19,0.04,0.05,0.98
0.58,158.19,3.37,6.12,0.62,0.72,6.70,0.04,0.04,0.09,9.38,8.75,50.75,0.04,0.32,3.02,0.19,0.04,0.05,0.98
0.59,157.94,3.25,6.25,0.75,0.76,8.31,0.18,0.07,0.20,9.38,8.75,50.75,0.19,0.30,1.41,0.19,0.04,0.05,0.98
0.60,157.81,3.12,6.62,0.73,0.31,9.26,0.33,0.15,0.13,9.38,8.75,50.75,0.19,0.81,0.46,0.19,0.04,0.05,0.98
0.61,157.62,2.87,7.00,1.40,0.88,9.95,0.32,0.17,0.01,9.75,8.38,51.19,0.90,2.08,0.22,0.19,0.04,0.06,0.98
0.62,157.81,2.81,7.25,1.51,0.89,10.58,0.22,0.10,0.28,9.75,8.38,51.19,1.02,2.13,0.86,0.19,0.04,0.06,0.98
0.63,158.06,2.81,7.31,1.39,0.36,10.79,0.11,0.03,0.45,8.88,8.38,52.06,0.90,1.62,1.08,0.19,0.04,0.06,0.98
0.64,158.63,2.81,7.37,0.39,0.89,10.89,0.01,0.25,0.59,8.88,8.38,52.06,0.07,2.16,1.18,0.18,0.04,0.06,0.98
0.65,159.31,2.62,7.31,0.50,1.41,10.25,0.22,0.14,0.62,8.88,8.38,52.06,0.06,2.64,0.53,0.18,0.03,0.06,0.98
0.66,159.94,2.56,7.00,0.80,0.96,10.35,0.24,0.11,0.60,8.88,7.69,52.38,0.74,1.66,0.40,0.17,0.03,0.06,0.98
0.67,160.63,2.50,6.69,1.48,0.13,9.97,0.18,0.08,0.63,8.88,7.69,52.38,1.02,0.68,0.40,0.17,0.03,0.05,0.98
0.68,161.31,2.50,6.50,1.09,0.70,10.40,0.20,0.05,0.55,8.25,10.69,52.06,0.72,0.36,0.73,0.16,0.03,0.05,0.98
0.69,161.75,2.56,6.19,1.14,0.68,10.54,0.34,0.02,0.33,8.25,10.69,52.06,0.40,0.39,1.16,0.16,0.03,0.05,0.99
0.70,162.06,2.62,5.75,0.83,0.05,10.85,0.51,0.00,0.19,8.25,10.69,52.06,0.38,0.98,1.10,0.16,0.03,0.05,0.99
0.71,162.25,2.62,5.12,0.63,0.47,10.98,0.64,0.06,0.19,8.25,11.38,52.38,0.04,1.80,1.38,0.15,0.03,0.04,0.99
0.72,162.44,2.75,4.37,0.58,0.88,11.55,0.76,0.07,0.16,8.25,11.38,52.38,0.09,1.55,1.78,0.15,0.03,0.03,0.99
0.73,162.56,2.81,3.50,0.57,0.72,11.57,0.83,0.00,0.10,7.50,12.50,53.19,0.03,0.94,2.12,0.15,0.03,0.03,0.99
0.74,162.81,2.87,2.50,0.54,0.17,12.10,0.94,0.08,0.20,7.50,12.50,53.19,0.63,0.86,1.82,0.15,0.03,0.02,0.99
0.75,163.00,3.00,1.37,1.20,0.33,11.76,1.07,0.24,0.10,7.50,12.50,53.19,0.66,0.48,1.96,0.15,0.03,0.01,0.99
0.76,162.88,3.31,0.19,1.53,0.56,11.55,1.13,0.28,0.09,9.38,15.19,52.06,1.22,0.82,2.24,0.15,0.03,0.00,0.99
0.77,162.94,3.75,1.06,1.81,1.42,12.21,1.14,0.41,0.22,9.38,15.19,52.06,1.05,1.39,2.57,0.15,0.03,0.01,0.99
0.78,163.19,4.19,2.31,1.36,1.56,12.52,1.13,0.40,0.26,9.38,15.19,52.06,0.64,1.16,2.75,0.15,0.03,0.03,0.99
0.79,163.12,4.62,3.62,0.10,0.19,13.81,1.15,0.38,0.03,8.69,18.06,51.56,0.33,0.80,4.06,0.15,0.04,0.04,0.99
0.80,163.12,4.81,4.75,1.08,0.29,13.25,0.72,0.04,0.21,8.69,18.06,51.56,0.93,1.44,2.89,0.15,0.04,0.05,0.99
0.81,163.37,4.87,5.50,2.84,1.12,10.76,0.57,0.09,0.29,9.50,21.37,49.19,2.00,2.06,1.04,0.14,0.04,0.05,0.99
0.82,163.69,5.25,6.00,2.34,1.32,9.36,0.42,0.57,0.22,9.50,21.37,49.19,0.54,2.25,0.46,0.14,0.04,0.06,0.99
0.83,164.00,5.69,6.37,0.08,1.74,9.43,0.22,0.25,0.33,9.50,21.37,49.19,1.06,2.82,0.25,0.14,0.04,0.06,0.99
0.84,164.56,5.69,6.44,1.64,1.73,8.20,0.06,0.06,0.46,9.88,22.87,48.00,0.74,1.52,1.23,0.13,0.04,0.06,0.99
0.85,164.62,6.00,6.44,0.69,1.22,10.22,0.07,0.40,0.10,9.88,22.87,48.00,0.28,0.17,0.78,0.13,0.04,0.06,0.99
0.86,163.94,6.44,6.69,2.15,1.84,10.72,0.35,0.33,0.69,9.88,24.06,48.06,1.04,0.70,1.04,0.14,0.05,0.07,0.99
0.87,163.44,7.00,7.06,1.98,2.75,12.13,0.39,0.41,0.41,9.88,24.06,48.06,0.87,0.41,2.21,0.14,0.05,0.07,0.99
0.88,163.12,7.19,7.44,2.00,1.47,11.50,0.27,0.08,0.14,9.88,24.06,48.06,0.77,0.21,1.85,0.15,0.05,0.07,0.99
0.89,163.37,7.19,7.56,1.81,1.14,10.14,0.07,0.02,0.25,10.56,24.75,47.69,0.57,0.14,0.49,0.14,0.05,0.07,0.99
0.90,163.75,7.19,7.69,1.89,2.06,10.34,0.09,0.04,0.34,10.56,24.75,47.69,0.65,0.76,0.70,0.14,0.05,0.08,0.99
0.91,164.13,7.19,7.87,1.90,1.64,10.63,0.09,0.03,0.40,11.75,25.19,47.25,0.67,0.30,0.99,0.14,0.05,0.08,0.99
0.92,164.62,7.19,8.00,1.10,2.02,11.14,0.05,0.03,0.52,11.75,25.19,47.25,0.11,0.66,1.51,0.13,0.05,0.08,0.99
0.93,165.19,7.06,8.31,1.40,0.87,10.44,0.21,0.03,0.43,11.75,25.19,47.25,0.19,0.53,0.81,0.13,0.05,0.08,0.99
0.94,165.37,7.06,8.44,1.19,0.78,10.65,0.22,0.05,0.42,11.38,25.88,47.25,0.00,0.67,1.03,0.13,0.05,0.08,0.99
0.95,165.81,7.06,8.75,1.14,0.40,10.23,0.27,0.07,0.19,11.38,25.88,47.25,0.07,1.11,0.62,0.12,0.05,0.08,0.99
0.97,166.50,7.19,9.31,0.93,2.19,9.38,0.16,0.23,0.30,9.56,27.00,44.88,0.54,0.31,0.03,0.12,0.05,0.09,0.99
0.98,166.81,7.37,9.56,1.25,1.01,9.68,0.08,0.08,0.25,9.56,27.00,44.88,0.01,0.60,0.09,0.11,0.05,0.09,0.99
0.99,167.06,7.37,9.69,0.87,1.40,10.06,0.04,0.03,0.29,11.50,27.00,46.06,0.00,0.39,0.08,0.11,0.06,0.09,0.99
1.00,167.37,7.31,9.75,1.81,0.99,9.02,0.06,0.00,0.28,11.50,27.00,46.06,0.60,0.42,0.12,0.11,0.05,0.09,0.99
1.01,167.69,7.31,9.88,1.79,1.94,10.04,0.07,0.06,0.23,11.50,27.00,46.06,0.54,0.27,0.45,0.11,0.05,0.09,0.99
1.02,168.06,7.31,9.88,1.66,1.98,10.81,0.01,0.05,0.30,10.00,26.56,45.75,0.25,0.54,1.16,0.10,0.05,0.09,0.99
1.03,168.62,7.12,9.81,1.10,0.73,10.36,0.17,0.10,0.54,10.00,26.56,45.75,0.40,0.46,0.58,0.10,0.05,0.09,0.99
1.05,169.75,6.56,9.56,0.79,2.06,11.93,0.12,0.18,0.46,10.38,28.06,44.88,0.06,0.12,2.88,0.09,0.05,0.09,0.99
1.06,170.12,6.19,9.44,1.43,1.25,12.55,0.20,0.33,0.33,10.38,28.06,44.88,0.37,0.34,2.93,0.09,0.05,0.09,0.99
1.08,170.44,5.75,9.19,1.27,2.16,11.10,0.00,0.04,0.02,8.50,27.69,46.19,0.65,0.65,1.38,0.08,0.04,0.08,0.99
1.09,170.44,5.75,9.25,2.10,2.31,11.02,0.11,0.02,0.24,7.00,27.00,46.88,1.11,0.74,1.39,0.08,0.04,0.08,0.99
1.10,170.31,5.81,9.38,1.73,2.40,11.45,0.12,0.04,0.06,7.00,27.00,46.88,0.73,0.81,1.83,0.08,0.04,0.09,0.99
1.11,170.38,5.81,9.50,1.37,3.04,11.43,0.11,0.01,0.07,7.00,27.00,46.88,0.37,1.42,1.81,0.08,0.04,0.09,0.99
1.12,170.50,5.81,9.69,1.29,2.42,11.77,0.11,0.03,0.22,8.06,27.69,45.75,0.29,0.77,2.16,0.08,0.04,0.09,0.99
1.13,170.69,5.81,9.69,0.91,1.65,12.21,0.02,0.15,0.35,8.06,27.69,45.75,0.09,0.00,2.60,0.08,0.04,0.09,0.99
1.14,171.06,5.94,9.81,1.31,1.62,10.76,0.07,0.02,0.15,8.50,27.00,46.56,0.30,0.04,1.15,0.08,0.05,0.09,0.99
1.16,171.19,6.00,10.06,3.04,2.01,10.52,0.20,0.31,0.03,8.50,27.00,46.56,1.98,0.28,0.93,0.08,0.05,0.09,0.99
1.17,171.19,6.44,10.31,2.71,2.33,11.12,0.18,0.40,0.03,7.69,26.19,46.19,1.34,0.38,2.05,0.08,0.05,0.09,0.99
1.18,171.56,6.81,10.31,0.95,2.49,12.46,0.09,0.30,0.54,7.69,26.19,46.19,0.23,0.44,2.73,0.07,0.05,0.09,0.99
1.19,172.25,6.94,10.31,0.74,1.48,12.18,0.05,0.21,0.61,8.50,26.56,46.06,0.84,0.19,2.30,0.07,0.05,0.09,0.99
1.20,173.00,6.94,10.25,0.07,1.75,11.73,0.13,0.06,0.69,8.50,26.56,46.06,0.87,1.04,1.41,0.06,0.06,0.09,0.99
1.21,173.81,6.75,10.19,0.45,0.50,11.46,0.17,0.06,0.40,8.50,26.56,46.06,0.31,0.88,2.01,0.05,0.05,0.09,0.99
1.22,174.12,6.62,10.00,0.92,1.42,11.79,0.15,0.06,0.20,8.06,26.19,46.06,0.01,0.10,1.97,0.05,0.05,0.09,0.99
1.23,174.25,6.56,9.88,0.86,1.86,11.43,0.14,0.02,0.07,8.06,26.19,46.06,0.36,0.13,1.48,0.05,0.05,0.09,0.99
1.24,174.31,6.50,9.75,0.19,1.45,10.96,0.18,0.07,0.02,8.06,26.19,46.06,1.56,0.73,1.20,0.05,0.05,0.09,0.99
1.26,174.31,5.81,8.81,1.14,0.15,10.80,0.57,0.42,0.09,7.37,24.37,46.88,0.42,0.19,1.11,0.05,0.05,0.08,0.99
1.27,174.12,5.37,8.25,1.32,1.43,10.33,0.47,0.36,0.21,6.50,24.75,47.38,0.41,0.47,0.38,0.05,0.04,0.07,0.99
1.29,173.62,4.56,6.94,1.39,0.09,9.54,0.74,0.57,0.30,5.75,21.75,47.75,0.66,1.20,0.17,0.06,0.04,0.06,1.00
1.30,173.25,4.00,6.06,1.00,0.24,10.09,0.84,0.45,0.30,5.75,21.75,47.75,0.35,0.71,0.35,0.06,0.03,0.06,1.00
1.31,172.94,3.56,5.06,0.47,0.84,10.69,1.05,0.53,0.19,5.75,21.75,47.75,0.08,0.07,0.93,0.06,0.03,0.05,1.00
1.32,172.75,2.94,3.81,0.56,0.83,11.42,1.12,0.56,0.13,4.25,20.75,48.06,0.11,0.76,1.15,0.06,0.02,0.04,1.00
1.33,172.75,2.19,2.62,0.31,0.86,10.24,1.11,0.81,0.02,4.25,20.75,48.06,0.01,1.26,0.60,0.06,0.02,0.02,1.00
1.34,172.62,1.31,1.37,0.59,1.29,9.76,1.17,0.78,0.11,4.25,20.75,48.06,0.04,0.52,0.82,0.06,0.01,0.01,1.00
1.35,172.25,0.56,0.13,0.42,0.00,9.08,1.10,0.63,0.48,3.50,17.75,49.75,0.63,0.41,0.67,0.07,0.01,0.00,1.00
1.37,171.00,0.81,2.44,1.06,0.08,9.66,1.24,0.62,0.62,2.00,14.38,50.56,0.85,0.98,0.74,0.08,0.01,0.02,1.00
1.38,170.44,1.50,3.75,0.01,1.78,9.13,1.38,0.66,0.37,2.00,14.38,50.56,0.66,0.23,0.68,0.08,0.01,0.03,1.00
1.40,169.62,3.69,7.62,0.28,3.42,8.12,1.62,0.82,0.25,0.50,10.69,51.50,0.99,1.96,1.54,0.09,0.03,0.07,0.99
1.41,169.25,4.62,9.44,0.25,2.40,8.56,1.65,0.79,0.34,1.00,8.00,51.50,0.26,0.67,0.36,0.09,0.03,0.09,0.99
1.42,168.81,5.56,11.25,0.80,0.61,9.64,1.67,0.82,0.28,1.00,8.00,51.50,0.31,0.90,0.32,0.10,0.04,0.10,0.99
1.43,168.56,6.50,13.13,0.78,1.84,8.46,1.69,0.89,0.23,1.00,8.00,51.50,0.90,0.68,1.45,0.10,0.05,0.12,0.99
1.44,168.31,7.50,15.00,0.65,4.02,7.99,1.71,0.84,0.24,2.50,2.75,52.50,0.64,1.57,1.42,0.10,0.05,0.14,0.98
1.45,168.19,8.44,17.00,0.70,4.22,8.49,1.81,0.79,0.27,2.50,2.75,52.50,0.23,0.47,0.68,0.10,0.06,0.15,0.98
1.46,167.87,9.38,19.00,1.28,2.94,9.29,1.76,0.80,0.23,2.50,2.75,52.50,0.22,0.07,0.49,0.10,0.07,0.17,0.98
1.48,167.31,11.31,22.75,1.55,3.07,9.55,1.73,0.90,0.31,5.00,1.25,52.75,0.22,0.47,0.35,0.11,0.08,0.20,0.97
1.49,167.06,12.44,24.69,1.84,4.23,7.81,1.78,1.05,0.14,6.87,5.75,52.56,0.21,0.37,0.72,0.11,0.09,0.22,0.97
1.50,167.00,13.50,26.75,1.79,3.64,8.31,1.72,0.96,0.18,6.87,5.75,52.56,0.65,0.77,0.02,0.11,0.09,0.24,0.96
1.51,166.69,14.50,28.62,1.66,3.84,8.58,1.62,0.85,0.24,6.87,5.75,52.56,0.79,0.70,0.25,0.11,0.10,0.25,0.96
1.52,166.75,15.50,30.56,2.21,5.22,7.37,1.69,1.06,0.19,10.56,9.56,51.25,0.46,0.25,0.55,0.11,0.11,0.27,0.95
1.53,166.62,16.69,32.63,2.43,3.84,7.74,1.70,1.08,0.24,10.56,9.56,51.25,0.35,1.51,0.24,0.11,0.12,0.29,0.94
1.54,166.50,17.81,34.56,2.26,4.91,7.57,1.66,1.12,0.13,11.75,13.25,48.50,0.74,0.38,0.11,0.11,0.13,0.30,0.94
1.56,166.50,19.81,39.00,2.22,4.25,6.63,1.73,0.94,0.26,11.75,13.25,48.50,1.09,1.55,0.53,0.11,0.14,0.34,0.92
1.57,166.50,20.75,40.94,2.64,5.16,6.75,1.57,0.91,0.24,16.19,17.50,47.69,0.84,0.84,0.17,0.11,0.15,0.35,0.92
1.59,166.88,22.31,45.31,4.26,5.49,6.13,1.67,1.05,0.19,16.87,20.50,44.56,0.54,0.95,0.24,0.10,0.17,0.38,0.90
1.60,166.88,23.06,47.25,3.69,5.17,6.91,1.43,0.92,0.06,16.87,20.50,44.56,0.35,0.56,0.59,0.10,0.17,0.40,0.90
1.61,167.00,23.81,49.25,4.69,7.78,4.85,1.45,1.16,0.01,16.87,20.50,44.56,0.73,0.99,0.99,0.10,0.18,0.41,0.89
1.62,167.06,24.81,51.37,4.34,6.52,4.81,1.53,1.26,0.17,19.56,24.69,43.75,0.22,0.43,0.73,0.10,0.19,0.42,0.88
1.63,166.81,26.00,53.31,2.67,8.04,4.62,1.42,1.18,0.43,19.56,24.69,43.75,1.00,0.37,0.16,0.10,0.20,0.44,0.87
1.64,166.37,27.00,55.06,3.53,7.15,5.32,1.36,0.71,0.61,22.19,27.25,40.75,0.92,0.00,0.32,0.10,0.21,0.45,0.86
1.65,165.75,28.00,56.69,4.36,6.04,4.15,1.26,0.80,0.50,22.19,27.25,40.75,0.24,1.18,0.59,0.11,0.22,0.46,0.85
1.67,165.44,29.44,60.50,3.90,7.34,3.87,1.41,0.78,0.28,25.19,28.00,38.00,0.91,0.09,0.32,0.11,0.23,0.48,0.84
1.68,165.31,29.75,61.50,5.85,7.45,3.82,1.66,0.90,0.10,25.19,28.00,38.00,0.94,0.08,0.06,0.11,0.24,0.49,0.83
1.69,165.19,30.31,64.00,5.57,9.18,3.77,1.87,1.21,0.09,26.56,31.00,34.69,0.58,1.49,0.26,0.11,0.24,0.50,0.82
1.70,165.50,30.62,66.87,6.61,8.33,3.88,1.97,1.00,0.32,26.56,31.00,34.69,1.60,0.49,0.77,0.10,0.25,0.52,0.81
1.71,165.62,30.81,69.62,5.06,8.53,0.35,1.53,1.06,0.18,26.56,31.00,34.69,0.00,0.60,3.11,0.10,0.25,0.54,0.80
1.72,165.37,31.50,71.81,4.90,8.42,0.28,1.45,0.85,0.45,27.69,33.19,30.19,0.39,0.22,1.50,0.10,0.26,0.55,0.79
1.73,164.13,32.63,73.50,4.90,8.03,1.44,1.30,0.57,1.06,27.69,33.19,30.19,0.50,0.64,1.27,0.11,0.27,0.56,0.78
1.74,162.69,33.94,75.12,4.64,6.68,0.95,1.30,0.57,1.11,27.69,33.19,30.19,1.20,1.83,0.95,0.12,0.28,0.56,0.77
1.75,161.69,35.06,76.87,4.44,6.10,1.08,1.37,0.51,0.81,30.37,34.69,26.56,0.36,1.31,1.66,0.12,0.29,0.57,0.76
1.77,159.37,37.13,80.00,5.85,5.67,0.55,1.13,0.60,0.72,31.56,35.00,23.56,1.54,0.70,0.44,0.13,0.30,0.58,0.74
1.78,158.69,37.81,82.00,4.02,7.55,0.42,1.40,0.63,0.27,31.56,35.00,23.56,1.78,0.03,1.26,0.14,0.31,0.59,0.73
1.80,157.69,38.19,85.50,6.19,7.19,0.94,1.31,0.38,0.17,34.88,34.25,20.37,0.13,0.50,0.46,0.14,0.31,0.61,0.71
1.81,157.37,38.13,87.44,4.60,9.83,0.90,1.36,0.69,0.09,34.88,34.25,20.37,1.46,2.12,1.11,0.14,0.31,0.62,0.71
1.82,157.12,38.25,89.44,5.51,8.95,0.67,1.34,0.58,0.10,35.25,35.38,17.06,0.98,1.00,0.72,0.14,0.32,0.63,0.70
1.83,156.00,38.75,91.00,5.16,7.93,0.43,1.20,0.07,0.72,35.25,35.38,17.06,0.27,0.64,0.25,0.15,0.32,0.64,0.69
1.84,154.50,39.44,92.50,6.35,6.91,0.29,1.31,0.14,0.57,35.25,35.38,17.06,0.12,0.65,0.62,0.15,0.32,0.64,0.68
1.85,153.75,39.81,94.31,6.22,7.24,1.81,1.31,0.38,0.26,36.06,35.75,15.38,0.07,0.67,1.51,0.16,0.33,0.65,0.67
1.86,152.87,40.06,95.75,6.27,6.49,2.47,0.86,0.09,0.54,36.06,35.75,15.38,0.73,0.77,0.43,0.16,0.33,0.66,0.66
1.88,151.12,40.63,98.62,5.18,6.98,0.06,1.29,0.37,0.06,36.38,36.19,12.06,0.16,1.08,0.28,0.17,0.33,0.67,0.64
1.89,150.62,40.44,100.25,6.47,6.77,1.76,1.05,0.32,0.07,36.38,36.19,12.06,0.11,0.56,0.43,0.17,0.33,0.68,0.64
1.90,150.44,40.38,101.50,6.92,7.33,3.06,0.86,0.40,0.05,37.19,35.75,10.88,1.22,1.91,1.57,0.17,0.34,0.68,0.63
1.91,149.87,40.31,102.87,4.04,6.02,1.56,0.99,0.01,0.15,37.19,35.75,10.88,2.23,0.46,0.95,0.17,0.34,0.69,0.62
1.92,149.06,40.50,104.00,5.47,6.65,1.27,0.91,0.03,0.24,37.19,35.69,8.50,0.18,0.95,0.38,0.17,0.34,0.69,0.62
1.93,148.25,40.75,104.94,6.25,6.22,3.17,0.67,0.13,0.23,37.19,35.69,8.50,0.31,0.27,1.09,0.17,0.34,0.70,0.61
1.94,147.37,41.13,105.69,5.57,6.88,2.66,0.54,0.03,0.43,37.19,35.69,8.50,0.87,0.22,0.66,0.18,0.34,0.70,0.61
1.95,146.50,41.81,106.31,4.41,6.43,2.53,0.36,0.08,0.67,38.25,36.38,6.69,1.25,1.06,0.47,0.18,0.34,0.70,0.60
1.96,145.25,42.62,106.56,5.68,5.91,2.20,0.27,0.28,0.61,38.25,36.38,6.69,0.61,0.99,0.39,0.19,0.35,0.70,0.60
1.98,144.13,43.19,107.19,5.64,5.37,1.65,0.28,0.03,0.18,39.38,34.88,7.06,1.07,1.44,0.46,0.19,0.35,0.70,0.60
1.99,143.56,43.56,107.37,6.52,7.37,2.90,0.09,0.05,0.38,39.38,34.88,7.06,0.23,0.59,0.77,0.20,0.35,0.70,0.59
2.00,142.75,44.19,107.50,6.41,7.61,1.20,0.10,0.22,0.60,38.75,35.56,5.50,0.42,0.91,0.90,0.20,0.35,0.69,0.59
2.01,141.81,44.81,107.50,5.99,6.17,1.54,0.10,0.25,0.47,38.75,35.56,5.50,0.92,0.45,0.54,0.20,0.36,0.69,0.59
2.02,141.37,45.31,107.31,6.50,6.05,2.94,0.03,0.37,0.40,40.25,33.69,4.25,0.47,0.51,0.88,0.21,0.36,0.69,0.59
2.03,141.00,45.63,107.12,6.72,6.83,1.26,0.11,0.25,0.46,40.25,33.69,4.25,0.32,0.31,0.72,0.21,0.36,0.69,0.59
2.04,140.37,46.19,106.94,6.66,6.51,0.98,0.00,0.14,0.37,40.25,33.69,4.25,0.43,0.04,0.98,0.22,0.36,0.69,0.59
2.05,140.06,46.63,106.87,6.53,6.63,1.76,0.01,0.17,0.41,40.25,33.00,5.06,0.62,0.22,0.18,0.22,0.36,0.68,0.59
2.06,139.44,47.06,106.94,6.91,6.67,1.61,0.18,0.11,0.31,40.25,33.00,5.06,0.28,0.31,0.32,0.22,0.36,0.68,0.59
2.08,138.37,47.88,107.06,7.51,6.93,1.70,0.10,0.28,0.35,41.75,31.75,6.25,1.25,0.42,0.55,0.22,0.37,0.68,0.59
2.09,137.50,48.56,106.87,8.70,6.34,1.62,0.05,0.25,0.72,41.75,31.75,6.25,0.64,0.34,0.08,0.23,0.37,0.68,0.59
2.11,135.37,50.44,107.44,8.82,6.57,0.37,0.15,0.10,0.96,41.37,30.69,6.69,1.20,0.69,1.49,0.24,0.38,0.67,0.59
2.12,134.12,51.44,107.94,8.98,8.16,0.33,0.16,0.02,0.99,41.37,30.69,6.69,0.81,1.98,0.89,0.25,0.39,0.67,0.59
2.13,133.25,52.06,109.00,7.71,6.90,1.18,0.51,0.19,0.64,42.19,30.25,6.25,1.04,0.09,0.28,0.25,0.39,0.67,0.58
2.14,131.87,53.00,109.87,6.53,4.50,1.86,0.26,0.01,0.94,42.19,30.25,6.25,2.24,0.51,0.41,0.26,0.40,0.67,0.58
2.15,131.00,54.06,110.25,6.02,5.86,2.73,0.03,0.12,0.86,44.75,28.50,5.50,1.91,0.46,0.73,0.26,0.40,0.66,0.57
2.16,130.06,54.63,110.94,6.44,4.76,1.83,0.37,0.05,0.52,44.75,28.50,5.50,2.30,1.21,0.18,0.27,0.41,0.66,0.57
2.17,129.25,54.94,111.56,5.49,4.37,2.09,0.41,0.03,0.18,44.75,28.50,5.50,2.53,0.85,0.02,0.27,0.41,0.66,0.57
2.18,129.25,54.75,111.69,7.12,3.34,2.33,0.33,0.11,0.34,45.19,26.19,5.50,0.88,1.90,0.24,0.27,0.41,0.66,0.57
2.19,129.75,54.19,111.37,8.20,3.57,1.37,0.10,0.07,0.64,45.19,26.19,5.50,0.24,1.76,0.71,0.27,0.40,0.67,0.57
2.20,130.37,53.50,111.12,7.66,5.55,0.60,0.07,0.02,0.65,45.19,27.00,4.19,0.21,0.11,2.70,0.26,0.40,0.67,0.57
2.21,131.06,52.75,111.19,10.56,6.35,0.15,0.16,0.26,0.66,45.19,27.00,4.19,2.75,0.82,2.30,0.26,0.39,0.67,0.57
2.22,131.94,51.94,111.62,6.49,10.80,6.08,0.23,0.48,0.59,45.19,27.00,4.19,1.23,5.19,3.84,0.25,0.39,0.68,0.57
2.23,131.94,51.75,111.94,6.06,5.67,3.86,0.37,0.21,0.19,44.38,28.06,3.87,1.65,0.06,1.59,0.25,0.39,0.68,0.57
2.24,130.94,52.31,112.00,5.22,4.60,2.06,0.15,0.47,0.57,44.38,28.06,3.87,2.57,0.90,0.15,0.26,0.39,0.68,0.56
2.25,129.87,53.00,111.88,5.85,3.35,1.08,0.28,0.33,0.15,43.25,28.56,4.69,1.99,2.10,1.10,0.26,0.39,0.68,0.56
2.26,129.38,53.13,111.81,7.85,1.49,0.61,0.30,0.10,0.57,43.25,28.56,4.69,0.03,3.99,2.81,0.27,0.39,0.68,0.56
2.28,131.63,50.44,111.62,8.25,7.87,2.59,0.32,0.37,1.75,44.38,28.50,5.00,1.07,2.61,0.90,0.25,0.37,0.69,0.56
2.29,133.06,49.06,111.62,8.37,8.82,3.53,0.07,0.17,0.47,44.38,28.50,5.00,0.38,2.95,0.71,0.24,0.37,0.70,0.56
2.31,132.87,49.25,111.56,7.57,6.50,1.51,0.04,0.12,0.49,42.50,31.06,4.69,0.11,0.58,0.82,0.25,0.37,0.70,0.57
2.32,132.31,49.75,111.69,6.53,7.71,1.74,0.04,0.02,0.41,42.50,31.06,4.69,0.97,1.86,0.59,0.25,0.37,0.69,0.56
2.33,132.00,50.25,111.88,6.00,7.01,1.69,0.03,0.08,0.53,42.50,30.69,3.37,1.75,0.43,0.22,0.25,0.37,0.69,0.56
2.34,131.37,50.75,111.94,6.37,5.65,2.28,0.11,0.19,0.11,42.50,30.69,3.37,0.30,0.72,0.19,0.25,0.38,0.69,0.56
2.35,131.06,50.81,111.88,8.12,4.67,1.32,0.16,0.14,0.11,42.50,30.69,3.37,0.24,0.47,0.55,0.26,0.37,0.69,0.56
2.36,131.31,50.81,111.88,7.14,6.20,2.24,0.01,0.03,0.03,43.69,29.56,3.87,4.91,1.76,1.93,0.25,0.38,0.69,0.56
2.37,130.87,51.25,111.94,9.86,3.90,0.38,0.08,0.01,0.46,43.69,29.56,3.87,2.28,1.26,0.68,0.26,0.38,0.69,0.56
2.38,130.37,51.94,111.75,2.89,5.82,2.04,0.17,0.49,0.58,43.69,30.25,3.37,3.80,3.11,0.30,0.26,0.38,0.68,0.56
2.39,129.31,52.75,110.37,5.44,6.91,0.63,0.22,0.88,0.28,43.69,30.25,3.37,1.62,0.21,1.83,0.27,0.38,0.68,0.57
2.41,127.87,54.00,108.69,6.95,5.71,1.68,0.04,0.48,0.23,44.75,30.00,5.87,0.03,0.05,0.43,0.28,0.38,0.67,0.57
2.42,127.44,54.25,108.31,8.51,5.04,1.48,0.20,0.10,0.22,44.75,30.00,5.87,1.10,0.69,0.15,0.28,0.38,0.67,0.57
2.43,127.56,53.87,108.31,9.50,5.54,0.86,0.23,0.00,0.42,44.38,28.50,6.25,1.57,0.06,0.95,0.28,0.38,0.67,0.57
2.44,128.00,53.31,108.50,9.44,7.06,1.32,0.24,0.16,0.54,44.38,28.50,6.25,0.66,1.88,0.18,0.28,0.37,0.68,0.57
2.45,128.19,53.00,108.81,7.16,7.90,2.32,0.14,0.12,0.11,44.38,28.50,6.25,0.67,2.31,0.42,0.28,0.37,0.68,0.57
2.46,127.81,53.38,109.06,6.86,7.23,2.26,0.05,0.04,0.52,44.38,28.75,7.50,1.00,1.70,0.35,0.28,0.37,0.68,0.57
2.47,126.69,54.25,109.31,7.53,5.22,1.43,0.06,0.17,0.88,44.38,28.75,7.50,0.10,1.02,0.68,0.28,0.38,0.67,0.57
2.48,125.62,55.25,109.63,7.81,3.83,1.26,0.08,0.11,0.86,43.69,29.19,5.50,0.24,1.42,0.61,0.29,0.38,0.67,0.57
2.50,124.69,55.88,110.06,7.57,4.77,2.09,0.10,0.00,0.03,43.69,29.19,5.50,0.54,0.38,0.20,0.29,0.39,0.67,0.56
2.51,124.75,55.69,110.00,7.54,5.66,2.11,0.06,0.07,0.17,44.75,28.06,5.87,0.55,0.47,0.22,0.29,0.38,0.67,0.56
2.53,125.00,55.69,109.56,7.96,5.12,1.47,0.09,0.08,0.02,43.87,26.19,5.50,0.13,0.08,0.37,0.29,0.38,0.67,0.56
2.54,124.94,55.69,109.50,7.59,6.24,1.30,0.05,0.09,0.08,43.87,26.19,5.50,0.51,1.05,0.53,0.29,0.38,0.67,0.57
2.55,124.81,55.81,109.37,7.90,5.73,1.18,0.05,0.07,0.14,43.87,26.19,5.50,0.22,0.55,0.62,0.30,0.38,0.67,0.57
2.56,124.87,56.00,109.25,8.20,4.87,1.28,0.06,0.07,0.14,45.50,27.00,6.69,0.06,0.28,0.51,0.30,0.39,0.67,0.57
2.57,124.75,56.19,109.19,8.14,5.82,1.38,0.02,0.02,0.05,45.50,27.00,6.69,0.00,0.67,0.41,0.30,0.39,0.67,0.57
2.58,124.62,56.19,109.19,8.08,6.37,1.54,0.04,0.02,0.04,44.00,27.69,6.69,0.46,0.94,0.15,0.30,0.39,0.67,0.57
2.59,124.44,56.37,109.25,7.73,5.37,1.63,0.03,0.01,0.21,44.00,27.69,6.69,0.32,0.23,0.31,0.30,0.39,0.67,0.57
2.60,124.25,56.56,109.31,7.70,4.58,1.33,0.00,0.00,0.09,44.00,27.69,6.69,0.20,0.76,0.86,0.30,0.39,0.66,0.57
2.61,124.25,56.63,109.37,8.17,4.53,0.99,0.01,0.04,0.04,44.69,26.56,6.25,0.02,0.11,0.41,0.30,0.39,0.66,0.57
2.63,124.38,56.63,109.31,7.33,5.35,1.07,0.08,0.03,0.06,44.69,26.56,6.25,0.69,0.36,1.37,0.30,0.39,0.66,0.57
2.64,124.44,56.75,109.12,7.99,4.23,0.17,0.11,0.03,0.06,44.25,26.19,7.06,0.72,1.04,2.15,0.30,0.39,0.66,0.57
2.65,124.69,56.63,109.06,7.49,3.68,0.16,0.14,0.11,0.14,44.25,26.19,7.06,0.43,1.55,1.73,0.30,0.39,0.66,0.57
2.66,125.50,56.25,109.00,7.49,3.70,0.24,0.23,0.24,0.35,45.50,26.19,6.69,0.65,1.44,1.52,0.29,0.39,0.66,0.57
2.67,126.56,55.69,108.94,6.26,4.19,0.32,0.35,0.34,0.40,45.50,26.19,6.69,2.13,1.32,1.86,0.29,0.39,0.66,0.57
2.68,127.81,55.12,108.69,5.90,3.40,0.49,0.52,0.30,0.44,45.50,26.19,6.69,2.14,1.89,2.29,0.28,0.39,0.66,0.57
2.69,129.38,54.50,107.94,5.84,3.11,0.38,0.73,0.16,0.57,45.19,26.56,6.25,2.13,2.29,2.14,0.27,0.39,0.66,0.58
2.70,131.00,53.81,106.94,5.39,3.25,0.02,0.78,0.08,0.65,45.19,26.56,6.25,2.52,2.27,1.66,0.27,0.39,0.66,0.59
2.71,132.56,53.13,105.81,4.84,3.05,0.07,0.84,0.03,0.58,44.75,28.06,7.87,3.00,2.60,1.52,0.26,0.39,0.66,0.59
2.72,133.31,52.88,105.12,4.82,2.74,0.18,0.94,0.14,0.56,44.75,28.06,7.87,2.96,3.02,1.66,0.25,0.39,0.65,0.60
2.74,136.81,51.44,101.94,4.74,2.91,0.06,1.16,0.20,1.05,44.38,28.75,7.87,2.97,2.75,1.45,0.24,0.38,0.65,0.61
2.75,139.00,50.25,100.06,4.09,4.69,0.47,1.17,0.16,1.28,44.38,28.75,7.87,3.37,1.57,1.49,0.23,0.38,0.64,0.62
2.76,141.37,48.87,98.19,4.41,5.97,0.49,1.24,0.24,1.26,44.38,28.75,7.87,2.52,0.59,1.24,0.22,0.37,0.64,0.64
2.77,143.44,47.75,95.81,5.05,5.77,0.19,1.56,0.55,1.02,41.75,30.69,8.69,1.90,0.81,0.71,0.21,0.36,0.64,0.65
2.78,145.50,46.75,92.88,5.58,5.90,0.53,1.97,0.69,0.97,41.75,30.69,8.69,1.51,0.72,1.15,0.21,0.36,0.63,0.66
2.79,147.56,45.69,89.87,5.56,6.04,1.31,1.94,0.67,1.06,40.25,33.25,12.37,1.62,1.06,1.11,0.20,0.35,0.62,0.68
2.80,149.81,44.31,86.75,5.08,5.86,1.45,2.27,1.06,1.32,40.25,33.25,12.37,1.38,1.20,1.14,0.19,0.34,0.60,0.70
2.82,154.87,40.75,79.44,5.18,8.78,3.00,2.68,0.94,1.64,37.25,34.06,16.75,1.59,1.79,1.79,0.16,0.32,0.58,0.74
2.83,157.56,39.00,76.06,4.52,9.30,3.78,2.77,0.99,1.20,37.25,34.06,16.75,1.19,1.93,2.00,0.15,0.31,0.56,0.76
2.85,161.44,35.81,67.87,5.16,8.79,3.68,3.30,1.42,0.87,33.88,34.50,23.25,0.48,0.69,0.42,0.13,0.28,0.52,0.80
2.86,163.06,34.31,63.50,5.07,7.52,4.25,3.26,1.43,0.81,33.88,34.50,23.25,1.08,1.12,2.00,0.12,0.27,0.49,0.82
2.87,164.25,33.00,59.13,4.02,8.91,6.43,3.27,1.45,0.46,29.87,32.56,29.37,1.13,2.17,1.92,0.12,0.26,0.47,0.84
2.88,165.31,31.75,54.81,4.44,8.88,6.22,3.19,1.47,0.56,29.87,32.56,29.37,0.60,1.08,1.09,0.11,0.25,0.44,0.86
2.89,166.31,30.25,50.75,4.43,7.41,6.51,3.15,1.51,0.47,27.56,29.25,35.88,0.71,1.14,1.55,0.10,0.24,0.41,0.87
2.90,167.13,28.87,46.81,3.90,7.96,8.14,3.00,1.49,0.39,27.56,29.25,35.88,0.47,2.48,2.56,0.10,0.23,0.39,0.89
2.91,167.94,27.31,43.13,4.92,8.37,8.16,2.88,1.53,0.49,27.56,29.25,35.88,0.42,2.41,1.81,0.10,0.22,0.36,0.90
2.93,169.81,23.94,36.31,4.26,8.21,8.67,2.89,1.43,0.44,23.19,23.25,40.25,0.13,3.29,1.28,0.08,0.19,0.31,0.93
2.94,169.87,22.50,32.94,4.21,8.03,8.49,2.76,1.39,0.23,19.06,19.56,45.69,0.45,3.10,0.89,0.08,0.18,0.28,0.94
2.95,170.19,20.94,29.63,5.13,6.44,8.68,2.68,1.56,0.11,19.06,19.56,45.69,1.72,2.03,0.83,0.08,0.17,0.26,0.95
2.96,170.38,19.37,26.50,4.84,6.50,9.56,2.50,1.50,0.11,19.06,19.56,45.69,1.58,2.37,1.29,0.08,0.15,0.23,0.96
2.97,170.50,17.94,24.00,3.44,7.26,9.13,2.07,1.25,0.28,16.56,13.06,48.75,0.41,3.47,0.61,0.08,0.14,0.21,0.96
2.98,170.44,16.69,21.62,3.18,7.32,8.53,1.94,1.35,0.23,16.56,13.06,48.75,0.28,3.78,0.50,0.08,0.13,0.19,0.97
2.99,169.62,15.25,19.31,2.76,6.47,7.97,1.75,1.59,0.59,13.19,7.50,50.75,0.18,3.34,0.94,0.09,0.12,0.17,0.97
3.00,168.75,13.75,17.12,3.52,3.78,8.39,1.61,1.67,0.73,13.19,7.50,50.75,1.31,0.84,0.10,0.10,0.11,0.16,0.98
3.01,168.00,12.25,15.19,3.28,3.52,9.88,1.43,1.55,0.55,13.19,7.50,50.75,1.19,1.00,0.63,0.10,0.09,0.14,0.98
3.03,166.56,9.44,12.44,2.79,4.37,9.63,0.98,1.43,0.47,8.69,2.19,52.38,1.18,2.28,0.19,0.12,0.07,0.12,0.98
3.04,165.37,7.94,11.25,2.72,3.96,9.28,0.96,1.51,0.64,4.56,0.69,51.06,1.36,2.06,0.23,0.13,0.06,0.11,0.98
3.05,164.44,6.37,10.19,1.99,4.34,9.06,0.77,1.58,0.80,4.56,0.69,51.06,0.89,2.62,0.52,0.13,0.04,0.10,0.99
3.06,163.25,4.81,9.31,1.29,4.42,9.92,0.61,1.65,1.02,4.56,0.69,51.06,0.46,2.84,0.28,0.14,0.03,0.09,0.99
3.07,162.06,4.00,8.94,0.78,4.16,10.17,0.53,1.59,1.29,0.06,4.19,50.69,0.22,2.69,0.49,0.16,0.02,0.08,0.98
3.08,160.44,2.50,8.25,1.19,1.15,11.63,0.63,1.65,1.64,0.06,4.19,50.69,0.89,0.19,1.92,0.17,0.01,0.07,0.98
3.09,158.44,0.94,7.44,1.17,0.57,11.71,0.71,1.65,1.69,4.19,5.69,50.88,0.90,0.71,1.99,0.19,0.00,0.07,0.98
3.10,156.19,0.62,6.56,0.53,0.74,11.58,0.80,1.63,1.28,4.19,5.69,50.88,0.34,0.04,1.59,0.21,0.02,0.06,0.98
3.11,154.69,2.25,5.75,0.21,0.94,11.28,0.78,1.49,1.03,4.19,5.69,50.88,0.09,0.10,1.42,0.22,0.03,0.04,0.97
3.13,152.31,5.00,4.25,0.54,1.16,10.33,0.70,1.13,0.61,8.25,6.50,50.75,0.43,0.43,0.47,0.24,0.05,0.03,0.97
3.14,151.63,6.06,3.56,0.45,0.80,10.22,0.68,0.96,0.57,8.25,6.50,50.75,0.58,0.19,0.49,0.24,0.06,0.02,0.97
3.16,150.19,7.69,2.37,1.00,0.04,9.97,0.44,0.53,0.06,13.19,8.00,49.19,0.32,0.25,0.18,0.26,0.07,0.00,0.96
3.17,150.00,8.25,1.87,1.06,0.74,9.99,0.41,0.44,0.22,15.00,9.56,49.25,0.47,0.87,0.36,0.26,0.07,0.00,0.96
3.18,150.38,8.56,1.44,0.87,1.39,10.13,0.35,0.18,0.49,15.00,9.56,49.25,0.68,1.26,0.44,0.25,0.08,0.01,0.96
3.19,150.94,8.75,0.94,0.62,1.37,10.08,0.36,0.12,0.49,15.00,9.56,49.25,0.86,1.21,0.39,0.25,0.08,0.01,0.97
3.20,151.12,8.81,0.44,0.62,1.11,9.86,0.41,0.05,0.42,15.75,9.88,49.69,0.72,1.08,0.18,0.25,0.08,0.02,0.97
3.21,151.50,8.88,0.13,0.98,1.35,9.72,0.50,0.03,0.41,15.75,9.88,49.69,0.43,1.58,0.07,0.24,0.07,0.02,0.97
3.22,151.50,8.94,0.88,1.19,1.58,9.55,0.64,0.13,0.27,16.50,11.00,48.38,0.33,1.72,0.13,0.25,0.07,0.03,0.97
3.24,151.19,9.75,2.81,1.33,0.81,9.23,1.05,0.46,0.27,16.50,11.00,48.38,0.32,1.29,0.42,0.25,0.08,0.04,0.96
3.25,150.56,10.31,4.06,1.23,0.37,9.22,1.29,0.55,0.46,15.38,13.19,47.56,0.53,1.06,0.39,0.25,0.08,0.06,0.96
3.26,149.81,11.00,5.56,1.49,0.32,9.07,1.47,0.57,0.55,15.38,13.19,47.56,0.38,0.61,0.50,0.26,0.08,0.07,0.96
3.27,149.00,11.75,7.25,1.80,0.80,9.20,1.64,0.60,0.56,16.50,15.88,47.88,0.19,0.41,0.31,0.26,0.08,0.09,0.96
3.28,148.62,12.13,8.13,2.39,1.55,8.98,1.83,0.65,0.48,16.50,15.88,47.88,0.25,0.02,0.46,0.27,0.08,0.11,0.95
3.29,148.00,12.94,10.13,2.63,1.78,8.62,2.00,0.68,0.35,16.50,15.88,47.88,0.36,0.08,0.73,0.27,0.09,0.12,0.95
3.30,147.13,13.75,12.31,2.75,1.60,8.82,2.01,0.66,0.27,19.19,17.69,45.50,0.32,0.67,0.32,0.28,0.09,0.14,0.95
3.31,146.62,14.50,14.50,2.73,1.69,9.00,1.90,0.61,0.18,19.19,17.69,45.50,0.21,0.84,0.12,0.28,0.09,0.15,0.94
3.32,146.31,15.19,16.62,2.67,1.96,8.85,1.87,0.60,0.12,19.19,17.69,45.50,0.09,0.34,0.49,0.28,0.09,0.17,0.94
3.34,145.62,16.50,20.94,2.93,3.12,8.04,1.97,0.50,0.01,20.25,22.56,41.88,0.35,0.28,0.89,0.29,0.09,0.21,0.93
3.35,145.25,17.00,23.19,3.30,3.36,7.90,1.96,0.47,0.07,22.06,25.56,40.56,0.59,0.51,0.41,0.29,0.09,0.23,0.93
3.37,145.44,17.44,28.75,4.12,2.82,8.67,1.76,0.27,0.42,21.75,29.25,37.00,1.17,1.67,0.47,0.28,0.08,0.28,0.92
3.38,145.56,17.44,29.75,3.75,3.68,8.37,1.69,0.27,0.35,21.75,29.25,37.00,0.79,1.10,0.34,0.28,0.08,0.29,0.91
3.39,145.69,17.56,31.75,3.75,4.20,8.13,1.59,0.29,0.22,21.75,29.25,37.00,0.77,0.84,0.26,0.28,0.07,0.31,0.91
3.40,145.62,17.69,33.63,3.87,4.48,8.14,1.41,0.32,0.18,22.87,33.00,33.25,0.93,0.45,0.52,0.28,0.07,0.31,0.90
3.41,145.75,17.87,35.25,4.09,5.47,8.49,1.21,0.33,0.27,22.87,33.00,33.25,1.06,0.00,0.94,0.28,0.07,0.33,0.90
3.42,145.94,18.00,36.69,4.06,5.64,8.39,1.16,0.32,0.31,22.87,35.25,30.06,0.93,0.17,0.80,0.27,0.07,0.34,0.90
3.43,146.06,18.00,38.06,3.79,6.32,7.70,1.08,0.29,0.33,22.87,35.25,30.06,0.68,0.63,0.39,0.27,0.07,0.35,0.89
3.44,146.37,18.00,39.31,3.51,6.47,7.69,0.85,0.20,0.51,22.87,35.25,30.06,0.28,0.41,0.62,0.27,0.07,0.36,0.89
3.45,146.81,17.75,40.44,3.19,6.21,7.53,0.77,0.13,0.61,23.19,38.25,28.00,0.20,0.03,0.40,0.26,0.06,0.37,0.89
3.46,147.50,17.31,41.44,3.15,6.09,7.41,0.71,0.09,0.72,23.19,38.25,28.00,0.26,0.04,0.45,0.26,0.06,0.37,0.89
3.47,148.19,16.87,42.44,3.08,6.24,7.41,0.70,0.11,0.69,23.19,38.25,28.00,0.30,0.18,0.57,0.25,0.06,0.38,0.89
3.48,148.75,16.56,43.25,3.15,6.17,7.53,0.65,0.14,0.57,22.06,39.75,26.69,0.35,0.27,0.68,0.25,0.05,0.39,0.89
3.49,149.19,16.31,43.81,3.01,6.19,7.71,0.55,0.14,0.50,22.06,39.75,26.69,0.01,0.15,0.81,0.24,0.05,0.39,0.89
3.50,149.62,16.06,44.38,2.66,6.47,7.40,0.44,0.10,0.40,20.25,41.25,24.37,0.05,0.11,0.67,0.24,0.05,0.39,0.89
3.51,149.94,15.94,44.88,2.58,6.47,7.17,0.39,0.10,0.31,20.25,41.25,24.37,0.21,0.02,0.48,0.24,0.05,0.40,0.89
3.52,150.25,15.75,45.38,2.41,6.88,7.19,0.35,0.11,0.30,20.25,41.25,24.37,0.25,0.16,0.56,0.23,0.05,0.40,0.88
3.53,150.62,15.63,45.81,2.25,7.21,7.18,0.33,0.07,0.28,19.19,42.38,24.69,0.38,0.43,0.61,0.23,0.05,0.40,0.88
3.54,150.87,15.38,46.25,2.24,7.05,6.92,0.29,0.01,0.28,19.19,42.38,24.69,0.35,0.22,0.39,0.23,0.05,0.41,0.88
3.55,151.12,15.06,46.56,2.20,6.71,6.95,0.24,0.10,0.34,19.19,43.06,22.69,0.35,0.16,0.45,0.23,0.04,0.41,0.88
3.56,151.44,14.69,46.88,2.21,6.28,6.73,0.23,0.12,0.37,19.19,43.06,22.69,0.27,0.64,0.25,0.22,0.04,0.41,0.88
3.57,151.69,14.38,47.19,2.42,5.88,6.67,0.25,0.07,0.28,19.19,43.06,22.69,0.01,1.08,0.22,0.22,0.04,0.41,0.88
3.58,151.81,14.25,47.31,2.54,5.81,6.60,0.25,0.02,0.19,18.00,43.06,23.56,0.13,1.20,0.18,0.22,0.04,0.41,0.88
3.59,152.00,14.13,47.69,2.55,5.98,6.51,0.27,0.10,0.06,18.00,43.06,23.56,0.15,1.07,0.13,0.22,0.04,0.42,0.88
3.60,152.00,14.19,48.00,2.54,6.09,6.39,0.26,0.12,0.02,18.75,43.50,23.06,0.13,0.74,0.07,0.22,0.04,0.42,0.88
3.61,151.81,14.31,48.31,2.18,6.35,6.31,0.20,0.11,0.01,18.75,43.50,23.06,0.26,0.71,0.10,0.22,0.04,0.42,0.88
3.62,151.81,14.38,48.50,2.16,6.41,6.50,0.14,0.07,0.02,18.75,43.50,23.06,0.32,0.51,0.39,0.22,0.04,0.42,0.88
3.63,151.81,14.44,48.69,2.09,6.68,6.86,0.12,0.06,0.00,17.69,44.56,21.87,0.34,0.46,0.71,0.22,0.04,0.42,0.88
3.64,151.75,14.50,48.75,2.15,6.70,6.93,0.06,0.05,0.08,17.69,44.56,21.87,0.17,0.46,0.63,0.22,0.04,0.42,0.88
3.66,151.31,14.63,48.75,2.53,7.17,6.78,0.02,0.09,0.23,18.00,44.25,21.50,0.02,0.13,0.52,0.22,0.04,0.42,0.88
3.67,151.00,14.75,48.63,2.32,7.25,6.90,0.07,0.12,0.22,18.00,44.25,21.50,0.25,0.12,0.61,0.23,0.04,0.42,0.88
3.68,150.75,14.75,48.44,2.22,7.18,6.88,0.10,0.16,0.11,18.37,44.25,21.87,0.27,0.08,0.59,0.23,0.04,0.42,0.88
3.69,150.56,14.63,48.25,2.28,6.96,6.69,0.07,0.19,0.05,18.37,44.25,21.87,0.19,0.12,0.38,0.23,0.03,0.42,0.88
3.70,150.38,14.56,48.13,2.43,6.77,6.72,0.05,0.17,0.12,18.37,44.25,21.87,0.04,0.28,0.39,0.23,0.03,0.42,0.88
