0.01,-145.75266432418982,43.451511261157414,163.31017973834483,0.14229445161064513,0.08982778243885563,0.04655892788676724,0.7968985195700052,0.024031298166366562,0.8061999537594668,0.22022724174607788,0.8896027920909271,-0.019497888611033798,0.390525932473252,-91.74587526884227,32.79096488979387,237.94871602532515,0.030135963042787622,0.1421759694419748,0.011413518039484628,1.1811573343470365,0.16355931145159497,1.656396266201259,0.680139976801078,0.5097320585145375,0.5102373582018945,-0.1498853300922092,-32.636860300188694,5.442017336460237,8.418189439822793,0.7092114571239674,0.10955513043542138,0.4667664000958905,0.0005770490396007487,0.3960342462740447,1.9940648000957677,0.06026011163195827,0.0700780027309973,-0.2795197877226766,0.9602012030585378,-149.34301368547153,34.84934162595984,28.18031481965887,0.5480623453040895,0.541060940560671,0.4689599386501746,0.04554571825608519,0.36465325393945736,0.5551685639233106,-0.2199304944215499,0.30049652406014965,-0.8695666673483442,0.31041946690885563
0.02,-145.45481941142316,43.61589321324853,163.36091155008552,0.1341189171397517,0.10592702568181811,0.04439919114922949,0.7740567152404599,0.08027605491189654,0.8095868648328663,0.2217755493832847,0.88938120378931,-0.01804408561512042,0.3915482263579519,-91.700669196808,33.03253761902218,237.8784161390701,0.05890087885561315,0.16994120119650988,0.018302829433637438,1.0280767616770998,0.21955061372370327,1.5263447148461917,0.6812056642442602,0.5079901977864625,0.510192667778589,-0.14741791080055747,-33.129426026560736,5.201013771110564,7.647083849456291,0.6827260091877961,0.14902198488232668,0.4710581767343273,0.07605224727486846,0.3787298311312299,1.7437161719008218,0.05348846396551227,0.06550526576722086,-0.2836108184666668,0.9583887675643078,-150.0480707983053,34.93670743467953,29.374052156715535,0.5478754761069422,0.48034604196769637,0.4689796781437337,0.30216861430284775,0.48477202921381124,0.6646615266030436,-0.21888478649152573,0.3086545728540706,-0.8681565100686144,0.30842073903728007
0.03,-145.16189479515705,43.77442674020943,163.4116626244922,0.1259028998506357,0.12200665577737588,0.04324115369073741,0.7507498417381177,0.13460190153368654,0.8128972646399736,0.22333839498055622,0.8891554421301295,-0.016621833043103364,0.3925386670802371,-91.65519301722362,33.26924840038644,237.8025949126955,0.0864100777043755,0.19578844534171605,0.02467426082920745,0.8793813033146746,0.2726241064822707,1.4000271221503673,0.6822549273662611,0.5063466250457689,0.5101138603788921,-0.14497633825243963,-33.63693251929627,4.956920599392745,6.884722569451044,0.6542782412425705,0.18728751224143314,0.4765095433766408,0.15234191248842507,0.3660888667516571,1.5074993257475373,0.04683274649944942,0.060962173375265404,-0.2878239313011801,0.9565893192695978,-150.74052208709662,35.013768635702796,30.540216367979152,0.5471555824399432,0.420604380991745,0.46791834725131815,0.5443567032483779,0.6000262815359423,0.7746826612979824,-0.21785041374112896,0.3166016034903139,-0.8668378789470293,0.3064110382760042
0.04,-144.8714611945028,43.932274834179914,163.462763632016,0.11779606781581597,0.13803282016569313,0.04370444182555248,0.7271222924625833,0.18506366212892214,0.8156695043067486,0.2249504145705521,0.8888829401496441,-0.015192682853844718,0.3935392668592825,-91.60917048615985,33.501637357757396,237.71698662068397,0.11135454372124032,0.21823274536856618,0.03020741965238711,0.7401286636835364,0.3202182257153204,1.2805504676855228,0.6832792420273948,0.5048562845905451,0.5100008032799975,-0.1425567411675079,-34.1656617255282,4.708624223050833,6.13993923992992,0.6230140280191094,0.2227276467752616,0.48373030711716636,0.22767604115748027,0.36386831363343186,1.2982675041889162,0.04040282728984885,0.0564832013104912,-0.2922150374645777,0.9548183252232497,-151.40238793922717,35.07681584281018,31.661453514270583,0.545602949816637,0.36309484049510937,0.46487492866577595,0.7587998039640053,0.7050850204867816,0.8843777363039121,-0.21683281905897903,0.32421781997876237,-0.8656243879379715,0.30445761337891486
0.05,-144.5812745265503,44.09499530044589,163.51446212184868,0.10997343114229338,0.15409764961046182,0.046284215483077276,0.7033794234722256,0.2302528536031861,0.8173929814600516,0.2266391219310892,0.8885245526363716,-0.013719120311663854,0.3945929731377516,-91.56261610460207,33.73022354668346,237.61848473821053,0.13256068953111588,0.23616936948886308,0.034677233150601686,0.614838773253841,0.3603426735758456,1.1707391869992325,0.6842674771080031,0.5035611871085105,0.5098574104313444,-0.14015709979082416,-34.71954445467647,4.456497844574285,5.420903776753195,0.5885030347031218,0.2537835227212941,0.49298916023807743,0.3006490254742676,0.3766611167787526,1.1264459460030154,0.03429421785269133,0.05210883150289902,-0.2968200391131448,0.9530865572081875,-152.016216009402,35.124117436648625,32.72287443090756,0.5431443770746069,0.30904724288010055,0.45919111510325855,0.9345160218534184,0.7958324773228322,0.9927897413294351,-0.21584014680490468,0.3314066878655877,-0.864515747171166,0.3026370977101473
0.06,-144.28947000894448,44.2683892915863,163.56685957339513,0.10264717949000594,0.17045075485844857,0.05130686369933795,0.679790031550735,0.2694294817914659,0.817574825620696,0.22842227142407806,0.8880461644295997,-0.012166415652817073,0.39574241978919183,-91.51591216013531,33.95546589498534,237.50554532982932,0.14906351985825592,0.2490080662424068,0.037983029282846595,0.5072006530886907,0.3917306392024627,1.0730549113524015,0.6852058639749818,0.5024863123061849,0.5096924418656589,-0.13777844102098163,-35.299377282349,4.202781099281308,4.7350222042415995,0.5508220272386221,0.279046282117422,0.5041148219636367,0.37041683168307327,0.4073592946772421,0.9991981963406406,0.028584340985331236,0.04788749407763565,-0.3016478153445239,0.9514000066967061,-152.56568559637847,35.15638700189044,33.71285993000248,0.5399739010299417,0.25961767149078024,0.45053282212787393,1.0637331115066035,0.8697430662045365,1.098817692596633,-0.21488364814431743,0.338101210301142,-0.8634950969980797,0.30103463734708746
0.07,-143.99462198848477,44.45838971665788,163.61985873915626,0.0960735699606488,0.18749433704263227,0.058900415054659,0.6566688910248766,0.30253938211985015,0.8158086130844232,0.23030660429676145,0.8874194429359256,-0.010503564628489734,0.39702926521181947,-91.46982112320279,34.177844881616494,237.37840528339925,0.1601722328684754,0.256744346671052,0.04016038310024278,0.4198309252902982,0.4138961155625048,0.9894405615628451,0.686079064116825,0.5016369144516888,0.5095200394943163,-0.1354248450483243,-35.90222816744059,3.951658113405078,4.088889684564492,0.5105783011420838,0.29735369416680685,0.5164634273722659,0.43675230826217676,0.4568198945262817,0.9199461707832068,0.023330821830411862,0.04387583016473865,-0.3066750867450795,0.9497610833349905,-153.03629884920792,35.17692577069625,34.62371722667382,0.5365421945358083,0.21583723076735065,0.4389308501178483,1.1424692941752093,0.9260074522112783,1.2011571109238248,-0.21397704657777164,0.34426785165138074,-0.8625280328397774,0.29974084254191014
0.08,-143.6956636865124,44.670972145916046,163.673132749083,0.0905506145856458,0.2057408317348023,0.06898124456350699,0.6343436491749748,0.33012350151696684,0.8118219558971885,0.2322880486838751,0.8866217163916437,-0.008703381024353436,0.39849387293649713,-91.42542290882159,34.398035109229255,237.2390938659079,0.16552244655772622,0.2599535314587955,0.04137374048289313,0.3541101646003597,0.4270959736853132,0.9211093041348599,0.6868721853880145,0.5009975811226106,0.5093598884472107,-0.1331024961308184,-36.521115706127965,3.7090087925618778,3.488296028003226,0.46886870014098353,0.3078863668854066,0.5289603007140704,0.4999496085288033,0.5237652600205996,0.8882701065025168,0.01857179056547545,0.04013692901981218,-0.31184379314947563,0.9481708515136065,-153.41610492285133,35.19143126380038,35.452111843738855,0.5334951910776684,0.17856168512897996,0.424769111320489,1.170739461461381,0.9653809746619704,1.2982260305292619,-0.21313498491682115,0.3499077764267902,-0.8615636416360508,0.2988468135608356
0.09,-143.39168496575255,44.91205986453631,163.72612819787682,0.08640381577342036,0.22573863295499697,0.08125671994138521,0.6131152000123508,0.3531430257844509,0.805493215899168,0.23435329989545012,0.885635116966374,-0.006741910315216739,0.40017498336742546,-91.38397969891894,34.61711479942978,237.09124450156511,0.16510786431459426,0.2597078271586153,0.04189166752760125,0.3101206585742455,0.43221540263215763,0.868346729804344,0.6875733163078304,0.5005331593623684,0.5092369095576953,-0.13081821373406163,-37.145041084392176,3.4818607352444073,2.9382799619299553,0.4271775149952132,0.3102465523144636,0.5402107312091529,0.5605956554174173,0.6049223683752789,0.900178636737256,0.014327967486475761,0.03673657718350533,-0.31706155201434416,0.9466317778604166,-153.69637426657948,35.20751554204936,36.199207275778356,0.5315712539846379,0.1484299328218049,0.4087196862251623,1.1523464360961817,0.9897854934105789,1.38810463014079,-0.21237094639423187,0.3550553102007336,-0.8605375511578554,0.29843787944501543
0.1,-143.08165411081916,45.187390419121726,163.778109411975,0.08395931108731187,0.24797726382696464,0.09524237575485225,0.5932269299948976,0.37275714790381526,0.7968465900207194,0.2364825250215492,0.8844453050641914,-0.004597457657456115,0.40210907473140883,-91.34674724881604,34.836751838107176,236.93973888093856,0.1592841936360239,0.2574318410991358,0.04204995303834468,0.2866968537391156,0.43060452186804776,0.8304127301984834,0.6881759949754307,0.5001914249493672,0.5091804203183697,-0.1285779010972264,-37.75942797891462,3.277619670805006,2.4432225299738373,0.38722429854559764,0.30450286421005257,0.5486616433218507,0.6192541872076974,0.695380888134399,0.9487089943191844,0.010606145791654663,0.03373796788116212,-0.32220557883564116,0.9451503197433899,-153.8721295950571,35.23401326314243,36.87047012524091,0.5314744632348373,0.1258370527069689,0.3916374075866463,1.0942757793640796,1.0017582298985284,1.468530898842276,-0.21169518790350036,0.3597737699363836,-0.8593766699450942,0.298586920330351
0.11,-142.76413397486925,45.50231722869272,163.8282407678959,0.08350628900222329,0.2727884612555522,0.11029241169779869,0.5748590891517112,0.39009798491499575,0.7860405619284703,0.23865272897973958,0.8830402234223531,-0.0022496524957748626,0.40432925195714703,-91.3147649846648,35.0593155552559,236.7902340796588,0.14874044707710785,0.25472141527231656,0.04220944525533961,0.28158344738349206,0.4238921187095331,0.8056043775592475,0.6886810663774373,0.49990718794132216,0.5092227488528146,-0.12638519906468076,-38.34698473443158,3.103195220752987,2.006961663992122,0.35077900507035775,0.2911897505329143,0.5527877205115285,0.6761305301038443,0.7891274394355268,1.0247858287995226,0.007403557629223185,0.03119565456714778,-0.327130129566923,0.9437387041029429,-153.94244852974563,35.28017850143953,37.47513653961583,0.533747112429368,0.11092455372621476,0.37443678120843843,1.005782644282276,1.0038805520768934,1.5369842805406302,-0.21111318196631085,0.3641490721589758,-0.8580050435371455,0.2993482408123324
0.12,-142.43707051434308,45.86153847282772,163.87569327564324,0.08525367239790275,0.3002629239787859,0.12564340705035654,0.5581525430930767,0.40608469892591603,0.7733533693017943,0.24084122148479878,0.8814093228173837,0.00032102278855500224,0.4068636330333877,-91.28866273724294,35.287882571268966,236.64863346322116,0.134437580941768,0.2531532506009107,0.0427151356679569,0.2916811840387892,0.4137959285613166,0.7914874682776524,0.689097561553874,0.49960740943308735,0.5093973464089526,-0.12424046119700034,-38.8889507785637,2.964157984757349,1.6329018221508018,0.31946551035335824,0.27125965896462645,0.5512730545787214,0.730795087662535,0.8796933034695246,1.1182339390626237,0.004712484251192402,0.02914973786189028,-0.33167711247558385,0.9424154220743485,-153.91047859576645,35.354872299854776,38.02537858054743,0.5386644891171913,0.10358759467265959,0.35797628015705557,0.8973123672665986,0.9983193338373162,1.5908598361502648,-0.21062488494212553,0.36828177567066617,-0.8563501007253567,0.3007529231197791
0.13,-142.09771563051035,46.268772154196554,163.91975634630464,0.08928888549361413,0.33020167823185814,0.14047179114098646,0.5432466443138725,0.4213049579195564,0.7591552023189445,0.24302871133512474,0.8795435187117795,0.00313299857405436,0.4097333017019754,-91.26851829199589,35.52612800608437,236.52056264303064,0.11752086848461678,0.25411111719594326,0.04386120702585432,0.31334942956478634,0.4019452241458048,0.785247103752554,0.6894424521673242,0.49921683846498843,0.5097365143878146,-0.12214007885338542,-39.3666335236067,2.8640586449363608,1.3240880969726003,0.2945750412946355,0.2459957763594362,0.5431624182525192,0.7820367138266425,0.9608344820989954,1.2188142491624643,0.0025243837262243405,0.02762131212275265,-0.33568907068472265,0.9412042646288787,-153.78314377043182,35.46583371577827,38.53524931020816,0.5461692597632427,0.10349675438903752,0.34296918279851657,0.7794133218199123,0.9865727792230354,1.6277050290183768,-0.21022493550187496,0.37227838718861256,-0.8543485228324113,0.30280636267193795
0.14,-141.74271239039953,46.7264215394552,163.95993715466128,0.0955471671065542,0.36211500859881324,0.1539642697682285,0.5303036447630624,0.4359735708815305,0.7438561990081467,0.2452017325963205,0.8774358558054768,0.006202707682759683,0.41295002100374073,-91.25378908357199,35.778116278686824,236.41090297770086,0.09921825571457552,0.25865027242276406,0.045864543585036936,0.34272838967182245,0.3897327481320918,0.7840686132792923,0.6897393245635474,0.49866365307872257,0.5102689349499913,-0.12007618184034216,-39.76309153454002,2.8040100073462746,1.0832158625245019,0.2769092921353606,0.21690079287883443,0.5279635768885309,0.8278940397818584,1.0271517161198007,1.3171471056099975,0.0008328422895460889,0.026610030631783223,-0.33902331399491276,0.940132062277997,-153.57056650072542,35.61910865099635,39.01951674776309,0.5558541481376117,0.11013098327498083,0.3299298313412095,0.6617818463448373,0.9694461830991966,1.645472689577388,-0.20990371019395504,0.3762428114977472,-0.851951049493335,0.3054882756397737
0.15,-141.3683326748849,47.2352902273346,163.99603534377727,0.10379751336052295,0.39527187139446057,0.16539680931017628,0.5194965152729677,0.44996339730516033,0.7278325442185832,0.24735423790579644,0.8750826077202598,0.009543230248977422,0.4165140772110426,-91.24332696702848,36.04802489207657,236.32342001490272,0.08073944561294583,0.26741491585615185,0.04884740792293105,0.3760419278997412,0.3782143691500511,0.7854546209283509,0.6900161598060475,0.4978846005865259,0.5110172596734338,-0.11803673368130631,-40.06478282471382,2.7825848415253955,0.9125551994398935,0.2666707425088567,0.18557959599196092,0.505691890521088,0.8658751327577583,1.0745626789600526,1.4054102854182793,-0.0003651331893478247,0.02609426371491683,-0.3415656622775706,0.9392255492046848,-153.28527103244414,35.8186858691545,39.4925133339782,0.5669932936124593,0.12281900271316562,0.31915434610278187,0.5525383932047154,0.9472166639290287,1.6427417427363216,-0.20964904077635624,0.3802687680593702,-0.8491257293922322,0.3087550066193696
0.16,-140.97082629954176,47.794406631475866,164.02818684164617,0.1136470377971121,0.4287914530545575,0.17421355407276468,0.5109550359858132,0.4628938114778782,0.7113469400445529,0.24948825128865704,0.8724844199023452,0.013162810604350199,0.4204127654380613,-91.23547064089462,36.33984612970522,236.2605073660628,0.0631884706864571,0.28061440083499634,0.0528289108364008,0.4098452363606348,0.3680706670286308,0.7874125088355329,0.6903025046669546,0.49682918099610174,0.5119960552850965,-0.11600597462309288,-40.26298131538067,2.7960278635820526,0.8137822933617148,0.2634153991789505,0.1536307708847958,0.4768590027692641,0.8933286262249761,1.1005661215444031,1.4777464652889074,-0.001069621729302767,0.026033784434974953,-0.34324214639114475,0.9385078841246411,-152.94126261485349,36.06636162953456,39.96712462713772,0.5786161268657125,0.14078758914985026,0.3107290152158157,0.45778517521976825,0.919903863370217,1.6188721519828624,-0.20944832584113496,0.3844338474910306,-0.8458593825197458,0.31254363726667467
0.17,-140.54682153266273,48.40100446267072,164.05687625002108,0.12456163168624716,0.46175921223753447,0.1800943962864162,0.5046852442707355,0.4742544141368208,0.6944838147480019,0.2516135353078858,0.8696471388606654,0.017063587680214973,0.42462002050629416,-91.22819865471429,36.657113257571204,236.2230514651661,0.047497682912436306,0.2980542436902452,0.057724429993063896,0.4411937665014441,0.3596341257122863,0.788491936178403,0.6906263797838993,0.49546251309411987,0.5132104128359322,-0.11396508755901338,-40.35477609131882,2.838732658816698,0.7877255308089657,0.2660788533311495,0.12255600449072487,0.4424171814013812,0.9078864412041096,1.1042875567264387,1.5303722928699706,-0.001279894744544214,0.026374389243963237,-0.3440271489507377,0.9379953665757558,-152.55308513159073,36.3618268507985,40.454018476312136,0.58961282961374,0.1632148221813208,0.30455832678781863,0.3814481319808992,0.887555391768597,1.5740846240257849,-0.20929073856754782,0.3887956579567606,-0.8421572806906246,0.316777279088681
0.18,-140.09371137781915,49.05068267717213,164.0829218946305,0.13589909470785452,0.49334493059138185,0.182999873225117,0.5004899631453278,0.4835359690679979,0.6771155540169213,0.253746347301541,0.8665821090147989,0.021240873790966557,0.4290975093743125,-91.21931880003397,37.0026900494398,236.2104109338135,0.03438607079203292,0.31921016436510224,0.06335212813268598,0.4677299575210326,0.35297147325406564,0.7876950102268593,0.6910112995925357,0.49376667662733775,0.51465547784032,-0.1118929519869857,-40.34351153565555,2.903903112979406,0.8340509539528751,0.2730777463613766,0.09369145857593947,0.40367751835086524,0.9078794159583101,1.086351928451434,1.5614330238548566,-0.0009976898143222084,0.027053545259689993,-0.34394686287167414,0.937694857283759,-152.1349467667336,36.70294688353094,40.96117863979477,0.5988574124078436,0.18928374510539914,0.30040588892930536,0.3253671846814056,0.8504729902070508,1.509473977700697,-0.20916923547036548,0.3933902412745295,-0.838041230584202,0.3213709641253077
0.19,-139.60996882366607,49.73774021834753,164.1074394247417,0.146951342495895,0.5229014102087556,0.18318465412367288,0.4979196937689578,0.49034021469713884,0.6589101417918013,0.2559074867040653,0.8633058693303657,0.025683227985524835,0.4337972115615624,-91.20666791572427,37.37864795851745,236.22049581101462,0.024341042976352232,0.3433295091425511,0.06944595496371483,0.48770253654162027,0.3479968234764694,0.7843121099577732,0.6914737760993902,0.4917405302662656,0.5163170367241218,-0.10976690682446338,-40.23860162839854,2.9843063587316885,0.9509288491014585,0.28247614137426197,0.06816221569449957,0.36222001111639524,0.8926435338514792,1.0486610045212708,1.5706825101540456,-0.00023108946720868816,0.028006141829088168,-0.34307758566333046,0.9376023322734462,-151.69997680180253,37.086186234258534,41.493762567495594,0.6053333075925454,0.21822884159049036,0.2979431431513376,0.28957340215509497,0.8093333345522273,1.4269695074130813,-0.20908210105316247,0.3982326761798327,-0.8335463722602461,0.3262376210887251
0.2,-139.0953542341004,50.45565254911227,164.1317887367724,0.15699324554350258,0.5500288642797541,0.18117598267159674,0.49627491590553646,0.4944485727598188,0.6393843653869042,0.2581198879709616,0.8598392867334115,0.03037336778658754,0.43866522352397613,-91.1882988496289,37.786238364616864,236.24992663468902,0.017620302372605205,0.36954464316590135,0.0756745806723802,0.49994077693505823,0.3445827288683652,0.777749290300337,0.6920216442561921,0.48939821088147517,0.5181731047024517,-0.10756348063498658,-40.05474879963945,3.073026991597199,1.1347361012736914,0.29219413204338657,0.04685905735249783,0.3198051742309554,0.8626743341435513,0.9941434809574822,1.5590832697353247,0.0010016196585534848,0.029169639257736114,-0.3415391766205057,0.9377027985720142,-151.259647043755,37.50712017673151,42.05426018445329,0.6082470224156957,0.249367085281983,0.29680172687933415,0.2726808303799976,0.7651888857351093,1.3292525986580752,-0.20903381469046578,0.40331957495849563,-0.8287171011375618,0.33129369013695315
0.21,-138.5510004113611,51.197632894254774,164.15750835837542,0.165335685722191,0.5745988650519238,0.1777201055565036,0.4946666248473684,0.49584442557058345,0.6179982692395941,0.2604059916791399,0.856206221961958,0.03528973407661717,0.4436462889027006,-91.16263593997485,38.22595235541017,236.29425156552605,0.014268823784572915,0.3969851768808843,0.08166533002430344,0.5038049246247015,0.3426379548209913,0.7674055359079562,0.6926534772687426,0.4867666441165715,0.5201962582284706,-0.10525901736272937,-39.8106937940391,3.164145003659818,1.379849979011997,0.3002289625452858,0.030435019922965267,0.2782855020217496,0.81962506556994,0.9265084049132603,1.528412970351514,0.0026687050632075446,0.030488205279097805,-0.3394847864973031,0.9379714825219101,-150.82336712921406,37.96097191437995,42.64289604029162,0.6071174752517607,0.2821082773346351,0.296624931039053,0.27232213779321535,0.719367765187156,1.2196412273226076,-0.20903509410915344,0.40863302549882036,-0.8236025659498185,0.33646399798838306
0.22,-137.97937702961642,51.95720628687773,164.18624416578925,0.171379559087319,0.596739787766571,0.17370542113114018,0.49212708377721215,0.49469648473219446,0.5942763273163025,0.2627851119139021,0.8524318546553867,0.04040840707980101,0.4486884039884221,-91.12858501304535,38.69764975720827,236.34820112589017,0.014145280450805547,0.42487796345933626,0.08703153212177835,0.499129894060154,0.3421333828758691,0.752633446515144,0.6933592501112361,0.48388241162234713,0.522356329822851,-0.1028300818276444,-39.527688646493885,3.253278187361295,1.678573843537334,0.3048591585738438,0.01931742879093937,0.23950956259272757,0.7661651476675616,0.8500002062103531,1.4809348780528104,0.004722796444632739,0.03191569676808884,-0.3370884751291998,0.9383759157679308,-150.39824760851047,38.443116705339406,43.258195687192476,0.601831790197261,0.31594473666954814,0.2971123036926732,0.2855688110258907,0.6733194073701839,1.101954171739192,-0.20910205034551377,0.4141454200895491,-0.818252174417957,0.34168560570039924
0.23,-137.38414371666124,52.72872422989678,164.21968342629097,0.1746663034998149,0.6167915040236477,0.17007347636220643,0.487751972703195,0.4913155635160521,0.5679327384019243,0.2652710594786846,0.8485408151312949,0.04570511576763167,0.4537468140656575,-91.08558905827923,39.20073260062616,236.4059633471069,0.016952818436729248,0.4526252384273691,0.0914013172473271,0.48617379834267593,0.34307557603912414,0.7327860553228781,0.6941222517972189,0.48078828631852477,0.5246230726234409,-0.10025356071719699,-39.227901067092965,3.3379507440132548,2.0212093967357876,0.3048088370287837,0.013729979099440858,0.20521537114822516,0.7057243183139041,0.7691444067951463,1.419153750642167,0.007099911087261532,0.033417524706958884,-0.33453241969829534,0.9388784352095275,-149.98901692503142,38.949502246217904,43.89762948854142,0.5926621020447994,0.3504256442740356,0.29805118034517264,0.3092962477656491,0.6284611304118709,0.9803691324389342,-0.20925447793848606,0.4198245454573787,-0.8127114660213796,0.3469104498972352
0.24,-136.76990430303866,53.507763129717254,164.25950550246705,0.1749192965181847,0.6352402908731224,0.16772804761781004,0.4808496468107285,0.48609471612658556,0.5389760259619675,0.26787032114794374,0.8445552994606274,0.0511572124018538,0.45878684003634146,-91.0336275838713,39.734335061915,236.46146587815193,0.022270719071621634,0.4798528661962275,0.09444613755837633,0.46557607196469475,0.3454434964291182,0.7073270453789195,0.6949220377768052,0.4775297261340024,0.5269684594846599,-0.09750648949279211,-38.93292820987125,3.417770830367514,2.3962665478535166,0.299359742364471,0.013719152891468156,0.17691844297170392,0.642155919739336,0.6884815345222717,1.3456516760168675,0.009719643868376048,0.034971512469420485,-0.33199512173374557,0.9394386867678375,-149.5980746757387,39.47694707977321,44.55825082555872,0.5802419110547,0.3851244530788622,0.29933111010810237,0.3404753334591128,0.586066501470673,0.8592837622761377,-0.2095133968442872,0.42563831769265154,-0.8070186167710095,0.35210670848574543
0.25,-136.1418800414884,54.29137436381222,164.30735426705226,0.17206992615292382,0.6526455692186135,0.16745029615368212,0.4710717865266454,0.47943883875842275,0.5077716299098856,0.270581044801246,0.84049337511595,0.056745572661942016,0.4637852401416218,-90.97316567973542,40.29750187010398,236.50865549343374,0.029585444198273494,0.5064234221694923,0.09590766941074479,0.43832368426889556,0.3491131055552576,0.6759684090199176,0.695737973220086,0.47415160156017355,0.5293683585662603,-0.0945657566201792,-38.662540182803596,3.4944184390996194,2.79079129228552,0.2884091986303133,0.019179860276518624,0.155806637543856,0.5793639463226116,0.6123001797753439,1.2629871977637162,0.012486417417225022,0.03656783216108801,-0.32964150163167727,0.9400158792574027,-149.22566204477604,40.02329447548715,45.23725810141754,0.5655046634397715,0.41960835095336657,0.30094023013291443,0.3763863338568068,0.5472124755581829,0.7431781846709988,-0.20989805358358082,0.4315586643007341,-0.8012017531658404,0.3572589211665996
0.26,-135.50552918462267,55.07817859109494,164.3648268692305,0.16626369948558117,0.6695686022915152,0.1698261980146755,0.45850221057837803,0.47168952307189926,0.4750475884544714,0.27339292993507414,0.8363676755750183,0.0624563539715085,0.46873013262297153,-90.90506646211458,40.88933085803916,236.5417691041672,0.038320980798227176,0.5324136139568715,0.0956214346726211,0.4057187366369037,0.3537965877728286,0.6387985595159577,0.6965527182536986,0.47069539258263443,0.5318034419027141,-0.09140789722816564,-38.43371070728294,3.571460384198022,3.190795109953537,0.27247963946988507,0.029876695501179062,0.14265519209086314,0.5209472167999766,0.5443901727408088,1.1736409214031451,0.015291790856108007,0.038208048066044525,-0.32761521767356866,0.9405706854976496,-148.87013104370797,40.58741615534915,45.93242976031217,0.5495914078712312,0.45341775882702656,0.3029449035508405,0.4147567500869385,0.5127845845316608,0.6364682385393403,-0.21042267145588844,0.4375642639507599,-0.7952771918698652,0.36236697667169493
0.27,-134.86615082516192,55.86831559038588,164.43346473374936,0.15784514094896754,0.686510312811298,0.175191625732038,0.44368737923316326,0.4630549654940999,0.44183652424185155,0.2762879497519775,0.8321846141994892,0.06828243350934966,0.4736197682876119,-90.83048634324955,41.509063429177615,236.5555928172856,0.04786901391580772,0.5580617065830242,0.09353461659211293,0.3693371654007791,0.35901790318247334,0.5963699548695671,0.6973549528780982,0.4671970273316956,0.5342593521418783,-0.08800917988961678,-38.25994095596394,3.654021549548885,3.581779298550112,0.25268760100053966,0.04545936975090355,0.13777189789208352,0.4699115545689959,0.4878390266832291,1.0799952690192323,0.018017949007763923,0.03990331232299973,-0.3260331212794936,0.941066795666335,-148.52829573850892,41.16907762582034,46.642407125156616,0.5337378521947773,0.4860623117037439,0.3054561626477616,0.4538292791993672,0.4835319531235835,0.5433359480562503,-0.21109330450804134,0.44364208024754115,-0.7892486843278927,0.3674441407085592
0.28,-134.2285181582273,56.66327197417292,164.51472953634425,0.14732331877983165,0.703861930349091,0.1835999288480569,0.4276007747547606,0.45355920787581344,0.40935811189328525,0.27924170329995684,0.8279441621389324,0.0742242517036064,0.47846056872521886,-90.7507750205921,42.156117878322426,236.54570577401296,0.05761949779424772,0.5836956718919826,0.08971514510202232,0.3309698390670686,0.36413443210818547,0.5497244529419913,0.6981407840405476,0.4636854608635743,0.5367263117046307,-0.08434612604435647,-38.15085211756782,3.748351001328662,3.9493554700337605,0.23067791730611115,0.06547306836998713,0.1409768399480313,0.4284827851515368,0.4448878421585832,0.9843426417748598,0.020542507950072265,0.041671894724796765,-0.32498154410703717,0.941472183030607,-148.19584775215537,41.76869481435195,47.36682718495781,0.5191530658151038,0.5170376974358175,0.30858954018296875,0.4923735175539224,0.4601590116529344,0.46752938026854474,-0.21190518671726472,0.44978779957116843,-0.7831076925135613,0.3725143423510826
0.29,-133.59658761819003,57.46561394299883,164.6099496786012,0.1353219323285895,0.7218696942079031,0.1948156394337001,0.4115423619246232,0.4430255814466659,0.37885991814702236,0.28222512726460414,0.8236401916916021,0.08028977162592153,0.4832648355141124,-90.66740059364865,42.83007119229828,236.50870315395994,0.06699185674879318,0.6096548966054086,0.08434958758664232,0.29254460646350217,0.3683988211471902,0.5003479332029105,0.6989135627893662,0.46018201633280525,0.5391984188988435,-0.0803964973431084,-38.11201305778004,3.861327235613329,4.279963459441632,0.20852562109667916,0.08936605652835024,0.1516162339042855,0.39802504481061896,0.4168502623474698,0.8889210116797526,0.022744659729715448,0.043536425146330195,-0.32451411281327863,0.9417601427380977,-147.8678138391746,42.38702792217352,48.10633076911271,0.5069024347237012,0.5458641900449385,0.3124271186326845,0.5296601991877208,0.4434317750817558,0.4121374084367039,-0.21284096430308952,0.45600537346802755,-0.7768346115618265,0.37760896502847424
0.3,-132.97332265963536,58.278653127044294,164.7202307110732,0.12252015793698086,0.7406137267216565,0.20833568970839964,0.3969858386730617,0.431104391287051,0.35144705329076287,0.2852062814668642,0.8192613925604458,0.08649334031757053,0.4880484480214195,-90.58191569937401,43.53060236257173,236.44238864761476,0.07546620855890358,0.6362178127164043,0.07772849408555699,0.256034446876823,0.3710430649245405,0.4500630012209656,0.6996821542660558,0.4567004448534587,0.5416728329713949,-0.07614066786797,-38.14497459084927,3.9999478726288697,4.561678926905766,0.18860646165956818,0.11649754675568684,0.16860709829609094,0.379044089061194,0.40408625628442285,0.795971432409445,0.024512519059838155,0.04552136727904626,-0.32465094953930795,0.9419101162451134,-147.53902782302941,43.024867422022254,48.862485740309495,0.4978069224537659,0.5721423779214744,0.3169901028101548,0.5654128695825923,0.4342673218089803,0.3793613095304073,-0.21387014183622582,0.4623058835953653,-0.7704006993347459,0.38276340447930207
0.31,-132.36065354565446,59.106072050669226,164.84633512226176,0.10959258525008227,0.7600005036656208,0.22343661398378178,0.3853988851975843,0.4173452108643324,0.32793608986396416,0.288151956055047,0.8147927747817146,0.09285339622914865,0.49282876257018327,-90.49597399407908,44.257414245718195,236.34592310879233,0.08261264917355034,0.6635454610919538,0.07021980514443213,0.22335778212423982,0.3713652174118496,0.40088257776964575,0.700457968876448,0.45324760952422216,0.5441489852983554,-0.07156319015289846,-38.247491452878855,4.170845053042933,4.785086252475314,0.1734375101540354,0.14614848431387872,0.19050859919083277,0.37124652015616955,0.4060171249725582,0.7077963682314639,0.025751387847324888,0.04765124059206865,-0.32537931925788044,0.9419082464869242,-147.20458569316634,43.68276451844613,49.637667942956526,0.49236937623934063,0.5956158383273137,0.3222272302945101,0.5997412614279778,0.433774176953905,0.37031570314008583,-0.21494994812789897,0.4687059390882665,-0.7637703391927342,0.3880136621242462
0.32,-131.7595728938524,59.95153293246104,164.98854899259584,0.09715665847030525,0.779767805589307,0.23924295793587444,0.3780668989757535,0.4013021376210102,0.30876219060517207,0.2910289223562459,0.8102177297482366,0.09938917142412776,0.4976228319330938,-90.41139752661003,45.0101523375249,236.2199156374955,0.08811540611367627,0.6916469307028905,0.06223372984954007,0.19627474232203146,0.36880741966319336,0.35485103070570156,0.7012512525854016,0.4498246615352465,0.5466279208281644,-0.06665428888526341,-38.413918354714475,4.3798583258950945,4.944169565282905,0.16549141501544884,0.1775365181056756,0.21561590330979338,0.37363332971891083,0.42117080700435633,0.6267826399900859,0.026392488175550587,0.049949932106791474,-0.3266558716029136,0.9417475822032335,-146.8602518316038,44.360844915942714,50.43493644759998,0.4907359098982368,0.6162267478416691,0.3280205508308415,0.6330522797733225,0.4432195870256764,0.3848894426345615,-0.21602762663131592,0.4752258301776632,-0.756903218333472,0.3933932382287159
0.33,-131.17034844384946,60.818291418281206,165.1465594161046,0.0857337690669021,0.7995012870658272,0.254808870224025,0.3759446526062811,0.3826506544611306,0.293952590557097,0.2938047566996159,0.805520516842389,0.1061167193987013,0.5024459886113944,-90.33028462386191,45.78833728432053,236.06644638751683,0.09178857347664825,0.7203679409586055,0.054184842217788645,0.17628202617745423,0.36302294722862344,0.31389492419007814,0.7020672447518692,0.44642855586367747,0.5491118439523107,-0.061411002897080284,-38.63576313633145,4.6316829257040215,5.037148408251118,0.16699135214751282,0.20983480146901928,0.24207222691648178,0.38461832337247953,0.4472547520255158,0.5553546119075069,0.026401479493736925,0.052441108443635746,-0.3284105110763066,0.9414279068922508,-146.5027856607246,45.058725430569574,51.25792766022111,0.4926959459462744,0.6341503936466734,0.33420654959954127,0.6659342041808498,0.4639118215690302,0.42168388503230586,-0.21704389370760618,0.4818876899512319,-0.7497560841222478,0.39893057209094507
0.34,-130.59282199037634,61.708837567689955,165.31936491964498,0.07572707833624118,0.8186623134208278,0.2692026004830222,0.37954913952298014,0.3612911570257659,0.28316153478816447,0.2964482878135071,0.8006889054736548,0.11304471325276985,0.507310780101015,-90.25513676205324,46.591323386507305,235.8890142974075,0.09358151153301957,0.7494003049125392,0.04645751822592444,0.16451015257682866,0.3539308334096079,0.27969778444340465,0.7029028434562807,0.44305374926228347,0.5516038840334148,-0.05583775141280697,-38.90237003531021,4.929597319887404,5.067160308658859,0.1796990191645504,0.2421937633560867,0.26799369241407517,0.4021686586151005,0.4812639967238021,0.49584536457545925,0.025785813502973445,0.05514934634576907,-0.33055169225660674,0.9409552665610343,-146.13016184278317,45.775533274852066,52.1107782950322,0.4977190776030921,0.6497984000418432,0.3406075812473889,0.6990157746809493,0.497000421736312,0.4780295259077293,-0.21793705752600145,0.48871389787607744,-0.7422839381146903,0.4046472401658425
0.35,-130.026754608733,62.62458966350659,165.5052347066155,0.06741624842287834,0.8366259846207816,0.281583808431889,0.3888982594109844,0.33741659964831694,0.27574871940143947,0.298929801803817,0.7957165954773302,0.12017052027026816,0.5122262096877305,-90.18897438084953,47.41828859201679,235.69240493787635,0.09357399754649418,0.7783079715289563,0.03937921431027154,0.1616303588221723,0.34175066770526197,0.25360504785146404,0.7037443702607799,0.4396939277444822,0.5541080392048341,-0.049946197154675034,-39.201695422516245,5.275266052699442,5.042679556029111,0.2047149629245626,0.27376591923040955,0.2915995625962895,0.4239650557585215,0.5196409575427439,0.4503023132059591,0.0245998247521343,0.05810132191909017,-0.3329727406531875,0.9403413145936976,-145.74166467563103,46.51001128988997,52.99807291245667,0.5050219467418072,0.6637868694654315,0.3470666299260129,0.7328093206056083,0.543215609914608,0.550072669641294,-0.21864715730027415,0.4957258559076491,-0.7344407792108689,0.41055705803895853
0.36,-129.4721719452141,63.565668524187274,165.7017269537191,0.060966634759115096,0.8527261592053065,0.2912665090241781,0.4034955688058029,0.3115285769772902,0.27087900060783343,0.3012211554993567,0.7906050290111319,0.12747710172852586,0.5171972210159461,-90.1354074817646,48.268253708626276,235.48247360012888,0.09196275015652394,0.8065639648464418,0.03320365156107225,0.16778320184396867,0.32700631810501846,0.23655758433308502,0.7045668975025026,0.4363436259179684,0.5566292340416498,-0.04375439034502503,-39.521131295818854,5.6686150608472445,4.9775680812539145,0.24231711123262623,0.30373457896916756,0.3113382007115753,0.4475759593831643,0.558504250166084,0.42026374407779815,0.022946514898951904,0.06132638435499137,-0.3355587308455866,0.9396025416586051,-145.33784885002203,47.26068058595252,53.924800787460995,0.5136551190295449,0.6768725245150847,0.3534780452759663,0.7675538134838091,0.6025845771503203,0.6329270607491084,-0.21911952330428938,0.5029431237900539,-0.7261801992970489,0.4166661298332086
0.37,-128.9296610933675,64.53077616908577,165.90577412115195,0.05644855690771737,0.8663022764319582,0.2977643477100383,0.42236003902498453,0.2843978710421868,0.26762453329875896,0.3032959409164706,0.7853643063228021,0.13493129225203931,0.5222243660636081,-90.09862734766537,49.14012096594593,235.26583868314606,0.08904161933873019,0.8335917134721942,0.028103895432468388,0.1825435842265737,0.310491141197283,0.22904655556411974,0.7053353900533134,0.43299962384889135,0.5591734050037438,-0.03728528954428049,-39.84832819449402,6.107783048826193,4.89068305033534,0.29186628384810415,0.33134620281744576,0.3259978478205694,0.4706338587030839,0.5939510215565816,0.40654912804199916,0.02097526844209847,0.06485607327441585,-0.33819346518937354,0.9387593607936706,-144.92037269445197,48.02602534330023,54.89630206724584,0.5225992443591639,0.6898655650560752,0.3598079403048951,0.8030805764185943,0.6741707230735897,0.7208957284195492,-0.2193073236871483,0.5103828069993802,-0.7174561607663311,0.4229737573927324
0.38,-128.4005752495764,65.51719116204447,166.11384165468056,0.05386153239819586,0.8767423363859721,0.30081723424850937,0.4441007193192568,0.25698065439716267,0.26505762644683123,0.3051298517382237,0.7800130836599601,0.14248391056947055,0.5273036103579307,-90.08329100661442,50.0327163662507,235.04948288935492,0.08517765987533452,0.8588046812705543,0.024174195204831835,0.20493405957020258,0.2931964375630469,0.23108104940698676,0.7060076229727602,0.4296620326119462,0.5617474745721757,-0.030564840965629992,-40.17196746702226,6.589157443719589,4.805013269797106,0.35180398656779893,0.35594348214645427,0.3347922097005402,0.4909958247222803,0.6224136183569242,0.4091011582666537,0.018875181345044716,0.0687224592510237,-0.3407661232630675,0.9378349390695336,-144.49172377572157,48.80466268388813,55.91818611740455,0.5308615117462011,0.7035315396609789,0.36609964580409665,0.8387295841104928,0.7558833187855329,0.8077734024180332,-0.21917285596693392,0.5180590915193728,-0.7082241230772415,0.4294739994552663
0.39,-127.88711552376867,66.5208772317405,166.32216012178517,0.05315873198032212,0.88351801363533,0.30039846112224916,0.46703599495479103,0.23031328612515045,0.26232976493347104,0.3067013878461672,0.7745775182644742,0.1500718967584914,0.5324262515540732,-90.09428143020415,50.94481876701487,234.8402664199144,0.08078463953652114,0.8816400059001663,0.021439128819848455,0.23349036501301976,0.2762133301546677,0.24216435307990244,0.7065384948270829,0.4263350096619933,0.5643590250577618,-0.02361982965675626,-40.482433784779225,7.107502837761782,4.74637627906019,0.41975734851972235,0.3769941666420819,0.3374146029577882,0.5068704189013485,0.6410265775162789,0.4269052908373567,0.01686423746634361,0.07295545871437603,-0.34317719851588746,0.9368536451353854,-144.0548682951296,49.595463247501435,56.996215515184794,0.5375662355463896,0.7184964380681993,0.3724617965403724,0.8733402190231805,0.8444029052777454,0.8872322909798668,-0.21868749808005855,0.5259828678938395,-0.698442424138221,0.4361575985662094
0.4,-127.39227928007709,67.53668771394021,166.52701686786645,0.05426782745381833,0.8862106059968613,0.296700984998922,0.48935172106557134,0.20541029252832743,0.25873652491360216,0.3079929320185024,0.7690894985942166,0.15762230261239463,0.5375789526767233,-90.13634475413441,51.8751631435995,234.64436726256596,0.0762946563723324,0.9015843249440784,0.01986849650327596,0.26637437156035554,0.260621554406527,0.26128298273483985,0.7068850457322099,0.42302707846883336,0.567015489770795,-0.016475699932522982,-40.77234525144454,7.656183867703965,4.741772346669681,0.49275019289712135,0.39411105879334773,0.3340600282415932,0.5169022722298731,0.6479441344111134,0.45799735094894195,0.015175166999434341,0.07757947735722777,-0.3453434193537138,0.9358390327277013,-143.61286434888157,50.397595557440226,58.13616497825222,0.5420352640331666,0.7351704463171677,0.37904005122602896,0.9053213338275314,0.9352601405095387,0.9532758976294338,-0.21783035163326323,0.5341614305213754,-0.6880736109848177,0.4430139749299857
0.41,-126.91968586974271,68.55863955023752,166.72507530949926,0.05710521477545383,0.8845285758600666,0.2901027425132422,0.5092831305056643,0.18318252886581485,0.25376799685901014,0.30899206564719095,0.7635845105058016,0.16505760286143328,0.5427439141625753,-90.21362876597459,52.822415569769696,234.46667693382506,0.07212816816376674,0.9181921762924473,0.019396162043729185,0.30152424592864036,0.24737788629937563,0.28691995627113764,0.707011326439702,0.41975105856602196,0.5697227599855923,-0.009154506497561464,-41.03691189338904,8.227475101443385,4.817552163238229,0.567500642621679,0.4070614023123239,0.3254188471921535,0.5202178878849969,0.642549603969599,0.49955536856693433,0.014039375766491956,0.08260989095657653,-0.34720143003013826,0.9348114102277355,-143.16848422161542,51.21048004052056,59.343680961187395,0.5438532907627791,0.7537065844629056,0.3859783796867364,0.9327799742598137,1.0230895148388974,1.000722779916459,-0.21658571256053238,0.5425982863701825,-0.6770853552097987,0.45003300212600317
0.42,-126.47330730933332,69.58022712594185,166.91367625478443,0.06158104723926533,0.878317988656546,0.28111416591686106,0.525297056949473,0.16438218388098733,0.24714164268154393,0.30969286501070653,0.7580994971403638,0.17230157163257562,0.5478992245269674,-90.32916911399089,53.785128900415586,234.3101932602372,0.06866326702439633,0.9310984445072455,0.019940767659860716,0.33682971826555425,0.2372162546774978,0.31710698641397184,0.7068923154865122,0.4165236451918692,0.5724832578329404,-0.0016731232514167664,-41.27411118280488,8.81293869515981,4.997602332885976,0.6407673601749437,0.415767436401955,0.3126451875312516,0.5164429022769202,0.625517809320095,0.5480618064989412,0.013670763379807705,0.08804996507581664,-0.34871005569479313,0.9337852360000073,-142.72389173360386,52.03365602021569,60.624178613334905,0.5429106422342731,0.7740086107224404,0.3933799956518002,0.9536760825290967,1.1020544018230194,1.0256612111368437,-0.21493961956665034,0.5512931682192541,-0.665450677683755,0.45720631440437165
0.43,-126.05714001604275,70.59474674507679,167.0910728083863,0.06759314663707021,0.867566762034009,0.27031480633225474,0.5362467743289092,0.14957346288120185,0.2388130587044131,0.31009691394612493,0.7526709796638439,0.17928493354253947,0.5530194340754749,-90.48438563309148,54.761694244613366,234.1754632026485,0.06620616672963311,0.9400259224917301,0.021426120442400744,0.37031793434243376,0.23057201767277424,0.3495282065560214,0.7065163042506649,0.4133647105466467,0.5752937203838989,0.005958177242036396,-41.48468538374591,9.403837277234887,5.301773257105876,0.7096922530305996,0.4203022487102883,0.29729753974917655,0.5057000219910411,0.5987213835381333,0.5995190972768848,0.014251466278447842,0.09388881280328007,-0.3498510422544123,0.9327667551929796,-142.28041684798995,52.86658294776323,61.98281249422691,0.5394144840153209,0.7957944939636955,0.40127787286147143,0.9659805823404074,1.1664076005031558,1.0258070197765858,-0.21287586565561145,0.5602423647666414,-0.653147384735373,0.4645279346345254
0.44,-125.67485553322831,71.5956055008808,167.25655881416773,0.07500952184983954,0.8524029450496747,0.2582879858699171,0.5414734385162483,0.13912354191752685,0.22896222063636748,0.3102138551120154,0.7473335782179695,0.18595010496255784,0.5580763869892519,-90.67865767280992,55.75030017317012,234.06013675900772,0.06496609392535242,0.9447878820162691,0.023799006368059206,0.4003297366946644,0.22754185378464317,0.38167982293366287,0.7058854718242497,0.4102964250365914,0.578143095171087,0.013736653495060227,-41.671974205547265,9.991539467232071,5.744750268765951,0.7720826180056715,0.42088537241586793,0.28124373403490943,0.48859227029419383,0.5649982456131236,0.6497039592075051,0.015921409252624148,0.10010086167905728,-0.3506282959006129,0.9317523487657269,-141.83846043509686,53.70840871230803,63.424542515721754,0.5338617630530461,0.8187065865907497,0.40962016371692933,0.9678310647300542,1.2111165151769656,1.0007098908678658,-0.2103719706932024,0.569439400312203,-0.6401568362508103,0.4719940581641598
0.45,-125.32946734671012,72.57659245064059,167.41046542701616,0.08364212029592392,0.8330865404134066,0.245561948034966,0.5408379341684793,0.1332066929214109,0.21795789410124033,0.3100613985364578,0.7421189644421571,0.19225449289339824,0.5630403234968743,-90.90904332894591,56.74890198150481,233.9586951098632,0.0650385990119726,0.9452850088975641,0.027042094342579467,0.4256601868205181,0.22788699982391325,0.41107617355185194,0.7050146910504574,0.4073423170650324,0.5810109703187224,0.02166742260065182,-41.84159789302093,10.567876708249154,6.335492660477735,0.8265852945578236,0.4178811371146815,0.26652536205460275,0.4661711761023263,0.5278155595275202,0.6944504845131192,0.01877288477503198,0.10664703497748557,-0.35106581890550287,0.930727946182461,-141.39754533605762,54.5577385169075,64.95428849848291,0.5269745618420852,0.8424426358029317,0.4182708015087616,0.9576854229949795,1.2324578431101971,0.9517840575731954,-0.2073956315834961,0.5788759538078717,-0.6264623765029028,0.4796019196550105
0.46,-125.02304960540987,73.53209477206295,167.55401649883282,0.09321790862821405,0.8099939985478292,0.23256414942499065,0.5346829815532126,0.13181476676204207,0.20630805275425076,0.309664763101695,0.7370552104934087,0.198171975870698,0.567881227032798,-91.17019333488695,57.755193994962816,233.8624094255427,0.06640101475647699,0.9414968778712642,0.031179458961864984,0.445636604860751,0.2310820729743697,0.4354774898646568,0.7039289120162595,0.4045263987209315,0.5838668484962081,0.02976311731004145,-42.00100827334311,11.125425387391529,7.0772551249914315,0.8727289565076358,0.4117999981859718,0.2551892348797687,0.4398851737564706,0.49087708675363356,0.729954230688232,0.022850322614604096,0.11347751135704702,-0.3512046698526517,0.929669615590423,-140.9565049175431,55.41242952191096,66.57713368175054,0.5196083615668499,0.8668718872751663,0.4270237082483515,0.9344717782093498,1.228486567992958,0.8821710924043397,-0.2039020727753407,0.5885427859330848,-0.6120478834430032,0.487347827184753
0.47,-124.75653994062553,74.45724676851336,167.6890506570337,0.10335610440762166,0.7835944409446742,0.21959356111340253,0.5237398983265568,0.13476962563055642,0.1946064054802141,0.3090555455951314,0.7321664730303594,0.2036924024320815,0.5725703450960129,-91.45448796223029,58.76657387084398,233.75956984248577,0.06892185437446884,0.9334697426226406,0.03627234745485677,0.46011652156344807,0.23640519196887327,0.4531056511728516,0.7026597012972118,0.40187247097238965,0.5866704058977156,0.03804283470142111,-42.158936036919854,11.657709220292668,7.968102499682725,0.9108399297070563,0.4032991687936715,0.24910741819458687,0.4115025780587286,0.4577265809967926,0.7530859160293765,0.028154369635167577,0.12053564184374765,-0.3510993237282155,0.9285452004282161,-140.51377134824247,56.26942634262023,68.29851214958025,0.5126507662284898,0.8921035937358279,0.4356299991341467,0.8977307061419163,1.199305375803658,0.796462806381782,-0.1998325841371502,0.5984303971877334,-0.5968968644736955,0.49522461967887577
0.48,-124.52964998112773,75.34800481605505,167.81763811120467,0.11356079005527507,0.754416894776353,0.20681432613429582,0.5090015900570977,0.1417372351520446,0.18348449567630606,0.3082700173053077,0.7274729551858468,0.20881924268413615,0.5770817635284272,-91.75239849304236,59.780090140088255,233.6359992488379,0.07238286932991803,0.9213038018948221,0.04240367198327296,0.46940620272111244,0.2430585989213884,0.46281622623421564,0.7012415880333314,0.3994036803274443,0.5893727315558793,0.046530312210893966,-42.324779574615874,12.159331355540276,9.001764156803349,0.9418610728920612,0.3931750919646432,0.24981259709705889,0.38300762653295084,0.4313978438749239,0.7616921462991114,0.03464876059890294,0.1277624524963832,-0.350813777398478,0.9273166991052838,-140.06770241286455,57.1246465035205,70.12430758080184,0.5069279785475267,0.9184894236072166,0.44383821019825015,0.847739571489377,1.1470905550974924,0.700322039740232,-0.19511442904938825,0.6085291725819388,-0.5809923564352961,0.5032189198980671
0.49,-124.34089423065562,76.20114672924102,167.9416415541428,0.12323551735541834,0.7230091820992026,0.19427196827243162,0.4915843933758455,0.15224736664423572,0.1735770297278691,0.307346866432384,0.7229911130340145,0.21356583754669936,0.5813938715804136,-92.0530487229143,60.79237156205828,233.475838833066,0.07650965572692454,0.9051437352787096,0.049651722116111276,0.4741215022080637,0.25030401339207364,0.4642049133750843,0.6997087493697264,0.39714232170622304,0.5919184413920361,0.055251227319219054,-42.507992896094215,12.626048230326532,10.168653981214748,0.9671161287217936,0.382338954128856,0.2583695432156859,0.3564728088964196,0.4141521843961304,0.7548462095664226,0.04226832791669374,0.1351011081260381,-0.3504176677205084,0.9259430143436497,-139.6168784358646,57.97292292116625,72.06080356702056,0.5031290849894404,0.9465594554289788,0.45144487112559145,0.7855982295202043,1.075867227840804,0.6000447081195411,-0.1896622225783997,0.61882885912268,-0.5643176697298727,0.5113085817013601
0.5,-124.18773387213564,77.01420059458538,168.06228637983443,0.13172183513411787,0.6898920859334062,0.18193008000723135,0.47259883822969995,0.16572506866347242,0.16550495723600417,0.30632445994477203,0.7187341005555231,0.21795087967479715,0.5854905317636135,-92.34493098773919,61.79954723390545,233.26256649165737,0.08100517076961639,0.8851759485591258,0.05805640057623848,0.4750270804457724,0.2575935071070352,0.4576364981759679,0.698092334496518,0.39510977924055574,0.5942485076642032,0.06422955801625377,-42.717527658136845,13.054791310634576,11.45689294980594,0.9880637971652123,0.3717690256513431,0.2752916988828662,0.3339120920306476,0.40732779814619413,0.7330052980796143,0.05092673186300933,0.1425007051958634,-0.34998257180061404,0.924382735225732,-139.16031479707328,58.808007781292176,74.11445549022326,0.5017494441859132,0.9769073406498986,0.45834699903538856,0.713252669574479,0.9910738878132372,0.5021074513497009,-0.18338076072679188,0.6293173476521149,-0.5468578518970675,0.5194606534975983
0.51,-124.06681945266969,77.78531630682207,168.17980946557597,0.1383588110269134,0.6555156545268069,0.16972180832432326,0.4530433377095707,0.18153885702615366,0.15987510002983965,0.3052378080846108,0.714712461266579,0.22199378958773283,0.5893617792126632,-92.6167173914547,62.797177044808045,232.98018605935926,0.08558046162889153,0.8616343515674717,0.06758381146917494,0.4728907654524701,0.26467397673992593,0.44419234889947784,0.6964185076347961,0.39332643071584644,0.5963036242387171,0.07348311844683557,-42.96136652339469,13.443635854233916,12.853203198631123,1.0060801496699079,0.36243922539377743,0.3005010802980321,0.3171215954716099,0.41130513559846144,0.6980391656565423,0.06052292462853244,0.14991883310955373,-0.3495785655216143,0.9225967375044702,-138.69756527256686,59.62263619400297,76.29149432205979,0.5030496410391497,1.0100508974957534,0.4645837551393961,0.6334443560433975,0.8989992179155203,0.41273772595031466,-0.1761691075564653,0.6399788683356874,-0.5286016537892191,0.5276300108025175
0.52,-123.97430668411945,78.5131015846297,168.29324650609877,0.14255667789588589,0.6202260862597585,0.1576077771569965,0.43372807059571267,0.19906651272391326,0.15728819221884868,0.3041155684309139,0.7109350560841177,0.22571058285950782,0.5930039337174793,-92.85809934978464,63.78021974818923,232.61450293617582,0.08997805420655108,0.8348137133546908,0.078096322164259,0.4683777390772506,0.2716434931717508,0.42554217467557187,0.6947071761878301,0.39181138082917094,0.598027896833284,0.08301867665298145,-43.24615959368187,13.791713987383138,14.343592286747807,1.0222981880848983,0.35522953683989467,0.3333236348893706,0.3075210615667172,0.4255721262615788,0.6531151646353128,0.07094590170392842,0.1573225583768257,-0.34927104509475343,0.9205505279670373,-138.22872352054912,60.40864145341514,78.59741440775574,0.5070266795776912,1.046298544723754,0.4703559919765908,0.5495868941208176,0.8061876643813768,0.3375303989736266,-0.16792555671845424,0.6507918379128363,-0.5095437232599259,0.5357586217546046
0.53,-123.90621319282536,79.19645097055697,168.4003984129577,0.14387465690012557,0.5842507283718216,0.14563089240562435,0.4152335957383586,0.21777460138661225,0.15834296248822463,0.30297755906423207,0.7074101484770612,0.22911072507530994,0.596419109654043,-93.060585122316,64.74306835015112,232.1543793625899,0.09398556334638858,0.8050867776932042,0.08933495469898313,0.4619914857646737,0.27894531125604716,0.4037580804541104,0.6929713728203957,0.39058201242178997,0.5993725856442115,0.09282737036345752,-43.57695247860921,14.09907444075007,15.91380974894127,1.0375211704159732,0.3508287360712826,0.37251177311515143,0.30601664657523187,0.4488590195241736,0.6024469667247265,0.08207786227725666,0.16468782976715213,-0.3491177780578415,0.918216320475946,-137.75435126118106,61.15711085930403,81.03642833475695,0.5133971812053445,1.0856490397166931,0.4760190350402234,0.46557739915856744,0.7188888500924389,0.2811239325586296,-0.15855294504369938,0.6617266965511689,-0.4896867217030042,0.5437753025948293
0.54,-123.85878016007499,79.83439902339478,168.4979919744207,0.14209078595347843,0.5477054753350084,0.13395853056960524,0.3979082456011591,0.23730368781506572,0.16362504861696026,0.3018332614595626,0.7041464546859301,0.23219534551622964,0.5996142205310327,-93.21818463499429,65.67967939829406,231.59284366627105,0.09743969546809508,0.772920008746276,0.10091922804004501,0.4540539953132417,0.2873004066771866,0.381098036950225,0.6912173131550733,0.389653447103677,0.6002995891367168,0.10288132600452056,-43.956981107106095,14.366500103866342,17.549621268008018,1.0522130150891154,0.34964259611344956,0.4162898700612241,0.3129065716190887,0.4793082483584594,0.5509340637219916,0.09379636114351773,0.17199765666653458,-0.3491661489327077,0.9155747779947091,-137.2753668641192,61.85857238602638,83.61098249362159,0.5215961848281466,1.1277431883705227,0.4820508374176726,0.3855515896183116,0.642589506041122,0.2469416836848267,-0.14796376524667273,0.6727441240298576,-0.46904308558765245,0.5515958418476166
0.55,-123.82880036211274,80.42602598623253,168.5820219182417,0.13725116664990175,0.5106243076799862,0.12290366119799928,0.38190379257328744,0.2575469496591608,0.17367510337143313,0.3006816349619835,0.7011538642849499,0.2349570077508552,0.6025996586182859,-93.32791426166035,66.58381504876091,230.92791877730136,0.10022302142024446,0.7388839073714425,0.11236661744283881,0.44471221981660775,0.29759536139018694,0.3597869139580155,0.6894451496308606,0.3890380106144499,0.6007843974907252,0.11313236931960557,-44.38750763255871,14.59530219956585,19.236991109467994,1.0665563457496952,0.3517213820460855,0.46242426532152175,0.3278465450248166,0.5146504696164443,0.5037331754844787,0.10597626634403177,0.17923964397319053,-0.3494505979861822,0.9126162603436812,-136.79292006956143,62.50320467539089,86.32141369863926,0.5307983492916282,1.1718744531832423,0.48900107587303426,0.31359722284096203,0.581637343908782,0.23699815871107213,-0.13608461367351846,0.6837940120676732,-0.44763623134924674,0.5591234703098823
0.56,-123.81387389879143,80.97043579331513,168.64823262647235,0.12968851858147493,0.47300660473626477,0.11291861384092874,0.36723994271846855,0.278704516650829,0.18893655871716836,0.29951229598000034,0.6984435307961676,0.2373810254019169,0.6053878810666342,-93.39006262328128,67.44940447104906,230.16304345814584,0.1022570104702318,0.703656437418439,0.12313008770116975,0.43396116362530945,0.3107507503685665,0.34181814692280893,0.6876503358892009,0.388744732278518,0.6008183356791291,0.12351349782207623,-44.86768226859189,14.787113176529376,20.96227882029794,1.080558528798777,0.3567192153509793,0.5083235347592554,0.34988471948423283,0.5523712129836236,0.4658084656055869,0.11849231568526308,0.18640351621085452,-0.34999031019390364,0.9093413904991124,-136.30826314366448,63.081063238147806,89.16579318608962,0.5399693189174762,1.2170539638670177,0.49742781625351556,0.2534486950691807,0.5389544191158752,0.2517678465647695,-0.12285967898380207,0.6948154773463283,-0.4255010932502421,0.5662497274898141
0.57,-123.81255732672037,81.46681444056458,168.69267127183957,0.12000527481233147,0.4348752254917617,0.10455871155206288,0.3538811030789279,0.30129112387246104,0.2096868206021469,0.29830784984449865,0.6960271572138258,0.23944809720711865,0.6079921508428462,-93.40817305878123,68.27101241044271,229.3069904037084,0.10349488644859187,0.6680203199983094,0.13264852226389381,0.4216814157264035,0.32759245184780816,0.3287929230631948,0.6858253634223448,0.3887788541614336,0.6004099859520621,0.1339433993240083,-45.39443306916356,14.943698936823239,22.71253805759974,1.0941798729682126,0.3638948876278788,0.5511757682327101,0.37756569148627367,0.5898671983479289,0.4415061130745985,0.13122283487625566,0.19347916202995688,-0.3507872809924011,0.9057608213035617,-135.82261116467816,63.58231505453909,92.13995616405047,0.5479522039665675,1.2621168945541457,0.5078295276963855,0.20819021972694168,0.5158436585035067,0.29011763122398754,-0.10825317587449873,0.7057380207252837,-0.40268398699836383,0.57285577709096
0.58,-123.82438256466938,81.91456402437196,168.71222680784223,0.10902339822047559,0.39633681438608825,0.09841787004002557,0.34180800925213906,0.3260760966048111,0.23595675200732907,0.2970469824813556,0.6939154989020913,0.2411378499033819,0.6104256302079417,-93.38872081931237,69.04437742641996,228.37323878692337,0.10391725857790322,0.6328554688262071,0.1404023815877351,0.4076940764626066,0.3487378650456755,0.3218088530578884,0.6839615425032098,0.3891413330081731,0.5995856894009031,0.14433377555743265,-45.9624035967958,15.066806220681345,24.47595730193436,1.1074564848043527,0.3721592182836795,0.5881266768699892,0.40908971396733795,0.6245994195089715,0.4341919274647089,0.14405478798170504,0.20045553850382974,-0.35182494658295116,0.9018941925768885,-135.33696991672974,63.99747358434285,95.23766304417519,0.5535878884391505,1.3058525553198386,0.5205811276606007,0.17999474700786514,0.5119078387145116,0.3493106843680917,-0.09225081005225277,0.7164836927048007,-0.37924193021735336,0.5788142033726342
0.59,-123.84973779647267,82.31349574477153,168.70506952797055,0.09770959504352157,0.35763465043471526,0.09504394555520602,0.33107077379272154,0.3539485265505827,0.26744553193211024,0.2957078520009406,0.6921162933671297,0.24243277365971716,0.6127008917627645,-93.3404947922795,69.7669565609718,227.37882692888056,0.10353231987477982,0.5991268341789022,0.14596633028599135,0.3918353118253256,0.37449812216007383,0.3214055702682284,0.682050526393226,0.3898283830523367,0.5983889918134624,0.15459865812983867,-46.563971138739625,15.158055430279022,26.242416047388584,1.1205928097488547,0.38016849060521407,0.6164951264349974,0.44250201159874925,0.6542475336302124,0.44597760246762985,0.15688984129056613,0.20732052697353806,-0.3530675970195659,0.8977683677264723,-134.85190501806676,64.31762611486072,98.45079644995339,0.5558603950538815,1.3471392818182888,0.5358813036566592,0.16992360135018394,0.525109067908948,0.4250962830739712,-0.07486048538244898,0.7269698903302533,-0.35524171341799377,0.5839913353176968
0.6,-123.88962059219274,82.66405465231182,168.6709282547399,0.08708851525174005,0.3191837062129861,0.09484671648739916,0.3218143913246747,0.3857260068852699,0.3034426749299153,0.2942713694958815,0.6906319544337182,0.24332207514955728,0.6148297528106913,-93.27373283355404,70.43839757589333,226.34277816801355,0.1023808153860732,0.5678663743573126,0.14905179766583648,0.37404757800200045,0.4047929398090179,0.327569344078639,0.6800853726091425,0.3908312020124369,0.5968788602407289,0.16466446793515563,-47.18938064069199,15.218885641015156,28.004066693063358,1.134005247431762,0.38645710714467535,0.6340113013457822,0.475883713195248,0.676860284558509,0.4775445895802216,0.16965064658098566,0.21406156424256542,-0.3544607659162563,0.893415132417023,-134.36723432581803,64.53464426094018,101.7694816582164,0.5540513980086853,1.385066235788686,0.5537148269980903,0.17780869753108727,0.5519869107320918,0.5119045528740283,-0.05611249564684323,0.7371123011432155,-0.33075913204953017,0.5882501788261374
0.61,-123.94529020379028,82.96754101557842,168.61118097847867,0.07815679762374655,0.2815785666305322,0.09801411981389029,0.31427130863086855,0.4219504977169632,0.3427738741333507,0.2927240999839624,0.6894574076933363,0.2438051426877063,0.6168232270282662,-93.19909875930826,71.06086166317678,225.28424337718138,0.10054458516116724,0.5401464748904699,0.14953475874386862,0.3544780544821673,0.4390788948200924,0.33979280837060427,0.6780609938865731,0.39213611327893316,0.5951264966535819,0.17447943068749328,-47.82701889441063,15.25055813097729,29.75581498124786,1.1483079171773254,0.38959561508613777,0.6390498308973626,0.5075206219306498,0.690987524829812,0.5280634873290098,0.1822862288294498,0.2206666728763756,-0.3559326910772227,0.8888686280606807,-133.88164738503258,64.64136740246686,105.18204104562831,0.5478814722228629,1.4190268861865107,0.5738304972403663,0.2022338859207061,0.5880276988136418,0.6031656701731849,-0.03605935717295813,0.7468275916746396,-0.3058787672219218,0.5914540313329764
0.62,-124.01785919333825,83.22628982352792,168.52877431151083,0.07180804909508046,0.24556881891460725,0.10445169421816002,0.30872165818122865,0.46272500796279525,0.38378976138013393,0.29106067511163514,0.6885783879187172,0.2438944838415056,0.6186913603530213,-93.12661695017495,71.63913715191757,224.2205281867146,0.09815717428461337,0.5170415635039782,0.14746659476465981,0.33356819455056885,0.47629990027508234,0.3571795560154574,0.6759738228873522,0.39372541162883284,0.5932106502850066,0.18402114796127078,-48.46383077157995,15.254225622453125,31.49557505903486,1.164243227951854,0.3883539573092561,0.6308217099086917,0.5360332737168487,0.6957767752521036,0.5952077692871975,0.19477531952697502,0.22712547948725847,-0.35739677091170075,0.8841628487138684,-133.392287584384,64.63175064398172,108.6747610505781,0.5376112024592197,1.4487726587353227,0.5957340923555413,0.24062440502297464,0.6281480583006035,0.691763725554405,-0.014775239394964114,0.7560356703382333,-0.280694475415178,0.5934707914261409
0.63,-124.10787328922659,83.44377253343191,168.4280111111461,0.06877455982511906,0.2120031363132432,0.11375652913016861,0.30543147107406904,0.5076347905559446,0.4244156340422376,0.28928568573257224,0.6879704194792259,0.2436180117977708,0.6204427917057315,-93.06468956451056,72.18051064671123,223.1651734462876,0.09541578162543925,0.4995761530945581,0.14306800357784877,0.31211243101946384,0.5148735332176697,0.37857605812018164,0.6738204587657058,0.3955791853718138,0.5912114892517328,0.1933015356162705,-49.08585124173254,15.231072980407916,33.22421744692888,1.1825708879684615,0.38184687989929805,0.609490499023627,0.560456833960352,0.6910210531517539,0.6752685899686101,0.20712676296113355,0.23342994754411897,-0.35875476242476395,0.8793295217652327,-132.89436883624847,64.50097489154504,112.23154693679523,0.5240760056051649,1.4744192785107704,0.6186955524812754,0.2894448185508703,0.667230860473214,0.77061141496476,0.0076452629807478465,0.7646616253027153,-0.25531036366558874,0.5941778862503037
0.64,-124.21493211595357,83.62459326737738,168.31424833317476,0.06958713304405789,0.1817500410173005,0.12523174196470524,0.30458684119236096,0.5557727011256324,0.4622748638980147,0.2874149686685236,0.687598637345297,0.24302040719448206,0.622084044828654,-93.01930960798038,72.69438961421768,222.1262406645307,0.09259418756661457,0.4886614376138424,0.13670719443895538,0.2912621196626406,0.5527268337194036,0.4027069585698796,0.6715950926864932,0.3976782770487334,0.589203286218732,0.20236883543625916,-49.67880430595229,15.182528590232195,34.94519277048037,1.2039370379938719,0.36964085220177434,0.5761908069214499,0.5802637386036726,0.6771521727580311,0.7633807891651078,0.2193766648285275,0.23957476306478162,-0.3599003752152162,0.8743966196217516,-132.38092908345627,64.2455259797853,115.83361927885966,0.5086365339094765,1.496402189155742,0.6417696361223234,0.3444964433164258,0.7006365313639968,0.8332965221751297,0.031089289460874255,0.7726376233655833,-0.22984171252745683,0.5934676514035143
0.65,-124.337401210915,83.77436372450303,168.19353597052682,0.07455079552536852,0.1556076911459144,0.13794172028387106,0.3062411639947958,0.6058595268832625,0.4948880739421234,0.2854760837206796,0.6874186000194291,0.24216311390882622,0.6236187458136543,-92.99355375180845,73.1916969454112,221.10492663428926,0.090054651842657,0.48502665888144014,0.12886426557635053,0.27245662951624744,0.5873939373554061,0.4282900739382312,0.6692856806463627,0.40000833513711204,0.587246315174648,0.21130684140241,-50.22871121490288,15.110533623156664,36.66387960681842,1.2287490985394796,0.35180851328726964,0.5329450985007772,0.5953290127101909,0.6551835645313436,0.853862798359425,0.2315825661069113,0.2455574765104353,-0.3607229611950933,0.869387627081544,-131.84283461602166,63.86326015967286,119.45941405908728,0.493040968535995,1.5153812830590294,0.6638289606260755,0.4012943023745966,0.724614404331905,0.8747178034066062,0.05542874472552733,0.7799050603995867,-0.20441532964480558,0.5912529310064135
0.66,-124.47225601631546,83.89945622614069,168.07221572008942,0.08373195968370638,0.13421618781328387,0.15080233205468452,0.3102842280839793,0.6564247202594466,0.519934961446724,0.28350771599964303,0.6873782201988743,0.2411225372220076,0.6250470698316217,-92.98739832076045,73.68408167748021,220.0945984425972,0.08825357489709819,0.48915285414799897,0.12008453851203442,0.25727838815977505,0.6161871495668434,0.4541177913031816,0.6668691003992138,0.4025646512209833,0.58537840785914,0.22023174498697753,-50.72245560485176,15.017840882237822,38.38675471257407,1.2570813121050972,0.32892429635189163,0.48249130032664295,0.6058470985550596,0.6266165619893471,0.9406560412449088,0.24381542811548568,0.2513785537540466,-0.3611111281917838,0.8643215375355309,-131.26913172146223,63.3534811948644,123.0847771408246,0.479213506575479,1.5320999897480037,0.6836077691879066,0.4554904400249863,0.7365630767738562,0.8916138941601104,0.08052358382303655,0.7864170690916362,-0.1791691740840898,0.5874726320889747
0.67,-124.6150803606367,84.00665196289275,167.9564943660152,0.09695227985699714,0.1179842849292744,0.16269406815233436,0.31643287943946985,0.7059991844882557,0.5355497922348272,0.28155782032296683,0.6874207884976257,0.2399862877739437,0.6263656869638965,-92.99785803350565,74.18300802817033,219.08030562546531,0.08773358000423748,0.5012152078004741,0.11092527301822284,0.2472488973164166,0.6364476028837589,0.4791062584497321,0.6643057910501367,0.4053572586675841,0.5836066395783895,0.22928705770231708,-51.14826526170639,14.908299769069863,40.120508507736034,1.2886308002916995,0.3020016378103735,0.42804438676821793,0.6122164372143937,0.5933299085546127,1.0178272627020197,0.2561505115052779,0.25704141475601244,-0.3609562178884639,0.8592134076094452,-130.64779427099296,62.71705568266336,126.68344268161036,0.46900092646337416,1.5472108644634361,0.6997551873653619,0.50329557864952,0.7351275680344505,0.8829046734939474,0.10622433528490266,0.7921412252109662,-0.15425147217635302,0.5820969560860461
0.68,-124.76021740898692,84.10271955924816,167.85201401728665,0.11378632073469394,0.10703889344242805,0.17258081775412284,0.3242388682319167,0.7532746972580728,0.5406106514300586,0.27968055734752156,0.6874887908782509,0.23884775501879432,0.6275683123323526,-93.01940726588286,74.69879549673051,218.03879281907786,0.08909595045847737,0.5210385367717245,0.10190206215751797,0.2436000555927992,0.6458644266906249,0.5023224170453326,0.6615345537645307,0.40841564779631806,0.5818996905721673,0.23863698740423828,-51.496081752531424,14.787073804687974,41.87122361001941,1.3227348004314472,0.2723789158684675,0.3730204698605259,0.6149123388241007,0.5574714077160084,1.0800789184618886,0.2686583030309527,0.26255238020991245,-0.36015562747484176,0.8540752263461204,-129.96684559752225,61.95658529591304,130.2277156754947,0.46392123558505755,1.5610892606311142,0.7108991674607823,0.5418384207691437,0.7201561587259396,0.8498007538076633,0.1323729381439031,0.7970620976331606,-0.12981963219907336,0.5751320123861084
0.69,-124.90104717297145,84.19397358581169,167.7634547037983,0.13356392140110995,0.10120178003360829,0.17961520382847224,0.3331107343886425,0.7971998949622217,0.5349788618556723,0.2779323818879985,0.687527969186139,0.2377996986540089,0.6286467563020031,-93.04461404283124,75.2396870126884,216.93900674751313,0.09295198502947156,0.5480698236348289,0.09344196695601528,0.24706264085375407,0.6428237961289316,0.5229983169908596,0.6584682759430514,0.41179242818505135,0.5801815578308473,0.24845854830473596,-51.75779883059592,14.660736151217307,43.64370278865229,1.358448172877872,0.24156902068127373,0.32075421913587054,0.6143694451088763,0.5213618112478464,1.1232085375830418,0.28139651626286033,0.26792029925918387,-0.3586159250256896,0.8489168913642332,-129.21575520535885,61.076637672490804,133.6892678603161,0.46496019231518393,1.5736657740708468,0.7157249967542731,0.5694007204269971,0.6925586101040779,0.7956715393120944,0.1588015698917552,0.8011832264848003,-0.10603900883690516,0.5666234781063983
0.7,-125.03035076279086,84.28586963565087,167.69421580182615,0.1553822031462307,0.09999461161525643,0.18321486495946213,0.34234928638797796,0.8369992789935446,0.5196460507235954,0.2763678960142296,0.6874909989435525,0.2369277708651582,0.6295922383876107,-93.06490154553524,75.81102157110814,215.74307070265078,0.09985760618269483,0.5813711128317819,0.08584944021484742,0.2577109876241603,0.6267233346172941,0.5405386242941728,0.6549913377026224,0.41556532067800944,0.5783273842051709,0.25893265111626973,-51.927362229940506,14.537198992454648,45.44098951104791,1.394668555160758,0.21109461741158658,0.2742404951951338,0.610892358396896,0.487405294451011,1.144469376803672,0.2944039419344297,0.27315561844421016,-0.35625565080838273,0.8437471813483753,-128.38694389812775,60.084014549576935,137.03998874838808,0.47245133989106614,1.5843122970350878,0.7130714645876458,0.5854869013759666,0.6541107379993125,0.7256876231219876,0.18532996677723465,0.8045281523040766,-0.08308116353647028,0.5566588977751357
0.71,-125.14072316351584,84.38268938111625,167.64622277592855,0.1781343545238572,0.10267099880439243,0.18310148134137552,0.3511969454918441,0.8721153159243357,0.4967515163409803,0.27503613590609166,0.6873402747725387,0.2363048838747752,0.6303967404775547,-93.07135069287634,76.4145826097527,214.40769138799186,0.11023997799276576,0.6196344135731081,0.07928907987511166,0.2748936909947491,0.5981772934916998,0.5545260930406058,0.6509593816524059,0.4198369679110489,0.5761621654589418,0.2702344616779845,-52.00074058676187,14.425454104474872,47.26408962426531,1.4302867788541005,0.1823341067145742,0.23592738043781666,0.6046084241978992,0.4579881157348845,1.142803354300706,0.3076966513481852,0.27826882075668324,-0.35300766093254404,0.8385746654134955,-127.47719153057244,58.98801116776445,140.25287634041396,0.4860565779113367,1.5918121448648757,0.7020421551934487,0.590727530368313,0.607245358418254,0.6462793293267073,0.21176242407421195,0.8071402005632499,-0.061120972436250344,0.5453681279976208
0.72,-125.22501119684694,84.48735489294303,167.61989050966181,0.2005614397795434,0.10827175163663871,0.17930211423228826,0.3589000285667259,0.9020917073960346,0.46944750149021924,0.27397776300771687,0.6870495154186516,0.23598711650370968,0.6310542875954361,-93.05546694539275,77.04818305486263,212.88596512669048,0.12432651766171612,0.6612182671809186,0.07378722101345682,0.29726805057906885,0.5590521299996057,0.5647293757250436,0.6462019984040798,0.4247321835287667,0.5734630171837116,0.28252340663643866,-51.975797333850764,14.335131351536898,49.11188728515993,1.4643338259981558,0.15639990284455216,0.20757898030140975,0.5954716700671175,0.4353504333129317,1.1189339250729828,0.32126680530201857,0.2832684183355268,-0.34882089281424217,0.8334084471221769,-126.4887384504143,57.80060077227274,143.30297724051408,0.5048437211801919,1.5944318941321012,0.6821213624993935,0.5866559921269777,0.5548605809105147,0.5644818943387141,0.23788598156035656,0.809080842695256,-0.040331925191114885,0.5329213955028332
0.73,-125.2767718349854,84.60138910505401,167.61424680830257,0.2213296808438689,0.11569745105183922,0.17211778974256464,0.36478080330936924,0.9264404313002197,0.44161732468531273,0.2732232470095389,0.6866041503924013,0.2360114532462271,0.6315621594182156,-93.00985083950917,77.70553310190415,211.1295574799115,0.14208549492576183,0.704204616612553,0.06925218955556217,0.3229421397637383,0.5123100802490385,0.571115553519855,0.6405287099590895,0.4303924057528438,0.5699655698827767,0.29593329508914823,-51.852107837679874,14.275914229339387,50.98124506285858,1.4960940448996063,0.13406271594045174,0.19021365885786762,0.5833195333511386,0.4214350866767066,1.0753148315684273,0.33508404605661757,0.28815887097636433,-0.3436615044056831,0.8282585618157422,-125.42990410925827,56.536467967149456,146.16838163836476,0.5274403650068431,1.5900948224268332,0.6532773093386083,0.5754153051583668,0.5001619674119596,0.4872543022370249,0.2634711936038541,0.810426630563151,-0.02087927603944659,0.5195245490813886
0.74,-125.29075447292031,84.72501558587923,167.62718901168037,0.23912955958330442,0.12379176542149474,0.16206721944820654,0.36831193546326774,0.9445505277951456,0.4174812550787422,0.2727917563500873,0.6860006800694971,0.2363952154671988,0.6319220873622386,-92.92873180498658,78.37641898740135,209.091237957384,0.16318482986222996,0.7464744616219287,0.06551013067107803,0.34971258010337375,0.4616873838021461,0.5738661975658178,0.633738406106182,0.436967297386102,0.5653748951396633,0.3105630539510362,-51.63076603095319,14.256881289591716,52.86727388774707,1.5251593490794673,0.11572697761771818,0.18411073989132282,0.5679709683665831,0.41773580887842077,1.0159285233239235,0.3490991218990339,0.2929388594982767,-0.33751340419487774,0.8231358345921277,-124.31510714256896,55.212819304844594,148.83124846897942,0.5522322733203865,1.576637453301568,0.6160320078768835,0.559445676056619,0.4465359066053775,0.42085406011887416,0.2882764206052829,0.8112649257229757,-0.002911273159098589,0.5054113754033108
0.75,-125.26339851065109,84.85737340235363,167.65582488007234,0.2527857005925638,0.13142951990177432,0.14981556745806937,0.36918035177921277,0.9556847737084613,0.4011437525706444,0.2726903340126836,0.6852453419223111,0.23713677886627796,0.6321414666023334,-92.80834551313639,79.04720151095171,206.7277554927517,0.18697366212069694,0.7858005374064871,0.06235002296858271,0.37536854954019244,0.41127197649890535,0.5733897772501059,0.625632104623103,0.44460364839784955,0.5593811254439877,0.3264684915324297,-51.31420978746384,14.285863032758161,54.76374838021583,1.551411698425146,0.10145563512275037,0.18887096353567667,0.549338113576732,0.4251734214639038,0.9459256683942415,0.36324909715409825,0.2976003044597964,-0.330378196393999,0.8180511184089827,-123.16424905431786,53.84892146093525,151.2787928504052,0.5775702586146044,1.5521147418105572,0.5714788276188291,0.5411893909783966,0.3974364257370372,0.3703310805960694,0.3120559051063435,0.811688851766723,0.013450672434951511,0.4908332480003739
0.76,-125.19330568264951,84.99681447603865,167.69684338746896,0.2613605303669104,0.13760330488403205,0.13609949801998575,0.36732556397007154,0.9590734636905739,0.39613924870328593,0.2729131165684888,0.6843523972799451,0.23821717594230124,0.6322345205128495,-92.64715290197685,79.70162232651873,204.00303120463477,0.2124905204059674,0.8199546875501431,0.05956903862183761,0.39801636585222433,0.3650574115406746,0.5703163353866191,0.6160285883730059,0.45343197561998283,0.5516796216377196,0.34365532180518016,-50.906073550860384,14.368909091469787,56.66363067501809,1.5749389887638692,0.09103681908724884,0.2035152987906151,0.5275145368790224,0.4440230040117842,0.8711134015119202,0.37746335168966294,0.3021284263755265,-0.32227452579713217,0.8130140152158547,-122.00150502682128,52.465356187603504,153.50412753493907,0.6019518899937887,1.5151079574734982,0.5212360402614196,0.5228404052000796,0.35626561070686746,0.33917953111009186,0.3345711831149559,0.8117920154717891,0.028121536227838417,0.4760467836963732
0.77,-125.08161037934264,85.14124788119935,167.74687058444167,0.26423404210842494,0.14150022676934215,0.12165909131526755,0.3629433508491714,0.9540724485090822,0.4050274588962299,0.2734407160950917,0.6833422100106887,0.23960237261366937,0.6322232153954518,-92.44591143800622,80.32188347846757,200.89160682736537,0.2385015532154789,0.8468268841966012,0.05700918462853481,0.41636960797790173,0.32653867626007227,0.565460411046706,0.6047821280032792,0.46355148562403453,0.5419951380369782,0.3620735127035362,-50.41106205693316,14.50994562420985,58.55965381065367,1.5959064500258933,0.08407955086518028,0.2266103066307835,0.5028119475794993,0.4739042753462209,0.7973391330373039,0.39166957758091503,0.3065029773580536,-0.3132367846419388,0.8080313251299492,-120.85363892384116,51.08303203376582,155.50682589810313,0.6241515954564846,1.4649842405627855,0.46733536531055897,0.5061599658202462,0.32623607285898526,0.3291615830484525,0.3556047441807156,0.8116635465032364,0.04106044025824614,0.4613005187341381
0.78,-124.93215292725698,85.2884932638225,167.80278203296416,0.26114804683495413,0.1425585213086421,0.10718396678423377,0.3564563682004821,0.9403254517948183,0.4290792223372439,0.27424017845456805,0.6822391744465018,0.24124619145370044,0.6321375781336299,-92.20761477607026,80.88993949390773,197.38220535796606,0.26357091780070463,0.8645511677616254,0.05457887690534919,0.4299513294022758,0.29839511574785893,0.5597499583022888,0.5918011061675436,0.4750144138389271,0.5301088542088169,0.3816130194590033,-49.8348356917355,14.710668542745106,60.44490325562686,1.6144155573393557,0.08012102983756733,0.2564109974530046,0.47574218165577353,0.5138358995935612,0.729857483202668,0.4057990585438644,0.3107005201219837,-0.3033132022767782,0.8031055112879347,-119.74801846920423,49.722046094094495,157.29307381982096,0.643282385269693,1.4020600761488369,0.41205608282255374,0.4923713262090204,0.3102118777243787,0.3402963473181758,0.3749743401728158,0.8113839191678341,0.05227527594806102,0.4468218676092795
0.79,-124.75137568051966,85.43660303859257,167.861956762107,0.2522128223970709,0.14049583291812096,0.09327637216917627,0.3484608959999582,0.9178709342263548,0.4680831492047236,0.2752659906441886,0.6810695664365075,0.24309388476126384,0.6320150073956725,-91.93731598942726,81.38891045829652,193.48113568937896,0.2861623465771316,0.8716302649936009,0.05225790533683373,0.4391682309997108,0.2822859279203245,0.5541339067817954,0.5770659307334637,0.487811184350915,0.515886355420532,0.40210120210923816,-49.18390165677434,14.970672948796704,62.3133254254963,1.6303831480485969,0.07872538313666105,0.29101175913183264,0.44696581371478517,0.5623460531900817,0.6727834654189621,0.4197906571214936,0.31469735663247445,-0.29256346896036134,0.798233439095358,-118.71054624751365,48.40053251935748,158.87530525576116,0.6587835198645782,1.3276339630951595,0.3577257417261982,0.4821367025879845,0.3105289228656282,0.3709949078119719,0.39254600424891495,0.8110218811911407,0.0618232319738722,0.4328057823767733
0.8,-124.54790778761925,85.58411289275176,167.92246307873026,0.23788239883463844,0.13530740350924997,0.08043017443784117,0.33965925744109465,0.8871634183153714,0.5202936067028703,0.2764624346988889,0.6798594648415155,0.24508623773938856,0.6318982854018259,-91.64184473404742,81.80449303529994,189.2151329095896,0.30476637786267885,0.867046756367937,0.05008878119780932,0.4452393721945721,0.2787678313385672,0.5494860648505369,0.5606442530232699,0.5018582606774132,0.49930377345165994,0.4233026321239231,-48.46550641670615,15.287776919219937,64.1600955832611,1.643466993363191,0.07955510089377216,0.3284944297077401,0.41723688481330046,0.6176292971915569,0.6287180992768548,0.4335931884896585,0.3184725402729787,-0.28105615026909564,0.7934055950928031,-117.76373659970511,47.13365592818105,160.27127178165884,0.6703415683062407,1.2438757081737815,0.30651598726084767,0.4756107470989563,0.3288029028717284,0.4183157686848116,0.4082437764526376,0.8106326566238196,0.06980680787407284,0.419406527714652
0.81,-124.3318635297113,85.73018502413719,167.9831660000293,0.21890979799202182,0.12723941821991028,0.06902303832070951,0.33078429158148775,0.84902241474844,0.582531150936492,0.27776728100378467,0.6786328939423621,0.24716391034689955,0.6318322781172288,-91.32942494391298,82.12622533258887,184.63311988507024,0.31804285663520404,0.8503474753937127,0.04815964662981088,0.449989132879803,0.2873324115478481,0.5465169871403958,0.5427013103005829,0.5169908123561971,0.4804686004446492,0.44492238438039033,-47.68751931252375,15.65847082800525,65.98180121501689,1.6530537828828833,0.08240324517005818,0.36706270617607595,0.3873639418483512,0.6777396661625399,0.598595451804866,0.44716620092066406,0.32201040959489824,-0.26886612762343565,0.788605931237533,-116.92515122114938,45.93289817302052,161.5025755044495,0.677766909051637,1.1535871666836568,0.2602639400104186,0.47255586019367796,0.36574482784435214,0.47830871587525486,0.42205444782583007,0.8102574370995768,0.07636552976275592,0.40673371838947725
0.82,-124.11392872683865,85.87461933963202,168.04374628763526,0.19629512965432433,0.11674667894041088,0.05931952402116042,0.3225225122128043,0.8045509350190305,0.6504335753047416,0.2791165119324016,0.6774102595503905,0.2492716151933448,0.6318596015040844,-91.00920059427989,82.34846300669948,179.80636037757642,0.32496436971863224,0.8216905961960534,0.04658362644563188,0.45553911612632847,0.3065511610550141,0.5456983899401626,0.523503286832341,0.5329622120506089,0.4596314903401596,0.46661403751361763,-46.858288957182886,16.07841611143889,67.77643366956062,1.658313514623043,0.08718517091190624,0.405154354460241,0.35819246781177877,0.7408035422618787,0.5817586850504264,0.4604794759099944,0.3253022210226728,-0.25607215885811874,0.7838124138047402,-116.20635549070712,44.80574417303206,162.5927859296579,0.6808599714893288,1.0598753933910945,0.22034430612333317,0.47249473372395057,0.4210141881102914,0.5464084223103918,0.4340263561844039,0.8099240442298908,0.08166423395662258,0.3948531792948783
0.83,-123.90433621595672,86.01772420917428,168.10462712703017,0.17123676001301824,0.10444443366439268,0.051483829831173604,0.31544670696405896,0.7550642339182915,0.7188372626215432,0.2804495841022648,0.6762070830005988,0.2513617371426865,0.6320156908493056,-90.69068297780188,82.4709527944299,174.82660088166918,0.32494409265336865,0.7818502809813904,0.045478017036482264,0.46395113828187906,0.3343080513694885,0.5472055134613955,0.5034120644893202,0.5494517078136341,0.43718599003375125,0.48799319585508577,-45.986450245561926,16.54292646983547,69.54321545312493,1.6583119377752855,0.09389814184789982,0.44152578711006657,0.33060350788338144,0.8052235312403082,0.5762371045182242,0.4735117078825851,0.3283466454857292,-0.2427544971653439,0.7789982775188202,-115.61248075713509,43.755805496376254,163.56534610463237,0.6793056071339986,0.9657969622477338,0.1876061298634848,0.4748679962450324,0.49314139988334055,0.6178355447841848,0.4442622614735755,0.8096485456074841,0.08587932693984308,0.38379238356167045
0.84,-123.7118357456785,86.16005855329628,168.16681544250343,0.14508897946152566,0.09106310406349698,0.04560078744693327,0.3099703781441782,0.7020470915047271,0.7822493969486216,0.2817147169586598,0.6750330532603214,0.25339711739018456,0.6323237661319591,-90.38314220868375,82.49893981592164,169.8020809796424,0.31793142012471587,0.73217996820549,0.04494523538198092,0.47688092932005727,0.3680918085718991,0.5508900984345327,0.482870721864474,0.5660803416533741,0.41365468734101063,0.5086563214309928,-45.0806636046288,17.047383087675936,71.28231381188172,1.652161907317298,0.10256227961614117,0.47530581882197737,0.30551970870422773,0.869837090148574,0.5791704858217595,0.48624885029613074,0.3311490686405685,-0.2289924370529578,0.7741338910847375,-115.14239180659251,42.783347079768916,164.4415300185467,0.6726263329154631,0.8740364785990572,0.1623743250587641,0.47916376599573335,0.5795425207551426,0.6879642865443145,0.45290733719275905,0.8094375418360299,0.08918477137722179,0.37354942038470135
0.85,-123.54275633844914,86.30207721667257,168.23167539178314,0.1193219666381985,0.07741242101094158,0.041702281660138875,0.3063319174547296,0.6471343383669246,0.8353598802086796,0.2828737705905457,0.673891520123775,0.2553528663989519,0.6327902488586412,-90.09497681391375,82.44280382373226,164.8516619554791,0.3044607144675824,0.6745404367519677,0.04505652463365761,0.4952986868056541,0.4053124924623885,0.5562998161283877,0.46238051135094693,0.5824336421515591,0.38966236129852877,0.5282033715454847,-44.149278483787114,17.587556496686446,72.99450380927921,1.6391879023896334,0.11315693867188209,0.5060158113732953,0.2839092760459142,0.933997496511241,0.5873102463734682,0.4986825916323022,0.3337197878507457,-0.214861685556741,0.7691890277263342,-114.78938303604386,41.88612121553928,165.23872474475988,0.6602080898863179,0.7866721114081303,0.14450430158543176,0.48499247390981737,0.6766333775494779,0.7526225549142956,0.4601340785255073,0.8092908121076923,0.09173963575247314,0.3641038688062619
0.86,-123.40024923095916,86.44372735113808,168.30065762316863,0.09547576640490696,0.06435813347362507,0.0397946359776078,0.3046089243772347,0.5920960785639312,0.8735402350822344,0.2839063348753167,0.6727796657279593,0.25721714531535406,0.6334012658445762,-89.83310638299318,82.31727434698038,160.09765417862056,0.2856423224626689,0.6112005060754255,0.045839169418086904,0.519318567586951,0.44360009072380496,0.5627500179685156,0.44247140356344844,0.5980883970234888,0.3658987216969974,0.5462617587822481,-43.19992834125305,18.159825558994513,74.68084998311573,1.6190769877319726,0.12556501318253463,0.533552546629937,0.2667784327754872,0.9975563661521122,0.5975170485421727,0.5108093726930624,0.3360713318868148,-0.20043153602302244,0.7641352074464264,-114.54227412397066,41.06037362064182,165.9692715189001,0.64139281744942,0.7050600481819183,0.13347163641400245,0.49209427597284017,0.7800330110633799,0.8083075522701378,0.46612629595423266,0.8092040080387468,0.09367883990795307,0.3554277519404662
0.87,-123.28378758144606,86.58405233902585,168.37500942524082,0.07510108895603558,0.05281055976936791,0.03988186630469909,0.304757087486004,0.5388076322283466,0.8932811151727423,0.28481264452584193,0.6716896051382016,0.2589908650846681,0.6341208780595755,-89.60244017098977,82.14031713630037,155.6581181272519,0.26309068503786853,0.5447166817244464,0.04726814980012708,0.5481585996071485,0.48103998913561274,0.5694346573012495,0.4236692532564063,0.6126403038648631,0.34307472212643275,0.5625088400634757,-42.23908352530572,18.76129487776195,76.34247424763886,1.5919933688291672,0.1395354788930345,0.558130176467623,0.25514552116030337,1.0607454302701398,0.6071749300357133,0.5226302520687718,0.3382152103916259,-0.18576192036799233,0.7589476626292329,-114.38674858794124,40.30187074299006,166.64001750899416,0.6156172185093206,0.6298443553328257,0.12847856280206432,0.5002865391625896,0.8848347417759084,0.8523244025382959,0.4710643090869008,0.8091711148236806,0.09510822549652911,0.34749492494286705
0.88,-123.18898068079757,86.72086112396681,168.4554904688933,0.059683983705568704,0.04372047279265012,0.04198042582409123,0.30666460354397856,0.489192083861069,0.8925264891570365,0.28561491738918604,0.6706105217334501,0.26068628396600535,0.6348915326642265,-89.40547587091501,81.93181113457167,151.63944871959052,0.23879207806897057,0.47779646499464684,0.049263191868544776,0.5802311649211659,0.5163075281369561,0.5755499586867915,0.40646302078026914,0.6257294813711893,0.32187703523158506,0.5766904728944477,-41.271609695970234,19.38981438590492,77.98046358722947,1.5586401697566723,0.15467191428582092,0.5801808307350377,0.24999532848567738,1.1239822746077364,0.6144612636237158,0.5341517434908748,0.3401584179565784,-0.17090055152532246,0.7536064359022806,-114.30677388271535,39.60680448476833,167.25262247228505,0.5825688621083123,0.5610747678752361,0.12856295730788472,0.5093797309385842,0.9859219155486975,0.882873670612506,0.4751130466314977,0.8091864494310278,0.09610436877453267,0.34028768086702194
0.89,-123.10773310380418,86.8505146339901,168.5421182732513,0.050555948558037245,0.038074435012632725,0.04612258680382069,0.3102111490668056,0.44513527220386023,0.8708726416517295,0.2863567983841194,0.669531692309292,0.2623245957696981,0.6356369713469756,-89.24207526925655,81.71214608043894,148.129953480678,0.21492362250993716,0.41315096007118723,0.05169184762738079,0.6133450911941372,0.5486852183995024,0.5804065177718488,0.3912752582743884,0.6370614624799803,0.302925110922936,0.5886339239060837,-40.3003976945608,20.04390150972827,79.5959419562899,1.52025883042307,0.17045109025148367,0.6002206013755846,0.25221728840867935,1.1876486762179974,0.6184482496189982,0.5453874935094449,0.3419000271367256,-0.15588054716452096,0.7480962122990629,-114.28595689411553,38.972458695116984,167.8045538868714,0.5423286217817824,0.4983967581283998,0.1327000119115155,0.5191016923403937,1.0783113508065518,0.8991098617458807,0.478414113760054,0.8092460314508061,0.09671879876772048,0.3337998782273799
0.9,-123.02874636220109,86.9678670628703,168.63396663341257,0.048794573837890445,0.03687910708966735,0.05234705478997873,0.3153194874424506,0.4083817899891841,0.8296148121596101,0.2871008212339203,0.6684460085590028,0.26393274549214707,0.6362674809793978,-89.109447003001,81.5008668998611,145.194946463136,0.1936435563330039,0.3533449120679405,0.05437881509957032,0.6449844640570371,0.5779756668829198,0.5835176942805013,0.3784383638891458,0.646422161108392,0.2867344588210929,0.5982543154002397,-39.32613824265278,20.72256340531135,81.19029311299052,1.4785626621585337,0.1862705689789034,0.6186972745021376,0.2625340065511394,1.2518927366088224,0.6190500421837073,0.5563603949202952,0.3434282559492244,-0.14071909287446782,0.7424047234571248,-114.30871924682184,38.39756692221993,168.29060886467724,0.4954716362639292,0.4412686034818146,0.13988892923795035,0.529065465375134,1.1575092837071512,0.9011707027570082,0.4810821527075577,0.8093482374248263,0.09698563101695551,0.3280364245193971
0.91,-122.9383283891337,87.06637911979732,168.72903785564162,0.05512258425069845,0.041123534446613715,0.060676624007683685,0.32198828681893726,0.380422454317524,0.7716391755800716,0.28792407837218686,0.6673534331461602,0.26553978724907573,0.6366869860063715,-89.00234371470675,81.31547443469034,142.87365304550946,0.17687772987969427,0.30065429491296236,0.0571212142867952,0.6726188421717719,0.604347121440889,0.5846616053170822,0.36817815628561706,0.6536862277826628,0.2736886806241658,0.605554646528674,-38.34730531583641,21.42502094775658,82.76548609632788,1.435607667967766,0.20151870559982232,0.6358459903802559,0.2814288685220106,1.31648698203155,0.6168554961024024,0.5671045264765148,0.34471845045643623,-0.12541774871407704,0.7365198737636471,-114.3612144246006,37.88234484721937,168.70473214598974,0.44310686232409274,0.3891605368188614,0.14921650997347116,0.5387955870770611,1.219854703827313,0.8901563994342258,0.4832051561190591,0.8094937285717406,0.09693115410459616,0.323009498215005
0.92,-122.82144890882354,87.13839688357379,168.82422553919798,0.0698151996105214,0.05171202543571169,0.07108451211172977,0.33029685464810155,0.36238231744161675,0.7011701648088473,0.2889124819591849,0.6662637665266679,0.26717306708861044,0.636801135676188,-88.91345657054784,81.17046607213854,141.1780025298424,0.1661274410545811,0.256942061335841,0.059708656147964834,0.6939973411766418,0.6281574387672627,0.583914537973099,0.36060535829182205,0.6588190194763517,0.26402161161814314,0.6106201274096195,-37.3603838709107,22.150350998333657,84.3244312551167,1.3936117136590664,0.2156561442064712,0.6515856621380989,0.30908418929100784,1.3807527905977808,0.6128960974557883,0.5776662537484487,0.3457323921789535,-0.10996481753278446,0.7304260313022642,-114.43194553678252,37.4282331027351,169.04186321475166,0.38684653089961807,0.3417009805975485,0.1598896474807115,0.5478004810553981,1.2628116211430596,0.8680344984632323,0.4848479194286853,0.8096847197234326,0.09658366326961818,0.3187324347400978
0.93,-122.66295682534236,87.17556961755089,168.91538005138693,0.09262671547397343,0.06936874318184548,0.08345415720005273,0.3403764426550643,0.3549192381758784,0.6233960198773415,0.2901540863587482,0.6651981485841393,0.2688544271050824,0.6365253479265375,-88.83396967782392,81.07666849374513,140.0932085757781,0.16231966335064793,0.22356130966397292,0.06194572338406281,0.7073860591066444,0.6497967372673108,0.5816496828721455,0.3557147595850626,0.6618729707054868,0.2578099075868616,0.6136080579364191,-36.36033468117103,22.897087021311805,85.87128538025121,1.354741266134607,0.22829531193426442,0.665487250884878,0.3453414431896775,1.4435516965053163,0.6083954538427513,0.5881039475815386,0.3464191695774004,-0.09433976271307856,0.7241001338701765,-114.51207610924585,37.03742711480105,169.29954808047847,0.32870931069129977,0.2987511173541244,0.17123335791332178,0.5556573894599519,1.2851706646640995,0.8374588981053809,0.4860575613693584,0.8099237293207235,0.09598186302890459,0.3152126142355569
0.94,-122.44885845632061,87.16936713589713,168.99748448014967,0.12274714160316146,0.094525858944101,0.09754083398665218,0.3523488829945817,0.3581466171588007,0.5440092693627725,0.29173200621179834,0.6641888770144335,0.2705965970452281,0.6357918031760177,-88.75422361388235,81.04088219693827,139.57991504209227,0.16571449121333898,0.20129204176105245,0.06367351379047219,0.7117229852004139,0.6695735431579043,0.5784944745082399,0.3533912426084896,0.6629794277740801,0.25497561150948755,0.6147347059869868,-35.341241904609944,23.662841326769968,87.41162916438499,1.3208908295301895,0.23926331948930293,0.6768306804174139,0.3896897930380232,1.5033447267694544,0.6045369293254488,0.5984860217861693,0.34671756557256317,-0.07851913747525269,0.7175083689323184,-114.59545684795964,36.71229353696527,169.47909635653997,0.27097219902281067,0.2604062661018152,0.18266005053421927,0.5620732114995138,1.2871359741986523,0.8015121819557252,0.4868699524890027,0.8102120119462812,0.09518046317594123,0.3124448172203024
0.95,-122.16754429492475,87.1116518092298,169.06494294205663,0.15879916466913793,0.1272151837632211,0.11294529272727827,0.3662409223132798,0.37159486821900944,0.4687075173494049,0.29371754699132346,0.663277388021079,0.2724000210260244,0.6345546012043151,-88.66443155597987,81.06582724600526,139.57761002110567,0.17587822922341675,0.19031406792881095,0.06478669308116769,0.7066819790941326,0.6876501621736053,0.5752457535580662,0.3534215151425272,0.6623370609875513,0.2552976387152964,0.6142605935131243,-34.29705282451822,24.444022448860753,88.95245700668777,1.2934825756123383,0.24863495212717124,0.6847432703388268,0.44128097279024575,1.5583227698377777,0.6022751698657517,0.6088872676338821,0.34655960973078476,-0.06248310482441851,0.7106041923663714,-114.67841693664383,36.454775397479374,169.58614592287003,0.21599384371815744,0.22693597199329135,0.19362463531038135,0.5669002202946498,1.270294570629427,0.7634005825125364,0.48731594465476763,0.8105479215747593,0.09425211908788673,0.31040631158708903
0.96,-121.81085022582026,86.99525868078423,169.1119725154878,0.19888456998417356,0.166985456438807,0.1291082552137006,0.3818898363950019,0.3942208932406588,0.4027012329747719,0.2961642180104226,0.6625105851609706,0.2742505025175101,0.6327926179005157,-88.55539190901766,81.15035476593282,140.00897282331763,0.19172460639031688,0.19021591479855915,0.06524302715003824,0.6926519958136229,0.7040188499311625,0.5727521764083716,0.35551025389290053,0.6601978932201531,0.25843070359626025,0.6124753683022712,-33.22230602101294,25.235710859872132,90.50194534323906,1.2733119228400298,0.2567274665041483,0.6883891234536309,0.49896390752015696,1.60660835000726,0.6022077927238798,0.6193837075658717,0.3458747644436106,-0.04622153746159131,0.7033283207066393,-114.75938495198966,36.265872683773836,169.63059557893115,0.16603487214061938,0.19868284205859368,0.20358362035057617,0.5701079903248424,1.237477741244576,0.7261436432899274,0.48742648892322593,0.8109254808629147,0.09328550808913262,0.3090544955194072
0.97,-121.37484899798768,86.81453679221688,169.1330735686511,0.24068643756026484,0.21286419073572177,0.14533051169538488,0.3988612534630101,0.4244659451966464,0.3502741517101439,0.29910324858285525,0.6619360364067568,0.2761181255355635,0.6305099568961162,-88.4191453207556,81.28987155725147,140.78481950933806,0.2116206519565223,0.20003828970448423,0.06506341601613426,0.6706483516796106,0.7185054087889823,0.5717829595951766,0.35929941066184323,0.6568518377515024,0.2639300049243863,0.6096831139198509,-32.11275677062753,26.031727628946108,92.06899714830973,1.2604585084550906,0.2640569560464789,0.6871649457296,0.5613349625998447,1.6465187369721592,0.6045157030452888,0.6300463881414893,0.34459424482654355,-0.029738876566527683,0.6956110542406861,-114.83840998088567,36.1452580001278,169.62595475150178,0.12309854243031386,0.17594407424015604,0.21197321495178967,0.5717300809974448,1.1925245651603513,0.6923013308146289,0.487236022775913,0.8113334346483607,0.09237994666570966,0.3083273921305099
0.98,-120.8602897525434,86.56580594934326,169.12353376869203,0.2816278193232689,0.2633760264463909,0.16081837180312836,0.41640280516619377,0.46035518433404976,0.31444008136568835,0.3025410474337314,0.661596770209564,0.2779578438470608,0.6277342213251854,-88.24952951628741,81.47691752553044,141.80935478530932,0.23354766504794852,0.2183498372327315,0.06432215096029179,0.6421815668903051,0.7307880152925146,0.5729071096077386,0.3643896493215132,0.6526104719129852,0.27128000268303953,0.6061885958796203,-30.96584054412587,26.824892609090842,93.66259188425983,1.2542717461538841,0.27126385455039137,0.6808565518819791,0.6268063644489789,1.6768597759055943,0.6089733224718284,0.6409346837535643,0.3426551690238654,-0.013057282123672248,0.6873769275608409,-114.91664995640731,36.091055916085,169.58822166136446,0.08880838067293975,0.15886017001590555,0.2182142771816942,0.5718114212612009,1.1399585037317843,0.6637703485956344,0.4867838265460172,0.8117550396657567,0.09163741855728287,0.30814678841894033
0.99,-120.27263625418055,86.24768803873158,169.0799050661738,0.31907912750657913,0.31662049184896307,0.17474967438231648,0.4334555880137909,0.4996291440737272,0.2967327851220577,0.3064587731520962,0.6615264226870327,0.27971191813950924,0.6245130630044061,-88.04259269192946,81.7018364956555,142.9854988792651,0.2553018464807797,0.24335113229032354,0.06312935649950183,0.6091143423317268,0.740422869889756,0.5764069959535887,0.3703631285638065,0.6477906468656279,0.2799257474949684,0.6022846346047745,-29.78095544658515,27.6074320733511,95.29099708916077,1.2534283265732264,0.27901970506700774,0.6697214121346096,0.6936981692517081,1.6971954824590407,0.6150206549241258,0.6520897859847066,0.3400044555702831,0.003782012099702107,0.6785513283403767,-114.99588478866046,36.099786909500445,169.53443540267054,0.06433074166954106,0.14733202338973317,0.22174431037513295,0.570379117470113,1.0845992229918182,0.6416644061425884,0.48611335089082597,0.812168782916192,0.09115313334467871,0.3084234278064603
1.0,-119.621694876183,85.86128223674771,169.00038794671727,0.35059589501884986,0.3704024326073696,0.18635140382997825,0.4487371879615467,0.5398964473886889,0.2971510298393246,0.3108139135072043,0.661745360747559,0.2813140955509224,0.6209095677641843,-87.79683720745668,81.9534871609282,144.22009948488187,0.27471379841619914,0.27300018098369677,0.061609434357970276,0.5735328265766263,0.746874916270656,0.5822455570263212,0.3768069158935312,0.6426984848157706,0.2893053000530289,0.5982406112131229,-28.55957940728517,28.371470318783278,96.96091624529612,1.2560488040340945,0.2879282721172477,0.6544821753316775,0.7603527060705074,1.7080239912410213,0.6218765196909467,0.6635290995462636,0.33660249058547287,0.020718935854126527,0.6690684326426816,-115.07809800958968,36.166457443820974,169.48106046125307,0.050342359603643964,0.1409805499930539,0.22207054135264176,0.5674481906021737,1.0311464150229017,0.626279068817549,0.4852698044439196,0.8125501244243891,0.091005768038531,0.3090634768870235
1.01,-118.92086687953486,85.41016809703419,168.88506816233541,0.37415773751468656,0.42239989188841054,0.19497608996044635,0.460894994011075,0.5787950864045834,0.3142623357277696,0.3155435909814205,0.6622582218308665,0.2826951773022537,0.6169970331957239,-87.51328080011181,82.21994943729413,145.428845475154,0.28986193659946147,0.3051511094354506,0.05987987473227809,0.5376436469930487,0.7495611554542905,0.5900965695203534,0.38333615915411984,0.6376143207630767,0.29888174386612776,0.5942920694034376,-27.305259930703013,29.1095305471768,98.67665577734172,1.259854746004228,0.29843332283659163,0.6362358497276133,0.8252586923455082,1.7107954081400958,0.6286616869048174,0.6752422388522125,0.33242655254172737,0.03767605211287371,0.658879621239943,-115.1651527068016,36.284767887991805,169.44236331091486,0.047037512425521684,0.13915417448976128,0.21883404737111983,0.5630613907047778,0.9837764024794929,0.6171374839866052,0.48429656173066055,0.8128742237295146,0.09124843315581291,0.3099754907075817
1.02,-118.18610219495757,84.90023689765965,168.7359772145435,0.3883718699180538,0.4703485889034903,0.20016228513750894,0.4687099249107418,0.6141445230141307,0.34545029095187296,0.3205692322264537,0.6630531262623992,0.2837894679157645,0.6128536327461516,-87.19534022617816,82.48919117779643,146.54068601683605,0.2992540017140122,0.3376979871558163,0.058034185448098345,0.5036911536149603,0.7479203899388586,0.599431372871342,0.38961590414289043,0.6327791580801146,0.3081732199011871,0.5906314332574429,-26.02352360015644,29.81497497155147,100.43939311221321,1.2623479895672938,0.31074456403971956,0.6162964000584388,0.8871643874572849,1.7077348680953441,0.6345014967199842,0.687189198370792,0.327473895686078,0.054560829642308975,0.6479614947179185,-115.25856817342304,36.44740740633486,169.42893545596306,0.054166421830183775,0.14098124793791444,0.21187357786439723,0.5573539933644213,0.9457842585238018,0.6131159944300042,0.4832311530244735,0.8131194324403864,0.0919012488586506,0.3110772109112508
1.03,-117.4346701772513,84.33936784087709,168.55698156666966,0.3926050072703994,0.5122198737670467,0.20166709282826364,0.47131401521467264,0.6440671292127349,0.3872727245694145,0.3258021902467286,0.6641026347351489,0.2845415016513224,0.6085573775488933,-86.84855771381977,82.74967016262859,147.5015447599497,0.3019552239363069,0.3687159106488219,0.05613163751231383,0.4738790831602238,0.7415181963410267,0.6096379637234975,0.39538029004175307,0.628383202377249,0.31677938349981966,0.5873999772842952,-24.721752925481844,30.482327433452618,102.24662001273126,1.260997284908944,0.324791709826492,0.5959957018658204,0.9451577363476101,1.7014835701758722,0.6385946736541394,0.6993010342304489,0.3217643534249995,0.07126826057103151,0.6363226714672062,-115.35938798002843,36.646406607387526,169.44650582310612,0.07109552936590714,0.14545810424452565,0.2012787825940371,0.5506305837541482,0.9192940700130436,0.612647175372478,0.48210164117242355,0.813271122572325,0.09294627059431022,0.3123016500104895
1.04,-116.6838904999769,83.73698127630445,168.35353510555265,0.3870187242426093,0.5463696220054344,0.1994663364033576,0.46837637703116636,0.667064831725932,0.43588239212369756,0.3311498199030158,0.6653663212727412,0.2849123308525149,0.604181722349373,-86.48020032841167,82.99085461102594,148.27711133240552,0.2976505313929039,0.39658963851500023,0.05419532323392774,0.450279468789901,0.7301777687112423,0.6201375086169246,0.40044780718734685,0.6245570186560263,0.3244027363044325,0.5846813513877909,-23.40907072153354,31.10744121841911,104.09182032651944,1.2534212169949077,0.34021304424936044,0.5764731489013869,0.9986919513656651,1.6946282465880316,0.6402605176877191,0.7114830457776227,0.3153423451518948,0.08768340161334165,0.6240086820732855,-115.46812046822238,36.87352242876965,169.49516511424028,0.09688076823692797,0.1515590023208908,0.1874240480710528,0.5434401989746711,0.9050557712918672,0.6139860048307608,0.48092403783304705,0.8133252031786122,0.09432536341252357,0.31360198604427325
1.05,-115.94997470037386,83.103515174619,168.13234409387843,0.37250351902801504,0.5716391000313663,0.1937275228540184,0.4602146672051751,0.6820576152086756,0.4874512245938108,0.3365213988376422,0.6667946107245416,0.284884558914673,0.5997921214407745,-86.09876619696325,83.20365044125519,148.85449872113233,0.28663836120111846,0.42011681921522126,0.05221864643154094,0.43471720943297304,0.7141054499119863,0.6304646589968447,0.4047313505100895,0.6213658218362212,0.33086342511685296,0.5824971465536367,-22.09625762890919,31.687498814574287,105.96441581847449,1.2375582277202044,0.3563797331310644,0.5584882429506854,1.047537332817488,1.6892279113644473,0.6389920772601071,0.723620042202789,0.3082782157299281,0.10368355012476863,0.6111044520089887,-115.58472753604231,37.12063333240371,169.56909346563305,0.13034605679610978,0.1583512992485934,0.17097534322834873,0.5366379569236023,0.9023486207619488,0.6155093867315414,0.47970113221483385,0.8132905406634156,0.09594145742229183,0.31495481019342897
1.06,-115.24710796669707,82.44988037415723,167.90098990008394,0.3505290896085873,0.587396749197099,0.18476798330546873,0.4478030394824746,0.6884105889637673,0.5385387879305421,0.34183324299167006,0.6683333415226946,0.2844653187826366,0.5954437886571663,-85.71343308754335,83.38072537996914,149.2425897621129,0.26976204109876806,0.4385709880367936,0.05017899452263029,0.42863109482334266,0.6939692730081403,0.6402931482470652,0.4082419969031819,0.6188073441234462,0.3361063464527532,0.5808051074324182,-20.795709300560947,32.220856267086425,107.84997932910767,1.2118160097043467,0.37245277610620114,0.5422910770323718,1.0916510954789702,1.686444228565629,0.6345340162659004,0.7355829387067281,0.3006688756891302,0.11913996764964181,0.5977341072246137,-115.70863685339056,37.38012434635527,169.65683935701222,0.17016031854635336,0.1650979810596457,0.15286532411893314,0.5314234598242598,0.9090131446968026,0.616010003249501,0.47842282042697937,0.813189559295034,0.09766338585294945,0.3163612940482972
1.07,-114.58685355642791,81.78695004082395,167.66753777746914,0.3229443441102969,0.5935219113100851,0.17301255368695903,0.4326689223465547,0.6859774791087248,0.5863591040356058,0.34701244710954143,0.6699284454322685,0.2836866208079837,0.5911808126632226,-85.33348843340713,83.51672114584349,149.47096882797683,0.24829032702128748,0.45171234703435104,0.048056182662507885,0.4329286475217509,0.6709002235050627,0.6494116880235739,0.41108582369123425,0.6168136095279451,0.34019978162237796,0.5795005901675186,-19.521417116530998,32.706770233299736,109.73068209592803,1.175194066736788,0.38746665324301993,0.527580550682315,1.130978959257124,1.6863437180079313,0.6269752418186547,0.7472357694320216,0.29263770949940376,0.13391929366105035,0.5840581265118823,-115.83875853156269,37.645240135443665,169.74214311075062,0.21490728176995788,0.171330686846531,0.13423744383320016,0.5293473056421591,0.9216292754570129,0.6149439236266859,0.47706781586425595,0.8130566177626997,0.0993341800502205,0.31784596960118194
1.08,-113.97790192482846,81.12512716421965,167.44014303253027,0.29176550780449384,0.590343653273969,0.15896164952217726,0.4166946964580918,0.6751689515036503,0.628924893100614,0.3519988940181416,0.6715302209772442,0.28260289858017046,0.5870366140461664,-84.9677857608699,83.60834813266831,149.58743779306394,0.22376278739402292,0.4597428799354558,0.04585240781685369,0.44786400275630006,0.6464148704036308,0.6576734513683881,0.41345361472480985,0.6152567903194027,0.34332531729949073,0.578421737428328,-18.288929315604907,33.14506872789225,111.5859259048276,1.1273737391989997,0.4004311997960998,0.5135664727898047,1.1652278038106123,1.687891607412314,0.616821213310967,0.7584422808893699,0.28433363382492727,0.147885029745319,0.5702681263394633,-115.97349924075701,37.91038145585586,169.805238049783,0.2631433998976124,0.17688013409247794,0.11636555129545702,0.5322769603806078,0.9358466893457152,0.6125936156111315,0.47560650076523153,0.8129342606249835,0.10078227013338865,0.3194530891237529
1.09,-113.42613071724095,80.47401393276105,167.22666236057782,0.2589850749396016,0.578554813081934,0.1431738011996584,0.40186003948938565,0.6570298116298492,0.6650746096610528,0.356745499134315,0.6730968444593951,0.28128606741180073,0.5830355262580477,-84.62427450475901,83.6543633936911,149.65422656319558,0.19781963011349557,0.46321338785225313,0.043610200333776494,0.47296709537006737,0.6222846636155678,0.6649440925453409,0.4156038699347585,0.6139591240284633,0.3457594437138642,0.5773586567507358,-17.115224419217082,33.53584027688031,113.39311489383397,1.0687692633032304,0.4104404914463338,0.4991288938810822,1.1936687617086543,1.6891185808702935,0.6050108381917262,0.7690715303795883,0.2759290244414972,0.16089965531807027,0.5565797195404213,-116.11077998415526,38.17131883108745,169.82450577356607,0.31344083138488305,0.18185767572677733,0.10055846263537228,0.5423121160997455,0.9468539602535595,0.6101139295184823,0.4740046005749721,0.812867947804427,0.10183457842686236,0.32124089072211526
1.1,-112.93490326807142,79.84218510331232,167.0342919214841,0.2264228514030643,0.559121515941207,0.12625996328108097,0.3899703275677463,0.6332942942837727,0.6944044652763378,0.36121701442349013,0.6745968938916488,0.2798188563706897,0.5791950906101606,-84.3096407593498,83.65544085654079,149.7431097138356,0.17203809532844594,0.4628988246255921,0.04142543611415674,0.5070389052098073,0.6003842752533706,0.6710620666293088,0.41784010550751977,0.6127066028676107,0.3478479117688316,0.5760666586500601,-16.018419476761476,33.87921224367453,115.12853591876744,1.0005329084716337,0.4167754890962191,0.48304374984715015,1.2150399000552,1.6874175395710205,0.5928654772620094,0.7790022426702088,0.2676160936084889,0.17282794538180307,0.5432239230320798,-116.24807324398986,38.42530009363742,169.77831878566624,0.3644147182708025,0.18659103682376496,0.0880588766704746,0.5616384843871938,0.9499451145138191,0.6094412713392866,0.47222727727689673,0.8129001864002225,0.10233012553886235,0.3232744199400915
1.11,-112.50551635513547,79.23704971311656,166.86927649385635,0.19562783154074778,0.5332037147619265,0.1088826863005535,0.3824151728391669,0.6063837666221104,0.7171331112403356,0.3653880023160014,0.6760106991322893,0.2782874728082725,0.5755285280736961,-84.0290748813628,83.61395013226628,149.92972732444758,0.1477960799151783,0.4596626298597598,0.0394533692509584,0.5482091794491751,0.582540206068322,0.675814077625503,0.4204840090129142,0.6112657865253148,0.3499746105796101,0.5742832761994867,-15.017249197139138,34.17526738141282,116.76832579659671,0.9245080400711708,0.41898646569104625,0.4642299643870792,1.227610326247209,1.6799166804699284,0.581981999205071,0.7881259678274624,0.25960131251128826,0.18354185294006212,0.5304375572875956,-116.38247868070822,38.671037458729124,169.6468824853144,0.4147367862089292,0.19152696831820376,0.07994444119109544,0.5923115863774997,0.941110589333443,0.6130648733364241,0.4702431540223497,0.8130650463236606,0.10213263732760472,0.32561775925503744
1.12,-112.13770972339358,78.66477504037054,166.73675088548092,0.16782915985224808,0.5020949316518325,0.09175220410115761,0.37999343108760675,0.5793115673142736,0.7339274174606734,0.3692407399989423,0.6773303260741925,0.27677475032825427,0.5720468041655224,-83.78615638469783,83.53366554766242,150.28748268843106,0.12617740850782644,0.45433063567585513,0.03790602383103621,0.5940399872872492,0.5703847834908219,0.6789241681185256,0.4238465513160202,0.6094026779766936,0.35252732060125214,0.571748301979694,-14.130282630644647,34.42411795096248,118.2895012398844,0.8431264269932744,0.41694192204616437,0.44197344852137416,1.2294335633323208,1.663878632692995,0.5740951820737995,0.7963492912626142,0.252097661275628,0.19292697996938413,0.5184530461782368,-116.51085380872303,38.90857472912396,169.41389566719184,0.46314001473069316,0.1971205583875375,0.07703715634560528,0.6359732245564151,0.917560650152312,0.6236794831482756,0.4680277638954282,0.8133838847440152,0.10114081916306354,0.3283265581427296
1.13,-111.83016471800498,78.13024574820366,166.64077233827484,0.14392706227191449,0.4671804345018144,0.07561308599161784,0.3828300791798743,0.5554693308544836,0.7457172005891869,0.3727638036645369,0.6785580633891589,0.2753548158713849,0.5687597476295103,-83.58282811071831,83.41942985965723,150.88145306049057,0.10792410745184909,0.44759104345757894,0.03703917885820684,0.6416573291529646,0.5652106425143458,0.6800549611322527,0.4281995577369984,0.6069022323787777,0.3558631253817969,0.5682255026912871,-13.374883499826865,34.626127622198226,119.67101514970136,0.7592507727073801,0.4108341449023641,0.41609166902350425,1.2187583953123702,1.6370901704355838,0.5709380411562573,0.8035954758709168,0.24531477709533003,0.2008903112083246,0.5074880059639709,-116.63000840639846,39.13905325798642,169.06788399724798,0.5084208889915792,0.2037330511645479,0.07982601679537807,0.6935236497254849,0.8780968250354829,0.6437585835461028,0.4655660064969739,0.8138628395509087,0.09929540763284132,0.33144164135389137
1.14,-111.58094186095686,77.63703992851147,166.5845746731802,0.12451060969248323,0.42990466045083164,0.061218453861280324,0.39039523996459147,0.5382948050006799,0.7535215864369601,0.3759518782063996,0.6797034681011711,0.27409000393666866,0.5656758585694049,-83.41942620246587,83.27679741168289,151.76279666778075,0.09343227115042015,0.43993070169118165,0.037127697182365416,0.6879030671491942,0.5678221159279039,0.6788220651019388,0.43375041500284994,0.6035868177969058,0.3602764751671406,0.5635241420603332,-12.765966147991342,34.78224469322304,120.89478834221761,0.6759700267720079,0.40113938205882776,0.3870127319709634,1.194501163089875,1.5982205577740534,0.5741222514048158,0.8098059520116293,0.2394473931100208,0.2073685743960358,0.4977350000632717,-116.73696086233011,39.36441181703092,168.60311453711236,0.5494453565054646,0.2115568900100642,0.08840733045296147,0.7647959536991549,0.8232758947323224,0.6751059997540486,0.4628533790293293,0.8144923490140328,0.09658265933567267,0.33498425652140484
1.15,-111.38783214423309,77.18741882443187,166.57102531999197,0.10988867083199845,0.3917341399235928,0.04929274017834266,0.4016161768061828,0.5308566048540235,0.75829986196319,0.3788069384922637,0.6807792933326114,0.27303027646830835,0.5628007614660098,-83.29473939485177,83.1116790041568,152.96415753425055,0.08278192656373824,0.43161219592582567,0.03843000347106905,0.7295134687126189,0.5783934665549475,0.6748272970457212,0.44062247404248195,0.5993318602839085,0.3659728561204504,0.5575180876851721,-12.314649060465523,34.8943872454293,121.9466554240745,0.5963616813749385,0.3885413207645779,0.35575590816676556,1.1566478566345688,1.5471246075322065,0.585044360937047,0.8149419794645104,0.23466281373221146,0.21233632978072572,0.48935185766854916,-116.82924235723476,39.58706570610615,168.02005558202384,0.5851618888327224,0.22057951482299765,0.10244830512932852,0.8482961769238433,0.7553472761376153,0.7184566401048631,0.45989596481244566,0.8152486330114634,0.09303440504368682,0.33895328845309375
1.16,-111.24861846612788,76.78234186040874,166.60320875908408,0.10012347577555308,0.3541037242427587,0.04048716924689509,0.4150542130654801,0.5354191530403839,0.7608315804808128,0.3813404486471422,0.6817968656171863,0.2722148616405642,0.5601346451433569,-83.20608595240057,82.93000578718993,154.49654036869524,0.07578860471852979,0.42269134365693906,0.041145684370481134,0.7633394765658962,0.5963626651799881,0.6677201673290654,0.44884325636783345,0.5940770295954434,0.37305068566417704,0.5501601986634035,-12.026952631809976,34.96580694863224,122.81716039429423,0.5232406933930323,0.3738351434509279,0.32381727255048337,1.1064712589806185,1.4850478628954393,0.6048062746685965,0.8189865928367959,0.23108853641883126,0.2158127300780113,0.48245304433753194,-116.90522070324272,39.80961091386985,167.32539192387637,0.6146216380743095,0.23058826423002646,0.12118171505017382,0.9410754899413086,0.677982888354386,0.7731962440578244,0.4567093550021693,0.8160967481420147,0.08872509537128741,0.34332456401388006
1.17,-111.16125689342668,76.42152686321735,166.6850125682046,0.09506178853347394,0.3183413347776106,0.03533355756936044,0.4291080401297973,0.5530606778343605,0.7616285539846925,0.38357579314905715,0.6827616296212521,0.2716753379281602,0.5576693548033318,-83.1494133581418,82.73742362317329,156.34802905673044,0.07206508385481362,0.41306853432961077,0.045373009527301715,0.7866198802997351,0.620399006248182,0.6572953237914027,0.45834177668867476,0.5878317085778694,0.3814933620776794,0.5414899798643067,-11.902713471335943,35.00135828479126,123.50214115349867,0.45891920703644146,0.35783135753752754,0.29298085447459615,1.0465106317790596,1.414674826960843,0.6341328309684809,0.821946677677162,0.22880140220649758,0.21786591132364322,0.4771027097509433,-116.96440085263632,40.034589154722276,166.53163591580508,0.6370035260797479,0.24120989993026684,0.1434403115482845,1.0387873000803833,0.5958540406521582,0.8372544857902459,0.4533168132600504,0.8169945692229373,0.08376641777259262,0.3480521868066796
1.18,-111.12399044813725,76.10357307014112,166.8215715762988,0.09436422373338628,0.2855774236226528,0.034201662099576424,0.44220857930445007,0.5834116090378968,0.7608820634371394,0.3855499518371021,0.6836696152837202,0.27143910134672583,0.5553859612564902,-83.11943929629702,82.53902501236044,158.48454169021934,0.07108508463895571,0.40256060101838304,0.05107440380768774,0.7972980604537656,0.6484728025607669,0.6436215722728185,0.4689552175619679,0.5806741570161513,0.39117230782102064,0.5316331992806632,-11.934884111060343,35.00761402345255,124.00305057705893,0.4050045296992616,0.3412737809734828,0.26508744029904513,0.980331912413412,1.3399735502415235,0.6732759321048947,0.8238547840370474,0.2278197199247814,0.21861420716004631,0.4733101341711023,-117.00764758171371,40.26433151160988,165.65639077448387,0.6516417799033786,0.25197173766699676,0.1677368627320556,1.135953372410636,0.5141290335034567,0.9072028318495631,0.44974706491949756,0.8178969501034179,0.07830012594178531,0.35307166149073166
1.19,-111.13540376221421,75.82615123282858,167.01943967461122,0.09753613176699923,0.2566559480439219,0.03726416614779687,0.45298704633214404,0.6245659881687864,0.7584470201634959,0.38731354838978327,0.6845055095054978,0.27153215867145275,0.5532535850748214,-83.10985896711135,82.33912438556739,160.85257022685946,0.07224466229601725,0.39097659026760345,0.058057211880611075,0.7943398222548255,0.678029790423681,0.6271741745058192,0.4804439859169501,0.5727446283447868,0.4018604632732707,0.5207932274725181,-12.109353799195812,34.99279137222497,124.32697397441065,0.3622630109692278,0.32477856936808114,0.24179773333672436,0.9121312975353205,1.265836152241688,0.7219064395169299,0.8247701147178731,0.22809961943357832,0.21822375095801413,0.47102825186395453,-117.03727332880824,40.50087714212746,164.72132917856462,0.6580543370564378,0.26236853163674984,0.192389141036779,1.226422305768062,0.43796298268208567,0.9785623778548674,0.44603212172573103,0.8187594210824756,0.07248971258324644,0.3583044119624269
