0.02,-29.962093052861302,83.88162373159,5.824331883124717,-136.44843703401742,84.69434858705375,176.6722874926465,-172.08188421660842,3.099187367142109,6.404460052950607,-155.4580910136983,14.25381242990587,6.7915298091288
0.03,-30.00783849928671,84.0240158755431,6.027870245627725,-136.59321815941527,84.48862871331905,176.79523989067275,-171.77922376457545,3.370621704703248,6.364208725435312,-155.10414874861704,14.233757316718073,6.477305322452726
0.04,-29.985358685648105,84.00233373385352,6.226003915975268,-136.2652809258607,84.4468582068438,176.51761523866654,-171.93973107900393,3.240664229058749,6.428838617822072,-155.02469392155683,13.99029217143454,6.623127433093164
0.05,-30.370417251428616,83.97448068258801,6.026982649832366,-136.43749002227128,84.5813929992905,176.5231208987045,-171.41419865343315,3.082617430089264,6.499735530388848,-155.5003735913633,14.10791139303197,6.901439071734711
0.06,-30.228482449610823,84.01093375857707,5.986694637195164,-136.32898284691538,84.8873893320159,176.5464582357888,-171.6555923949188,3.27271838207194,6.304057635948743,-155.4626261440201,13.81306502362523,6.506901629069073
0.07,-29.815448421412817,83.91146096246949,5.901928689857649,-136.46884186554917,84.58394683115618,176.5318313892362,-171.63973620103943,3.3806881037270333,6.241238286001415,-155.40316701305312,13.991402588076864,6.57722214103098
0.08,-29.983212674712043,84.02099462044049,5.915590948806079,-136.44997242494043,84.85815990186519,176.5116672464492,-171.503715923483,3.269474144145479,6.263032800876376,-155.27879586289134,13.857842709842403,6.666985475096728
0.09,-30.070261517247083,83.95794481743808,6.17199132055865,-136.20258306944757,84.71999263476809,176.76334809967193,-171.46014948075407,3.1869253149087444,6.17280633431663,-155.65195884717318,13.731867074416767,6.606432555671344
0.1,-30.07035869217883,83.69323157528002,5.974930521015855,-136.58266636625928,84.67428326636599,176.51167958835853,-171.4028530168747,3.315299009634812,6.221986934081425,-155.75054021477652,13.70219443275448,6.382383564339805
0.11,-30.29391210164216,83.78223076806731,5.8752898407029885,-136.49955062991452,84.63254191836879,176.6018624812449,-171.08465014350173,3.4072012512382743,6.257978692303417,-155.8040151774978,13.93209334259181,6.4184771075416425
0.12,-29.889240303893768,83.92571667198814,5.971162221847941,-136.46219765733136,85.1993363792578,176.83206888701667,-170.8312751001863,3.4062196165148766,6.529746862184355,-155.95870911126391,13.784447226357546,6.795523844396753
0.13,-30.018034060631862,83.94662383934863,5.735756202657477,-136.3836428135178,84.84301777961802,176.53976818745772,-170.70766811732867,3.4354871826125293,6.431219812726703,-156.0240958671944,13.857944796945954,6.40580438088865
0.14,-30.25510142551798,84.2439106370601,5.809993639031654,-136.44315736896547,85.13889497889927,176.42755893328737,-170.33069257328623,3.523886356363194,6.6451706228317295,-156.22693882430832,13.793155679353443,6.567721036522361
0.15,-30.192915953345334,84.19588535209556,5.584884825592727,-136.3681015792563,85.19266063675751,176.55985304463366,-170.19961871570544,3.350000176817005,6.369167084082278,-156.16675947031123,13.869913217401328,6.251777521355251
0.16,-30.07672526961957,84.03696015198102,5.892857364049682,-136.6073439918513,85.20462263786453,176.57052452641915,-170.66132759532223,3.876661784353758,6.545969179480791,-156.0368416136453,14.314210609542307,6.359180041297518
0.17,-30.109706852717597,84.50253056523806,5.780147318354698,-136.5229926486385,85.4302821077524,176.78262295200665,-170.3893768540954,3.8449267438641503,6.515590030853833,-155.96177398945318,13.823908258974328,5.988132621441792
0.18,-30.221507303991647,84.1978090542179,5.7104981030623785,-136.57655596612864,85.74848901222616,176.6013793298951,-170.4706477057202,3.9117920290336015,6.459637706879907,-155.9875961583426,13.901689146355965,6.062504143209542
0.19,-30.26216988188837,84.20124986949943,5.556454925400439,-136.57835407706503,85.88143472821334,176.75015487377553,-169.8028788995259,4.047922996365655,6.28708199249251,-155.88906354873637,13.853365205890483,6.162251194000715
0.2,-30.170846610879902,84.23464619618939,5.658509018429141,-136.41836186070518,85.5362724885561,176.67140882920862,-169.7826401950189,4.231525447283118,5.855325246757144,-155.99669443447505,14.000285819121393,6.328682980747893
0.21,-30.59629934368058,84.41718735351311,5.3586960383529565,-136.48511678043525,85.88695839823468,176.36604908769945,-169.02673861881357,4.487939165983047,6.082302835241365,-155.57636274777843,14.13028542167861,6.064467449465488
0.22,-30.29635695663685,84.30914330168082,5.661377592574529,-136.27033765363944,86.24761944304369,176.441429239881,-168.37919745669484,4.465595870402076,5.915151933893969,-155.37127996713843,14.349306278812348,5.978204097305028
0.23,-30.40110655912545,84.19414190829953,5.67316071208826,-136.43210999876808,86.43748773277468,176.5656619568478,-168.0715344562246,4.551580148388996,5.570687815996418,-155.06749559531994,14.389641622816574,5.844404024647658
0.24,-30.525895797920192,84.05161506613597,5.663514532329475,-136.2079710506784,86.37450368289772,176.23305302392737,-167.88350670052634,4.773570586478714,5.445099213465337,-154.4291525310579,14.713703190852137,5.578331210877269
0.25,-30.4069171599467,83.96453641921522,5.562398547217395,-135.9519566023075,86.06665955073508,176.35736979040064,-167.46723288804256,4.805534689437425,5.115879263809742,-154.14660926647267,14.491616691325843,6.221675074388465
0.26,-30.691716399566,83.73745033703501,5.717998738162083,-136.46625248065388,85.767482837776,176.63112969491914,-166.99112602089352,4.815203576727856,4.69239827233692,-154.15551156486055,14.284815369630245,5.934437454839405
0.27,-30.397901162799773,83.78789346830256,5.46309856050846,-136.2258925460018,85.13643275745117,176.439609632929,-166.88783390732584,5.120241290356908,4.778209344821841,-154.10487416037105,14.66228998502452,5.724043093633977
0.28,-30.45105975993989,83.73825439492899,5.297654410825041,-135.97886378794564,84.20041376555028,176.72353054580603,-166.7416273708274,5.003295063644718,4.808643930736101,-153.727276753706,14.571038425039324,5.782925390487395
0.29,-30.61026565540933,83.43472820321787,5.341281171809231,-136.01140888435037,83.24606182803994,176.90295767874142,-166.43310084919062,5.129559298990725,4.02185180280288,-153.3692097235121,14.80040412151492,5.688543249472774
0.3,-30.475057434925308,83.17936175197316,5.263056334507199,-135.9154085910825,82.11658009494197,176.76152268526474,-165.94397463663375,5.464417879448899,3.6595296506333534,-153.29049723241542,14.81317517666886,5.827077033781346
0.31,-30.38482297188306,82.82595420823388,5.537016643492355,-135.7717592251919,80.66605859239097,181.3403204616844,-165.61213624903104,5.3479801403636325,3.408708079336087,-152.89946420764673,14.51404159531576,5.953516257380998
0.32,-30.27312997810158,82.27432005041132,5.472583544587834,-135.60372531420956,79.19205387785934,184.8877482681445,-165.30076929732496,5.141788980101006,2.68441013703585,-152.57847049028706,14.714785827811411,5.783637438354836
0.33,-30.04542403574564,81.59187240275827,10.85538600907081,-135.06954721255548,77.43271636983889,188.26140697594124,-165.00093344724388,4.870274685684218,2.488456577992213,-152.53870043153913,14.885918013247858,5.771946038102713
0.34,-30.19616048873064,80.70524665787624,16.859505184477957,-134.8265775967619,75.89342461768969,190.20450376519997,-165.13780878103475,4.571785131844555,2.1064479375928142,-152.5416063196499,14.77177076144436,5.762103050046234
0.35,-29.79226727639537,79.60058930151389,21.966324771888765,-134.20948537011472,73.88884302706211,192.6469809014142,-164.46225218381747,4.550558513875638,1.6228548739859463,-152.3398996206106,14.69918845710429,6.005783391285936
0.36,-29.86387091962115,78.77856127885097,25.38461877835957,-134.13063331471224,72.57561840133172,193.1098686981636,-164.50363559385997,4.127635702823518,1.4869347183305044,-152.047376091797,14.46616965177028,5.874099627816466
0.37,-29.6839376433981,77.99308701099132,29.00797899417265,-133.64772748498152,71.45742320508374,194.0793670642272,-163.65200900758467,4.332619693965149,1.1747383770815796,-152.3356176891703,14.308336021074483,5.742280255798312
0.38,-29.609972588912363,76.95003333652484,31.35215716272714,-133.47205165256747,69.8010873250673,195.26870387282645,-163.29718221064985,4.379943970076123,0.9424298245307976,-151.98107374909688,14.53644134807813,5.712011108652295
0.39,-29.617067389489552,76.22001433087786,33.55033857009644,-133.3924792887055,68.03791434978623,196.15859681899428,-162.85675212410987,4.040718960981231,0.8538246333492941,-151.8625678703481,14.498875937358452,5.810506713246664
0.4,-29.62756916971114,75.95135990959437,34.478610513064126,-132.97950584293986,66.12175544935984,196.97096609370035,-162.88695898264476,3.559012955428209,1.0223024683912871,-151.8546711052553,14.382735840027092,5.485330047524358
0.41,-29.582849259089787,74.81874587397837,36.25205045295986,-133.04147792581276,64.26944305401014,197.2970410411631,-162.72063079920804,3.476717895355999,0.8638812415913072,-152.00996106340787,14.441359803265584,5.5176072088272425
0.42,-29.66086559627534,73.943214301886,37.96231491952213,-133.32400856097357,62.19141899890466,197.7328598522794,-163.27571857159367,3.202311485134063,1.287473054505134,-151.9993476705544,14.314751502966912,5.611211317729662
0.43,-30.09433131431999,73.46566110815125,38.93953248510185,-132.83580674285403,60.4551109770491,197.8674659068899,-163.6778612308,3.292127719484136,1.8089578131203263,-151.85053950146528,14.350595582133227,5.410678028342556
0.44,-30.60331452991325,72.56372558311058,39.63679369530717,-132.64673218325234,58.72717078555633,198.67575692727348,-164.5887219638186,2.8223208774191537,2.1625389480593484,-151.97752245507218,14.596476925914445,5.185084100692472
0.45,-30.78979907313349,71.82007554038528,40.31818058718467,-132.96781247554182,57.15250688850327,198.2600713675843,-164.74317051043525,2.8534158584803864,2.292711410121873,-151.93584586635637,14.502185760594893,5.607757921714499
0.46,-30.9251092317623,71.23623051070986,41.10882675095066,-133.33174576490686,54.95225403884508,198.30765325866733,-165.4520750378251,2.0513091460417114,2.2469239293573184,-151.93264921818007,14.130894238228224,5.718848237900717
0.47,-31.521297826929278,69.55747157305633,42.648142660396346,-133.6901425125211,53.44266232139523,197.9573118411084,-165.67391044363288,2.151991331758833,2.1838928969892173,-151.86843094024968,14.349819566524015,5.456661292582619
0.48,-31.53508751271776,68.58628221039243,43.69429018584041,-133.71040359382152,51.81965783463048,198.00315196222604,-166.09706717974177,1.8585142924761435,2.2226465009696685,-151.7783408061168,14.749049499061323,5.419928771711176
0.49,-32.122511611734375,67.45270270651226,44.66106334256802,-133.8728506609861,50.64088747721744,198.27552905678647,-166.16887418289025,1.6871018040615615,1.8971817024535536,-151.7681058330861,14.501083500204338,5.238050530523323
0.5,-31.91270486764496,66.69477011562923,45.740670455490296,-133.7378073099636,49.01464308915496,198.45754776054,-166.21918535206464,1.2818864818022917,1.6648510182285905,-151.90569818145264,14.584548213482847,5.161482804090299
0.51,-32.0619527607591,65.70474317433984,46.49001862408463,-133.85418154356475,46.96432170990093,198.32899520927148,-166.21679265659697,1.375344378322943,1.5254606267457071,-151.8497585015465,14.265784185423255,5.343505170273705
0.52,-32.439674830865975,64.59065799051972,47.17751488225221,-133.29876523213986,45.64123314881135,198.34234724291412,-166.31634137751357,1.190684722072438,1.0836369592919524,-151.48451726672454,14.371159588586996,5.079548173960641
0.53,-33.15218705854777,63.35259453607,47.346353780454,-134.1715388700255,43.88891162767969,198.11743178537736,-166.39326942484783,0.8999545232878302,1.1602470393277882,-151.42317417304128,14.57186645927755,5.005996481702343
0.54,-33.620318949357234,62.80633442848016,47.26491999371961,-134.45293685360187,42.60381058367427,198.10723926434235,-166.4187299937349,0.8607082195131182,0.91472529506891,-151.0016943033388,14.24834745160712,5.117005799008622
0.55,-33.85105078937119,61.840033293584014,47.42600242386591,-134.4397708624398,40.53720553962827,198.27102373092384,-166.28983433330745,1.1427585377788634,0.2876793552555624,-151.13888080396805,14.44806464739269,5.046078634112357
0.56,-34.31445207670109,61.36166129995031,47.25551079066979,-134.56288686077352,39.940171236159216,198.27066331055892,-165.97307542500076,1.0839998473194288,0.360854873337328,-150.7178208891446,14.64690815829977,4.946702385559113
0.57,-34.651074771803074,60.46106611139133,47.87562582269984,-134.77745687313754,38.4342340303492,198.27058397020863,-165.75762084687253,1.1737280971881594,0.2581485414002492,-150.67829941532213,14.794775955851,5.191730157513563
0.58,-34.82545677781929,59.67397800460073,48.41097835772024,-134.97763326911303,36.92904119568722,198.4227406447133,-165.49434826673925,0.7717660575490803,0.716067816825234,-150.57123189253386,15.110705079399832,5.170442492325622
0.59,-35.06674756533162,59.14534392406374,48.59691392727083,-134.57323545811718,35.30293401769564,198.4240022742047,-165.13111161160654,0.9560885564680172,0.6185656310813015,-150.57033138745493,15.134631494553876,5.503552636712522
0.6,-35.59126577687225,58.93913062591831,48.170277794874806,-135.0285331108823,33.47321350829803,198.2156085760974,-164.6093900785798,1.0601201965853124,1.1507720448234902,-150.563391483334,15.321066735064973,5.629330899618418
0.61,-35.55266876946414,58.87423002313406,48.58851879530151,-134.91037666789538,32.564622091539086,197.987239299906,-163.89582854639968,1.0405115281530022,1.905565465209941,-150.27781115292584,15.577368686646132,5.834113510127355
0.62,-35.669458082171644,58.92861904324904,49.18593575495847,-135.12483905277423,30.64616116154452,198.20227607850677,-163.5675868228143,1.0909921453213065,2.204240263143516,-149.85626699388595,15.734182501663929,5.909370311363145
0.63,-35.672888925470204,58.367307212083496,49.5600870966161,-135.12075360252183,29.047347365923592,198.24816860257656,-163.48197273224054,0.9841850304834416,2.3260122112834622,-149.793782836976,16.190828876901133,5.986656038648865
0.64,-36.17200305292707,58.06068776415823,49.31476293302804,-135.11020501895916,27.84767201856193,198.3375428918345,-163.19347827124344,1.176706386350325,2.845062200484116,-149.79724838540488,16.10831117074157,6.440850908633928
0.65,-36.71271339216774,57.99244689924703,49.06966363128182,-134.70977035434137,26.419942166121235,198.08203610410368,-162.48483470187787,1.2167839547657586,3.0454085843202257,-149.43825651887508,16.47953161347306,6.752504938713962
0.66,-36.691911097030015,58.3515850354913,49.57559968519766,-135.0838706053267,25.123422224169904,197.582390291189,-161.7350298523788,1.6265825317595912,3.257010028213999,-149.2956951418736,16.353140697004736,6.643028144437849
0.67,-36.20642348662253,58.02199091966661,50.18064862320036,-135.18158208276265,24.291382204203973,197.5335137717597,-161.10985090520057,1.4619664622738382,3.386373723993165,-149.3978454460908,16.380955819443958,7.004010310205385
0.68,-35.81323156943391,57.39940031921204,50.81851571703314,-135.1703541110407,23.80751316931477,197.5778668712626,-160.23382377015872,1.1249048093093834,3.621048693481293,-149.39302269927578,16.6342680739899,7.265267683014141
0.69,-35.94641432503216,56.13773877875963,51.3432245113814,-135.0741171107657,23.255850544561625,197.14160847954355,-159.70271456396944,0.7971705643263235,3.932407894504719,-149.1274909621984,16.85566212903971,7.48456377616184
0.7,-35.65997780073947,55.48008373405521,52.035118714436095,-135.49276920041677,22.872648116596533,197.2898420996314,-158.88998469431837,0.823147864245026,4.074897054684406,-148.8910653643388,17.156169196554057,7.765193166477702
0.71,-34.727516152267505,54.666510694715775,52.892227208137946,-135.4205429543326,22.32726876852492,197.25774972714984,-159.02116373896018,1.0285747008316013,3.967894594779536,-148.66821086763835,16.86706955306901,7.86155339403587
0.72,-34.5097181543886,53.68338201025196,53.52475132751506,-135.06944633389924,22.36665396254812,197.28877119947825,-158.6850747075193,1.1803794221232644,4.345482079987519,-148.38587131859373,17.25675806201972,8.54629962808237
0.73,-34.182630456489484,52.79297474194745,54.11139619361385,-135.1978351801715,22.732305845183845,197.380424661488,-157.67129686056387,1.3668426095628083,4.70719880166679,-148.17562882002892,17.2117316837767,8.457316886148876
0.74,-33.852282937111475,52.22630314551185,54.94591309023095,-134.9462884673228,22.605123057068766,197.08190521008663,-156.80500624960814,1.0309355512717993,5.339769935443618,-148.30818571779457,17.368000759453853,8.547078575628765
0.75,-33.82493593436175,50.89987800237147,54.99360131963854,-134.90238855189375,23.438618146123225,197.2593019191455,-155.69232695323876,0.9637778234701552,5.4664792463485,-148.3161668799443,17.400486663391533,9.269535044852706
0.76,-33.52289819214758,50.696558875299495,55.4069128745289,-134.89017756556947,24.169876379130155,197.46247030176733,-154.940901889242,0.9088698871142707,5.433980909753475,-147.85410596925587,17.36405288779793,9.584210853855607
0.77,-33.46800130518546,50.32421442277848,55.620067717054,-134.6637132367796,24.64850773385832,197.8675932635305,-154.00368685846618,1.001950137902205,5.48070606581002,-147.59257281438815,17.533648321561895,9.848199715162949
0.78,-32.30461003459742,49.77702405306606,56.54851762007482,-133.99810401496904,25.30500335140784,198.09670661439665,-153.59238044479338,1.027728803337303,5.916159653906555,-147.57637690046332,17.549132219248627,10.335055859704532
0.79,-31.27172316221269,49.98231700406801,57.46327613615564,-133.8083216080269,25.85401549302381,198.2902368720899,-153.83276765617617,1.317532867110291,5.845497223717319,-147.63987495559462,17.841680842615016,10.530563229156096
0.8,-30.61423890279332,50.2753552468553,57.730856649873,-133.7687700349281,27.103784359551824,197.3035599963272,-153.48909521369634,1.076116803365903,5.62176966522228,-147.85602200404088,17.955702499563095,10.98023687743567
0.81,-30.5346012705326,50.3740851569272,57.71342645004955,-133.82541244186697,28.173703183212552,196.62120566617767,-153.3303712566378,1.0533194963795165,5.493872691515237,-147.9178060412244,18.13478201153556,11.718495954277492
0.82,-29.77487600153413,50.27607004469972,58.39857059995565,-133.88120608321148,28.973358270316403,196.32278553624707,-152.5946590806005,0.7222320858336575,5.341333741797151,-147.9172067283414,18.217040874847893,11.890092921310606
0.83,-28.947794901584547,50.53302309806661,58.98611882770382,-133.82366138189255,29.680730580497706,196.11819942654765,-152.53629163775616,0.3417672261975074,5.232267287029432,-147.3262847521112,18.261270510736068,12.14392874786876
0.84,-28.28839561329772,51.03494134538619,59.12919489121106,-133.81762425903477,30.35504948352889,195.92856018851967,-152.34729877442646,0.0021019609526807,4.753167583030757,-146.93069286906302,18.766409056078903,12.488960935722735
0.85,-28.23820120551717,51.321875840913336,59.67574178977143,-133.65080727409492,31.08677093600873,195.18376822551423,-153.106068259822,0.0941952636445207,4.487931580696942,-146.6746570679843,18.696007100365318,12.75986627475084
0.86,-27.302410482501596,52.07577796216854,59.600832227592754,-133.91657324937904,31.57149886564527,194.76343397792792,-152.70319958608297,0.1333744058699038,4.180719217943944,-146.12376180931395,18.32237429065151,13.107636196056808
0.87,-26.82595357847145,52.2513156770897,59.8532357581318,-134.04350669427376,31.74952557073201,194.3874966271329,-152.67422388907545,0.5116699270717777,3.804144028547541,-146.03273176671178,18.871008637388247,13.69018401966192
0.88,-26.42158520953421,52.30507884763677,60.32017360103085,-133.78949537569278,31.926041521722738,194.22305605877617,-152.61799579546673,1.152777767103239,3.49235950816574,-145.54340404492172,19.23008544520165,13.945775911833396
0.89,-26.02729151030714,52.59007598542981,60.13941835024432,-133.56875924111932,32.09799796965051,193.8772633099576,-153.01946174531048,1.56519812927766,3.1920079289290304,-145.06921200843985,19.11279560103566,14.26470586069314
0.9,-25.474556034871974,52.5631202564931,59.98162973084651,-133.69703585275144,32.287252484413244,193.76707272579543,-153.90740645156143,1.563570667860682,2.560173030743169,-144.9265809620423,18.841590181389257,14.58466810463295
0.91,-24.89897010197379,52.66232574461876,59.976086835669214,-133.77362249568952,32.059080423728844,193.3849919602055,-154.77376689492615,1.5824826895260875,2.0799518779623845,-145.04675444048942,19.19591807493092,14.950320002891898
0.92,-24.58953094324332,52.791972413357016,59.64955069114771,-133.89256716797914,31.78115077304215,192.82442594436463,-155.72360232670138,1.436659379205255,1.859603912427756,-144.93307012402366,19.068145416509125,15.53308350379798
0.93,-25.004559939566622,52.79856852229236,59.97740727708436,-134.06383993033427,32.01290174922912,192.28679588250048,-155.75128069975528,1.4757996915051417,1.443162761797603,-144.87351958653932,19.06502158517378,15.828995761180076
0.94,-25.390406636698245,53.00866769654523,59.97862517136041,-134.2819643920518,32.046104971912655,192.21849758109457,-154.98021736413318,1.956505266440236,1.0831927873247775,-144.7343819071315,19.24159172953957,16.244468598510515
0.95,-25.648595341909516,53.47939486344313,60.1287635049187,-134.16871088865835,32.37882228269017,192.2679791510508,-154.46414407120832,2.1646343715807186,1.0722775707357524,-144.3436063784882,18.931825482155524,16.596500634612955
0.96,-26.071408659975976,53.758005281082816,60.47568406304605,-134.53148495584924,32.369528250214074,192.1454799136271,-153.56218021463758,2.2738946360974435,0.701664186013993,-143.98573074218018,18.7421000608228,16.494787094585085
0.97,-26.263659070127847,53.89731389798488,60.27027643756107,-134.27994138572416,33.09841786715475,191.81684945495869,-153.64017058545247,2.1780068917590363,0.6058372490573367,-143.6525777425977,18.77418706419329,16.62035717367603
0.98,-26.267792694518405,53.84951512944188,60.168633547345074,-134.07996337885663,33.512305558528084,191.8282459842513,-153.7430260227893,2.415000930168812,0.1531321349545818,-143.47326467799147,18.72012902573612,16.621960958546005
0.99,-26.68883462900321,53.96993949745939,59.93179642882036,-134.45150246576517,33.811619613297935,191.6504212138068,-153.91618065523977,1.7621303477060744,0.0854652407897132,-143.6083419028841,18.875104639700798,16.932388427541454
1.0,-27.190250654878767,54.541728796794224,59.66278596657705,-134.4811145640259,34.20898839777815,191.50857097695203,-154.19665824128808,1.804104817772436,0.2292485739804025,-143.79388185113356,18.43315262671056,16.906787027101675
1.01,-27.61922478188939,54.53410715408611,59.47632220643237,-134.36626781498373,34.35045293897244,191.2866436995257,-153.52751599704467,1.6328341826776032,0.4078151465140424,-143.92535154442444,18.18813787679572,17.08212742496332
1.02,-27.46785619151168,54.65849855089313,59.515317347917104,-134.58621812488636,34.69143417137506,191.1802217497061,-153.36107549471288,1.5474231584457063,0.0726651059186176,-143.93647661207598,18.253727753088658,17.350640658651177
1.03,-27.265411882480347,55.01945805858619,59.43197983510191,-134.38409841396913,35.00702066520453,191.0336221976009,-152.5619855683467,1.6873312705862171,0.2053977428706091,-144.0859248443442,18.005869464973266,17.66933234599784
1.04,-27.61158939122036,54.92130181983372,59.78380279510296,-134.22164727975937,34.71150644299305,190.5214148274104,-151.96389114923244,1.809075028498749,0.1975206982567179,-144.49637235895958,17.974876352855215,18.28884332468305
1.05,-27.611164006400955,55.09790500278177,59.53273579964125,-134.3418983065486,34.92512992424989,190.78865933972372,-151.99864826077302,2.085014705540544,0.2430864741391932,-144.42547583849006,17.76595679619998,18.482506050481074
1.06,-27.66320196195464,55.59793321312808,59.45500023869983,-134.3178687191847,34.826869136432705,190.2953961411332,-151.59010630223307,2.2738901543066325,0.549582957234699,-143.85977485228378,17.842004061911542,18.52186206952425
1.07,-27.32371081451308,55.372180409492856,59.69294038158569,-134.49179663831367,35.00103195399399,190.1814172389712,-151.42935969805288,2.325663381769456,0.7633932992412344,-143.32183980309105,17.649200627941095,19.025509690756746
1.08,-27.20906112461745,55.42708462348951,59.85827828828279,-134.41443926546137,34.85554880763897,190.03431285347045,-150.97254316991072,2.6247720779134296,0.7853561699740145,-143.59348836686624,17.839836239031335,19.80193906644938
1.09,-27.16191577542025,55.74202621785333,60.08693922066446,-134.33205210053293,34.736950094300454,189.5252019006209,-150.99319897030742,2.854008216151441,1.0565443101352985,-143.91077755431718,17.776844394611683,20.350556493908904
1.1,-26.838827977810475,55.78117675712049,59.95432279790571,-134.26673864631576,34.592036380956124,189.58930612570344,-150.81169283320338,3.151345752862748,1.014433684774088,-144.59715891867464,17.505146518658947,21.47636516898684
1.11,-26.69306880923078,56.056026896798365,60.02059114669881,-134.1172114871075,34.46113867046891,189.2907365140764,-151.1147072842092,3.70191124615454,0.9160043359051016,-144.66565478473655,17.057945131870216,22.614428644979164
1.12,-26.47582461696229,56.074584603635294,60.16388619829716,-134.0474206659677,34.21267161035327,189.077514390608,-151.89361572367005,3.903918533161989,1.1365725452298048,-144.98777107854093,17.1167562411352,23.19656123214723
1.13,-26.31356010576321,55.72771994000362,60.0299919217955,-134.24428927910523,33.782048879443224,188.5271922810147,-153.1072142296947,3.6667445708720106,0.8384014563877714,-144.5199962315731,16.856094969644122,24.020592273281075
1.14,-26.079658602607875,55.818680333675104,59.94285595046282,-134.166315972976,33.91782385155843,188.2121822953565,-153.37423165236265,3.444237666684225,0.6327219692392931,-144.0886673042503,16.767584836161603,24.870251505287342
1.15,-26.108128636749125,55.91927625966788,59.96852579689014,-133.94700319290993,33.83534229207352,188.04380921845532,-154.19042303844952,3.242477742199753,0.4541112793222442,-143.89417933492862,16.608365512759207,25.506619096489764
1.16,-25.894419764384768,55.77442485161074,59.76581611589221,-133.5317049971846,33.416860697644175,186.59540059797823,-154.3005691842887,3.1764112712836483,0.3258190215705556,-143.02860948147915,17.212173867570044,26.064394537968173
1.17,-25.268386105042666,55.54916959482777,59.94598922756976,-133.49346963243366,33.17594965084143,185.980873104857,-153.6077278449854,3.461417802273382,0.1977306713096736,-141.9240445773396,17.499772866478413,26.82525847436873
1.18,-25.112313181009803,55.049312110398,59.99260037865041,-133.25436695141613,32.52294388199353,184.8378109544858,-153.920578811064,3.3956210239572164,0.1195984404124671,-141.66148578017123,18.010849253716476,27.16811803769874
1.19,-24.788067632516547,54.46720257637561,59.507783685362746,-132.6248790317029,31.50215413970468,184.64793923208487,-154.05771695431335,3.331963223461187,0.14493725757852,-141.5539001773906,17.794191190209528,28.224533074515364
1.2,-23.718358600134746,54.04368597479033,59.231568946114685,-132.68848865669662,30.595963950308683,183.4299894553228,-154.1468232241521,3.089975747639274,-0.1228893096219097,-141.98362903570856,17.874553991607137,29.16841369743486
1.21,-22.66741017344353,53.51161054615482,58.33350487041416,-132.47746408759195,29.744789581306325,182.59047424113825,-154.87483121593093,2.965789676088881,0.3226939737433715,-142.10864942119346,17.695159602154693,29.441166862275693
1.22,-21.861810646621763,53.030924106564704,58.31630055288494,-132.0294324697515,28.652070236018297,181.4486447874429,-155.6410570725826,2.647879897763302,0.4783699437204624,-141.66858124897217,17.788783259596876,30.270580297658903
1.23,-20.91816043620405,52.55287566140826,58.37455153510811,-132.03129041181057,27.61176961686815,181.14103993447165,-155.82641207189772,2.2995999226459487,0.8526751196091423,-141.76371886558204,17.580638476763298,30.768313355393587
1.24,-20.578205041370666,51.76887957718312,58.171168977410574,-131.47946385672876,26.66561553735874,181.31248664741275,-155.32909174693322,1.917950295331673,0.870913299611572,-141.62319486520127,17.51421369712713,31.070495753177298
1.25,-20.82335169612071,50.9693684333682,58.7423868538853,-131.80856229949083,25.76786134521329,181.2034903383813,-154.79695803647144,2.106217466726038,0.8932227056726512,-141.9224278149146,17.30074150096397,31.655806528782787
1.26,-21.21110336869372,50.12245720478696,58.79440765880977,-132.13666095743895,24.58443943919808,181.49726644336667,-154.99216203488152,1.448722516652275,0.8452123296651183,-141.40607153390408,17.067469949921232,31.801629178311288
1.27,-21.507080837431243,49.718946697370384,59.28985753954589,-131.95431306626853,23.77370780966532,181.98143659543624,-155.60330353984236,1.2276416081806332,0.4263162486222803,-140.9486487475908,17.46563355921781,32.07354090198017
1.28,-22.21404787851471,49.00973315230887,59.68697346075589,-131.92969702038738,23.458976867476547,182.5020417140283,-156.28256584120348,0.8456469318793095,0.3313158434464892,-140.69932613385927,17.270536957337878,32.29388599159555
1.29,-23.042086876060036,48.37959315394285,60.1183130686637,-132.19268989419572,22.61765534301688,183.21383150054405,-156.1884634033321,0.7886196526361341,0.3648525483114962,-140.91328804159608,16.66628702290462,32.62111237825286
1.3,-23.96065329619498,47.97097173564121,60.03409671974957,-132.12442146558735,21.11055178946257,183.98626381443168,-156.62551671912192,0.4789638779552632,0.1100116843167648,-141.11661553392415,16.401937236965153,33.055581188226384
1.31,-24.443913926959468,47.82494076419325,59.78825179567511,-132.34490099685306,20.17451617583925,184.82280785822385,-156.36695506896135,0.4253574746038204,0.5097552713665471,-140.8404675782854,16.36048461389159,33.26495599926125
1.32,-25.163729960153468,47.17205082270859,59.30814587829111,-132.352962356187,19.42443244999203,186.1418532194592,-156.73338485440573,0.4991249520940173,0.9512918482785692,-141.06255329720747,15.62391256647733,33.73467019840294
1.33,-25.660511099706422,46.37937371798952,59.55710594702522,-132.44137175679867,18.30360870743916,187.24528107925008,-157.23861856750392,0.226209847932276,1.1332550060025508,-141.34577357707295,15.457333285901498,34.19009774122085
1.34,-25.931679851129303,46.033608516960506,59.44071845734927,-132.56534736333273,17.220477409482356,188.4216193392403,-157.6215888146376,-0.1887120370491697,1.359647595537152,-141.613279907996,15.327550133884031,34.87046969487543
1.35,-26.38799285769698,45.66784722160811,59.301388642220445,-133.1147789008052,17.157661713240177,189.87169543308053,-157.87453293864033,0.1725535093189561,1.4715039847789395,-141.83752045435793,14.891323686820373,35.16739768894185
1.36,-23.86614165411853,44.56641516138766,59.07026643096923,-133.55630387479212,16.721656343251578,191.24180833967827,-158.29833136038,0.2342318284451489,1.430522655457264,-142.07755371681938,14.320778248372765,35.87469523195986
1.37,-23.90889735441564,44.06526964684112,58.78055150589436,-133.7588189112704,16.756660913890006,192.3840366675063,-158.34289754601718,-0.0336036765839415,1.4813065154708045,-142.2491879193149,14.29657053204279,36.82047985022777
1.38,-24.00823048991876,43.748018653767325,58.321430972116126,-133.77789261745664,16.581469366911225,193.5150092673977,-159.17010931327238,0.1807335039800343,1.5656223870244796,-142.0263307632447,13.874803180741411,37.4556304357539
1.39,-24.08446621481572,42.960454696494885,57.43896745261152,-134.15512523901737,16.363148041405523,193.86814447848045,-159.6010380737455,0.121972333318273,1.3413255045196315,-142.2929429130185,13.537079925102356,37.80490811580875
1.4,-23.993282571353458,42.73679548591002,56.159639395517296,-134.2135412253811,16.062522816677177,194.34697770350627,-159.8315382671313,0.4351435242923111,1.2005143511023426,-142.54145727706324,13.089413770203718,38.80652289003473
1.41,-24.36193209376633,42.07868585181738,54.876855150929536,-134.7568764285273,15.731350805721773,195.17993641807053,-159.68429930444793,0.2069579113265221,1.2423269148379203,-142.8284831430463,12.818993854486967,39.32956649256153
1.42,-24.340198546674387,41.82922552501055,53.53660012739978,-135.09487962993506,15.478951894210663,195.67813804429508,-159.3247537735414,0.4952224969816161,1.154881382980855,-143.11259990464623,12.410414823129097,39.835963000983
1.43,-24.75313588073308,41.71728616480065,52.37178885147423,-135.23713429936757,15.392062991441142,195.65814168899792,-159.9459767942273,0.3098833262218587,1.0002236935997089,-143.42622897927305,12.248544109690831,40.44365733554805
1.44,-24.534861932648845,42.45145139015834,51.4836699456376,-135.1927780586798,15.314260167697972,195.68579076570825,-160.0422706425963,0.3069780828880596,1.055456564017407,-143.72251151145787,12.031827235896024,40.58925035403163
1.45,-24.710828690968224,43.13200019832972,50.891719681659765,-135.43317460539714,15.702679872470789,196.19391091675632,-160.12784507982744,0.8856898160223997,0.9628339792700056,-144.52189754230054,11.542824975403274,41.39756526052658
1.46,-24.5374321788376,43.81732442281506,50.3583513654614,-135.38738625187136,16.117827153954842,196.37739314260557,-159.73780629721358,0.6142686704914752,1.189978958352378,-145.09171886629173,10.88530078509922,42.30827006030776
1.47,-24.591439146395693,44.71359496946275,49.66742974984465,-135.59292393030063,16.589891993468285,196.0918667445916,-159.92719361550093,0.283842524521544,1.455611329545876,-145.48940805249617,10.82018858242432,43.15328360455023
1.48,-24.098462507853142,45.709547602671805,49.46735153118532,-135.5052421557638,17.285093214169397,196.30204004744184,-160.40958146091253,0.3274286733516685,1.5494208594277346,-145.78594025378584,10.339233140268734,43.764493313819806
1.49,-23.734408204109865,47.109678801576095,49.25158603112886,-135.64203470213076,18.359936621055606,196.3202119043964,-160.5232532021752,-0.0864985432410771,2.0734216738206226,-146.01904848505458,10.558805669993662,44.71207775422839
1.5,-23.69031797431588,48.417485446428906,48.84400500537552,-135.75508516909247,19.40717072265408,196.0808950737144,-160.46374360177944,0.3319164833724511,2.1865837817010694,-146.2865929807599,10.00370687007748,45.29352872224739
1.51,-22.71199769689957,49.80668677324695,48.81011269980912,-135.65050801703484,20.875197606026983,195.7643086667672,-160.7075564690483,0.210860945116181,2.493669545231616,-147.03188102537246,9.490410284288709,45.92082577080423
1.52,-21.858894569087628,51.54801731315484,48.87949606407527,-135.40295670097063,22.04870487911944,195.30881182944296,-160.6361260328566,0.197560684192013,2.7964322287875967,-147.0518989215575,9.08024595122924,46.57666384750892
1.53,-20.827793982484845,53.31432443028165,48.86116203806535,-135.62375697203984,23.33742939495899,195.393437469854,-160.80447709210563,0.396400033920914,2.795687130098484,-147.0682208560701,9.043910715273922,46.73484171048815
1.54,-20.30289253695367,54.27880983113134,48.26865953149977,-135.7189388398701,25.24132466299568,195.42945971472395,-159.88836836429607,0.1724437946871195,3.343441184477524,-147.17448240165982,8.755425643504953,46.88434528269299
1.55,-19.42625137422932,56.57158830788553,48.41801388069659,-135.36791650066172,26.715614451566648,195.14749166841304,-159.61535610383902,0.4658625329579404,3.302101237294104,-148.07216571176335,8.005870020683268,47.70566569716032
1.56,-18.433071339315195,58.63508356627161,47.32385023773769,-135.5987554776656,28.549799266419,195.07835639578565,-159.16143196940084,0.6129953102143534,3.743528549461283,-148.80615516285266,7.192294560821029,48.45333297085778
1.57,-17.66815943913173,61.10671231166581,47.17643082918655,-135.574180323763,29.23974518853196,195.0459475139721,-158.84762095028384,0.7565881707504604,3.989958071278378,-149.4521179119493,6.368932382677294,49.27384766477515
1.58,-17.44860542537536,63.110460882485945,46.35874128635056,-135.0881254724656,31.15377761343564,195.18687733864292,-158.2522995703795,1.0832515924921209,4.277324327569694,-150.42189858690605,5.257481544948403,50.22667781758585
1.59,-16.575678314745094,65.20878103585184,45.24213798936207,-135.0373774101992,33.198461584611884,195.1865984171025,-157.6257689304153,1.3602257353905467,4.233565691256167,-150.8513589932286,4.978759615803176,51.284786975236685
1.6,-15.636321513605017,67.92626572993875,43.933326293557776,-134.84922296515404,35.22518432542114,195.14530072521117,-158.07513539719147,1.7429361717446878,4.3440441396591165,-150.87399554576828,5.2756699531726365,51.53747185596457
1.61,-14.764390725935275,70.5350869269161,42.34129806571992,-134.88005047656603,37.11031519414898,194.9975372958082,-158.26805689105478,2.313215553842159,4.413517871683317,-150.80003414792694,5.400284754711659,52.66101493864879
1.62,-13.995887870711394,72.99431164384787,40.243834187016425,-134.34043356995193,39.174407188769045,195.29877949316017,-157.83533193960974,2.69098746972116,4.570799617700432,-150.57312745277443,5.992574328431517,52.6459077082434
1.63,-13.332937137560751,75.72167498747093,40.038445248498746,-134.09308114537285,41.548385892266666,195.4421360785803,-157.63484994220164,3.2221148391206578,4.5145672844937135,-150.21434407449968,6.245317159284341,53.37757186606535
1.64,-12.455034170055352,77.81092371588869,40.71793569310585,-134.03960618968944,43.58833207267767,195.62085975661293,-157.5634979600424,3.645172434498959,4.60590332204074,-149.8811775004354,6.307785088868914,53.6017657593724
1.65,-11.779226256164636,79.64518535229683,34.831928200519144,-129.34499645354418,45.72964444020682,195.82041309788835,-157.35363023945007,4.310665221777111,4.477778349795501,-149.49265705588712,6.624074476573816,54.0745644460181
1.66,-11.32617504389386,81.23656762137536,28.40253186875333,-129.16950795117822,47.795026158377,196.10417715893325,-157.0529191648487,5.110967925726516,4.396755225146001,-148.99646497294103,6.402537656461467,54.21082491855272
1.67,-10.634570863189712,82.55002510610647,21.448374606273788,-129.45448737231538,50.36234102945333,195.95253840804307,-156.94025311781203,5.807217853226214,4.268911108946992,-148.82977454640832,6.726689749355203,54.491707835950216
1.68,-9.909747355967845,83.62294057894513,21.36492731967609,-128.95832671848376,52.41195499665504,195.86658605719205,-156.9769566293484,6.67416909676355,4.294694630264145,-148.78867154420075,6.886398180079686,54.8418962186933
1.69,-9.380737801928843,84.37874301350814,21.507045870023436,-129.11361367165165,54.732279245352224,196.05648609540688,-157.4144016392757,7.389783664736687,3.822827814350607,-148.53019034121405,6.985851841011462,54.75284666942368
1.7,-8.802894470913797,84.62697789142257,21.07212494584725,-129.30081382165687,57.330474991706645,196.0927117870089,-157.80997245927662,8.366164548126797,3.7197445344211,-148.33540342857924,7.035298620075762,54.64293593325021
1.71,-8.225399065089112,84.81193448562857,21.11168240769652,-129.6692029158559,59.49386064290484,196.5074004365028,-158.23387894649633,9.532308279278466,2.890864958358504,-148.68655684089973,6.791460582425698,54.89582267464896
1.72,-7.6842819739797745,84.74609144733847,21.30418796948709,-130.0237679140098,61.79508714256886,197.00360961626097,-158.67884915598898,10.758501154269922,2.340888642227509,-148.90548440751607,6.872592968089015,54.969027311028206
1.73,-7.252193736065864,84.65320275796971,21.491911754873364,-129.68968193872624,64.21606896894772,197.35685884561929,-159.37597835911438,11.700573525614752,1.179645064683725,-149.0866561071465,6.900443666743753,55.58878603392655
1.74,-6.5714848192259705,84.59350982182568,21.14083128910956,-129.3703210337492,66.90974408677525,197.09935504965725,-159.87348408198147,12.447397892685863,0.4623018720506665,-149.2956019243499,6.895798737481952,55.94470596604445
1.75,-6.096450119441255,84.2959135212466,21.273999075940768,-129.3096505391141,68.90365547148683,197.4656058050105,-160.70978008394195,13.48722367912582,0.7033474511700932,-149.56954375907335,6.443123252656653,55.91965244181415
1.76,-5.647499926576627,84.8914468062225,20.85223491705065,-129.76105846316736,71.22991662324553,198.11808275273623,-160.9603994519711,14.595005227540009,2.298937175641508,-149.93004431904575,6.4639630004567215,56.08322786654842
1.77,-5.334335516035254,84.69282914491117,20.964410454161666,-129.8229477953393,73.54343855837938,197.96097766116824,-161.38557265065702,15.527979040326889,3.66616400760802,-149.9439859653391,6.189533450974945,56.176982992434624
1.78,-5.1877624507218085,84.7561379177418,20.932833043241672,-129.67156933302113,75.89864007888984,197.28515496537403,-162.18285621636028,17.155389067326283,5.675668423355926,-149.9707205603703,6.270938251391172,56.91061797319033
1.79,-4.918336556241012,84.87993242774003,20.39361253703549,-129.85572538423563,78.16173794184887,196.0382848859214,-162.9916673417586,18.53629779451156,7.767486562410794,-150.08524695125303,6.39967719343629,57.18363737945179
1.8,-4.885676327399567,85.1724864680558,20.591522212105176,-129.6770979510458,79.97888093854458,195.63327782253327,-163.6336038185589,19.985663792054343,9.863861587351469,-150.65409991014388,6.078559061837926,57.81341679678284
1.81,-5.275233958358324,85.16785044805717,20.429750145746663,-129.80391225148517,81.7982228321581,196.6908926222203,-163.7003901859082,21.4034470152219,12.17194761237039,-151.01210556022454,5.892963266708699,58.63981030383265
1.82,-4.939272417813429,85.38689222355708,20.30281949669128,-129.745769131672,83.63622880442664,197.7759282074205,-164.43441109621213,22.85960767467746,14.517275354707614,-151.7765622698521,5.673796778657527,59.45953026835184
1.83,-5.388992621613397,85.23893109000814,20.544604403323795,-130.61192014505048,85.43010167633966,197.61790064399605,-164.05180361656363,23.843784579703847,16.73382508987702,-152.72621462299472,5.617948124117626,60.49912131689239
1.84,-5.657530793054579,84.8319452271475,20.517935708811727,-130.86990582645265,86.68935709716543,197.48877469561043,-164.98892490165773,25.66812320787523,16.541266682610495,-153.21998823169918,5.778176184486546,61.60798927823444
1.85,-5.478299837937863,84.70736444088853,20.349530738848795,-130.59980369432617,87.77355502663593,197.1999038717049,-165.63911953919597,27.05841548205558,16.54438273186876,-153.46564601747576,5.78841198580304,62.626609545267655
1.86,-5.279135659014646,84.64590500830978,20.569568039646416,-130.56383645986156,88.35606525047565,197.3315016071745,-165.43771316993391,28.446829844292925,19.000118144244908,-153.67363252227074,5.943158320953979,63.65588078674164
1.87,-5.223739446079554,84.89542136261703,20.54286336987024,-130.71689097666152,88.67015474617378,197.12818148879091,-165.406295813082,30.164549162115115,20.962075979307414,-153.65368987832468,6.3264196587596935,64.81317377577854
1.88,-5.267110901015753,84.40183764166768,20.691321183844103,-130.7024975259336,87.73381916895777,197.2784505264598,-165.81923169674346,31.41394596847153,23.244890102451546,-153.43559687790275,6.6891136428079765,65.59794654278068
1.89,-5.200194395182247,84.51865864544824,20.77900941376753,-130.8799669237069,87.16045048327807,197.57490908804212,-165.4853767255239,33.01820682799731,25.29187938587794,-152.890737558622,7.425281796373618,66.55214201545051
1.9,-5.202942990165936,84.7448491197817,20.730340581961364,-131.0608537108692,86.48490155685468,197.50301372803912,-165.1911719775423,34.05853664472456,27.23244263627635,-152.3030006663501,7.715395823214495,67.39360806508029
1.91,-5.009426973855086,84.71747560590906,20.85207152653309,-131.0659740205085,85.52947344105024,197.52004471818097,-165.08487322871406,35.03064804326307,28.87784385644089,-152.0344570234785,8.148466209264903,68.56368465054258
1.92,-4.817736622364216,84.68529708197448,20.770999457760908,-131.2288821793246,84.94371408125447,197.360638163267,-164.64131753791207,36.28613146784329,31.36694478800657,-151.45968530931435,8.665838948285437,69.27992776833507
1.93,-4.734270771273297,84.69342718945548,20.643336832775088,-131.26008903224567,84.45824656512222,197.5711794884666,-165.27414080379356,36.72511684803189,33.98236066134007,-151.37358711342793,8.459387177628448,69.61667062927137
1.94,-4.44720827049271,84.86375595219985,20.57416088297965,-131.25268499732468,83.65757922201229,197.49148555729823,-165.1554615398155,37.27815408530297,35.689157111960775,-150.44410665633484,9.195247231724403,70.55728591251298
1.95,-4.5346386331544375,84.90314675493077,20.96001161164047,-130.7575615414979,83.00364007509792,197.6581535014505,-165.23416917503872,37.278777241216105,38.011723840575854,-150.35379314185948,9.426002650630174,71.45433914067661
1.96,-4.686266416703631,85.15728206327785,20.92024970747932,-130.69788511987716,82.83965624637842,197.52056372477284,-166.43819637032564,37.30961189481131,40.70397732914388,-150.22104837829806,9.655453752496486,72.07764491770091
1.97,-4.715713769555132,84.8580484078805,21.17969233303601,-130.95131397917925,82.66012032861597,196.6920674996597,-167.2791644288923,36.89616858312836,43.23768903578717,-149.17743320448866,10.546839220302893,72.83424328774177
1.98,-4.706016067198054,84.94784566570709,20.94513392905072,-130.5316893518463,81.8596561104002,195.00164818721643,-166.91799759303092,37.36591372088215,44.551445258157685,-148.59098557667417,10.860492923136848,73.04205344693608
1.99,-5.24905355360707,85.15356005486028,20.968940368655584,-130.9211168764424,81.14934686508839,194.0469698546676,-167.1378144047515,37.23536015701284,46.27910522222356,-147.89567228197302,11.21012744902328,73.85545939893731
2.0,-5.0974471250810405,85.10639906263071,21.216104409904062,-130.9558102845712,81.09901524488508,192.9812775709265,-166.64836776551218,38.03748143540971,47.7652388343454,-147.80396062127429,11.417448148650733,74.6317673318984
2.01,-5.341910299227272,84.99058983809843,21.07004112344902,-131.2042463016279,81.33874504938245,192.8887445435964,-164.94309460131154,39.42974205414591,48.675261752256986,-147.20839028527573,11.542845457790769,74.74154684081132
2.02,-5.407470139032988,85.32874282696828,20.924633425310876,-131.1308021610591,80.74350244756359,192.81834449450488,-163.79574319324428,40.614151047125446,50.31797404916198,-146.29819046142055,11.820943868627875,75.69123013989402
2.03,-5.306091213443016,85.086786596024,20.9582797102184,-131.06314729683163,80.56175247224897,191.75968622754263,-162.4383668105811,41.52303697288901,51.82346178726396,-145.80155611169167,12.389557691028868,76.26030994073271
2.04,-5.79874625042613,84.90714970508435,21.22290356889072,-131.41049000703953,80.03851350656356,190.349588114388,-162.5260536729471,41.75854029257015,54.59697817597496,-145.59194295951005,12.207770395975071,76.42919914134397
2.05,-6.016363753977145,85.17623995351587,20.83996672080685,-131.62289426363782,79.7590722018796,189.47431327477312,-162.8280952144575,41.41867040972307,57.967652081269264,-144.99979560018656,12.462126186056812,77.3872387045155
2.06,-5.955280932191195,85.1600279819992,20.90735701550612,-131.9606617160827,79.7603325133209,188.7532166312198,-162.96131814039157,41.0975189991462,61.257897266373526,-144.9100806904897,12.66159372615302,78.25754437730392
2.07,-6.23457827623168,85.12267295469616,20.91307938620734,-132.2801751509659,79.18498903501737,187.78165740206555,-163.16868738315296,41.21075181383708,64.32669844429226,-144.49979090842274,12.82292703177658,79.53029894865816
2.08,-6.587529373685112,85.08703443112955,20.883373276554057,-132.4384049953198,78.78639179171677,187.1184010854815,-162.1142017412859,41.10910416682484,67.1192612168208,-144.3277996004296,12.76983622955184,79.89410324721801
2.09,-6.827638034882152,85.2820033626462,20.947875293749945,-132.4152755113976,78.60846342947366,186.29568736780752,-161.36645269902365,41.35177724860077,69.87372809001519,-144.17318999199793,12.495101353933793,80.4149908578192
2.1,-6.935038300981952,85.11044687495361,21.01969860730767,-132.2013820271275,78.40402156346643,185.65174653567948,-160.4357986686538,41.76690759679273,72.4626779828036,-144.08501056226723,12.583627594669174,81.02982959465567
2.11,-6.944822237697831,85.08936409206603,20.8663715935858,-132.07789993211293,78.66840499104121,184.5363127302704,-159.63899625540367,41.87437086718135,75.86270583720369,-144.22431621913407,12.5140023499253,81.80002449169032
2.12,-7.078995922464898,84.86344718944225,20.856579881418853,-131.87043244481455,78.36456473853134,183.71601559972189,-159.08483590015044,41.76744018714436,78.58266783541573,-144.14423869301558,12.241564890866629,82.65100826012245
2.13,-7.3228714191721265,85.26801724897415,20.76632938495392,-132.0768450741198,78.05871802547614,183.0877247446458,-158.8971104128662,41.326927774451256,81.8866108744076,-144.11277730631153,12.056376912006131,83.54742372124716
2.14,-6.873295900296891,85.00262658962579,20.774516275628592,-131.86903841915873,78.0281701128736,182.2893263862418,-158.74368835921013,40.90504793281417,85.34070104955735,-144.29073727549468,12.158657858625425,84.15371185219034
2.15,-6.967729523295349,85.13644005830166,20.947397648979152,-131.53623790349633,78.19022746893893,182.0752044564697,-158.04760324366964,41.21659247009481,88.38915656825264,-144.45639015804932,12.000080624978173,84.69490154566438
2.16,-6.823945046197767,85.26521101335483,20.83573294937661,-131.23345609663423,78.06531677734098,181.9822992897128,-155.9743794721749,41.73040462395289,91.07708011131275,-144.51239199449458,11.571534549525229,85.59024707227952
2.17,-6.342060283779649,85.4490416272073,20.389199088189457,-131.11782597913663,77.71829432141547,182.38592091371115,-154.43834021031645,42.65312856290817,94.00526620662887,-144.540876761818,11.194405444802609,86.13569853959355
2.18,-5.976694058134708,85.7110664174616,20.267446415456394,-131.1517176164192,78.01302475389267,183.3681380546097,-152.72044197367404,43.62078893603989,96.7532504340198,-144.73408510326658,11.0763757018008,86.84915392743004
2.19,-5.617674907085433,86.04602845696282,20.08138617434211,-130.92403576757184,77.49420101367434,183.6459020160616,-151.85831258149506,43.2620522600196,99.53988107984456,-144.95062373410036,10.821168222885657,87.60341047228412
2.2,-5.948674703532636,86.13200472886378,20.321068887508847,-130.27480169153318,77.56365567156023,183.88145722793448,-151.09091824575245,42.77403634597304,102.14623286523694,-144.8637049129186,10.481763400613978,88.44585052035352
2.21,-5.702005258335684,86.14197444419719,19.98763663545907,-130.30062877082327,77.44320278234032,184.03095274591948,-150.7209112877432,42.254043265137504,105.22846533304131,-144.49173833822482,10.304917110039924,89.20163719685382
2.22,-5.421382566927454,86.30919487096399,20.00869227354695,-130.44935234442784,77.65946053131896,184.23953394074135,-149.1205651953317,42.72241286074915,107.73963691016613,-143.92981923658846,10.998002886066962,89.82216511873308
2.23,-5.283738626364118,86.47180531111765,19.554277316915947,-130.54747471215094,77.19912389887169,184.754480039953,-147.28435147977348,43.40519016056957,109.83649467715912,-144.13570988243563,10.46897223690514,90.3619187632198
2.24,-5.2005298266758775,86.81989181909196,19.257168352549996,-130.67706682308255,77.28420279892495,185.4081738494681,-145.4415941065604,44.332476024912495,112.57097359765392,-143.3401270058313,10.840550251196523,90.800338812991
2.25,-5.067688410097436,86.98048378342008,19.31761194987531,-130.92605215897683,77.5770774830436,186.22882055641503,-143.723965475815,44.63028321764325,114.76983674935572,-142.9139125612297,11.101566636945336,91.84819969036742
2.26,-4.928283954067863,87.09324676059511,19.079753022995856,-130.78939149091278,77.25920473634038,186.08780945824032,-142.0912679408176,44.98823774522455,116.95029864175136,-141.86841759276226,11.95313661559302,92.55286649423812
2.27,-4.77537569923003,87.37182687736875,19.00141846659685,-130.9494612369507,77.78874762188893,185.93826965550969,-142.09491870103878,44.03313978643478,118.40502945025538,-140.49035884060285,12.223391635691806,93.45987464511184
2.28,-5.063374793501986,87.48469284694184,18.660296323577533,-130.94595073696064,77.84188229947488,186.11761640054831,-141.23236700243166,43.75584233519005,119.63733428367809,-139.54792612815882,13.102728880423625,94.32152754693796
2.29,-5.186298505285733,87.79786053439406,18.422647422002523,-130.7706893862772,77.64114001797599,186.07286373128687,-140.39618556599706,43.71376269798792,120.66178573755376,-138.47086707206648,13.81129066069794,95.47865199798912
2.3,-5.0149850903109945,87.72734608364439,18.428509945198947,-130.8677902617601,77.79703444085784,185.5797971564234,-139.3249717482448,44.14489241553958,122.173399905606,-137.72633321781458,14.605864039923263,96.46726788525068
2.31,-5.434109544970658,87.92402188003649,18.384859817918997,-130.91274522841883,78.3445151534125,185.6996462320261,-137.53906987442053,44.99306295150208,123.79542879585526,-136.68773128962764,15.24383029865606,97.10030603738564
2.32,-5.320862313036207,87.7482011759483,18.38230753076338,-130.69128621292185,78.70017726924928,186.14288251474215,-135.93352192871222,45.96604022168376,125.28837876731438,-135.43608604053773,15.784931060608915,98.18541251740751
2.33,-5.5731511807453735,87.52383614287545,18.400006668341053,-130.95712675964947,79.08823678356372,185.9096099123046,-134.3661062739001,46.2963647106034,126.05043829037096,-134.21002987426567,16.422066004989986,99.22495568566566
2.34,-5.8123708885543,87.88897162064234,18.268850607868018,-130.80341729579175,79.4478644013566,185.75140644149693,-134.78833406165413,46.03873257756772,126.68457817314962,-133.6022941153175,17.196190452200028,99.7238183252216
2.35,-6.133919657519883,87.64068322149181,18.36055439078897,-130.75049324022055,79.84681632222772,186.11025609234068,-134.73624819744478,46.14837214017968,127.02851966456598,-132.81112817157762,17.521375867024034,100.88385602786774
2.36,-5.968644564471541,87.40761835228139,18.083175049219797,-130.84866085911818,80.43112229774226,186.04019590152987,-134.13249764273215,46.24906849644003,127.76455315139869,-131.35179393723715,18.482571234992168,101.9350523455617
2.37,-6.06086237119688,87.37129715765356,18.34429919102914,-130.33698197652384,80.64783337710813,186.4621441078642,-133.0151760859219,46.91461316095414,127.87296114757044,-130.36709742486772,19.2858087893352,102.88166791861448
2.38,-6.074804144869222,87.14762684975067,18.418259646128007,-130.6580113756077,80.78889353334273,186.83038186072207,-133.18277410097738,46.65527152123504,128.3084034516448,-129.63719355366553,19.826874970256025,103.89901274057384
2.39,-5.93571437880901,86.89511899900131,17.939678073256125,-130.55988687887367,82.07744590626277,188.33366602711035,-132.44621964564587,46.68236171543144,128.75198718608297,-128.55151873113937,20.664621529401423,104.624170006143
2.4,-6.069004185247084,86.80742226812599,17.978070340038258,-130.38239490356412,82.27470557470583,188.63739345324865,-131.52111708994315,46.9908069689802,129.1174059426686,-127.3860441631542,21.22779466183666,105.69720128265118
2.41,-5.511043109432373,86.56875764055766,17.977169255373415,-130.6926079286769,82.52529297983666,188.7546726739651,-130.9192302157793,46.90864424133653,129.34674877455387,-126.53814826379084,21.70428354089508,106.5345153741135
2.42,-5.694588506509639,86.3176967298872,18.179354476931938,-130.54435800624458,83.54445371924284,188.91230079374395,-131.66848113436626,45.78457706089535,129.3206299842615,-125.45198363195684,22.61273987085239,107.21794845204096
2.43,-5.797881403882327,86.1701790428376,17.83066747584928,-130.44960333863796,83.84168941347544,188.67994396036477,-131.1996258020817,46.13182197555811,129.5680465172607,-124.5224318060194,23.43837565331642,108.28459856714922
2.44,-5.4196106792673255,85.91196157255214,17.84797652107119,-130.2527196952298,84.10745643556358,188.66354405257465,-130.77045843684363,45.60511781731743,129.63543735901004,-122.99615699961925,24.515782308506807,108.85051846802284
2.45,-5.402881541432273,85.75530051406894,17.700169555375854,-130.29114866295782,84.99953997262307,188.48054483867816,-130.53340974485414,46.12490727527345,130.0640535077228,-119.84231120783544,26.301883512857845,110.89423397263435
2.46,-5.532598091411557,85.17872467685117,17.639898133235754,-130.0353949077827,85.54184955949701,188.73209687203905,-129.68430573464167,46.61273684137712,130.4244791621609,-117.0517515513937,28.240510111309845,112.18467013770506
2.47,-5.3689116269166055,85.07779920897343,17.62766062106463,-130.014273066816,85.81076599177156,188.7399880892168,-129.2535745242896,46.69387942451205,130.49849913384884,-113.86165673495114,29.822944044773376,114.36638310453532
2.48,-5.495432903326486,84.96252012142894,17.661445066563637,-130.03283433871547,86.18000736542317,188.5732722355389,-128.8619688540222,46.889977290911375,131.04402419144458,-110.55686758581348,31.66224278268254,116.40559320027252
2.49,-5.300316159382049,84.83580888097313,17.709831128480317,-130.00603714589252,86.88856434418867,188.2318524836197,-129.7554420062072,46.1491118181443,130.926096461108,-108.62288988281126,32.74160091920795,118.72992014917548
2.5,-5.424637292985422,84.69122238805444,17.625771112267607,-130.4306731368852,87.03705850415523,188.66218616900312,-129.65074216114198,46.4029582904753,131.0737505421827,-105.2169598927887,34.106098499291384,120.84417521625105
2.51,-5.849868661489987,84.47124108443077,17.515939648016154,-130.2882555051998,87.93692918494268,188.39451009421043,-128.89909061679535,46.68454910581893,131.54870016329144,-100.79751377919352,36.691002137816845,123.02556278803098
2.52,-5.996877445162498,84.45862597998759,17.105962503037016,-130.45961356082682,88.04252512605454,188.43847684058304,-128.76943497130358,46.80517350532772,131.21523430727257,-100.90325647754726,38.808706544623696,123.4120121455791
2.53,-6.787027956448494,84.44767242572705,17.010088861059234,-130.91560471871628,88.55749299246978,188.43704914861723,-129.27917292529958,46.68033919271609,130.97474962576078,-101.07644578915212,38.06154636141288,122.13186224668397
2.54,-7.169825707093018,84.38255329082564,16.87575723849137,-131.34056358872078,89.41527452938108,188.5768138111726,-129.95260637529793,46.738586552892095,130.39137632825927,-102.62690486624513,37.64053985190029,121.2243019909026
2.55,-7.355678265214902,83.81836681243924,16.631427990848444,-131.45254526450847,89.79847698252469,188.08543631884191,-130.28753341269368,47.316767574320586,131.03112041499614,-103.67590136316254,36.86944645055934,120.6473171404019
2.56,-7.7347601904856065,83.82528574562063,16.41198992661952,-131.86405393023963,89.48931367748447,188.00942098378337,-130.0181869535896,47.8620530967431,131.12033468892176,-103.23431042904252,36.66774614692644,119.42019027103775
2.57,-7.888983217718747,83.45299670397708,16.55906549937417,-131.92282694889755,89.23911863127675,188.0841484024856,-129.77413406484786,48.33214882468032,130.9389620133314,-102.9879709393064,35.63432382304794,117.77858968546468
2.58,-8.303523656703593,82.96213974025645,16.397969375442376,-132.5045577683006,89.00050785781343,188.27948951932152,-130.2809275968638,48.85405416737591,130.7965177613498,-104.04649135690234,34.9798469046343,116.56371889173028
2.59,-8.897939125324399,83.00427417854769,16.65006857999968,-132.91716176061993,88.63414888779407,188.5504567705705,-130.18980644784418,49.35657804471447,130.67206501069586,-104.71678263118612,35.213389686080646,115.52792787606882
2.6,-9.259814036674594,82.85036695309402,16.41029870215431,-133.32301448589809,88.21295920346289,188.29072243085088,-130.1835670281962,49.52452060567795,130.22806058579235,-104.47262988286168,34.15175227570156,113.50414674702176
2.61,-9.629952711811551,82.78266903765734,16.391082549086647,-133.60712240948334,88.0424720293925,188.17331417898876,-131.0133400666439,49.246770217427255,129.9374721462831,-103.4472822048491,32.80935877078886,111.7788116433764
2.62,-10.007054784827863,82.43251397964643,15.919076986066262,-133.61374698554988,87.4781450337382,188.14223595974016,-130.85384717702593,49.56128629132348,129.8306637197186,-105.35769345272736,32.97885699631956,112.92713034169974
2.63,-10.46753051639586,82.0365095777635,15.505086546715454,-133.9026162634418,87.35411030430033,187.89582640358697,-130.19618840067062,50.278568081926885,130.0953430866389,-105.17821352027646,31.848896446259342,112.50994755956832
2.64,-11.008469607759316,81.9191626588589,15.41547730219779,-134.46236999080335,87.24896321782114,187.90744457691125,-129.5814835248948,50.73126245525272,130.5065018851187,-103.3132259685418,29.87702720401836,111.41153060075573
2.65,-11.313896999495144,81.78605912467309,15.765275518505636,-134.61578511287266,86.93492541733723,187.60441984662123,-128.59145494974237,51.3557382757213,131.01836596019683,-101.46248101078884,28.414635951431386,110.13991435758317
2.66,-11.484684902640472,81.6531968887734,15.063517501314632,-134.64215103652464,86.47589451996232,187.480634160205,-128.13421655203314,51.85213066233576,131.2828413466659,-101.7226054539839,28.43279768553409,110.0633621789915
2.67,-11.850472079733244,81.45314878284134,14.736827772179524,-134.85127325261058,86.63528837025092,187.34988546266592,-127.47983320635169,52.29863400079809,131.97598191441205,-101.6304061425164,28.306481039692347,110.0248912890819
2.68,-11.855825980597826,81.53997266288513,14.343504869703509,-135.23054414063003,85.95770266832092,187.2895040852146,-127.0578229809097,52.88482807200728,132.34672644022177,-101.7998395514234,28.750969467768485,109.52703944487509
2.69,-12.127794138995108,81.33525523489021,14.481981116106788,-135.39281610343642,85.18153575436419,187.28785441616728,-125.42729078203904,53.36268679453178,133.6444018182155,-103.87983731268092,29.79520461831459,110.0741657141363
2.7,-12.324608668216362,80.81871717115455,15.4737714633595,-135.40340718591696,84.92092562365391,187.1335020189883,-124.02583528135678,54.29638709611118,134.44848758712547,-105.21490063892124,30.397214376205536,110.81610594485686
2.71,-12.553009526164876,80.89534389322512,15.95628942652381,-135.20979341726348,84.88122052249622,187.48317518583133,-124.15948377635546,54.19630653579906,134.78135080263488,-103.66960048157544,30.04773419168087,109.96580022364957
2.72,-12.705631297626583,80.33842127274426,15.980804784144524,-135.2179361018013,84.7244755500557,186.9508672342267,-123.37411269072769,54.12191311977187,135.0491315309898,-102.39671144515832,28.8337596352958,109.51524249036734
2.73,-12.771763721753636,80.58306319799256,16.03663144673678,-135.5836599182338,83.6218638654131,187.27306765799497,-122.341527210702,54.26608934656785,135.55877946097368,-102.2062086112666,28.67661799516932,109.2046568511956
2.74,-13.510534719608618,79.6745504818103,17.768490720462687,-135.71926312000522,83.74341181321387,187.35480320878045,-121.50453490797872,54.60395489932511,135.5952247639874,-103.45921701777306,30.27604689615145,109.86482295295704
2.75,-14.18551440823428,78.85248747049204,20.29074009163294,-136.0201698168963,83.60932712919023,187.1806405537263,-121.11007057572915,54.49172878172099,135.36645368756044,-106.05600791705524,31.572123494477253,110.43552894769138
2.76,-14.73677245135216,77.76882360314679,22.478054995926428,-136.0627672508182,83.12570497253498,186.993361566722,-121.47633601245036,53.96808289603936,134.83479185968915,-107.7903298215158,33.09679651312295,110.82936144916572
2.77,-15.077262947511748,77.47199956472396,22.65385256882672,-135.91944455579306,83.08078364820653,186.86373117346795,-121.8676646660951,53.57879800037812,134.40916793427857,-107.4684053578776,34.133342891917984,110.6962151921584
2.78,-14.861754701547452,77.49318293784748,22.752170815038227,-135.79381481306714,82.36442322381886,187.1271734142743,-121.05806890473086,53.684329634075226,134.01777646231258,-107.76441514479576,35.36481071912697,110.4204663122816
2.79,-14.784723560128167,77.32642023984339,23.4406103199976,-136.17610560229718,82.19121338929426,187.36589817278372,-120.21523246816332,54.1325633086243,133.7019181159609,-106.054571712239,36.98204797959078,109.47553738167682
2.8,-14.631144389230071,77.05027107693618,24.362038154550596,-136.19202650025954,81.47902642482498,188.80806613314755,-120.04334476463534,53.7864278505572,133.4488348122156,-103.20823049041492,38.90524770196068,109.21115320118578
2.81,-14.747732730210128,77.02769653888345,25.271047106635677,-135.76547850770922,81.11448091319173,189.72654540080552,-121.44452944780954,52.93411419029859,132.64371392670978,-100.59305253140955,39.94136667286059,110.30366865615856
2.82,-15.272644868165209,76.54766390888086,25.59494254437911,-135.44477479660574,80.69849817150238,190.00643074721677,-122.37560302886844,52.40712155542966,131.34891274268594,-97.62837294556444,41.19240268084823,111.26671900279814
2.83,-15.062664090530667,76.30054147399727,26.046205674792137,-135.6771025023427,80.49648168226176,189.74052168474392,-122.27165869413682,52.5705726347998,131.09277209925,-95.16043957110745,41.998553232467216,112.29922143567556
2.84,-14.859433612689385,75.87259608985904,26.957484760782325,-135.51326944485697,80.23020897700184,189.91228827417305,-122.44279142217728,52.93003694897262,130.311172011876,-94.94001075382664,43.83386488621301,112.2331001170768
2.85,-15.019297102297964,75.86716235277912,27.477498177225044,-135.73205459435903,80.27520335731496,189.9132866881878,-122.65433285091468,53.27229426662068,129.69041855905593,-95.85015170002474,43.59464482543606,110.96677660660258
2.86,-15.00352252949538,75.56273084485112,28.22192559525776,-135.73668406039272,80.16752317667557,190.0647244651397,-123.07816397135608,53.37666120799417,128.96304204312474,-96.597505200466,43.66871346866126,109.84604227529351
2.87,-15.09118182340666,75.1803499694026,28.45352653441469,-135.21254856631245,79.82716135682625,189.7973030525552,-123.62878627363116,53.22881777917051,128.02855719302107,-98.34636620040212,43.30132383744916,108.5791195016846
2.88,-14.794232280588734,74.66102170322932,29.30337188985933,-135.72044346071294,79.81324981045404,188.9563121323384,-124.1782786478935,53.13253756655728,127.17047533262247,-98.86282076731658,43.59216467217171,108.31661453748262
2.89,-14.892366506063976,74.56510511846582,29.59101548432981,-135.60128481647638,79.44211084023968,188.78068554246224,-124.37910417189984,53.18195239631743,125.70797521941356,-97.00493652058027,44.89207703698714,109.15615716180542
2.9,-15.07064881670468,74.20226153129555,29.734933705263533,-135.71683071315434,79.5320156063082,188.47650651818827,-125.10043078639296,53.63583101062734,125.29041009413946,-95.19781480969492,45.74905404530087,110.78905135514776
2.91,-15.172304041273508,74.12503470207287,29.78111551042939,-135.41434124241826,79.35847818785105,188.3891097348512,-124.9610808955804,54.25389051995553,125.09180504775992,-94.34262554154677,46.46837397001807,111.58238237260838
2.92,-15.47097225111195,73.84077030423879,29.773765565853964,-135.47821829151488,79.02688682384397,188.229045166531,-124.9299789450914,54.74893314792499,124.20802746722116,-94.31728311895742,47.17016421493035,111.5672635960547
2.93,-15.221491323007912,73.55552780770118,29.612123404796822,-135.36286051946556,79.34381475601816,187.41847731684243,-125.24607112445236,55.27202278824025,123.4002121817488,-94.94549823027674,47.5052295357004,111.3288185330114
2.94,-15.865419483818243,73.2976338511817,29.83825758910586,-135.710370698902,79.645715121144,187.20542055673388,-125.82873822932746,55.37091493211305,122.24375259765388,-94.91951415256146,47.637905577605,111.4647739715792
2.95,-15.65583708694696,72.90866387438736,30.03376229431168,-135.60325276605636,79.19956574905845,186.77257774933585,-126.64550529557144,55.31938267690335,120.82721375960662,-94.69251491051232,47.95037994197749,112.30035278915582
2.96,-15.73516184708247,73.04777565600693,29.88565273304456,-135.7856153484264,79.13468081378659,186.55761750331615,-126.91068595359764,55.88004073526295,119.7689901446994,-93.89398803195148,48.16366586437766,113.27446981175926
2.97,-15.983594489924092,72.57686837943301,30.586205194434783,-136.07332381650087,78.68082879334804,185.64920925829583,-127.4697117210638,56.41660350542877,118.21203850942982,-93.4126752801258,48.322826528291706,114.48114746051353
2.98,-16.15013329513019,72.2889487410265,30.47727941506357,-136.19335837227982,78.63158831380208,185.56486763979944,-127.72998379961142,56.62219647068641,117.23257275666036,-92.58195913136724,48.71088333131088,115.9019566332188
2.99,-16.254250521048796,71.95524639626126,30.512231479700347,-136.20927540855604,78.59831147063174,185.4291341699348,-127.68282597274565,57.59689432951246,116.43015603282475,-92.42183544367968,48.60825092452717,117.1941620561681
3.0,-16.223943867774278,72.15468833414047,30.27074607515644,-136.0963454446577,78.49801368780558,185.63309511533225,-127.1905696832634,58.062364028554086,115.3167132899676,-93.2191376559541,48.37198626343938,120.85746999050976
3.01,-16.638313085883727,72.21584265353354,30.144446807704878,-136.1899385912291,78.89583805769955,185.83749411869812,-127.4120747114177,58.068947828251765,114.52012027533604,-93.63945201322622,48.67570570968361,124.92337835159113
3.02,-16.64683201335829,72.16635605218322,30.348696536933076,-136.12451099396174,78.64765840772391,186.02250124443609,-128.43112691678567,57.31899206162026,115.38694897642785,-93.48797063198518,48.21558763596333,125.16859216844294
3.03,-16.508534534935997,72.22852723174606,30.52542253644825,-136.01450729845126,78.70693724450177,185.50622193987743,-127.8366856952041,57.78720081824827,116.35053357813868,-92.84900193549466,48.70467409730296,126.07922035112396
3.04,-16.51574936925988,72.04233236355745,30.673094715166616,-135.8904963437803,78.84087789629086,185.30800728111265,-126.57966156192664,59.50521672578761,117.28622947426082,-92.70801640282772,48.66347294953753,127.4835734210132
3.05,-16.383028667195713,71.84089268695865,30.91508219070792,-135.52348408430993,79.10759213072664,184.79806672360263,-125.18276288565524,60.64443223880213,118.5235150402413,-92.27329025232297,48.40785669848588,128.31687242508633
3.06,-16.118044965606156,72.07859847028982,31.495529632980944,-135.99190942306615,79.44200210944662,183.98783765920223,-123.48851628871068,62.10981367997395,119.47438155642485,-92.57319059334618,48.42420424318159,128.36762962196465
3.07,-15.971788519472833,72.24150265784544,31.64346474653147,-136.19898735796698,79.33431966301791,183.958718050326,-122.65691646666964,62.64934306746205,120.25293879175943,-92.99883517173518,48.20034311960619,128.29261966245534
3.08,-15.905625412282712,72.43432639203175,32.03503856079954,-136.24921962864508,79.74050121882759,183.3980598139237,-121.9634745088727,63.8048203123228,121.33165200212184,-93.47474092974218,48.51441552801811,128.21422922505744
