0.02,0.12462237259421241,0.03946491560318438,0.5393701070254704,-0.4166713149955697,-0.48684473668355943,0.5263970613942826,-0.6384867850303049,0.9669888379649639,-18.441780417469193,-11.345714928091539,-3.0284555608559094,27.500359191913795
0.03,0.08497471089657012,0.10322405239754073,0.5527708396667508,-0.43830750118351947,-3.0579653427812974,-0.31854348376079256,-0.5428910888947427,3.840914750261206,-24.33180399060462,-21.830810570730133,3.4120176878428596,27.722968287400686
0.04,-0.030818421674606765,0.1733223743182115,0.41131057390597736,-0.27866872146650057,-5.374794529169258,-1.362539706148934,-0.9181889110224777,6.6614012968428735,-29.317516478212376,-32.04107545327949,10.21506318987079,26.340371179918176
0.05,-0.14356981452354176,0.18668813275010407,0.18627008644786083,-0.06386148113352327,-8.006658929970438,-2.241167307185017,-0.9294664486110746,9.593236967048428,-32.46075698564579,-41.44482034494886,17.00431859898685,22.63947386637884
0.06,-0.34263994860739233,0.257393372614097,0.5039814650400626,-0.10056086784402643,-10.345158569241988,-3.0894282103568362,-0.8359857598051355,12.205964752346008,-33.12912770326725,-49.28676867936564,24.028777582057685,15.686069512754369
0.07,-0.39372694630505356,0.15308355240870705,0.03263810452401017,0.32020440954269125,-12.376167564879545,-3.851654455931472,-0.9093968374873871,14.487884719789202,-30.394092308454947,-55.54207846990842,31.04992315122122,4.405118780353486
0.08,-0.5703453230232252,0.32927506281556246,0.32308221898300993,0.44946961760829207,-14.308409794986993,-4.882977078611229,-0.7674267421665986,16.713426748053056,-23.88093945719114,-59.97884070320779,38.61872549437566,-11.843958732537708
0.09,-0.6452620278334971,0.2732455441409219,0.1157830562334372,0.5498345508503364,-15.83971635245439,-6.018140663879624,-0.7572505175987075,18.06536898622693,-13.11196481871719,-61.99489842506842,46.12223473430465,-33.5021377842673
0.1,-0.7537648309246002,0.2717444978680026,0.2318090255345198,0.7210370768502982,-16.90859450117623,-7.028293434823494,-0.13972564473701232,18.891800758882887,2.268626443468543,-61.55041503280078,53.41049816967802,-61.30155928297335
0.11,-0.9631766203346823,0.30540858367958534,-0.0056642764140567015,1.0104916407541644,-17.658224033562245,-7.748335089009461,0.11355689412546899,19.547123256893716,22.55302135596263,-58.16947936901094,60.91108627448868,-95.51739247346106
0.12,-1.22684826639296,0.18903871921459114,0.11152368263975634,1.1336704003084472,-17.898929967216137,-8.547510790932943,0.7168683958988847,18.987961694180417,47.94959869878348,-51.798373106762796,67.81893322000654,-135.8872834722076
0.13,-1.360068463585998,0.07236154508816821,0.13500087119679893,1.4703795929479797,-17.750872226523214,-9.070355206097057,1.5847634463955362,17.96163225575342,78.3985691678282,-42.704338097311755,74.94027701511365,-182.60094256360568
0.14,-1.426825779707813,0.0893959791155805,0.1388302536921968,1.5409014758074713,-16.900197231142087,-9.805285365192438,2.1000801635764352,16.279313758802747,113.12239596208032,-30.613840030442045,81.77353716370794,-235.2117220652111
0.15,-1.7056072038169416,-0.16964943323593945,0.2690093944062245,1.5912257162976058,-15.527615238920317,-9.95598460985768,3.3300762886256594,13.45954695402209,152.60438444184942,-15.544230184019995,87.77598438074708,-293.25588083173704
0.16,-1.632747241588075,-0.2712532152316663,0.16157865169408464,2.0508146882603637,-13.585182422841047,-10.167245102942992,4.051405928256702,9.729830560867544,196.08633072548977,2.087867951508345,93.31659682874684,-356.00539809069085
0.17,-2.0509760548306706,-0.3984416061689156,0.21305502385057734,1.8774928352297786,-10.81395749986338,-10.07615499051085,5.121975055096531,5.564084626438716,242.57085849998228,22.04359477836873,98.24850672283802,-422.7179423425768
0.18,-2.1534236312579296,-0.5833063835824414,0.23004396777266445,1.8875139472168956,-7.3797996918201925,-9.682710561851392,6.498731062649942,-0.18817108107784342,291.8900107256166,44.261884248693406,102.17960953530485,-492.72236825051976
0.19,-1.9408159310101536,-0.667578728991937,0.5650944778684268,1.9661663622862593,-3.2667594094900543,-9.068241486675088,7.623897749450049,-6.302515696770636,343.12784478878405,68.31692610936068,105.33660532216157,-564.1631638819941
0.2,-2.10427942773473,-0.6713425946256324,0.5753925564035068,1.9903696909060704,1.0967433345895328,-8.25362491111123,8.665007666414343,-13.468765694044457,395.25592432363084,93.59048874337033,107.2790779669024,-636.5017426861258
0.21,-2.34907357942006,-0.7783184764145331,0.5513677520705665,1.7530748700469578,6.1002145540369375,-6.832680486899916,10.082268392441694,-21.441593547716533,447.7733411397432,119.97670816391938,107.76987990106488,-708.3392863729084
0.22,-2.0449494634331478,-0.8254624545704777,0.6465402519673242,1.6540162766405953,9.096330984102188,-6.328391398388766,10.600861209231244,-25.789614535808983,473.72863186423183,133.50665613664614,107.3758861759419,-743.539334243674
0.23,-1.8140285139010741,-0.9731964657746797,0.7678663902614853,1.1620299869397495,11.89401839252452,-5.610507977399942,11.32948661802255,-30.058605317155738,499.62368617252685,146.92597262406252,107.28513263235793,-778.6747114113932
0.24,-1.8252021242023584,-1.0619983943557456,0.7581927578512533,1.1325941253443563,18.05541804869708,-3.812392370340611,12.301133944092681,-39.544572568713726,550.1402588292913,173.64110374692845,105.16885624437116,-845.8484183754628
0.25,-1.6643396973713267,-1.1779928023368398,1.0152087342510798,0.5014318780830634,24.72203539607021,-1.5347403977098941,13.633292210268529,-49.492948707768164,597.9923401190384,200.2458669790088,101.56173719610165,-909.2784247099306
0.26,-1.4453784322493644,-0.9899777805601317,1.1805839893980312,0.10276648442079908,31.81254389477048,0.720894386911797,14.482095043269178,-60.06913465122801,642.8532502780828,225.5581988599435,96.5388592149641,-967.8021779891075
0.27,-0.9925734311118906,-1.0633833681454739,1.3329628982056168,-0.7483662481804334,39.28087881839991,3.6013381789084002,15.632408533408519,-71.1007717290331,683.791038595451,249.57370217856044,89.87580977768629,-1020.0100270405852
0.28,-0.39362854464802627,-1.1036856603185434,1.4935615684499781,-1.6274037819200662,47.264123425690464,6.55241131786109,16.333184395085027,-82.75597925168587,720.8358809380741,271.67532224237897,81.83623265095447,-1065.377195805297
0.29,0.07838239874062694,-1.1976400165031396,1.948360904715343,-2.4852500749006583,55.27530455776191,9.629161545019548,17.148528369958175,-94.31794923203127,752.4424924194607,291.1924910984264,72.1435891525565,-1102.8801685106828
0.3,0.6666702308130749,-0.8054921684043914,1.9038781802740143,-3.508537048829547,63.638558429117694,13.032063601320207,17.787891964432085,-106.11028396498463,778.625611046409,308.1388118107404,60.759872853973214,-1132.114988516811
0.31,1.48680673617445,-0.7571877094098776,2.135868303484875,-4.726553800332081,71.89096567893037,16.480013409220376,18.189005377496535,-118.06850376695171,798.7235508489698,322.303064260862,48.30653413866768,-1152.463943835412
0.32,2.2102853298824865,-0.507693297978467,2.392989691588251,-6.177738629995888,80.29966431962994,20.016423219789104,18.31689602914614,-130.07752114566557,813.3081229660016,332.8995400220662,34.6888181772373,-1163.8373990387656
0.33,2.927195941982857,-0.36486556834213046,2.58962293482765,-7.607281387690174,88.73509070744187,23.61405523436767,18.66833808944889,-141.8832361027728,821.1160113880624,340.1342677555047,19.7287895475357,-1165.8735245526473
0.34,4.200720667890912,0.02841543761525196,2.405490192162429,-9.310320146915998,96.78538915549505,27.390765667459295,18.34101430988763,-153.37572250718944,822.8654320433209,343.53420561732673,3.842416775264968,-1158.4519087161914
0.35,5.056390889802946,0.3135730040294146,2.876287033306288,-10.83208835064589,104.90464182715985,30.9939227102752,18.25532453875519,-164.82465758633114,817.9678365811403,343.365781627568,-12.726633563582412,-1141.4993616583415
0.36,6.401365836697949,0.7761699255507026,3.036792251929943,-12.714916729825354,112.74703096960666,34.81425661783879,17.785423807368772,-175.68113140179778,806.9421872388858,339.33875644421033,-29.90108942892681,-1115.8548455918083
0.37,7.780225637435908,1.1132991588001206,3.306651795994816,-14.687960494977967,120.50414731983363,38.21588485507234,17.29877075965227,-186.24885251629027,789.68059382104,331.4767379821119,-47.56100425434537,-1081.4545378680548
0.38,8.918983611934138,1.499305883333665,3.226044016494718,-16.6676162734397,127.7239296862629,41.43227712548438,16.4869314263917,-196.17358941029823,766.8616921154422,320.1249234773625,-65.39216038485722,-1038.7397974066196
0.39,10.472484888819714,2.0552945110746332,3.592537819699884,-18.78556571376485,134.60901409184333,44.62215358545303,15.596630274226458,-205.67794152941426,738.1776799935225,304.88852495635814,-82.73983517178436,-988.0196992611202
0.4,12.028411803946906,2.5581964581166465,3.6556660759686372,-20.752616423356866,141.25106633181352,47.31824951062807,14.686855328735945,-214.47764592713924,704.416103834692,286.53624480285094,-99.9026901725175,-930.3810533072201
0.41,13.503829550783001,2.9744190852812857,3.781794608568916,-23.248183273180626,147.399373696878,49.78365916470895,13.34465673381515,-222.78704807513517,665.1823783027891,265.43422812605263,-116.56916814387306,-866.0896217405899
0.42,15.033277513195161,3.8692167664821846,3.8402312000859564,-25.68292653571411,152.9953053602273,52.36820376162369,12.221955405690332,-229.93187995472778,621.7173176149921,241.26953633263417,-131.89677307573893,-795.4128734921952
0.43,15.707401098983553,3.958013567076214,4.02473549890689,-26.701885172498436,155.69099959850035,53.33261013536557,11.348850773561226,-233.27478130771016,597.839507314047,228.04920548661806,-138.9817536798145,-757.8136585701207
0.44,16.511016370095803,4.273816531796589,3.8028225985658075,-28.031473227535262,158.34640695239239,54.252536356337885,10.816216866998719,-236.65314544945437,573.884288079662,214.82633998074132,-146.25662937680843,-719.957932138055
0.45,18.158528693620596,4.814129604430523,3.9146324219366875,-30.262723533814743,163.04067477524606,55.897672028999864,9.22417704943875,-242.46067854313216,522.0330249688416,186.05171611883986,-158.95701924625743,-639.8223475013656
0.46,19.766007730765274,5.3211693501332284,3.98843110569733,-32.62515261537717,167.20730282917546,57.18954584435362,7.516091806120433,-247.54406388356946,466.6692137512605,155.33774233439686,-170.0447947966058,-555.7583625949908
0.47,21.707328892154102,5.987745606338283,4.012397754181866,-35.18408058894972,170.83620464723123,58.16940341413175,6.009241916850556,-251.60975694533334,407.7742012562253,123.19055825202899,-179.36231996843887,-468.53607448569284
0.48,23.255908452539913,6.8431339866977385,4.055698955298407,-37.566328641957334,174.02621191242537,58.623760947460795,4.34716841361971,-255.16222148585547,346.2966535848847,90.03445073712943,-185.84037096761716,-378.64761172326286
0.49,24.92563142578568,7.156226093154496,4.086951063673128,-40.12135765825875,176.60645997202067,59.12834964902128,2.5115897468324198,-257.681237227751,282.16348195393596,55.98584015344489,-190.42480181105608,-286.5215586339277
0.5,26.62554953175911,8.052900452147638,4.121763967021772,-42.771961239981614,178.53895808551067,58.81274981177942,0.8289470013042589,-259.5270103690007,215.46469839568334,21.560563359735358,-192.03592602393897,-192.8789891898844
0.51,28.47254358591757,8.373497036555486,4.015243622270288,-45.422252846848814,180.0809352725479,58.53869085581647,-0.9861198395534952,-260.2456596963127,146.96538106357178,-13.345649683225325,-190.8198723922061,-98.38682375938811
0.52,30.194301856453272,9.050021013497293,4.211223976604005,-47.72369229008827,180.79401474564523,57.65905795325671,-2.8162357391188384,-260.13854665958144,76.63435438768526,-47.72819538657797,-186.7837038720393,-3.2535413297489546
0.53,31.86394602028083,9.531977254684355,4.117428171086806,-50.58809966371237,180.7853987366324,56.53492828342677,-4.540160390006446,-259.4350051644492,5.042853836062441,-81.99587164986097,-179.5802291937659,91.93487105984798
0.54,33.65295427706746,10.087337320739842,3.9992350616548897,-52.854510116094595,180.4386465643616,55.3703372763391,-6.307869477976093,-257.59997707080106,-67.79614820259397,-115.39726885180426,-169.59244850351317,186.82620514520548
0.55,35.423700966511106,10.450729334071344,3.9078466998390975,-55.21890682654918,179.0811746319224,53.76435583434235,-7.714232834743983,-255.0681673708902,-141.50975552057358,-147.81650012557822,-156.4492162639579,280.9043957590359
0.56,37.12502530208997,10.982785389789102,3.935020522148585,-58.115327803523265,177.2478092513023,51.945439006292034,-9.248041965939374,-251.54199538523247,-215.39820048995284,-179.4494149967402,-140.25861180580534,373.7678902008722
0.57,38.777952117885846,11.452444804294757,3.709006120139712,-60.39250518060775,174.83425641330268,49.73119502669947,-10.381966959946642,-247.08274204013597,-289.6228899072676,-209.40227766166882,-121.28430090043842,465.46034628201363
0.58,40.46119432518513,11.669404825440127,3.962015019626983,-62.72912811285881,171.40455676668293,47.71883798198833,-11.417974808230237,-241.85331073498168,-363.1292862780047,-237.91809455701318,-99.20701871552683,555.0460493693741
0.59,42.2717368823795,12.274520862199022,3.791502258401202,-65.14195756450268,167.49078663214863,45.24769483799824,-12.389079868537506,-235.81016350847307,-436.1439857669209,-264.628149042029,-75.16502800515315,642.4434779588037
0.6,43.7656247846605,12.774093840810789,3.536134172478518,-67.36936681929312,162.86639810425012,42.38053883600628,-13.053716773919088,-228.92405945736633,-508.20906381081477,-289.5890317620955,-48.526440329752766,727.3672110382888
0.61,45.467540076917956,13.021697163250213,3.458490334965568,-69.64048404531371,157.3209511296381,39.51801380610159,-13.330334245201799,-221.13522424972828,-578.2749952081406,-312.2767225347068,-19.944932572401076,809.3251484731002
0.62,46.79198277355,13.36465384127568,3.351319637886195,-71.95853456205388,151.3766496261993,36.43646355001565,-13.317584657632837,-212.60464374343783,-645.9301066866474,-332.8891851671062,10.112206395846815,887.9248619991569
0.63,48.407289964565194,13.62907216962229,3.204914649243806,-74.05836623842981,144.59446881936657,33.32447613535522,-13.485449560173121,-203.25863613025928,-711.5311924802373,-351.08086259403694,41.46896732233362,963.0662144244097
0.64,48.78869031093459,13.653370775099141,3.1471749932096698,-74.94889494219899,140.91274256535385,31.652280134359362,-13.101686770080281,-198.25766210699024,-742.2655125142561,-359.079883460468,57.24021665498197,998.2232155628363
0.65,49.96918765291497,13.849862670112717,3.1034092487013343,-75.98112315865784,137.28268616747977,29.984520951882878,-12.786223225141827,-193.42591341481148,-773.4606247539856,-366.75301366180446,73.52100582428841,1033.7823593704832
0.66,51.24085550617002,14.221192290106924,3.1998521041725585,-77.67947644116,129.11018177439914,26.567572902492067,-11.97021265305588,-182.40900061674716,-831.3023232595228,-379.8639297461187,105.94709791158115,1099.5510333263078
0.67,52.72284810379513,14.218902751177618,2.755321956393053,-79.60339661611295,120.33371043344863,23.25371207921061,-11.032637269703484,-171.18333186829622,-884.9660495752156,-390.2650002867989,138.28617267901527,1160.5385218270358
0.68,53.69937776828732,14.55583896431797,2.704353801227973,-81.11877566297822,111.2942545168719,19.519547941602397,-9.364666177707985,-158.913785133834,-933.0101508772275,-397.8800147826627,169.95784813547328,1216.1162308709017
0.69,54.660324664981694,14.598803054276445,2.619228619393601,-82.66380555251067,101.377515804553,15.645307772827906,-7.3935727356622465,-146.4895320212272,-975.5965902688015,-402.36888664558967,200.5772643197125,1265.1209226889416
0.7,55.61499228496243,14.922414539556783,2.658723444167411,-84.01888131999829,91.43136353298671,11.745434764024822,-5.3332654644611726,-133.65190534792134,-1011.7148681321103,-404.37954732304115,229.75390269032783,1307.9613387889972
0.71,56.68071496708675,15.080421105879527,2.724663312553071,-85.40753559139823,80.7740321294717,8.145219574943187,-2.919953868661181,-120.08449717845338,-1040.9177141776356,-403.0695921307633,256.5596957659478,1343.768080417474
0.72,57.26377208958992,15.31435404367728,2.5721477260174614,-86.4403694204095,70.02441088631484,3.8667972182619197,-0.018638829724723582,-106.08724991713373,-1062.6691041823324,-398.5792327890271,280.7224810512576,1371.794096437281
0.73,58.01564513411745,15.13652556330038,2.685519198838174,-87.22666272360439,59.21847635206387,0.09898843926012507,2.685660783228422,-92.39492090073283,-1076.8895319397009,-391.74356337815436,302.324571138243,1392.018077497152
0.74,58.42554534931215,15.27615152656241,2.5191783027846446,-87.92114400944543,48.271767429417196,-3.7566464132518433,6.148615629140682,-78.32553786991588,-1082.672671633807,-381.43768407930486,320.634153972731,1403.882109564389
0.75,58.637114722046974,15.206250160503643,2.4840983951716407,-88.78226835428949,37.113757491566425,-7.605573325237958,9.742570122989298,-63.929837381292074,-1079.9976195217912,-368.55487993225717,335.39238478903854,1407.214336244171
0.76,59.02628502172045,15.34518052297268,2.678609438315014,-89.0645559943174,26.331678987135444,-11.416465774555967,13.39391869650069,-50.07697659625255,-1068.34786072079,-353.05475695016696,346.2755395352109,1401.4242244162792
0.77,59.17460030302816,15.134495371578266,2.839572591007152,-89.55254597365096,15.423440617726934,-15.042573989070705,17.11518647997707,-36.16909169887378,-1048.197941615626,-334.9300538700335,352.8565090643659,1386.7513300608828
0.78,59.28145788416736,14.90812380598463,3.023633232773857,-89.85590242318393,5.014794340812563,-18.4784716021362,20.72418893412725,-22.438071688527284,-1019.0281883372547,-314.68866443408416,355.9983799908345,1362.5552712653496
0.79,58.99581686552861,14.78793731924294,3.3320447409405713,-89.80825206528398,-5.0687933521902355,-21.902268614470376,24.7087251688165,-8.803058843493613,-980.9803392236154,-292.6253502201418,354.8094981712336,1329.2530894708314
0.8,59.02874050436548,14.471920598990703,3.343813137585998,-89.76173551534386,-14.430718159636509,-24.844382481618414,28.750874475048615,4.239120425682333,-934.5879514876725,-269.06164464645593,349.5308027692785,1286.510347763988
0.81,58.772911949892226,14.529685242642335,3.663165749469511,-89.51655729492262,-23.5261220798254,-27.824242350734288,32.582335823864405,16.823204236849044,-880.279864894268,-243.83983898698625,340.36017768912825,1234.6731077373597
0.82,58.00755266007769,13.813348034040873,4.164096449533814,-89.14184234423196,-32.062146797244026,-30.366019287266806,36.0744580005657,28.59712856904794,-818.2327395113236,-218.03054375145422,327.8919159996662,1174.1004330914116
0.83,57.88724799029677,13.506245073389373,4.588015403503016,-88.94230271962637,-39.74369845414709,-32.784604470371896,39.37421213954046,39.880595769563875,-748.892195773813,-191.73931058196055,311.5982125862003,1104.7144023258613
0.84,57.431320432808015,13.071069013612533,5.088993303359093,-88.2592274831159,-46.68685550118882,-34.974145673392506,42.762023039761104,50.368166430380505,-673.6638660108291,-165.4966463531537,292.4313270988689,1027.7191353411688
0.85,56.90015514409192,13.172623688749178,5.165469744679791,-87.77660308311802,-49.541122757810896,-35.552701928794484,43.92444770885771,55.001544278487415,-633.0310222488749,-152.67327152088464,281.6995789384729,985.606070457395
0.86,56.70384766289209,12.830373212885666,5.534657797005212,-87.55323094857995,-52.43563916607577,-36.486713217732266,45.594638352437734,59.76405786914962,-592.428191021612,-139.83153994820796,270.8960199788231,943.3723590623699
0.87,56.17565011666459,12.489748603104315,5.820500174854598,-87.06415629792795,-57.635832973280095,-38.05640451845936,48.09899658824689,68.53192699140901,-506.94303134596845,-114.79605555056484,246.95592404868123,852.1354182994777
0.88,55.50705150500238,11.915498683865252,6.714779964613011,-86.23351105594048,-61.966510059073485,-39.370845769267895,50.55162685181017,76.20832401911927,-417.69582432536123,-91.18296830473376,221.61814273735445,755.0967283905283
0.89,54.87396160835375,11.379911524200253,7.1333515937234235,-85.31630410191727,-64.97312998352821,-39.93213591027567,52.70837060097444,82.90573943424918,-326.2064631257131,-69.1193289845098,195.23323071477793,652.9661696186355
0.9,54.04580591966121,11.005740142831991,7.704981550763276,-84.54327255324019,-67.387525195047,-40.338324939494186,54.30838143030421,88.59821311661102,-233.02507049605688,-49.404658819623926,168.4396895350806,547.2264837519597
0.91,53.4857156777485,10.502594755924726,8.44579401115634,-83.58452494518777,-68.6411225471591,-40.569470758821666,55.814675264347954,93.20068169885694,-139.36095487455918,-32.215447941552206,141.39698902592787,437.65350404257924
0.92,52.65383426812724,9.977797849838026,9.015138095928679,-82.45551703183605,-69.16685839601979,-40.62132626957607,56.690975932021274,96.55578811108992,-46.779150092643,-17.39721109695873,115.02864630743811,326.7317754641042
0.93,52.250835731636585,9.787410967805188,9.692813567606004,-81.60068877766388,-68.73325900384772,-40.250471910867255,57.49293944335981,98.58752447812978,43.82184245533815,-5.60389799058105,89.8034891667556,214.8495091219634
0.94,51.34623232484571,9.153696292624236,10.129734890139554,-80.55875811097287,-67.35989323644938,-39.867253334841095,57.89604097502204,100.07659313033507,131.06498855205163,3.4435235948678464,66.05550376280893,102.83077136584888
0.95,50.99371383992977,8.848510746933583,10.653885635624635,-79.5992734595768,-65.08514476543142,-39.43086068420255,58.02048176058775,99.95803594037159,214.51946038834134,8.741532394904114,44.47023304053299,-7.4271401439188764
0.96,50.347483731713254,8.093564845925071,11.551435244347429,-78.96395835850774,-62.18750824789977,-39.11976642534024,57.99831770815053,98.92278740447684,292.4123490500307,11.95115713087898,25.012661934971383,-115.2137588213845
0.97,49.812046117698436,7.872812530517314,11.969657771236472,-77.92583127669502,-58.68356548802135,-38.263871425131235,57.53250404649745,96.81794101799171,363.8440981603763,11.893605181110471,8.167941027816779,-219.66837185585098
0.98,49.35437011824676,7.412789466472055,12.425984113330959,-76.9098003055635,-54.506720550576226,-37.557528527028474,57.24607374947613,93.60421522795329,428.31892502168233,9.492513637443267,-5.717298268310983,-319.41863393721087
0.99,48.77577248342122,6.986456650962619,13.158801353604213,-76.04827643338025,-49.47978408900268,-36.878712993268074,56.81550159334187,89.5735822439221,485.27003504606836,4.516833814944765,-16.561771318664192,-413.50906436628344
1.0,48.44478557007731,6.842612022249091,13.522997701138832,-75.29173765503057,-44.12063578042805,-36.62383981140164,56.2240809107545,84.57951671829377,533.2908396129047,-1.898304556148752,-24.218301396952995,-501.3894159553141
1.01,48.102298326075875,6.467506803299188,14.25719867597772,-74.48994952375645,-38.51608561308914,-36.21878103524179,55.64537545681153,78.6652709315512,572.5629313095245,-9.592845996279308,-29.18029370177311,-582.2165590297769
1.02,47.748200410879456,6.07837400537343,14.605786244063234,-73.73383302990837,-32.31092248507186,-35.93171342893388,54.948647121229314,71.8625439332165,602.3862272660876,-18.198439824190235,-31.178576366615886,-655.0202117617839
1.03,47.340588074995864,5.93909884820267,15.321428235461871,-72.93466259523679,-25.944337269890582,-36.11966503087243,54.26076018344219,64.48730393699113,622.8213860669429,-26.903550228030518,-30.275590958804994,-719.4084037351112
1.04,46.94409857248891,5.571354251767985,15.79427220266513,-72.45820370586752,-19.554522073059985,-36.102971563761045,53.83866684513572,56.23690557391043,633.7550585902617,-35.15701743386272,-27.20769270492405,-775.2389264735752
1.05,47.00107884966058,5.401014849958504,16.198745125055275,-71.89574157973941,-13.099137239850227,-36.19924735432762,53.385300183818124,47.880151055190495,634.9967871134891,-42.307281280591695,-21.582209921959695,-821.9303667994773
1.06,47.02836500471026,5.202387908200353,16.37411705717244,-71.70752879682803,-9.923564847879621,-36.60109341039333,53.49798444323965,43.37523557944993,631.1131912840965,-44.96311875033008,-17.988357203705682,-840.5713445762595
1.07,46.93411307565757,5.012650849751889,16.717323087225154,-71.39044466399214,-6.842522491177395,-36.4750148948999,53.2546550833621,38.889810822677624,627.4193676875295,-47.31151331299803,-14.432027261332678,-859.3775155873316
1.08,46.93857270951878,4.4945135746552385,17.069441713606697,-71.01842784047304,-0.6021529329190509,-37.26223083547598,53.12573335855945,29.537748984237666,611.1333967743549,-50.21375076294731,-5.804309677884561,-887.6456151619601
1.09,46.85818606337248,4.434134339614256,17.742931818571908,-70.80245060080996,5.614027245415568,-37.66991423661108,53.296114265396575,19.82905832828025,586.5954985330375,-50.00936401321969,3.7960345624216494,-906.7600225988627
1.1,46.90489306209378,3.951036999636272,18.24130277062783,-70.60145637511201,11.39304738311534,-38.52268606979974,53.34799430275342,10.458565625760368,554.5676260026254,-46.16795345794048,13.625837137930116,-917.0952732389339
1.11,47.16723801089792,3.7178730195901943,18.73996164421653,-70.70759012056692,16.73751814354395,-39.08381524615076,54.03079467804647,0.8973561029661073,516.3487456665476,-38.30557965628898,23.779785445912783,-918.9464382953548
1.12,47.32597648296849,3.4977903362298486,19.153172059369734,-70.719980168861,21.918697753030944,-39.82698309879269,54.37371229770121,-8.872269854899164,472.20014694257844,-25.88163900776802,33.427584869606115,-912.4745495114129
1.13,47.36977215805344,2.9774224037648014,19.714499524286047,-70.80797049064259,26.44087066301432,-40.40588323826261,55.09484932361548,-18.16279726462852,423.88701889727923,-8.76204541949222,42.23833805750652,-898.64994033962
1.14,47.70962317685535,2.726557410796569,20.292337666756985,-70.95490237853012,30.368611771465183,-40.78073037868827,55.794743734075425,-27.194178808627747,371.8229884499779,12.790291160490064,49.755940517994,-877.9017774512081
1.15,48.09254149234266,2.188495786090626,20.720393681695807,-71.4546448975424,33.80033184308012,-40.95370181459516,56.66925357311712,-36.14111837055809,317.8499940972164,39.762351948515025,55.74082392245573,-850.7559718114804
1.16,48.37569996382901,1.9604440906001195,21.27595418768656,-71.96358434757775,36.848341660620875,-40.71242663510292,57.644764347026594,-44.46846451275652,262.66051315547196,70.92702230209807,59.76395349291491,-818.2513678773687
1.17,48.92333839525354,1.3732734359617493,22.129850238330686,-72.46558406627753,39.23142244232915,-40.12266842788953,58.68477497376925,-52.50646149784435,207.59205573022504,107.2687726540216,61.9774622082906,-780.3223324690443
1.18,49.19262806783042,1.1501415862908502,22.833476623269863,-73.20843911708847,41.02681224292891,-39.31848442600092,59.64466547551571,-59.78498869587492,153.82788869055705,147.49357208592284,61.83329776667847,-738.5447048627844
1.19,49.56491090008863,0.33556978765376766,23.108370755938974,-73.90382274144453,42.05926529788073,-37.683030822804135,60.63914973015108,-66.65468882541462,102.23736473996208,191.02427324856717,59.26233534722626,-692.7508001756029
1.2,50.18301685009089,0.14738672757801763,23.99367415014728,-74.89068651483872,42.79765930454889,-35.89534758297133,61.31693289138499,-72.83262143257541,53.9443249578595,237.60079292922384,54.870267622659945,-643.7992357739639
1.21,50.60795876420322,-0.4306395830262718,24.70116467298839,-75.5831135386484,42.88685337366974,-33.38173953090014,62.17997199411092,-78.36219739239101,10.053550886499632,286.39768756505407,48.02741920867272,-592.5915117792172
1.22,51.12474773245237,-0.6961891829351258,25.19137915856212,-76.57527405670322,42.67619165625083,-30.31128544246098,62.69231866677553,-83.3258830281452,-29.11916008439414,336.30801648004496,39.02153694121705,-538.9298192506238
1.23,51.659301821905515,-1.0758065043332916,26.118402100518324,-77.52452274217087,41.856025085362184,-26.454136014799094,63.10577493748914,-87.59087678073821,-62.60873728441111,386.5679323702184,28.35845004126926,-483.9687987093024
1.24,52.06689728695271,-1.6087492014470408,26.584357099322183,-78.57701288693075,40.706836052934165,-22.09467807775167,63.48405401532379,-91.35134315825394,-90.03174609528497,436.04841060120435,16.067817008454785,-427.05944451406344
1.25,52.50446305804494,-1.6171488306303041,27.171057735008645,-79.61498638821817,39.46310357169757,-17.187442105692277,63.71245045497417,-94.15568444014934,-111.39346190362198,484.0514601464443,2.369758428368037,-369.0932143723677
1.26,52.829599055776,-1.8350116613777445,28.042043515440884,-80.61604963030872,37.551705757012805,-11.937435470257112,63.362714591419675,-96.67997468642525,-126.42998288563788,528.9895848014451,-11.867842229616773,-309.46547482849815
1.27,53.188509091834334,-1.5926647651904773,28.200595641295806,-81.03656061794698,36.53857725185058,-8.861995511917042,63.083086267758986,-97.42191568758983,-130.90919788713455,549.6026039942203,-19.23833245892828,-278.97601108944616
1.28,53.581059040326046,-1.8163955271897343,28.584689242839207,-81.33374166581304,35.6108026876539,-5.905014243619392,63.115737577960694,-98.43608185822109,-135.23327857699732,570.0636698836472,-26.854151501391826,-248.50705669432324
1.29,53.85963590043775,-1.802879255720404,29.06354178498349,-82.59561174342443,33.734720395246406,0.20071885801659528,62.51354530948958,-99.5013338376957,-138.23881520295518,606.2392384508976,-41.61436122447564,-185.9617718576252
1.3,54.05719034051077,-1.6421549556281443,29.879284037411693,-83.72240952479429,31.65685658467815,7.076309436964971,61.90397485055974,-99.87734428222826,-135.47351646568868,636.309902595825,-56.12418950506113,-121.72510952033777
1.31,54.33211096598215,-1.9000133339224345,30.3470316615853,-84.63926189703606,29.46584203007578,13.981177337235255,61.221395678669296,-99.74628082160771,-128.54975436827343,659.4112919826096,-69.91154790677469,-55.31533570644921
1.32,54.85026405394238,-1.4887115053362527,31.13150196970346,-85.56395524472183,27.56298588080322,21.318631292208458,60.03703558945085,-99.01057479832495,-117.2732959507694,674.7819750631107,-82.54122524633581,13.484838800551858
1.33,55.12375573825567,-1.0733506255564316,31.672194736048578,-86.41527303099126,26.0597357523345,28.29344661807093,59.01747865678573,-97.59244605113595,-103.40498519028186,681.9466163155867,-93.5546147229587,85.00620927813937
1.34,55.304267220389974,-0.808532200368002,32.118387770046894,-87.34943336123406,24.519853138086088,35.64884206662918,57.357727547930594,-95.66248287261999,-87.84201643756676,679.7739604574235,-102.94108637152813,159.93197272036662
1.35,55.30409509065893,-0.3642279090710434,32.68454532704431,-87.99463340025714,23.119525714429894,42.69037192036221,56.14942082438324,-93.27412205199376,-71.62861819381237,668.1600911931627,-109.66331085580441,237.82545919307313
1.36,55.684926211880786,0.2478691011205301,33.27070091258293,-88.68667351443347,21.987292749052514,49.62909875629448,54.80448402562942,-89.90095674777838,-56.086119726641165,646.9407766954466,-114.62967982565374,319.76082811581983
1.37,55.72699324440148,0.8405874077289957,33.62266451164848,-89.57660064698905,21.082774470190618,55.99841941895441,53.31898524746623,-86.02824576010646,-42.8057525775686,615.9089567193745,-116.81341542078593,405.36248695379226
1.38,55.76898691966341,1.6312169202377476,34.29386905243659,-90.33231762609033,20.465613911988875,61.99433021272188,51.74098439902651,-81.26934143330045,-32.47158957003373,574.9191892369892,-116.49426626878228,495.1154339221289
1.39,56.056142548688086,2.09034356803663,34.71239160150709,-90.84690627617663,20.078882448720588,67.7102077112001,50.39962405537349,-75.92911318882328,-27.079984226091224,524.9205816021304,-113.52781069831344,589.1938240236764
1.4,56.169794910916536,3.048458282164032,35.191428815203174,-91.41972726806334,19.829762972402477,72.25309327992402,49.04946232185086,-69.84281835131439,-27.522973387611536,465.6483003617843,-107.886349982447,686.5579493646752
1.41,56.10738634955308,4.041118159720715,35.82058879112376,-91.90325129891056,19.43938896811132,76.6484429333941,47.928336409923915,-62.64440984557909,-34.47143188798543,397.9600047015254,-100.19030992788642,787.2265730086003
1.42,56.463747845173394,4.765834168874923,36.20979742045789,-92.48031241967753,19.36295641924727,79.69838859346106,46.7269987379106,-54.45970765860118,-49.275577998002746,322.4781659176441,-90.04888930539798,890.9263939136926
1.43,56.41823305538456,5.57421090011562,36.68637191576646,-92.7273926651784,19.287041418338642,82.08077113963695,45.853011058999144,-45.61444354388983,-71.97805687327734,240.32548407773083,-77.84911107586748,997.2168497061116
1.44,56.718323121279816,6.51799961056498,37.041543376776026,-92.90802692308232,18.59536997380339,83.81975730211303,45.03850645031089,-35.453489467120825,-104.20863660372956,152.39357665417572,-64.59406441433745,1104.399215489873
1.45,56.63494361624617,7.019342236147807,37.518250738889634,-93.42858281519788,18.05629011861678,84.1977186875342,44.51168749463406,-24.44040636755816,-145.3922529255302,60.2529798915009,-49.73780315478114,1211.5579726617568
1.46,56.93910045924442,7.970875108655092,37.750953424469294,-93.64710955815654,16.805346155180544,83.70761085343707,44.28631019971434,-12.52380328848209,-195.4261003044226,-35.314549758738906,-34.24188545765937,1318.1035124407304
1.47,56.8975168830579,9.101607306003215,38.492479219369,-93.5189290994618,15.118150998419967,82.18561047057575,43.931462790422124,0.8546199597228892,-254.28777334585155,-132.75951635117224,-18.122269297330334,1421.93192662677
1.48,56.80157335696986,9.144312195665904,38.665775731941636,-93.5991258995962,14.036470457686866,81.00903617857658,44.021402732669316,8.152913035092732,-287.9105069009306,-181.69252345311605,-10.258119184068345,1471.9170610685774
1.49,56.974596297573385,9.495280085430023,38.88138845502517,-93.37175378889208,12.953663870336342,79.77137040903244,44.309542601332645,15.258058271063202,-321.38837483609177,-230.95611611708662,-2.1965569556473046,1521.7453801929453
1.5,56.82899181798925,10.456807919964952,39.2967160174984,-93.53077233359728,10.173947230498035,76.36019541404117,44.40757335472209,30.622241201275006,-395.74142462115,-327.81491357011674,13.398907122132837,1615.9242082233511
1.51,56.96762720683379,11.206181159816527,39.755835574425134,-93.07314414190485,6.405057282162308,71.95945645683098,44.86020977301422,47.24120133205697,-476.54654102470886,-422.3577161133956,27.811825930383108,1702.9536831196313
1.52,57.10003523438644,11.846152022210035,40.40244354934797,-92.51238743782564,1.5231557029746265,66.6679045508014,45.51133345973645,64.5328717633566,-562.212650321502,-513.0107655268476,41.2107391683695,1780.6793841050696
1.53,57.14255323424257,12.3745818468758,40.70620776019397,-91.70272220045653,-3.948745365542092,60.63481877318737,46.22900746266825,82.56866307012872,-651.0928176391758,-598.8502075889237,52.35264686213914,1847.4156479700093
1.54,57.048105629024754,12.805703466591428,41.14212551134553,-90.92770849942411,-10.632026345785947,53.79814472914717,47.1863395064636,101.44356221865331,-741.6096015066872,-678.09072383218,61.70439169911742,1901.7742514918127
1.55,57.016991268641796,13.188302602641137,41.48575243327041,-89.92091980807481,-18.370123175869868,45.922029999472414,48.12991272073804,121.12680264788357,-831.6452528279646,-749.9865661881462,68.59055060755543,1941.7897027951476
1.56,56.76138202774779,13.587419653004948,42.06390255137224,-88.66199773962367,-26.88485515404933,37.9050485213735,49.12621014936638,141.12413092607153,-919.1732693100532,-812.804307624391,72.68564018093694,1965.8721927609295
1.57,56.590391008767824,14.03413566470386,42.54780243423138,-87.20153106340072,-36.69636462284424,29.300346383819065,50.01232174351344,161.34735198187323,-1001.7059260819569,-865.9411809856823,73.77594161560077,1973.4064409715902
1.58,56.40641178563525,14.17703657772114,42.96372488045671,-85.19068634385086,-47.393470755596724,19.76874008782762,51.072341237676426,181.72555430537906,-1077.2934808775894,-908.5211175032236,71.86901103891927,1962.6625713822077
1.59,55.67154192855485,14.069485386269598,43.53994943139591,-83.5857422857212,-58.73287482152964,10.278565642879697,52.06409801262708,201.9158992655463,-1144.095486838091,-940.2152923650191,66.78072896476297,1932.389367966247
1.6,55.21096094468443,14.00336779847172,43.97549476882787,-81.24959054870543,-71.01285754331171,0.8813644906572061,53.07074926135352,221.7143402308432,-1199.2409213081526,-960.0640143524735,58.4508167892506,1882.7091699005869
1.61,54.54875138178571,14.117573557906143,44.6928468281307,-78.84672217374872,-83.7670598245419,-8.816171928734938,53.703966148302094,240.84334621171686,-1241.007804706885,-967.5266158815576,47.0171766787891,1813.1141682039406
1.62,53.68270728092966,13.903523896205195,45.129449454113285,-76.38233679829455,-97.15214136062065,-18.37947562883804,54.22608378289179,259.1827899739826,-1267.8624182340561,-963.0334795584747,32.234454257793985,1723.8902945946395
1.63,52.58097665835307,13.492910045530651,45.48339524740011,-73.39283483897921,-110.59668508650947,-28.11996343522561,54.46510062439746,276.5142721175972,-1277.8028955596642,-946.4336849865705,14.761958779369811,1614.7239660857574
1.64,51.562394433835884,13.253869555740595,46.10771987699084,-70.62964302612426,-124.105844727434,-37.43023522177698,54.38832066301593,292.3788580218192,-1269.6055165311807,-917.8717089581165,-5.67578016037739,1487.0782323744354
1.65,50.05271341244867,12.705885804952038,46.79731771347633,-67.21725095375366,-137.42936564136255,-46.23848103623301,54.386591096415955,306.9162716470528,-1242.1487091993934,-877.7778326717266,-28.524495762304515,1341.509686695759
1.66,48.538454917817575,12.445683554333383,47.42011142979056,-63.95450406018261,-150.35332862131108,-54.54718657499166,53.87910348825993,319.6044606555983,-1195.0057869756138,-826.8359139988446,-53.67775370622997,1179.5665758480302
1.67,47.154828605486934,11.712661546254497,47.6125829268411,-60.536920163060856,-162.79565109168698,-62.14057537327737,52.82834642406413,330.4749825614015,-1127.2452950328266,-765.3542995297483,-81.16261174726657,1002.7476572949276
1.68,45.2817668907089,11.014034964769479,48.33841801154676,-56.82084116135263,-174.2951347304957,-69.4194929795902,51.683708485666465,339.36354311360543,-1039.3109866202615,-694.7236363901754,-110.41099687804208,813.1102999199466
1.69,44.29490252228613,10.848040335687402,48.8237489989904,-55.46129180085428,-179.2047643454514,-72.58730209745443,50.79792682202963,342.61222469523676,-985.492307261699,-655.3721367483109,-125.81127554879252,713.3686285605728
1.7,43.53549990146128,10.215332616102888,48.98431126152624,-53.168609989883294,-184.80169669746846,-75.56837029975078,50.24830792877825,346.02343987159605,-931.7549918665568,-615.9025348885293,-140.8910227495935,613.3308268743857
1.71,41.583560283060535,9.791503204942655,49.37283806679021,-49.933499052647434,-193.72182941837832,-81.143166462678,48.17089898385449,350.4755260974961,-804.5703391258485,-529.6851677364841,-173.00648251155445,405.5605566089936
1.72,39.50753992731083,8.766559334843688,49.99575079662235,-46.234653820850816,-201.24189534457514,-85.70131820702775,45.85072060847771,352.36077868163824,-659.5572053515923,-437.6582265740862,-205.80016124688862,191.87588198681195
1.73,37.26094654520053,7.86036973799638,50.449688661784926,-42.52608169145342,-207.0722031002531,-89.24141856149716,43.043111857595306,352.1442936761868,-497.8132530861148,-340.6124960486003,-239.43084227842934,-24.455366209799042
1.74,34.89392705842096,7.0530551741974294,51.0353941711751,-38.909606430591914,-210.58845616155338,-91.88721792119132,39.705985207778006,349.4101267816081,-321.6910874823197,-240.7860536647084,-273.6141944860669,-240.9019140678425
1.75,32.672201542767795,5.764460502611834,51.36772921765796,-35.58726517372164,-212.47747468834982,-93.25732529283991,36.29310606559646,344.71984636482836,-132.90147239355545,-138.83461397152615,-307.9863282067503,-454.2015578287569
1.76,30.435515427401953,5.040448591603543,51.76316121211474,-31.860566918500023,-212.01358715398695,-93.88321179958807,32.61659730642924,337.2017635260192,65.93654046917442,-36.410170664611975,-342.5679506781732,-662.3416550289071
1.77,28.32035578830493,4.0775621714304755,51.96907816071594,-28.735135151919334,-209.53763977966133,-93.25212470959222,28.427311428509846,328.11304226264826,272.18916108293195,65.36582912033255,-376.8741300533961,-861.6096546224123
1.78,25.897063460545137,3.1765497935739297,52.26585774474974,-25.421183308763545,-204.7169964557231,-91.66014026355008,23.776565032205845,316.8482098843641,483.11819134637597,164.88592038232528,-411.299315317509,-1049.9488517643733
1.79,23.949068984237798,2.196090069437288,52.394244496750076,-22.454417636632254,-197.48099661612622,-88.88209140686575,19.102073348881568,303.6270126775404,695.5789925067508,260.79944872478853,-445.04240072989387,-1225.2526933059373
1.8,22.13957910861464,1.5158883056833838,52.66630879349738,-19.647641083005023,-187.9641171277537,-85.41188765248714,13.835334095603463,288.925485097187,906.5432024297469,352.1650201311074,-479.01848187167485,-1385.0859065090654
1.81,20.071871328591733,0.547739260766998,52.71791555128903,-16.87796518008721,-176.26167665068357,-80.8281165576683,8.54993548227954,272.65099724515295,1113.4494321404752,437.7934846380775,-511.8020117563682,-1527.2610857978389
1.82,18.5239716580393,-0.043968514983772855,52.57030914724595,-14.43157618401266,-162.48608830854008,-75.60900087274396,2.9289621551167877,255.32200220701213,1312.8410742009655,516.7445568616613,-544.3329365862381,-1650.982232264573
1.83,16.727871822507122,-1.1808287282179075,52.64615329322404,-11.98354490152078,-146.6401158821222,-69.47588250375274,-3.0807117968096094,236.61984021143147,1501.7963721080334,588.1779673294557,-576.045657722083,-1754.118077833282
1.84,15.771724257952396,-1.8884116977621668,52.35621039101422,-10.31535732090848,-128.94639549710038,-62.560331015700655,-9.049010495054667,217.6128238435202,1677.708772241279,651.588702317829,-606.8661299519677,-1836.2796991357143
1.85,14.370467390696218,-2.3773025956574725,52.308047244319845,-8.110500639854315,-109.86330747928376,-55.35439445992777,-15.323405394181599,197.75519808532215,1838.42928103611,706.1281032942335,-636.7623482541176,-1896.566631955295
1.86,13.366918573810903,-2.92646130137752,51.94619767954129,-6.471480254205318,-89.19634527709086,-47.24228568982555,-21.86042213876111,177.82036847992654,1981.0964488805446,751.6923906372508,-665.7345233585503,-1935.346045963922
1.87,12.929488100500292,-3.126604523988678,51.37672856090594,-4.92919267380811,-67.22082153804713,-39.144407337966996,-28.43055298710239,157.90813056966337,2104.412266069572,788.4676599548316,-693.0464230864462,-1951.7776986119384
1.88,12.636558598225427,-3.5177665514964382,50.97544739573864,-3.886688346896613,-44.456866082987254,-30.51961481452426,-35.22121860154128,137.98775342320272,2206.1207059021394,815.4345758469555,-719.09059564531,-1947.4474304074174
1.89,12.463141282585417,-3.929284815969855,50.54434381068146,-2.4368153892006874,-20.760551737377167,-21.556980236991667,-42.257933202732275,118.44248615465663,2284.6877947468975,833.8205457419577,-742.9828752932481,-1922.3759010773224
1.9,12.528199830452833,-3.7113589020976576,50.32433426208005,-1.994149694991044,-8.673280413821848,-17.26226798961174,-45.76687158005948,108.88109313078614,2312.5471535205747,838.632097061611,-753.7596831924815,-1900.0969211603324
1.91,12.678554724628524,-3.9099864317448834,50.03008311035852,-1.4701516778764474,3.231362577644072,-12.843291578764756,-49.3223604057487,99.43257320389287,2340.0189639369128,843.41890585078,-765.0082056952132,-1877.7194014948584
1.92,12.859929768115862,-4.037691882155466,49.39921053809761,-0.8067676255120211,27.602958128256656,-4.148903866171095,-56.60996124075209,81.38087845916606,2371.1673110124043,844.8514248399032,-784.3625750433443,-1815.5021353149148
1.93,13.469290159174117,-3.94402642056437,48.72981065505397,-0.3408963983834741,51.66078822953817,4.55376182833291,-63.97236641183784,64.18305973506368,2377.699386755658,838.4323282891444,-800.7340821056872,-1736.6437110606014
1.94,14.605057433812243,-3.61769464636099,48.18424176134972,0.28655179686374077,75.25118831550678,13.295079987134601,-71.45406838540033,47.85301238768153,2360.6434234887465,825.2098047645676,-813.7959333640425,-1643.5826577236635
1.95,15.734890824178716,-3.3369153890483583,47.25946535796961,0.5459547920104547,98.79941346969883,21.42734525730598,-79.26799025088313,32.81536631523447,2319.721392177756,805.7451338287051,-822.7987180383335,-1537.743162723209
1.96,16.828002401657816,-3.0731704279356875,46.38247054151314,0.7381593442558009,121.27609446152451,29.222367789691514,-86.93752152045965,19.16994375011217,2256.4651561641217,781.0875684196288,-827.4380641562994,-1421.5077374750983
1.97,18.410250666773344,-2.50239976681502,45.67154412809708,0.8693145107730043,142.41770206992692,36.83793270186939,-94.50786625870305,6.848528102825973,2172.2727222355493,752.085782392061,-827.2213070880401,-1297.1074275242847
1.98,20.05716487241393,-2.234180121253077,44.55773360292258,0.7166587336377355,163.12475467254941,43.98965211638151,-102.67187641950058,-4.50037993636987,2068.171268384401,719.4567919324295,-822.0174905149084,-1166.5731420749662
1.99,21.939085873907207,-1.693784081474302,43.605399403821565,0.657916444115954,182.41541442749,50.69730111996576,-110.33070273165889,-14.115836176009338,1946.2850714191204,684.5837281184153,-810.3114764649359,-1032.4530215267591
2.0,23.69448943719458,-0.8700667652016003,42.32530267357514,0.38542749773819673,199.87156855275566,57.04435835041349,-118.18260869997002,-22.355393331790815,1809.5589674419814,648.2209281049803,-792.9516838608591,-896.5043349315489
2.01,26.16930752269811,-0.3045012915938976,41.33178530887635,0.07911769924969077,216.0764403997858,62.6895732813404,-125.67950448276278,-29.445762572816022,1659.4913938080774,611.2472489719468,-768.9434159921675,-760.6678504527765
2.02,28.57632361473769,0.5724759380817404,39.979685924280254,-0.250851078105886,230.7175235565384,68.31638430924102,-133.25924989628416,-35.101315777053095,1498.7540504225635,574.3157217265273,-737.4475537628521,-627.41053834178
2.03,30.707202647575823,1.2176414308825407,38.73662307691965,-0.5638384413298242,243.60256143798944,73.1629328460092,-140.3262015658934,-39.343883297570294,1330.2945808309814,538.2587131122177,-699.1974884617802,-498.180922691242
2.04,33.423867060153405,2.1849224003512058,37.353996224117665,-0.9267819822362574,254.79837895883676,77.61089438235264,-147.15138225159387,-42.6473211337554,1156.5848035951956,503.78240626170475,-653.7430146156689,-374.60787182239926
2.05,35.978820382859055,2.994108604412309,35.79663932661769,-1.2463296415051817,264.2268118817592,81.79401073676422,-153.49659699538205,-44.82015776043075,980.3555361815066,471.8871616794105,-600.913920904021,-257.9834786768526
2.06,38.68023405127101,3.786487571913873,34.33553636461534,-1.8090526980411676,272.0539371749118,85.8535159146162,-159.34589512189123,-45.97079705485469,804.2910402421144,442.4343302932498,-540.9844551183119,-149.87086521228193
2.07,41.29994183222997,4.636380577647414,32.658489214951864,-2.2836072434781656,278.10226053366483,89.53322605327028,-164.87460605178083,-45.78834663043749,630.9322465407765,416.053178717434,-474.169205192316,-50.519018622518885
2.08,44.107450975829416,5.4391420541580064,30.98206858565897,-2.65986096018896,282.61806322136397,92.6298297328316,-169.37628843603994,-45.3906171421906,462.9583667717651,392.2837865392345,-400.89466934704,38.78826663851251
2.09,46.96593087629373,6.577875899710481,29.420719620435985,-3.13771698585712,285.73532611807406,96.12450659909217,-173.743823572133,-43.94170117364358,302.68637090848,371.8452168273733,-321.4243101694903,117.50886644356986
2.1,49.54220982843855,7.499404564099778,27.410854714520738,-3.3565254943500755,287.5156784501618,99.25222178207909,-176.7264785531141,-42.044041301175355,152.33883828930055,354.66372765182274,-237.12715533201904,186.0540984439508
2.11,50.93116203959179,7.963747791803778,26.576172216408853,-3.6732586601945156,287.4663682292782,100.64946476881369,-178.02280026870918,-40.71434328166912,82.75770204613569,347.2502110063615,-192.63473530967576,214.80701787957656
2.12,52.36979699347842,8.229777531022801,25.64881537978083,-4.088573579483434,287.5920381989027,102.2091325738476,-179.02030334929654,-39.78360815187963,13.539287114518384,340.02031907361703,-148.26509636271152,243.69863088389795
2.13,55.19882764121241,9.313424501540702,23.824324863254652,-4.1646712974458255,286.61505609297126,105.39059458448916,-180.34396619796928,-36.688396275248536,-111.88089160060994,328.15185156925025,-55.67784623445021,290.63166398562703
2.14,57.899483499960716,10.30674635183444,22.12615156208602,-4.466275921359666,284.63490655409987,108.24245153702871,-180.48279829448447,-33.66167697403684,-222.36964743541688,318.5897374631753,39.06901025276682,327.93235728634545
2.15,60.95583661234493,11.449891757963101,20.12169739252482,-4.722531482038815,281.6529849260948,111.31694738767244,-179.77125676845012,-30.260811628478375,-317.12777325946365,310.44780721988457,135.2297752292629,355.42482538456665
2.16,63.36807496533505,12.46277956870384,18.27860756703474,-4.985672254465671,278.01871817352037,114.55092878399053,-177.8173836069087,-26.905337279659268,-395.2425865025642,303.5163568707873,231.92376529378043,373.8303487668278
2.17,66.31409390898904,13.461054581655786,16.30042898008991,-5.395889972670739,273.3726860182872,117.2967287981086,-174.92745545792408,-23.409085200839712,-455.9647397334047,297.22443295597117,326.86096909752365,384.12324920281526
2.18,68.83067113048602,14.616348669824571,14.88988535978947,-5.401344871084672,268.7307960216583,120.48683229330271,-170.832862030831,-19.853862463954293,-499.7298790791693,290.7714426573924,419.8713321045338,386.9269838603642
2.19,71.71793385642894,15.97007451459808,12.934347994105398,-5.813892293275794,263.4733337709276,123.64063951813172,-166.11399780965598,-16.222875764419864,-526.5686513058607,283.80648505023873,508.8815093217734,383.41802965657155
2.2,74.39916977390489,17.151245928532127,11.158326723790378,-5.750128292140508,257.9930961810072,126.6281187634232,-159.93263743707058,-12.809235007219304,-537.0480706246075,275.53381887129916,593.1351077303559,374.25139970948067
2.21,77.09729546040855,18.529882202668247,9.60659692717439,-5.775599716304526,252.61237231058809,130.00323679594499,-152.69154827028657,-9.569807792773352,-532.356677460117,265.4952239228188,671.4611548778103,360.9621805231008
2.22,79.53361319382839,19.772514713784698,8.269072032359976,-6.121433889438073,247.0629842367738,133.021842595139,-144.9749343085529,-6.475800324094098,-512.6414399463756,253.33147296039536,742.5761571412909,344.0242668714898
2.23,82.04171832239899,20.90518371794183,6.79649573015684,-5.772732704595553,242.10334118826,135.85219462687184,-136.4198200817032,-3.429675621082026,-480.14732882308874,238.50815746642024,805.532253026746,324.5417457115634
2.24,84.72926390484112,22.723802853806678,5.248062541879259,-6.039008826797189,237.02966717559704,138.5169860639623,-127.15948506107993,-0.8646585499122297,-437.03628671258963,220.08083757903867,859.6540522491125,303.1833443958306
2.25,87.00847141555631,23.929713868836714,4.0243831787237605,-6.056264658558142,232.78015072807767,140.96875853971696,-117.38213223768103,1.7426559632760676,-384.129692999426,198.69246917088807,904.1643973909311,281.0861167115076
2.26,89.3815975468659,25.392610474045803,3.1939102964881196,-5.788163047124047,228.7792071603166,143.4753283735488,-107.05013961626324,4.07084840265969,-323.99947684882466,173.7104417513936,938.2729408319158,258.71408346998714
2.27,91.81110810571185,26.954332599049074,1.9188429909099616,-5.912842033694562,225.6895509265277,145.16939953478126,-96.73704195606905,6.206519207939046,-258.9372186064253,145.17585477566817,961.8810731549082,237.2370217087261
2.28,93.87620296409357,28.43863955282022,1.1762531245429304,-5.685910144848007,222.98770470990377,146.78409249748543,-86.04113475558732,8.32796568084624,-190.98364444891098,113.28967149015187,975.3280182228112,216.52543101848622
2.29,96.11353115600703,29.911072009874562,0.32291971286688315,-5.590847381037542,220.88995670727235,147.88868096075853,-75.20193872784337,10.108263475122786,-122.63781729412551,77.85704436124315,977.6516400166146,197.2408493299663
2.3,98.58643988452705,31.630605947269327,-0.1810138819811055,-5.44509489577599,219.5447297845185,148.73012867610953,-64.75353628287648,11.674263201915116,-56.1060684677418,39.30026241014501,969.7744110710963,179.8387930483477
2.31,100.43986813399525,33.03680733200728,-0.5633805647095245,-5.702657463953911,218.98902519018102,148.7928480712398,-54.601031781945096,13.256438541815434,6.604981940637483,-1.8302105654807461,951.975976138874,164.33844358524087
2.32,101.52068744030612,33.8405320560016,-0.9607024779588788,-5.466430737623658,219.03203636574685,148.4027903774596,-49.76931521192292,14.099214262507193,34.462088406090494,-23.698575250599124,938.416834500436,157.80252053974826
2.33,102.72945755348049,34.63209687211115,-0.9757716373850033,-5.184658519283853,219.2447802825681,148.37383088750798,-44.61871313643677,14.674681570044061,62.76347072367716,-45.507185004459416,924.7996814666998,151.15523618278186
2.34,104.82410288573367,36.03920155221238,-1.1813567945346155,-5.335421406342507,220.0843990777668,147.49219213384978,-35.27495512894588,16.29630264569316,110.87855097118435,-91.05491989157068,888.742276699972,139.9057206905665
2.35,107.43422540302898,37.671569555650855,-1.5849840546901137,-5.054779374665617,221.24182249660097,145.87196104652898,-26.379304288286843,17.45102347460365,149.2383556357599,-137.86606154323195,845.143707277943,130.86176192509592
2.36,109.4131966303259,39.169105707588706,-1.5989573495924057,-4.823593262412637,222.8556155583538,143.86417017066356,-18.460082994775235,18.775685931016245,175.62804045696868,-185.23378035741538,794.6857553137916,123.29781121164565
2.37,111.30190754915142,40.75771985193252,-1.5322254023822703,-4.714359191548332,225.23064352710568,141.35652923276493,-11.132206395753286,20.10949866251333,189.83454062864712,-232.72148072970592,738.3885895623621,117.31137482841882
2.38,113.25697406023481,41.87023532315501,-1.5910694557063707,-4.634302663570979,227.83579300585882,138.34286004119943,-4.3080832291125715,21.594978867446613,190.39858256780266,-279.65469633096,677.4284821369287,112.70827041177601
2.39,115.30502393472771,43.2729488260952,-1.3866936943934363,-4.200674924239473,230.20150607017206,134.488941358599,1.3944470078194724,22.687247103969444,177.00582544118444,-325.317301775731,613.3617312234675,108.77751938561495
2.4,117.69744265882497,44.60378958293719,-1.1696791579451686,-3.8700057478760383,232.64453599158477,130.43741385617201,6.381541947593321,23.941330218845216,149.5425414263982,-369.2523180894859,546.6107782729434,105.5783345577872
2.41,119.7728359276588,45.8431100141291,-1.1098011080432864,-3.7038754740387723,234.85688687697086,125.68046886855197,10.621547195315749,24.848053622357384,107.20120181867281,-410.61266645007953,478.8918638428676,102.26588436594994
2.42,121.9848622016497,46.936962394649015,-0.8077880555081783,-3.475476318019394,236.72115295246445,120.77853371748132,13.91334093517074,26.2163524855309,52.11422109521937,-448.7832161676342,411.0201921441798,98.51021209317078
2.43,124.27691528307162,48.16783797071796,-0.6461487252150455,-3.2883685670143388,238.0329165962156,115.77066115820185,16.37781905358825,27.245681570474147,-15.673482642018126,-483.3913520897715,344.3166997087469,94.0770685470802
2.44,126.59716180790984,49.209387936003196,-0.3853285442386126,-2.9229569913238778,238.52276278068072,110.06749718987703,18.370554920891113,28.427850189046733,-94.78999521215103,-514.6035197091411,279.1356258449321,88.44729984527726
2.45,128.8290697105045,50.315272116473835,-0.17958569039366185,-2.561917978871151,238.1490770532823,104.11992378916726,19.815420182328648,29.644110645808325,-183.4177922654052,-541.2288927569782,216.53481484339633,81.28239721743937
2.46,131.20714871359075,51.142001407437114,-0.003972526753132671,-2.1678627254585487,236.91933846485512,98.37092898260174,20.219341189255854,30.236037278715443,-280.0016652254149,-563.3119013035661,157.53763242733382,72.20221094930177
2.47,133.5874058749948,52.16132537082867,0.25272300163029643,-2.117163334863465,234.60021001080267,92.26434185774237,20.339506471387665,31.05213473631876,-382.1653454266487,-580.4836896897361,102.20862332837095,61.25475344674967
2.48,135.9839145200467,52.83571801784416,0.3068244511403312,-1.6794449598088095,231.08414414962826,86.1531905065,20.07875195969493,31.562047385188674,-487.42870079161514,-592.9633158862273,51.31591517589409,47.89964311676989
2.49,138.31132953468298,53.71331523811392,0.2963648600357781,-1.2088216770234776,225.950291563238,79.8826628042977,19.352239280989444,32.28894708667793,-593.6541292983879,-600.5439709586279,4.886136925579744,32.493416019177914
2.5,140.60534685609966,54.42991570016968,0.49399319381040935,-1.2727597727473174,219.99812451104015,73.81830912945742,18.269683683817117,32.44373934218636,-698.1251507477772,-602.9717861962794,-36.51724941957054,14.188065853952832
2.51,142.93319587376732,55.03093161851234,0.3755464838721161,-0.7123241872582354,212.5634467213472,67.87031094014496,17.108224012288144,32.411814797562776,-798.0439743392573,-600.9922521275721,-73.43527129167212,-6.27638149714208
2.52,145.20161154722052,55.52039955911548,0.6905521279745304,-0.38897399303587715,203.730558086588,62.02741983482747,15.675341751542813,32.24347437549525,-891.3548686281769,-594.1151456513159,-105.52763764676271,-29.164971779830395
2.53,146.34164627684524,55.807295515451244,0.6239729813637281,-0.17274855288674534,198.82143411134808,59.07068779370005,15.126169349652168,31.925587085279457,-933.5197282341663,-588.8605323411656,-119.24501079304079,-41.73263386514956
2.54,147.48893695694792,56.13304593790568,0.581661464157851,-0.14262113847391186,193.94971512269692,56.449991581031675,14.256825221853907,31.690233557505113,-975.5045664414286,-583.2172380553554,-133.2705270542555,-54.08221165363337
2.55,149.35632055619445,56.56124349235015,0.760545797812401,0.18828181026398783,182.85804403385293,51.03856845628075,12.605251539623755,30.852516316532498,-1048.1831336877508,-568.0189335199575,-156.7263041664624,-81.33981196669939
2.56,151.4258218909549,56.98625189123888,0.8280133311295408,0.40812295263262066,171.13391079260816,45.72625718369855,11.108959804957804,29.897528328114316,-1107.6739442492276,-549.4973744407073,-175.83703695907886,-109.69710253433759
2.57,153.58685391194186,57.383579477236175,0.6542360706785949,0.7859656079853621,158.26369486068364,40.7848553150023,9.514090983013878,28.43104607038996,-1152.266871209577,-527.3340352174863,-191.59403735924326,-139.4441956865859
2.58,154.9144128333293,57.65434958313159,0.687447729118198,1.0290507845384829,144.91001828251785,36.03869608153851,8.009710237069227,26.754340225477666,-1180.8503619851992,-502.48247730355325,-204.11629087532106,-170.42918688522758
2.59,156.53745448867542,58.365373640656195,0.8969088773327184,1.5368375708086772,131.0831520768562,31.711403970920585,6.740539256664643,24.769231132145805,-1192.1487274384328,-474.7072286765545,-213.85583264208557,-201.72521448344597
2.6,157.77592450145386,58.34527733799399,0.7631855602347138,1.8808191527024667,117.26114492242543,27.626188695132125,5.234021546999216,22.30895475828667,-1185.988204545489,-444.8797228228353,-220.66200209705625,-232.68190297510804
2.61,159.1738844605028,58.746785672084506,0.8055914632109215,1.6127583679784252,103.238877204033,23.824484920926572,3.873003508751619,19.463344005384315,-1162.648343476336,-413.48158924904305,-225.45270311158185,-263.60195808561
2.62,159.94030365756052,58.86080305103699,0.8327676974418522,1.9405381129596933,89.77788208977313,20.397150899861064,2.6028813027467756,16.431557274973716,-1122.2045372692867,-380.54735992817444,-228.13690024094825,-293.03926665775924
2.63,160.7885990039818,59.132630320457075,0.8000325058093064,2.079157652721945,77.18646666858632,16.90842312060262,1.299501835044276,13.363543397841477,-1065.868227170969,-346.345324990296,-228.99270352909315,-321.5180136333235
2.64,161.55571041107103,59.32018321690095,0.9705739674075434,2.095039507963352,64.78257584036136,14.397101396047978,0.019330631217650742,9.607318411541677,-994.775229015388,-311.659323469468,-228.2080466965675,-347.76891132140076
2.65,161.77860440309684,59.42382993090769,0.7192912177239359,2.2787931490880466,53.86322873840627,11.761471869734766,-1.4004288004488004,5.873567147812236,-910.8447782197823,-276.7234031920928,-225.41326074621588,-371.68106378527955
2.66,162.14246866816123,59.65797907193907,0.635732624769107,2.365067446221531,43.70210731015052,9.573649002551855,-2.791430765758762,1.868954716482448,-815.6391666241763,-241.42805211886795,-221.24253483491643,-392.8913004105683
2.67,162.32517631744713,59.69245459151667,0.6780767126386124,2.2990843048480043,35.06205394456027,7.554665815108085,-3.9526491654779,-2.3046301908316766,-712.1344137999298,-206.84039495899717,-215.00351770056133,-410.5455164388124
2.68,162.366346720448,59.860119995986054,0.8436763082671361,2.1365603447689567,28.162455367551285,5.664814813170681,-5.381447300040983,-6.739753742706233,-602.8282814026728,-172.41826451518764,-206.84523139512353,-424.80300918189397
2.69,162.14639997195795,59.705241521331345,0.6830182615315039,2.104025854337546,22.625015925665185,4.206325725857797,-6.972321769270483,-11.146333814193627,-489.91230781653957,-138.98840014755223,-196.56361549600558,-435.2872604937673
2.7,162.02276471345496,59.99639356330644,0.7388677180848675,1.9715754709741447,18.524749461736434,3.1429506667764104,-8.375091361848765,-15.803149461352941,-377.03934949471494,-106.48888440575612,-183.80254963719216,-441.7672015925103
2.71,161.9655447964944,60.0849734869072,0.7913671394242294,1.6767449488637522,16.11227469255247,2.1218665753046673,-10.080359614514204,-20.205504026704233,-266.66753409657684,-75.03066707861831,-168.49763260340796,-443.86178154166265
2.72,161.85293371425277,59.91557612681202,0.8107873171774161,1.4206317068778738,15.354700264880416,1.3488963741370819,-11.790351504449236,-24.902533858638016,-161.2715110045355,-45.039826231525964,-150.3065938662121,-441.65641293831874
2.73,161.54422070200195,60.10674848965818,0.7627657073021972,1.2307097602873696,15.958259554368366,0.9260826367048699,-13.292008708112506,-29.009518607375202,-63.77232105086745,-16.500847708592154,-129.14796480827385,-435.1762725433516
2.74,161.54190332471646,60.01323237583464,0.818509833110099,0.9594159037261846,16.85471136953128,0.7771536225667943,-13.987039970658463,-31.39318179203456,-20.439102556370525,-3.1153371152890372,-116.80804830700474,-429.6229549750221
2.75,161.55766565195037,59.9525498744193,0.5180369241038857,0.7209918160436464,17.905122672436406,0.7004714602220395,-14.871630124270665,-33.56775752846845,22.973084400188604,10.324278637735967,-104.40846496318652,-424.01175343416094
2.76,161.52638663488977,60.11464087690426,0.4586022748129347,0.48891166370289063,20.78544336314351,0.9900727614809376,-16.236104405278336,-37.49836521688912,97.7257421348738,35.29508484414628,-76.4826512566819,-409.19249516552895
2.77,161.51863655350704,59.91314782054852,0.4320319511948563,0.0844046959041729,24.825729983606596,1.2171786763338264,-17.548082523902675,-41.56216511971074,158.06847276539094,58.46986682145492,-45.48697884126951,-389.9240838544434
2.78,161.38574869459,60.03315759254921,0.25693600105120695,-0.6501469631953061,29.397722937598285,1.4394290747194651,-18.498113280503915,-45.15474095917186,203.0513895006328,79.78520494513621,-10.57550779003488,-366.86732926507796
2.79,161.82288942282085,60.101254180216436,0.46630047252273593,-0.994538446362155,34.50740130738588,2.2061596577345726,-19.520990884096776,-48.63628146504197,231.41042728464123,98.70250766299972,27.067885145098362,-340.30114123449187
2.8,162.07445272614862,60.106261822441375,0.0804095544876068,-1.482100702079758,39.65585425967391,3.4100582869571854,-19.71419214689498,-51.70114074922506,242.9807293607777,115.35668462409522,67.89883457638582,-310.6878425066572
2.81,162.58988436789494,60.13294879552437,-0.12255666036951274,-2.053998344412327,44.68670852397149,4.32309222056106,-19.899468013457284,-54.64966238319508,237.62381015166707,129.6156977611499,111.34190348975434,-277.89707758697585
2.82,163.2458882566343,60.16984274873415,-0.24622507619646153,-2.6366490447178856,49.620810469091666,5.683747277346067,-19.15644995431999,-56.91174507184445,215.88966689528877,141.73619234075028,156.80823039170693,-243.1006540538609
2.83,164.0623350727914,60.0766181076322,-0.5285098971697918,-3.2101106958200085,53.8093368320843,7.098605097649457,-17.97018280559635,-58.85615530795657,178.75109220485479,151.25027807171796,203.6862293355241,-206.01882449534324
2.84,164.75810495811135,60.18947436422456,-0.7093099484036306,-4.006812430401365,56.87133332368676,8.521618005878072,-16.686860351899362,-60.53712217543661,127.48615662846115,158.3846105141768,251.19078898225303,-167.68082582206682
2.85,165.67394083254553,60.21901794155414,-0.8801957672196397,-4.390667998752895,59.09579784595215,10.268042462706681,-14.599857392194638,-61.705801954926955,63.905929801803765,162.85703063467227,298.92750114653114,-128.2845256085125
2.86,166.6823766738376,60.226626598290544,-1.081905574820103,-5.193244688708397,59.88147005333546,11.781917852477573,-11.607565328400169,-62.4864702578824,-9.816726101356851,164.95269044338463,345.57682140809897,-88.23612783024711
2.87,167.41382704436953,60.392150307650624,-1.129690989101208,-5.634831838693766,59.84243327388132,13.941445110940673,-7.981885857830629,-62.9633026098156,-91.33688841320247,164.2380631533419,391.04432058266195,-48.36945619755671
2.88,168.4399895203529,60.45182281105429,-1.309274741926249,-6.32045047556546,57.94998534335994,15.397196622794954,-3.804783612659691,-63.13302232110713,-178.10994517483792,161.27363852912904,433.7633714098003,-9.145563081886586
2.89,169.52217376600066,60.709292810833794,-1.4243095719197678,-6.865464869033722,54.61118433309694,17.42339759787024,0.7425057676795819,-62.71069599656148,-267.7946835535326,155.84187723366318,472.9632208076667,29.601505399305506
2.9,170.44315088060756,60.78158073060156,-1.460455818739778,-7.3587665820978545,49.77290140031762,19.16748241379245,6.351033652646746,-61.85546616772996,-357.2789051695843,148.0898474648202,507.74401385031524,66.9126622719019
2.91,171.11730678760534,61.199486145497055,-1.361866620616687,-8.133086402504146,43.64346453634157,20.854619029249637,12.022932155110002,-60.789145049632666,-444.14004568826317,138.23787490670242,537.7120848740253,102.21172801436462
2.92,171.63202638945464,61.23269341188891,-1.3815698165570933,-8.899308621575951,36.52228721238282,22.42537352288313,18.368307604326787,-59.482778290185195,-525.4668768701317,126.45526757964717,561.4990918305873,135.0882937924737
2.93,172.2188326369595,61.72474053079795,-1.4469600768490376,-9.30436499182687,28.003309817292564,23.879970441530038,25.132624962719547,-58.00930069025674,-599.345371192228,112.86218785808157,578.9301705284842,165.9572868306231
2.94,172.57418812423552,61.88963906991499,-1.2988508319525707,-9.87757403942002,18.398799284196823,25.20532745137974,32.265062351175786,-55.84152991398459,-663.4108924320108,98.01617374843748,589.5095554929945,193.74968388542933
2.95,172.70551466510827,61.82810475118304,-0.9936913475709339,-10.19934385754203,13.35898278173419,25.532222782289995,35.81728259426801,-54.84674073042492,-689.6063347349176,89.67055019000118,591.2303579082247,206.220565048363
2.96,172.86555289182272,62.101663542266216,-0.8054272162120559,-10.489530429110058,8.446383214046056,26.08768697637223,39.362279001434295,-53.609186123960804,-715.9772346082826,81.51022341073863,592.5820817252257,218.76034260057523
2.97,172.83324043371897,62.36006853923258,-0.42291295725401223,-11.023689747712623,-2.160379593900161,27.013468034104815,46.28693515825519,-51.32996957765332,-755.4487141474488,64.15207426951888,588.6137338069112,240.33157894121805
2.98,172.81190112321585,62.722113270766556,-0.13041611806651257,-11.341492455294084,-12.870120345234117,27.623651331397202,53.481446500759176,-48.643941381406165,-781.0303486796599,45.902345336749825,576.5452417556018,258.7559000481373
2.99,172.3650013937905,63.136993397065105,0.41449504519798885,-11.9312590029468,-23.57903892302511,28.197781174547483,60.33551219443705,-45.935954939418515,-791.4322587269747,27.244945786802948,557.1634019743981,273.7902145022605
3.0,171.83231422769023,63.42223511008088,1.0529804655212147,-12.484307300400875,-34.292573475285195,28.345839975113734,66.82933497822948,-43.12323785392502,-786.9281565753821,8.489229841689546,530.3129057802414,285.42153973904914
3.01,171.15224506496742,63.71284583400673,1.8634172081551594,-12.605763684656472,-43.787082966878394,28.019508650523594,72.9819705165209,-40.0196752739708,-767.7419190149648,-10.287987921180452,496.9112047302403,293.55653046965193
3.02,170.33396424065754,63.885080348652764,2.8791777049773595,-13.085562022493693,-53.196156941505585,27.84004624398361,78.23764068938578,-37.229022323374615,-733.8822195281184,-28.367670223729203,457.231588253305,298.55025071218
3.03,169.18249365520919,64.28264002002675,3.627547620316335,-13.275859339572312,-61.24132322660313,27.374806248696807,83.02722199415288,-34.09322165573598,-686.4629740999255,-45.99532855273977,411.991507654067,300.3704661636996
3.04,168.00721973123626,64.66658665878502,4.654374119054619,-13.674531712942024,-68.19806464099466,26.445138250531162,87.18615915329077,-31.09124418055269,-626.6644440803428,-62.82745000380258,361.9785046546444,299.17776370766245
3.05,166.9284706434363,64.93079046179425,5.764703455568329,-14.083493640310685,-73.58492253501666,25.412446524505295,90.30067390624323,-28.0652130583035,-556.0940349285926,-78.19116357736513,307.83819107544497,295.19222070799907
3.06,165.91890331639715,65.05315554238986,6.823335970956786,-14.247409328876294,-77.8712117741284,24.340743458488785,92.75918286901788,-25.105288448927958,-475.96427757364347,-92.42540884026448,250.824211724744,288.6645072624664
3.07,164.57387694883676,65.41335495649271,7.969237435217903,-14.456153713463971,-80.73462847090923,22.728626444589107,94.14152334389985,-22.390726422198785,-388.73677555328607,-104.79030685411459,191.96102663426763,279.8066528120033
3.08,163.63671730782445,65.48712077726792,9.128462632112315,-14.897398344781932,-81.86298264936842,21.496803046547758,94.88898163487839,-19.6956168971725,-296.02323841558973,-116.0363686405674,131.8104370052789,269.25680956875124
3.09,162.4656732626264,65.84476056800274,10.333414554089721,-14.77329063737258,-81.52887179295834,19.725644778491674,94.46038752875506,-16.993255774094646,-199.41972658641222,-125.40084034709606,71.5753665775644,256.952933343847
3.1,161.43803553798273,65.95769613275407,11.426119788039427,-15.152575899608369,-79.85582999535802,18.057127722082676,93.5354514353026,-14.506604491328453,-101.03675114442196,-133.1244247894465,12.111117224182717,243.03679012426312
3.11,160.35144422648008,66.02204170558237,12.407399818486107,-15.328054011000791,-76.98206698857652,16.36185627445924,91.68499750701831,-12.189025065857724,-3.080117506845116,-139.11340391561797,-45.62978317383868,228.49754908356377
3.12,159.66644506409602,66.341895678155,13.643636187005031,-15.277741554437146,-72.78270655978277,14.408654962304642,89.05993830768632,-10.092731968037526,93.27837988219363,-143.8602133932768,-101.19340931873752,213.13121665686666
3.13,159.03536780423585,66.43809207157054,14.675923980150465,-15.358282054758735,-67.62549393994205,12.696196803707027,86.02160176921652,-8.14059498577831,186.1656641094507,-146.9554529702283,-153.71667864684028,197.54570652193976
3.14,158.32600002950042,66.39674519948223,15.49332615732213,-15.37887894251586,-61.743759862773814,10.910135723569603,82.48280400848907,-6.08166437634509,274.3857217983903,-148.3811758865087,-202.88579798438863,181.9503517413635
3.15,157.88162072055624,66.23509395507593,16.158984786653562,-15.38087123903294,-55.38322161167363,9.287957942709962,78.44923264440082,-4.574368304949039,357.103005951837,-148.95968370760403,-248.15466240720315,166.26219644839466
3.16,157.8875955552768,66.52257670439688,16.450635970504074,-15.361224131800327,-51.92678951825674,8.616999435307246,76.41024454676915,-3.6142034170481145,395.44243113314303,-148.59921188125847,-268.6351912040798,158.62262689262465
3.17,157.65518711343938,66.52866185463292,16.975178859157502,-15.334453379214079,-48.270175583221686,7.793515991690546,74.18655397647017,-2.841163975362838,433.1645094597127,-148.38757574905506,-289.0186127829056,151.04267120968169
3.18,157.49720386860642,66.52669978769805,17.648568253907953,-15.375901236706099,-40.939117979012345,6.2123604791824,69.89402760981778,-1.6707124065132772,502.5271772987008,-146.43777387121048,-325.7762343246146,136.81522150670946
3.19,157.44681483218585,66.46748903317933,18.362491979637305,-15.62070663803824,-33.99947364950546,4.654010379598144,65.38014138471173,-0.46044609740627856,564.0878278385345,-144.31517747099514,-358.36757727671346,123.04820622958034
3.2,157.65785645734317,66.56006779158318,19.03883738962212,-15.34614467472444,-26.89336160185795,3.4840406670448187,60.95241647628358,0.5769693720144111,618.7110246166189,-141.86906452356658,-386.27588107398867,110.67542633533951
3.21,157.68939137304233,66.62630683934499,19.13653333737452,-15.55754695613778,-19.993134982771263,2.2597312194778434,57.122801988425195,1.6826671508140192,665.3769728279196,-138.79571507208342,-410.5884610885455,99.02666354358198
3.22,158.0295759181235,66.79966882956197,19.593571207240963,-15.266722492108267,-13.593626098228217,1.1520124519562962,52.971704714429926,2.3565482610696087,705.1787944725395,-135.3366952260117,-430.61939266645555,88.57042030716545
3.23,158.08177880494455,66.69115795583713,19.759770480823278,-15.465592078101334,-7.973309794837817,0.35277051967357226,49.36362583282898,2.979464979140062,738.3867934313329,-132.08124516648195,-447.4197322510164,79.6418528562588
