0.02,-6.601473740526954,83.29021109264778,179.42675747240114,0.0199446907731604,0.0689924300048642,-0.0481424096443068,-86.00023314030959,85.51332834636777,0.3336741789920979,0.1210462804552724,-0.0525611585949816,-0.0215047741850082,-169.05457580405434,5.139368757717265,3.602118108658526,0.0339991718309721,-0.039998344703875,0.0560818940820626,-119.80817890029375,15.52851657353287,11.35244065987335,-0.03507847601243,-0.2109683476460764,0.0042124832909964
0.03,-6.738655140994152,83.32062171936653,179.18935893628182,0.0538092770105765,0.1039864023896627,0.046159855104537,-85.8825545354928,85.43767750357402,0.5223827882219437,-0.2201266494676958,-0.1328887299703077,-0.0423949485055895,-169.09875830593026,5.162160407866056,3.5655302199435424,-0.0535883003078963,0.062896543109848,0.0670542181941879,-119.52779993786848,15.702974358668632,11.269255976284972,-0.0151800306507047,-0.0110986182281808,-0.0764269134533862
0.04,-6.653688439739742,83.26352193849384,179.20732316851286,-0.0580533510895552,-0.0531961993395471,-0.2059204748716526,-86.05681585310333,85.55779072155549,0.5734793269585665,-0.0367743813638364,-0.0864895014207031,0.0468614908647346,-168.99685800919855,5.221006772140283,3.730167067673829,0.0205584122950745,0.0655235323100587,-0.0007322211804476,-119.4712468557508,15.748671500078444,11.495492624619644,0.010181995889435,0.075552461201137,0.1559208288241106
0.05,-6.493326309856622,83.28821118064208,179.3884538087744,0.0075513951928296,0.0870462656596055,-0.0932523281808443,-86.14721498173104,85.55024510673937,0.4183332095474812,0.1024475691637674,0.0387517451046219,-0.0879170524034371,-168.96361721915042,5.2381850257410925,3.6115227633095377,-0.0099569565449697,-0.0904188968614954,0.155859354607865,-119.73136600405408,15.730217919742373,11.437236139680572,0.173623289809163,-0.0328623372623708,0.1244013025309019
0.06,-6.83403407960584,83.4102814375171,179.33217181699266,-0.0198841433756357,0.1614368980887423,0.1077033459931618,-86.02676011167226,85.43925377388867,0.6193017994204545,0.1635575010031841,-0.0879116245439827,0.0719852313208057,-169.09167393599787,5.210160432746595,3.5233377953603644,0.0051518070812549,-0.0057669632215418,0.0334525375230312,-119.72951535603852,15.583774375648732,11.573838378161762,0.1471285759834391,0.1084309903754641,-0.0673588325384928
0.07,-6.619384686416395,83.31698372527661,179.48554571976254,-0.0763766144946723,0.0169085754496451,0.1025978613960278,-85.76169367965608,85.70118422921543,0.4577706946568937,0.2391341424154188,-0.0472326583731601,-0.0612469409866765,-169.13611651787608,5.191560734664129,3.724693330583525,0.0072788965320055,0.0108502443817604,-0.0684075796909085,-119.60409997616505,15.790186253133603,11.49698401946636,0.0850672831935411,-0.0590668091629224,-0.0016448731300792
0.08,-6.754628878626835,83.14092311657551,179.3143565110663,-0.0721070057973512,0.0355593690067254,-0.1277662580500836,-85.88375416970518,85.49486234463203,0.516160394862776,-0.0690537869037834,-0.043539356834131,0.0796754629777444,-168.98720241135553,5.14913588032437,3.473661526011633,0.0692889282539922,-0.1899928732603564,-0.0887426561228302,-119.7544728186603,15.637349603426308,11.414034724669497,0.2301015712402486,0.1154384160542423,0.0598385746326874
0.09,-6.672002389088887,83.44426622159774,179.53965538832344,0.0893211340468523,-0.0270710708428831,0.0430079475719663,-85.8928925194864,85.33997960854478,0.4440340235611593,-0.0148792163205713,0.1120133749474247,-0.0015463778584416,-169.00927392971982,5.268392409069017,3.639890791872641,0.1882082323817739,0.0655661937562295,0.1201401336515692,-119.73401086347737,15.431749211499133,11.523563852855384,-0.169288531651192,-0.0068235533541516,0.0301110927605832
0.1,-6.72760931610369,83.32468713714691,179.31464999348972,0.1294173798454403,-0.0480683439195244,-0.0598234289937737,-85.90450487289664,85.60186583049473,0.4836148155047903,0.0170393287249729,-0.1397744003514223,-0.185409880741743,-169.11806363374546,5.05102485470464,3.488690285368817,0.0049126458488314,-0.1256390549166733,-0.0522957759562631,-119.64256512671864,15.438564429296571,11.269514570083768,-0.1628540041244589,0.1049496811476046,0.0780078950927034
0.11,-6.608452329348886,83.30448192362431,179.33163790316434,0.0185713940772347,-0.1404059738175337,0.1573879603038893,-86.06411128883306,85.49817408840732,0.5532329229539965,0.0235282135726649,-0.1061231912485417,-0.0958269325820614,-169.36209258323322,5.1604298670671085,3.573812569950644,-0.1219591631047803,-0.1792869447899421,0.0647283351447215,-119.67885601351227,15.439554588252186,11.2510702424435,-0.0098375093054946,0.0605135560916297,0.0232914441903472
0.12,-6.618361353755443,83.22246726077712,179.46368156727115,0.0644844353216614,-0.1109846009703121,-0.1171754562656629,-85.98367547281445,85.6781676251971,0.5008732920508919,-0.0303640854785078,0.0617906404627033,0.0064299854758819,-169.1121954921818,5.170897789506782,3.835634444006366,-0.1729870043730306,0.0511948490422656,0.0541679547704994,-119.50084956113427,15.620630876792925,11.470205957499129,-0.0790894405184098,-0.0888248818535672,0.0919720805524352
0.13,-6.444872527740001,83.26758672433238,179.3570320380131,-0.0326707768970924,0.0295270106764288,0.063073904937766,-85.86484796476391,85.58640833719116,0.6253324494236442,-0.1147808189650535,0.2499303914441605,-0.024914371641889,-169.1660619246518,5.277871372718712,3.7267587217086406,0.2098691605543291,-0.0800451247941555,0.0898500279350484,-119.55966281596024,15.611767559315362,11.357131118942585,-0.117090436947535,0.065752955629963,0.0783747504845448
0.14,-6.7767053611744,83.26606085656132,179.39041443518835,0.0831870113009626,-0.0685951489398379,0.0221450991429311,-86.06626226578004,85.29707524397891,0.5080576544085694,0.10579350790853,-0.1502341114484205,-0.0058734846491813,-168.9558913459296,5.067487334436985,3.619704059986173,0.1633899614368618,0.0128563032799469,0.0681570161366974,-119.76271685743316,15.698801850520464,11.511649263185916,-0.1083242032079718,0.2360294801433782,0.1576608062497241
0.15,-6.575065133264955,83.29292328151926,179.52005918657034,-0.0341516706883519,0.0687628951033562,0.204088443037256,-86.03169628316834,85.91042037960165,0.4520263448673895,-0.0201606918078671,-0.0323940946111398,0.0743586893579402,-169.20248666253872,5.264186053645234,3.7420856249953216,0.0076819544764085,-0.0918944294128007,-0.0233860785899171,-119.60009965594097,15.772677856520543,11.55385655899402,0.0380815837289295,0.0431423698936033,0.2078406919131241
0.16,-6.842639151143482,83.38620909853232,179.45209581793594,0.0594779914999675,0.0041770644068788,0.0119720112109425,-86.07019431176394,85.59955229340073,0.509548250637715,2.2707211154866444e-05,0.0180202739511264,0.0138261906455233,-169.09612847550412,5.391747121691551,3.6477557001435295,0.168076074446904,-0.0126276710293622,-0.0736996324289073,-119.54353860696467,15.740044349351905,11.243960670894069,0.0026826220573521,0.0271632163924197,0.0489371147850062
0.17,-6.780964318176568,83.2469691534828,179.27653506814954,0.1956433514583959,0.1688342802863058,0.0144485700229637,-85.96470765541133,85.69338324217499,0.3877377620628106,0.1209690836266479,0.059197921627396,-0.132848726729677,-168.99840168410316,5.24417748760402,3.6898078785929584,-0.0055250022684972,-0.0149954871108069,0.1051620027647719,-119.65230791412574,15.73072646196298,11.546950233796329,0.0585046428319699,0.1013342468460391,0.1465894688176118
0.18,-6.690513538420504,83.2892570826846,179.36285485076195,0.0577407705050508,-0.1292570863269942,0.0435331644704216,-86.01297238615886,85.74063048050968,0.4162937675907586,-0.0324460252642805,-0.0139080048279897,-0.152229929468984,-169.2326983291623,5.313070788186434,3.6999185477259178,0.0285479339891645,-0.1034046151598985,0.0916313718111828,-119.55344408513764,15.822083352951356,11.330372771593858,0.0074606212106803,0.071248405687358,-0.212879701719456
0.19,-6.533819398779697,83.4244775129128,179.4750908118208,0.1963396893358698,0.1794631363788389,0.1198724013314013,-86.08056086756386,85.76160917715755,0.4868766679924889,0.0505231955753669,0.0414391995562868,-0.1020596328344063,-169.09292174760188,5.152293525814165,3.533584675387872,0.0046506964731586,0.0466983873142415,-0.0499001381218789,-119.58696625336208,15.775975281830124,11.143278774380716,-0.0643392615578707,-0.0254040688422046,0.0997554274473583
0.2,-6.726460510023627,83.35120639105735,179.37033668772506,-0.0435113507365287,0.0400139949422403,0.1236193270531166,-86.02569783712015,85.75772686178838,0.5359230488302655,0.0744822912680174,0.0631484625166857,-0.0048780969852987,-169.103371870599,5.201278996896075,3.784199676009505,-0.1078123113772537,0.1493502511180137,0.0144696899679538,-119.60684354009706,15.796919668527693,11.366598897910803,0.1849337478050923,-0.104886070793317,0.0354691522039902
0.21,-6.487733363697342,83.43630112985089,179.3911802563056,0.0303865029052234,-0.0430971056559242,0.1224180367104391,-85.99076704718621,85.77399121441148,0.6080783472122135,-0.1124127583994095,0.0448274741564226,0.1130273089894939,-169.05562379149262,5.248015480389351,3.60933731354906,-0.0607585558283219,-0.0043588567310206,0.0363372017273142,-119.49283221817367,15.635452208997062,11.130967393047593,0.0210347957784805,0.0670936737040461,-0.1038885807221656
0.22,-6.450556571715488,83.23828987616531,179.3535274118683,-0.0116940530044025,0.1573321597735798,-0.0237407699108191,-86.15083184554214,85.84976408518018,0.4574387029978358,0.0692682193390191,-0.1464895678789028,0.0791176550805539,-169.1184516951605,5.131485091119017,3.636767307259356,-0.0257300122041556,-0.0225399642470867,-0.0293260228679568,-119.818679688655,15.61034897786121,11.22888088571874,0.142478797552393,-0.0007425156398133,0.2101593023782182
0.23,-6.519658197899003,83.42225279912032,179.1688397266197,-0.0576780448956937,0.0089598972083635,0.1658596242116048,-86.14611006250878,85.93909953737123,0.4799172955789526,-0.0075165127160856,-0.0705412550804612,-0.2701516293924152,-168.87690695219467,5.32837487627051,3.503329355833217,-0.0378527758249455,0.0444016947651687,0.04426422581501,-119.64276202544872,15.634333431400368,11.329485510320753,-0.090414764947818,-0.096449153659373,-0.1259202436847047
0.24,-6.588561735637298,83.47163786178079,179.38352087316568,-0.0331200568046858,0.1299196736502668,0.0818876341109571,-86.23603904955576,86.0614444131409,0.5373032504942551,-0.085267032743875,0.0378555291366246,-0.1588406446544528,-169.10433369451883,5.315831190710518,3.591862363780653,0.0186266840523789,-0.0346798647186309,-0.1475424755134094,-119.66746439029984,15.70423293608072,11.316583145741472,0.1862733473399336,-0.2161283321129902,-0.0434184644314221
0.25,-6.734368434334608,83.5527178086438,179.4071512930467,-0.0085514114838352,0.0784213657113854,-0.0726487953605933,-86.32429970813523,86.00618970524722,0.4245774424751888,0.0643253938255516,0.1139297608394645,-0.0489701055103264,-168.9764614274674,5.189213747585281,3.6716186305515226,0.1222191958841526,-0.0769581293619838,-0.0537938075959275,-119.4762943853752,15.667159298022383,11.334108061726043,0.0898962853518779,-0.0963314686961721,-0.0629207463866452
0.26,-6.673512552229695,83.43787028866942,179.51294540071487,0.0267602996361871,0.0827294421232351,-0.069578834064522,-86.1490903568656,85.9914959200944,0.6000850694162562,0.0657457372509268,0.094189235518621,0.044843895132398,-168.89341567519193,5.302971965918876,3.568560395249833,-0.0529469296729252,0.1841716506846223,0.1263329729547412,-119.62816207630068,15.446025967371634,11.246400694808292,0.0611474909529782,-0.085225764370299,0.0181600466037783
0.27,-6.848792484889402,83.24067195553302,179.29767202979707,0.0250088470522164,-0.0634566393621904,-0.0747805528011205,-86.40368281198575,86.08303255252888,0.4222001198557027,-0.0116402350600007,-0.0258307572916863,0.1021344387162715,-169.10462663764946,5.201641338725361,3.674490168557593,-0.0091108032930487,-0.1037658932135679,-0.043556228943975,-119.39317404595874,15.641470366051584,11.114632965565477,0.1568998918878411,0.0146743794850218,0.1940841994648361
0.28,-6.894737634466774,83.41331885433003,179.3875881424635,-0.0362683030732597,0.0582149448828773,-0.0007425993561019,-86.39521550325766,85.93181040295694,0.6090895256062304,-0.0503739286169791,-0.1310369620059527,0.0404285485203932,-168.98468152597803,5.24009172703143,3.304211511912246,-0.1071519416118548,0.0371073190634377,0.0268532493406686,-119.52744444246076,15.695759846868768,11.290025529185488,-0.128809689963485,0.0736493534081501,0.0146711553064879
0.29,-6.587209005991898,83.40684530674555,179.49187808034566,-0.159596267186402,-0.1391010192979809,0.1191522813702399,-86.26035300188042,86.15696574826876,0.535282898029327,-0.0516803232995169,-0.1181890484197203,-0.0181429795170538,-168.86409663619835,5.312956681592239,3.4577441347778994,-0.0298391796086711,-0.0023469437096843,0.0800967541157371,-119.48814280560694,15.692175127914034,11.246703273855516,0.0597046231465768,-0.0525608091243719,0.0543053537476787
0.3,-6.781617993270964,83.35791685392479,179.6187756093944,0.1119569318803446,0.1059655506978818,0.0380768448217062,-86.22384801658418,85.98651276915695,0.6342838353420704,-0.0318265803553777,-0.1334441158967011,-0.1070476034366236,-168.92330723785773,5.334837648974586,3.5337617130073338,-0.1290451073888572,0.0074738166690817,0.0243890890255336,-119.24864874970837,15.47788853060586,11.28025964598519,0.1389529566176498,0.1064729267907048,-0.249645340140963
0.31,-6.627006655002758,83.29304650046565,179.4793914719345,0.0658335061436373,0.0881869658355728,-0.0845412775388491,-86.45372481910306,86.19033275787072,0.6413223180987241,0.089319263428005,-0.1557504960864756,0.0643428551333493,-168.89353668440273,5.0760808156495445,3.5650695519966,0.0253440818308672,-0.1442804034430035,0.1955990507013622,-119.36246912790811,15.737008921870837,11.184500059818268,0.0026426682687768,-0.0177400930966802,0.0165013768600032
0.32,-7.045760144750006,83.26005779798112,179.3795108010925,-0.159388778998982,0.0532810423915723,0.0918223707363766,-86.28473774760991,85.94307298360279,0.3825709348746093,0.0932866857729125,0.0674938343451378,-0.0254029461215013,-169.12311027693818,5.31309910499339,3.597666403742362,0.2191198216750688,0.0766706550387576,0.2833047842080902,-119.57778353727306,15.64346238316225,11.181967437557253,-0.0158099593451485,0.038395966845843,0.0733963571026801
0.33,-6.673212958129876,83.30881453720532,179.32069722554698,0.0192382968754299,0.1463703769540595,-0.1227278079341196,-86.62423539984019,86.17453313390077,0.5608369051569551,-0.1781032300753187,0.2375908300208853,-0.0640451140756703,-169.07322627069038,5.236283192228475,3.349413284672164,0.1124295834843362,0.0501396688129233,-0.0419802378150117,-119.42666758197473,15.684801192479489,11.042092703338325,0.10278200341451,0.0702557128536316,0.0251554025113377
0.34,-6.864071042673952,83.50627066831856,179.33468313379987,-0.0550074899225514,0.0930461855973831,-0.0709888900145764,-86.52470716572275,86.24412083413243,0.6241395768084611,0.0322420171204478,-0.0337470353300472,-0.1691477540294793,-168.79289979351373,5.117699784362019,3.4530004987000664,-0.0609486731370602,-0.1103099643264495,-0.0172527191439872,-119.49744292298134,15.709921498942553,11.082834809468864,0.0800756467525372,0.1356482805656567,-0.128020940267793
0.35,-7.038787968007388,83.55479246231732,179.399279966348,0.2145216446087161,-0.1515968081800262,0.0754223443761125,-86.24413427349342,86.27830939201147,0.4864099900822881,-0.1540924297988305,0.03263629271301,-0.0120021435464094,-169.11012952398335,4.979900674351736,3.417088270995021,0.0679879599495658,-0.0021603029155586,-0.0276135424256266,-119.31103221066152,15.813647836692462,11.060409893559182,-0.0126177636372949,0.0837299594696591,-0.0522597655558613
0.36,-6.82436514925139,83.40321703554568,179.220573002897,0.0105217480554796,-0.1229512375625285,-0.122132045501172,-86.31636956940345,86.32883340669324,0.5594639978663275,0.0146985972604147,-0.109775552119097,0.0318620513421203,-169.2272816704347,5.264041631962704,3.51261267843614,0.2267929212317891,0.0172335276588651,-0.0471125035472503,-119.30513395182072,15.738573817867564,11.010304230216184,-0.0426411075263626,0.1641443598627978,0.011719217025733
0.37,-7.036253240763584,83.34495882491947,179.4166398709499,0.0320309712225442,0.0067654458427205,0.0229094961381825,-86.74447064198989,86.21764021829021,0.4843642030728807,0.0924671856362066,0.0615495216329136,-0.0334907263058726,-169.130961731302,5.127419025529628,3.66572631702252,0.1567085608113971,-0.1543117018704077,0.0679205042896523,-119.14553287344408,16.114226106248687,11.162899604536737,0.0692837211160989,0.0387672712878839,0.3295561463424185
0.38,-6.926241020504212,83.3935531865611,179.40943651392465,0.0426681498078553,0.0877406221336809,-0.0007649581171116,-86.45313707831886,86.13651048098428,0.6797058768383457,0.1584108671824462,-0.0214565986770855,-0.0268378127552315,-168.97486534041963,5.163162204810504,3.599525301097681,0.0576132623803793,0.0650717258367601,0.0209423629102442,-119.05584254135157,16.187616089609264,11.020927489931008,0.0731876609761743,0.3375216786427856,0.0659608666390289
0.39,-6.799698536632263,83.3328155149281,179.29658984327182,0.1455218824408799,0.1059427279770077,0.0688624704677163,-86.52287593926886,86.18162046305139,0.348559468120826,0.003193003801165,-0.0031103858359087,-0.0096985549881696,-169.1114797386188,5.406207465591656,3.2955389508441826,-0.0028577976165576,0.0781228826695943,0.1169417445253025,-118.70760788574384,16.591279454731,10.971300911373303,-0.0045783307598968,0.6231176508598447,0.0778094126608118
0.4,-7.356699628641822,83.27006106515711,179.48540128190714,-0.0622025407092783,-0.0256387176076268,0.0262291313819922,-86.46758602143746,86.35073795801162,0.51375474431033,0.0361998711806342,0.1711481839539209,-0.066177974173652,-169.19132602218502,5.039632231547486,3.3165427868991166,-0.0271034539106568,0.1106899440070385,-0.0298975363792778,-118.86756720257816,17.02251709675785,11.119828143020715,0.0984337026321236,0.4497411153023228,0.1538025158556602
0.41,-7.102021388199503,83.39225438973081,179.29663874849155,0.0654045292894467,0.03016074839651,0.1933816190133605,-86.5860832805306,86.20839101391964,0.6604233275834409,0.1567632864315292,-0.0338158078014093,0.0750063648084384,-168.94874526653996,5.229915252042019,3.234594695297317,-0.1498429086106871,-0.0220726997194954,-0.0901136015725652,-119.30906365992362,17.33518448632565,11.280637234502878,0.0967752924331549,0.3628958716012743,0.1220388359743294
0.42,-7.122485538954737,83.54925077469957,179.31302854015755,0.1175964636134243,0.0272115779909265,0.1862420981302999,-86.73587972598612,86.3352915227318,0.4601535980923573,0.0642497323916049,0.0215122080914276,0.0843794701517894,-168.99163789077875,5.462629074713378,3.3360881209845674,-0.2044173642195631,-0.0616920218200372,0.0834386441583619,-119.70765559264908,17.620624931916645,11.488213883448148,-0.0670688099290741,0.4163771430847552,0.3502958641926949
0.43,-7.288885410433613,83.31831139934715,179.05027492870047,0.2662692740077234,0.1461671657155975,0.0559624937562276,-86.74433291809359,86.55987167035163,0.5119509375027379,0.1893335269075907,0.1029727905276949,0.0790808765343298,-169.0414128196126,4.966313301561007,3.2368894026277304,-0.0675350146492876,-0.0573966517708599,-0.0638532127664622,-120.44105642153272,18.31034925538526,11.502842631495724,0.020765656803088,0.4377946403881758,0.5019527746028477
0.44,-7.107210159745369,83.39834174173669,179.28951924111513,0.0072020124504649,0.0590218140618191,0.0007094004319927,-86.99845777799769,86.3993234309246,0.8754755065229376,0.0745921078900837,0.177824654356314,0.0409006501880209,-168.88363381442437,4.968028653774013,3.043912615249728,0.1684529181298911,0.0095014293428631,0.1390692178230678,-121.14572579909706,18.830148828222416,11.662239586902524,0.0624956754499217,0.3012410076114853,0.4805661421907527
0.45,-7.1761322394051374,83.55052988626063,179.37612846341463,0.2848361522428059,-0.0508233150434262,-0.0234442041953496,-87.37387934484016,86.6025225846628,0.6648092977314314,-0.0111316205900686,-0.14338508499701,0.107168343732403,-168.77152214101935,4.992800713801551,3.2421295513318618,0.0262175217176028,0.0693067587905402,0.0501505817139311,-121.5658001289965,19.030951519134724,12.011672634248889,0.0734866211011383,0.3425798388412069,0.484100183875026
0.46,-7.356277112392689,83.53566705257883,179.3880031159655,0.0853514290177095,-0.1598430107732235,-0.1546478025946439,-87.20171109738696,86.71704043053974,0.6789634835226102,-0.1286806450990525,0.0185592904640574,-0.0398470669138803,-168.73072503935447,5.094042549943365,3.0346502881940536,0.1353103654547021,0.2601553124217852,-0.1065746296723966,-122.29832520060644,19.137359105512196,11.906873841650295,0.2779232951747298,0.4183965876416481,0.4604859988414372
0.47,-7.63049330979404,83.40274479906265,179.37369808933394,-0.061556186852453,0.1161572862594463,0.1637441452780303,-87.41969018404625,86.97521425961554,0.6110330995888151,0.149549792686345,0.1906930921079733,0.0607940945516767,-168.50891881999064,4.957327959326578,3.007872462813051,-0.0343534843164064,0.2337407923430914,-0.0229145719883771,-122.96367783759682,19.728588781039697,11.88661851188606,0.1369332845833704,0.4379184897517714,0.4575887342193172
0.48,-7.598009652233536,83.403119709877,179.26257819597097,-0.0331758030362654,-0.1511702567361696,-0.2203030017547549,-87.58880964946312,86.86621013635335,0.6951209817965323,0.1823819209253703,0.2890811754976004,0.0529201897324411,-168.66369076181658,4.703857614160442,3.0912848612342123,-0.0865317687374114,-0.0357636685717704,0.1871785226941752,-123.33155652960632,20.123351259738524,11.590424026801488,0.2061213173941121,0.3178452434248117,0.4771748187883045
0.49,-7.736687511858705,83.24265718873478,179.28469829156677,0.1562769299782457,-0.006275689500498,0.0900929825802562,-87.95723371769974,87.26934165561912,0.8214214405681323,0.166678424740788,-0.0071252371197597,0.0073520654377644,-168.40069188766256,4.3699547402508845,2.873235481156222,0.0217381314934755,0.2637122134754817,0.1113067369756728,-124.75739246469178,20.91065972193725,11.536036920587517,0.4475754907480342,0.3879007144955285,0.5151938199263731
0.5,-7.851396215296991,83.52711734597766,179.29134747628936,0.268451641476904,0.0328223422274544,-0.1323260073534588,-87.99363275725895,87.56492755529335,0.6492523869684396,0.2929154133950913,0.1667240293405091,0.0921390160090605,-168.056841158287,4.331910892586128,2.717677571160169,0.2107600717117621,0.130918137170734,0.1105314893272996,-125.3881355283348,21.30711318051307,11.350728054980603,0.4255371644305766,0.3909105972292386,0.3929560058029275
0.51,-8.076971094140546,83.22417187473239,179.3595940380554,0.0891085369280918,0.1191238715192586,0.0086943367272952,-88.51414303592188,87.67821240843348,0.7689153606336401,0.4485192548371869,0.2359761469834294,-0.0424206030107361,-168.01120864361607,4.179773773844072,3.0190528028214567,-0.0426377328774371,0.0244931675082435,0.0006144656970817,-126.2550981554608,21.64073708309472,11.489150325349048,0.3445718822664881,0.4750259217297396,0.5619696237744127
0.52,-8.104873831189828,83.30947783834047,178.95901035608512,0.0725231485537229,0.0279575266518204,0.0523325129726273,-88.52391852229819,87.80319277368166,0.759185382246189,0.2397955430339057,0.2411571097103745,0.0281058125486481,-167.96403874484258,3.998318956116768,2.7904247551594588,0.0844609191223066,0.1381932304657499,0.0434603834229781,-127.21079648627928,21.92014522518787,11.63549039295856,0.3227184698820275,0.3043094600236906,0.6486328086281412
0.53,-8.253606382592562,83.2531614128104,179.15433809688025,0.1378987406541674,-0.0558118061444442,0.0589188329085131,-88.8653596544675,88.36873179009909,0.6573768533332058,0.3141379826707751,0.250844457798477,0.2298233278394586,-168.12490403049964,3.993444099150554,3.239903104091334,0.1956945918489967,0.3069788307510401,0.0013219627959343,-127.78430976653928,22.046599145490077,11.599023029217802,0.206487175192649,0.1717276605847839,0.7949146270886369
0.54,-8.581319729404553,83.41239220172137,179.21113953093487,0.2656934285279184,0.1204361928222544,-0.009496533988238,-89.27550599702052,88.54168387958052,0.5735686212171348,0.5212526465937624,0.3083497317513084,-0.1064437832428594,-168.5956783140651,3.358030157576555,3.438233530804658,0.2120314460421295,0.2891645742745249,0.1801857866159496,-128.5472730175819,22.28036552628929,11.638231559088023,0.1376880961288233,0.1360606140594949,0.7176325882243874
0.55,-8.69555040604715,83.05247262108146,179.22060967566492,0.2218234551196455,0.1084514388537084,0.1424944836298918,-89.3706211664454,89.09874768981233,0.7563819286615479,0.250958193164054,0.3861807699301507,0.0032985802962539,-169.22429599168356,3.2585394250085797,3.856709857058409,0.3919423289401211,0.3677652407760387,0.5865648147813783,-129.1300391176828,22.412083896872605,11.629482752229322,0.2888540613279098,0.1399439838945654,0.4477552677947096
0.56,-8.945166907230224,83.04981968644994,179.17798014607916,0.1856877734896777,0.1176737784444877,0.0668747777703705,-89.50872231715297,89.24897259118333,0.6298920291354669,0.1146527992613242,0.4918009655747426,-0.0113525348941914,-169.68356409236844,2.9224091527446445,4.118530867885119,0.4221457009718074,0.1990060199260841,0.7251227393736114,-130.0766196975284,22.435138523797445,11.56490130835327,0.1497090019876802,0.0793989967968029,0.5634258791518262
0.57,-9.183412653594354,82.79181560744146,179.46621564089787,0.1661905948347938,0.1220513014836815,0.1156219804566855,-89.58250102173558,89.04186057291736,0.5817188885998774,0.1216596053711091,0.7170536922395181,-0.0275706255839146,-170.41391144148596,2.571038981293856,4.6893523525451615,0.4400102060419051,0.3049528614112264,0.4300402671237248,-130.37912704538482,22.272470328623918,11.626701089220862,0.2271409065947504,0.175447748246629,0.2931235541065842
0.58,-9.504207298800257,82.48535825734578,179.67431389378865,0.2155437981070709,0.1811714359618731,0.0946541728137348,-89.5732606215444,88.52111291356383,0.641024422541191,0.1347748534078906,0.5674610629071712,-0.015205031673391,-171.00399349956368,2.323208792850086,4.955695264199676,0.2875894067720178,0.2008749930742324,0.5680111545794387,-130.91962119028625,22.537657423772224,12.050387699109365,0.1342810559085497,0.1190272800955462,0.3163699125328488
0.59,-9.567600848247771,82.30434518154199,179.83129728152045,0.2012309329184354,0.1556876459951699,0.1371155421360024,-89.3961435415542,87.94607962241733,0.8383790522568879,0.0658424933688627,0.4610247356876241,0.0264736809859698,-171.28881657664604,2.233405880866434,5.461230236538952,0.4029152649802509,-0.0112038228859194,0.2627273119834519,-131.28936511415952,22.532307278694244,11.76785279846056,0.1397310679798241,0.0403838392964967,0.3647278220942751
0.6,-9.753809521354432,81.89636840317894,180.1617981242936,0.1155116191556081,0.3363319257046812,-0.0779063320938614,-89.4019272697564,87.15630489034491,0.9331667664603016,0.0202160706360536,0.6552130733399312,0.1896329144993535,-171.44243027573492,2.0295822818823828,5.411816173446886,0.2803976039613669,0.1163889110279938,0.1319760506158101,-131.96723808226682,22.24660193816632,11.674230986590892,0.2531570733510194,0.0446693565021364,0.3951200955826638
0.61,-9.837299263971444,81.50811523166067,181.0382432165224,0.3469865988064137,0.5415329465129308,0.2225263932520314,-89.39248708217353,86.46316647534597,0.8918736439394666,0.0611280878741947,0.6722422388401371,0.3074444858236266,-171.47046203322583,2.0945723843676025,5.7897163764784985,0.3763035525834199,-0.0417480043755763,0.1008052826232383,-132.29034724428195,22.31545176269291,11.728203373386744,0.1154223894077845,-0.00745420093886,0.1543411701092318
0.62,-10.15314131330831,80.84764832712762,181.5075542192633,0.1103357335443828,0.6226607663818124,0.0801360565882549,-89.64597062690382,85.77547486870515,0.9985542413536268,0.1398369946999574,0.5856401085186176,0.0649169986222178,-171.69027981413535,2.0458221991910728,5.912857144908552,0.3593267014861548,0.0923786590140029,0.1309681328641275,-132.67304727438307,22.19306124660846,11.721096523548288,-0.0132566395505329,0.1116823220536579,0.205788301902576
0.63,-10.063143728288969,80.02615141134511,182.4794478804721,0.3457127613179752,0.6538676401400584,-0.0169850807226563,-89.83815143386677,84.97282240761346,1.0822178795932973,0.2272018548035305,0.583580553475295,0.0968254484147796,-171.59657041094957,2.043028976323417,6.293130711808352,0.176441422347258,0.1305494808448118,0.3161669267050263,-132.8844529844352,22.172036956730995,12.021064572780125,0.0633090260436964,-0.098450703774339,0.248220181192448
0.64,-9.835955105536293,79.28161307794811,183.54964898422872,-0.047156098368536,0.5802838051321264,0.0692905712806391,-89.74556146789222,84.27818956239334,0.6724822842789931,0.1481127172531531,0.7712853959000576,0.0440183918190224,-171.91343206016455,1.8625343530100615,6.153458406907151,0.2209948300641002,0.0915660486174344,0.1182527764234339,-132.83097842360448,22.19086693650885,11.837951012912404,0.0527497324610713,-0.0401780230637821,0.1040728561805981
0.65,-10.001485273520306,77.57236419962939,185.34607806445425,0.1964056634378015,0.5812054573869879,0.1317794820664785,-89.64841133119012,83.13239345370916,-3.9327348486052,0.1044491646614336,0.7472234626315819,0.3715408839400717,-172.45208598712873,1.7703098529850174,6.857069475277733,0.212911961542369,0.0836811900666262,0.4846520068668738,-133.19585908567623,22.02218915459788,12.264039122594356,0.1138693960144563,0.1245240126912386,0.1729232693859879
0.66,-10.223228524153717,76.91394578766446,185.66240498494008,0.2649468878659986,0.5464134981056832,0.0556314581826296,-90.0013038490611,82.25690614006186,-4.840338625107839,0.1189410715640989,0.6223013378355786,0.3250494885869229,-173.0951628380718,1.8003654907314144,7.008501865459595,0.0938669891479675,-0.1372881539800644,0.2489243031372191,-133.28225166643202,21.97652236884727,12.067782966536862,0.0432734720214879,0.033966191740151,-0.0734512642232289
0.67,-10.273409013402572,76.399145032038,185.84073209725963,0.4247862281852989,0.8291398595373336,0.0592869548640178,-89.88320331479358,81.36917821406708,-5.402223320629373,0.073485115768339,0.8952009507511579,0.0315780790451486,-173.33497843973333,1.7470329471914403,7.017440888805469,0.209357303676486,0.0232412460130092,0.2656571859765392,-133.23008281255306,21.562931728892263,12.244044601509898,0.1465591074328934,0.2041620108483272,0.2121047683688258
0.68,-10.378798822776789,75.7834339109636,185.99286701632892,0.2261249474136721,0.7945690323825978,0.2838066986484277,-89.75193366676854,80.3160727195972,-5.58344669747358,0.2268302714496332,0.8968002034010714,0.0108287590327733,-173.51631571651535,1.915271922705831,7.226880077591993,0.0842567862486738,0.3304677441385694,0.0544204799818724,-133.0798741669771,21.68517621254654,12.21472719072824,0.1144082490823855,0.1712391336784662,0.2227200334264986
0.69,-10.45195552036243,74.72988909006465,185.24501559650813,0.1121799798583574,1.039855924749586,0.188930304479455,-89.6108515474737,79.31190331236586,-6.059074104480732,0.2069663220365942,1.002446730431129,0.1701422677347575,-173.40704045525803,2.093477643861189,7.401425636034849,-0.0363441217641992,0.4395055816995529,0.0078732390757662,-132.90731737692042,21.559112890559017,12.181071023154075,-0.0039562758094216,0.0616239480080101,0.3071660666626534
0.7,-10.463349959602995,73.81085539625869,184.6658529181205,0.1731620287135405,0.8258600050661262,0.1675243920537185,-89.7212171288189,78.3646955216244,-6.113026202192021,0.0975382922827419,0.9097499363465696,0.262276438349819,-173.36555462795098,2.347862996074335,6.983600719827366,0.2352302034830892,0.3565899001030105,0.1970029322352122,-132.88463337653118,21.435524178605025,12.077332817289172,0.0784900063762116,-0.0401430684083248,0.2121784088345898
0.71,-10.304632070694982,72.8312326677322,183.8523695627065,0.0621384020025908,0.8306086895126656,0.1208463140708412,-89.64520618997767,77.3803352564534,-6.391989787137963,0.0621541354825075,0.913669553085222,0.2531396392654262,-173.28589591428477,2.534418032496074,7.036911706438593,0.1955399079731292,0.1946057597145789,0.2861858847427164,-132.44701941115042,21.63901485015555,12.144706925595974,-0.1780172523846998,-0.0990527825938331,0.1792123075379687
0.72,-10.256121800894554,71.9346083926868,183.2250693010943,0.0957257055193039,0.8908553807014511,0.297346871201976,-89.54674831707521,76.44282729165487,-6.504951318358471,0.1473009680955209,0.5760393192070942,0.1908132404988045,-172.92024363311955,2.801410152488796,6.788580070257424,0.1270470366229155,0.174460632588995,0.5024152117709834,-132.14517425117464,21.61622666895768,11.774290164333468,-0.0224293555968991,0.0400247886452481,0.2770754443232294
0.73,-10.3056035095858,70.97613528548553,182.810864959444,0.1329769180973526,0.8819929600349695,0.1656288907173203,-89.60509988186429,75.65236436351034,-6.248351735969406,0.1969087789001394,0.5551550643268448,0.1010568070195539,-172.4998409178283,3.0384740922783293,6.679120710355225,0.2944170185755255,0.1996529988171256,0.1767694292569349,-132.07519978728652,21.705803535717003,11.816900139480568,0.1128543454472697,-0.0192371881291909,0.0181979612845
0.74,-10.06982070682237,69.92242004421139,182.28000060862965,0.0652057991950004,1.1003120219710518,0.0774775064453044,-89.6298663291602,74.60644038058271,-6.118342384439647,0.0956992368891255,0.840620008416282,0.0019598000188142,-172.39633745977392,3.2794567217591526,6.694989571262375,0.2355135293587832,0.1961493423796105,0.2366824614708095,-132.131517879914,21.744197984621948,11.347863926686497,0.0918295022530366,0.1292872762740231,0.0723786233408121
0.75,-9.789415093364,69.00141872400172,182.15444010009915,0.0625413597838569,1.067449063996493,0.1889251120268816,-89.78078294268671,73.86657263241713,-5.83623170801077,0.202222068186816,0.6630041389914558,0.0406047047046125,-171.91089964905626,3.3499609113875257,6.38547140622029,0.3347407977581818,0.4174223818326711,0.2481964995408959,-132.33282020133316,21.625376477030407,11.504005769205662,0.0048569619577068,-0.0117612521817392,-0.1845628966119333
0.76,-9.836760629195544,67.32013409840211,181.7476928231665,0.4078378887885387,1.049884850866859,0.1407806293730684,-90.20545043279766,72.97432323406018,-5.720981518908352,0.3466414098885382,0.5130405981035947,0.059308615644728,-171.73390219337068,3.684921502483931,6.372301860970003,0.0450181359651422,0.0779657603799528,0.1473940031112827,-132.24496888607408,21.82440346112402,11.407618673195005,0.1223463185584795,-0.0617766356992804,0.1403044630890654
0.77,-9.542796087206709,66.49601868367141,181.66668663491856,-0.0828436485054875,0.8995125810891492,0.1893619911681751,-90.14904311605844,72.44951849183683,-5.728047385397584,0.2028250733072182,0.8096955904330467,0.0603278606880995,-171.6904860616471,3.808615174106349,6.142009669862035,0.1186178392630938,0.1886145926056393,0.0252566016374871,-132.50333468436088,21.819070250661767,11.404756063371469,-0.1319340597334754,-0.0017040886018476,0.0472057256258464
0.78,-9.397939400283075,65.53273544899682,181.5463787139532,0.1807016013069493,0.6796047408723641,0.1254268487347292,-90.2798819891356,71.782921011767,-6.074702524724795,0.3375772176330263,0.754562334127099,0.2676058441036821,-171.2740281806897,3.948341938894539,6.083813284448374,0.1446152490497042,0.2197205529664847,0.1770797108593432,-132.53694659552667,21.8663316381208,11.43423496461388,0.0522346547467002,0.0705215797422858,0.1154470712201958
0.79,-9.357784867075312,64.73062007688584,181.36886991611172,0.02391879262527,0.7118707632451702,0.0109444758685506,-90.05431250060651,70.99703664109936,-6.089111150312963,-0.1110742264024684,0.4861328206627138,0.0769107491348119,-171.15198508589714,4.135477618270949,5.860656825261636,0.0564785643290281,0.093193649743434,0.2122404465511815,-132.7995773076967,21.87797215269398,11.441417908192394,0.1376057962159109,0.1014236085103075,0.14135292885684
0.8,-9.571424063018984,63.68769862528415,181.6639094719862,0.1559705167284858,0.749845717508727,0.2079089970350834,-89.94242809117722,70.76005131601983,-6.263763861080373,-0.0067998771403013,0.3069546873397997,0.2208197876852491,-170.96721653272823,4.559406240212805,5.721935907258125,0.0881230804909362,0.1636729830125716,0.2136956618213305,-132.98995785409667,21.717286305739258,11.377844013171831,0.1117568010011661,-0.0035055651810087,0.1084637486746123
0.81,-9.953638018743588,61.918067757501206,181.5396359523205,0.3031701977446295,0.8577580542501264,0.0629148669644463,-89.41329006661627,69.57416632062541,-6.94797775849725,0.2123394059742475,0.308805056675834,0.0613730228159964,-169.94498087724483,4.592356728836411,5.572008471505151,0.0810500747057529,0.1411609042218142,0.3015920197720741,-132.9330140797338,21.77493441247763,11.590544411430274,0.1509775119828091,0.1254702376601537,0.0169175719632025
0.82,-9.624064590320408,60.84059346406863,181.3166764154844,0.1504567463451689,0.6971039931445348,0.1415653036048054,-89.17690728368791,69.27552084604365,-6.975331014855801,0.1452973837804957,0.4732674646058595,-0.0858312019919414,-169.81289498181496,4.535325269131994,5.562167361208098,-0.2269167686437377,0.0352774729368781,0.0888753462790042,-132.97514050309806,21.929374080793075,11.799889884107476,0.1540247550145759,-0.0284595450248902,-0.0449501515473677
0.83,-9.194973689931146,60.0696103078257,180.7732827350808,0.078155486106197,0.6036055650761172,0.0058938368025076,-89.2101685447893,68.63507128681454,-6.889484081759075,0.0510707869502976,0.4964536811028679,0.0038539609302584,-169.58790097538187,4.55712254732125,5.445696541601954,0.0364575501014067,0.2815050995952933,0.209012245662773,-132.88919972476717,21.83553582662025,11.763151720290066,0.0334998865243062,-0.1087412154108505,-0.0366989741689582
0.84,-8.481851195039908,59.41833197589608,180.30376749254668,0.0269286895869958,0.6370152362198016,0.2976841789389118,-89.41352412706277,68.3195053608027,-6.404359747148372,0.2445452682206416,0.5699291128948785,0.1620426046535333,-169.6617331174142,4.646333249058598,5.688569925144143,0.1070708314767106,0.0412610347112984,0.0504129309927156,-132.73682578471028,21.838453789057784,11.442325502226916,0.1276321085903874,0.0905546538184469,0.1977853780017228
0.85,-8.118324957126253,59.0359057179852,180.00192435304183,0.1476635305570979,0.4859098090958424,0.13789121158319,-89.48557313984357,67.89657247930688,-6.363618252387216,0.0582666689891826,0.4161457155130118,0.1843397395294441,-169.95653465748563,4.419693699044039,5.839435752909042,0.2560821064091023,0.1499853927018357,0.218517343766181,-132.50317524339889,21.887159775071623,11.522937311797024,-0.0465037907183469,-0.0479588683491757,0.0409640755637017
0.86,-8.0139091463313,58.51175823943258,179.8576184254755,0.0136978402571593,0.241713422641514,0.0799326016274154,-89.63969808731801,67.57783795703821,-6.208718623548847,0.0402054804457082,0.2930375009638555,0.0325869373615045,-170.0796210709088,4.386240289358749,6.364873776902673,0.2896439766321227,0.0079582222454062,0.1872454953314545,-132.2501451472553,21.87756667872062,11.422582791965,0.141858690855457,0.2097440284383508,0.2373559128146654
0.87,-7.5056732456232576,58.06015137774918,179.66592559894946,-0.0220805863148205,0.4579341551924548,0.0292778753773745,-89.80948440287389,67.16065228121631,-6.452698300264474,0.0842451426265688,0.3580631525740869,0.1303246165804273,-170.2897330365742,4.402861633682647,6.44454728097096,0.2134565135897818,0.0296605276829301,0.3667988147282131,-131.89041189592442,22.02748860614397,11.467595092506782,0.0158033346412792,0.1073541376806366,-0.0046459663124396
0.88,-7.362882718341527,57.73983053921971,179.67222616379004,0.0391184919105243,0.2527968167614401,0.0908909927640778,-89.5785247710101,66.7054661964382,-5.975562031679656,-0.0864912218151387,0.3587679005944024,-0.1052658130251144,-170.7514308176553,4.4300640087676735,6.503640373459727,0.076950444683519,0.3008408131058948,0.3557692627994623,-131.6770387153054,21.76289384967121,11.396848241069607,0.1164252826668074,0.198568556161197,0.0725572790294897
0.89,-7.415898597800711,57.33912555405627,179.86030700933378,0.2066375624429907,0.4065147796765556,0.0741629138808617,-89.81552449960972,66.21804713892837,-5.60228897456892,0.2057966727287351,0.1449578560095322,0.0646410172274802,-171.05818230374933,4.638330030182226,6.650658807125101,0.1035929393807506,-0.1106072951531588,0.3529372419443407,-131.53898140689392,21.75006364112772,11.442292882120892,-0.0159050656830559,0.148759832216395,0.2246013782622384
0.9,-7.696842339977155,56.93035691624991,179.928282008407,0.2073203284868032,0.5959286843231915,0.1171677883167045,-90.08321742964522,65.99209917640255,-5.856491038476882,0.1725844350277411,0.1224216684199423,0.0497767810718736,-171.0619447385589,4.603666420497609,6.948851550250756,-0.1409092193136129,0.112566361375649,-0.0841954300056577,-131.52340852746983,21.751191099617767,11.397795762153768,0.2697669318684539,0.1341133359398736,-0.0158344002907036
0.91,-7.477346715627089,56.20763639363714,179.9812882298383,0.133813809802248,0.109277625156268,0.065911168751307,-90.31881000772664,66.28870460081454,-5.946613486934408,0.0368121582889496,0.0633916551001946,0.1999804785673175,-170.77177709588264,4.603956558927843,6.907791737228092,-0.0325595118740426,-0.0539167669382732,0.0264411134350565,-130.95083845735417,21.54031589124385,11.368767746238998,0.3098457773891435,-0.0547625072333692,0.2204689801564146
0.92,-7.770248986190867,55.96800909380956,179.92383060437623,0.1520032980935972,0.3284320974333041,0.0211222634480203,-90.36057553656644,66.01819420347208,-5.493580445538322,0.1656414546763309,0.002227455224575,0.0493775512939464,-170.59052802162122,4.776520716663036,6.748745776277187,0.0644745443983457,0.0833260498172483,0.1509655582776402,-131.14982050349855,21.441281024823983,11.40609199891069,-0.0394253393686774,0.1011130713799075,-0.0960909723303065
0.93,-7.820040161176867,55.2187529664748,180.08219973529364,0.273813527640503,0.3232319139729427,-0.1372320495887899,-90.74725904075034,65.7766640108725,-5.076101223852581,0.037330154190772,0.2414871201877731,-0.2692009898470121,-170.53891358437696,4.671856146369106,6.584240926865858,0.1723309753555326,0.1144372724316325,0.2322635946974305,-131.12271408007138,21.500493812252703,11.10309267558216,0.1374165070083588,-0.0330607270429874,0.0589871976851486
0.94,-8.181405157394448,55.28228757787318,180.2972018320934,0.2188324809763518,0.0773534300128558,0.0002908756063012,-90.77392931925966,65.9491166254343,-5.004794686311978,0.0654264709869907,0.1355895299269252,-0.0546586594146148,-170.316238981707,4.596246748118328,6.86187252535016,0.0142706348098194,-0.1836401144105361,0.1862844238460872,-131.2374141138136,21.59492648738309,10.883166621143374,-0.0833131308782132,0.0826760214784351,0.2340334118648856
0.95,-8.41213437697913,54.92371039411008,180.2584893876651,0.1856734322815963,0.299685888629251,0.0587220452125695,-91.1493921890786,65.85149010674586,-5.061785637250554,0.1519324327899052,-0.0354277574701374,0.2372162432814629,-169.99338082249002,4.638948115807074,6.595851745739213,0.0394483181337372,0.06014046597493,0.3264375013630481,-131.45258482264543,21.508457276632203,10.993695957636676,0.0301261913837516,0.116461817509944,0.1644431002171144
0.96,-8.620873353944152,54.809785726943616,180.42171405262116,0.1624977210055655,0.133924306731442,-0.0490338767431053,-91.41287904902454,65.8987243468796,-4.554222731866038,0.0552265220879896,0.1060504027654212,0.2134247395902011,-169.59112980502127,4.723717664158521,6.466008806174406,-0.1524815876088751,0.0820352276503238,0.2128773112963644,-131.7190723140861,21.67109451610599,11.244466409898909,0.1277511000052611,-0.0657921224129726,0.2222699392108602
0.97,-9.43680152351678,54.51454430807211,181.01514312488044,0.1002465688746629,0.0603758464160473,-0.0074492913007123,-92.1471524755855,65.90934902508212,-3.901008457457901,0.1359363897715386,0.1036771416020743,-0.1592653364296025,-169.3735232628225,4.8961815976931895,6.540647121573466,0.0797176239266766,0.1237289103659839,-0.1337801529247714,-131.67007363209515,21.504952856120205,11.282434207790624,0.1291570239257435,-0.0151051547689632,0.424020607240141
0.98,-9.791901931317629,54.16686006831512,181.1608865648489,0.2159485689718,0.0346304624781508,0.1161790117037081,-92.37811033432207,65.62200290043349,-3.711778596052088,0.3373056401819946,0.0753338701629553,-0.0251420719423502,-169.1624980182359,5.17971247596549,6.576203964050277,0.1861785426493146,-0.0825140352488661,0.0915712944333929,-131.1454240940241,21.495378583805355,11.39614732097883,0.2968256490460454,-0.126611594175676,0.4730760426304717
0.99,-10.034028981554163,54.33322394282964,181.27558427213373,0.231330525799834,0.077428128129413,0.0899552296555193,-92.46190980539096,65.88560830789324,-3.4077894409403946,0.3301631735373462,-0.1158920436532586,0.0821572992254749,-169.06710281935094,5.157793739533107,6.796646153820693,-0.2096783140431911,0.3486587297142601,0.1720249497895965,-130.34347265950905,21.46267285721705,11.269449823759851,0.2064269325965727,0.2454890949315449,0.5655399893840649
1.0,-10.704418390191416,54.13446923921181,181.58168367424963,0.2712177003351607,-0.0381088283346135,0.1541175494769217,-92.68834504969706,65.93760849852052,-3.00357561577297,0.0957751599049795,0.2065575437173656,-0.0758123993577142,-169.10821791251766,5.256621545044717,6.755679734643673,-0.1667500726200536,0.08613283636289,0.0619253975816111,-129.90818039246014,21.414014534784712,11.185615793514234,0.2501542054752784,0.2368286488244644,0.4227174960731097
1.01,-11.120584121426235,54.17021456259218,181.87616273783453,0.2481053355218465,-0.1058031885198165,-0.1124927830421861,-93.2319662532095,65.8133304263028,-2.7779453412393176,0.1815984469180656,0.3460136730441066,0.0770860228276135,-169.02115005073875,5.358560459077278,6.927922496620958,-0.0733998483964705,0.0013221908816886,-0.0150519488489041,-129.7803722168204,21.459993497663994,11.449014868970044,0.3668469271161994,0.0609101913709914,0.3484607396396257
1.02,-11.801533266446768,54.11848941431976,182.2878210300335,0.3208567435434848,0.0096997082055898,-0.1773723973286131,-93.35819947017436,65.97086607196925,-2.6237656753919536,0.1398836050236205,-0.0550440682822017,0.0281186903927288,-168.61455432403798,5.7101383086776085,6.875092453392501,0.121918915155538,0.1507890414360154,0.2723549803004622,-128.7637063490359,21.62247604042232,11.13097728546148,0.0601034627394147,0.03562426372759,1.016080230715951
1.03,-12.143869781542604,54.115498482337046,182.296979050338,0.1717935211393086,-0.1257562366918113,0.1355028009872887,-93.2356730086395,66.07344236365063,-2.6475862055485977,0.0886293281291329,0.2370892696896605,0.1722015221877154,-168.4858300313905,5.437487144137311,7.047544803037629,0.2959885417016183,0.1512221502670653,0.2241050203182277,-127.48727510068385,21.595862016777296,10.837936976939943,0.1621302781647796,0.0826498880839461,1.1832022935047282
1.04,-12.610588633013906,54.0208936762447,182.5709029785509,0.1536027579812587,-0.0466779902602828,0.0961445435252882,-93.338634888448,66.26873127397884,-2.593157886992397,0.270166118947988,0.1070109161495644,0.1426334544975841,-168.57477496761285,5.708045653025362,7.17329441554956,0.3242808185381922,0.0107999616908986,0.1880221061458784,-126.2272766124746,21.86294179080294,10.338354833531408,-0.0896198893939831,0.2902857735499039,1.034621551979234
1.05,-13.192240183815432,54.28957084967003,182.97770090295623,0.1989716036021426,0.0722555121556852,0.0166813112442214,-93.068318591517,65.84679956304699,-2.5431574782232107,0.2254694566347192,-0.0613471368656967,-0.0553232838659824,-168.61504215828853,5.805189091797166,7.470244774190011,0.2248727006722925,-0.0546016571823149,0.1406076526754916,-124.8501499211258,21.8585564976992,9.744819611931463,0.1852162869670874,0.0659914987914665,1.2678476073487568
1.06,-13.253930576748006,54.27297466049317,183.14003723640445,0.1219640679650444,0.1135255979818474,0.112876046679694,-93.0841047602706,66.08577553007743,-2.7890597539437514,0.0233632403370257,-0.0954953105810937,0.0515641098854072,-168.85533504255645,5.824363662565313,7.635430695480489,0.2230914617709148,-0.1074097189644268,0.3604680380297133,-123.759570406874,21.721736217891745,9.40525770691509,0.11060079697476,0.3255687635999961,0.834861679528522
1.07,-13.28469354112803,54.14622560876219,183.111790971512,0.0158942512191013,-0.2291802455900521,0.1550258323562266,-92.55178393075585,65.87525502999087,-3.0925103830563483,0.0765229304314643,-0.0569538608923132,0.0966581555583363,-169.2944778891866,5.928504702870307,7.793465220599275,0.0509456855925677,0.0159251877133683,0.4886789713946894,-122.72937924267876,21.7958882355574,9.03856730398434,0.3449378172069319,0.1909011789499308,0.4061771730080497
1.08,-13.182377331553289,54.14881637639769,183.17198663795088,0.0544604775107272,-0.0538690094553881,0.1289569303012602,-92.38107692184758,66.08379014381737,-3.248413333594319,0.0823143736056275,-0.0019213298346622,-0.0385150012408049,-169.72742565079952,5.781530050733648,7.77210459613242,0.2343015365775462,0.1241952967643005,0.3163013150620662,-122.42727933488727,21.77772705924689,9.140199618263331,0.1817304481346179,0.0085835737333733,0.0882946058933324
1.09,-13.112438929502437,54.44939799877746,183.00606096604125,-0.0751489298026266,-0.062858925992694,0.1672310720792674,-92.30659025987336,65.7454055234786,-3.143040473127342,0.1833580020124325,-0.3126386518598544,-0.1128421525025651,-169.87920105398575,5.645162694185771,8.077827583896472,-0.1045102737434806,0.1928329891023316,-0.0681616996572759,-123.11138556193136,21.506935197684147,9.75586685545413,0.2768727338661697,0.0509325754540839,0.6860600719059462
1.1,-12.892902263572005,54.20521741398258,183.04295644796892,0.0767504875407076,0.0208597637845092,0.0719266069244354,-91.96575889392626,65.87623381974562,-3.186196390868324,0.16966946308941,0.1446124087358309,-0.1748130754092952,-169.81798198895547,5.495424589775315,7.958769124959872,-0.1158630889695104,0.0477768514227824,-0.0400940905709329,-123.57449995916402,21.51327914007298,10.452008810808612,0.4571386871178435,0.2640875570976583,0.3109493762702839
1.11,-12.91725725890299,54.480600372653846,183.11575946540245,0.0419597483402551,0.1012940649613944,0.1258703458209613,-91.68519226349837,65.88121568146342,-3.5798576992652884,0.2388587034117195,0.1419184191473636,0.0981180483659922,-169.96591243752948,5.445384808113124,8.238301639563156,-0.0764419307441682,-0.0348325447342776,0.2460835743595353,-123.39135360378832,21.503680600203545,11.11554969558674,0.325379032788515,0.1304551080543721,0.5026637680165564
1.12,-12.639181107534522,54.48471314832363,182.8749341614412,0.3112130527043906,0.0142866597514552,-0.0794638548684078,-91.27745509673396,65.83814107227519,-3.556878176331785,0.2869263581585985,0.0587068996420061,0.0997554350891243,-169.37040183018715,5.290573327508222,8.01786167259303,0.148844375793874,0.016553876139928,0.7032547492633009,-123.70646914015262,21.518473486659605,11.250121458179692,0.1670324204221075,0.1899941593139563,-0.0683648215588959
1.13,-12.305281182313022,54.27337807529809,182.80392133328,0.1433563481381464,-0.1556781920761789,-0.0017516313819352,-91.17148547783384,65.78384328655291,-3.773756462733437,0.019818305790306,0.2605371134756216,0.0420774457286112,-167.58479727226418,5.11007268877465,7.693239479868056,0.2329710135325641,-0.0211868009743365,0.7625572188392258,-123.28853468928747,21.75128375135282,11.720244882373114,0.1453480873626538,0.1451019165719121,0.1627970256218954
1.14,-12.212254595173189,54.4593572489038,182.76082631646423,0.020278175519012,0.077571696809153,0.0738335003149751,-91.2205111179514,65.93060527029566,-3.6214838975622734,-0.1499693727225306,0.193462608795754,0.2395651590500783,-167.19546717766514,5.123354807796249,7.58658188145414,0.1141629406501205,0.1454136954062068,0.5372858424117481,-123.45381427252248,21.995079149253712,11.96211363002286,0.3007212575179605,0.2605567283083614,0.4200905399711897
1.15,-12.263883609565044,54.81105896167789,182.9402264980829,0.0188123952427513,0.0525956924251258,0.2551691511520424,-91.16918578868368,66.06542672780182,-3.442196270948953,0.1078016120583232,0.1039550595545602,0.2194839835487431,-166.54843057911617,5.073245216518132,7.683342394598588,0.2854202684582932,-0.0862087598989161,0.3549616003198394,-123.67001512208762,21.777069187191884,12.451265556522753,0.2589605148171887,0.0583240315746404,0.181693466727927
1.16,-12.170131496784125,54.69574640778131,182.9519595163493,0.0502596695671704,0.0338273395123467,0.1209364023860402,-91.17117920133587,66.23973029473586,-3.4349665253445587,0.1529869911039153,-0.0132210157957093,-0.0330999786384982,-165.76674397495094,5.293130269031982,7.251955798847163,0.3721505906145122,0.0863672738334089,0.5183581664940817,-123.5238312664472,22.10074734465028,12.744867129079728,0.3603598077262047,0.0581066787881412,0.1029397694387675
1.17,-12.02540343684108,54.78790437386044,182.8895458530341,-0.0478611253468782,0.046726333379521,-0.0766315967650544,-91.12248326672602,66.0335404589407,-3.1416540055725406,0.0421056172306084,-0.0023105541354633,0.0530821692685514,-165.06226194486356,5.022259097171301,6.694821976795556,0.3336217533116615,-0.0523972974688415,0.2871853876749205,-123.6679308425864,21.928103690852243,13.296011001713762,0.3999947078228089,0.1669407481264961,0.2686365096555315
1.18,-12.071703278791398,54.8488000843462,182.92727612953044,0.0303667902373497,0.0176666171959843,0.1793800014519618,-90.94931184124734,66.54573510240111,-3.4189143156789745,0.042396862285976,0.0870582583472667,-0.1075840495498205,-164.955727302808,5.237829280848759,6.447716348503161,0.289425402349589,-0.1302244452738658,0.0818144448205834,-123.78259798047092,21.94452560054681,13.61156429652134,0.16288770521557,-0.1309971999386082,0.0381479585361867
1.19,-12.046321561574644,55.04490005621502,183.1241987513607,0.0476101612631189,0.0620441817357761,-0.0445827292650598,-91.09771979208276,66.56927657000189,-3.570976331692417,0.0791023348418801,0.0093926926516512,0.1475117464756982,-165.00035846278644,5.158124000198511,6.437311273785503,0.0719736058237525,0.011670383894328,0.1147897956744035,-123.42522705915968,21.92957560177101,13.95281177549456,-0.0047904550848792,0.1306186779626016,0.0608308621574216
1.2,-12.079947922192664,55.227758032868266,182.80098405082435,-0.220253247688727,0.3557291676505956,0.0600565351691672,-90.7973701528565,66.54091763788274,-3.8847383397944353,0.0900617997539907,-0.0053236426124485,-0.0728412343435454,-164.56697835479753,4.998177993732036,6.21863304634322,0.1396764841880632,0.2099301899802804,0.3004333425518176,-122.93016477895124,22.01918318399196,13.979728603283355,0.3080202084319613,0.0813728735076449,0.3906117232335906
1.21,-11.929326475762265,55.50108418740757,182.80580393519196,-0.0140209361352566,0.0896399671655144,-0.07754976112173,-90.6800604987175,66.7438246296571,-3.915440222372912,0.0302608750918172,0.1040723241226858,-0.04052838978313,-165.05724262589578,4.73380373097786,6.134903226589734,0.1219064769040998,0.1679667577424872,0.5419924617532141,-122.5225535815232,22.344855791631822,14.241575076774932,0.2960374253269252,0.0434480226583343,0.2786290229230474
1.22,-11.920936029807525,55.74494229470757,182.9659617463866,0.0006361462449343,0.1632795309705917,-0.1988041567283242,-90.840095461509,66.87544858596101,-3.938455699748326,0.1336442178026067,0.1369021902351997,0.0253464752758548,-165.90296121104842,4.404628525702913,6.241333363125301,0.2617473859100047,0.3152035959535624,0.7791182424458838,-122.47417890072582,22.50797794744048,14.70386850130444,0.686319716961908,0.3563498361139948,0.2409343190545899
1.23,-11.841030031709488,55.90723459567301,182.9858285597056,0.1076427442522479,0.1915122781372201,0.100304493624958,-90.91518402107955,66.79451296408367,-3.942288724432504,-0.0599145425185045,-0.0951325577965315,0.0564897359652282,-166.62920548671906,4.338795015732072,6.465395294131071,0.4495042937873902,0.2139397292930854,0.7737259855924941,-122.12362389568484,23.08791089444288,15.19606141659059,0.6825857899391756,0.5131591664964348,-0.0253185481488092
1.24,-12.109019817889676,56.01492855180369,183.0017016240897,0.2048307473187789,0.0429554256684883,0.0382685527155561,-90.79524815612363,66.97908845527822,-3.845918985714261,-0.0798874943538586,0.0361906820830658,0.1136678219612128,-167.89184842660447,3.856398603745089,6.649798710430787,0.321090826827568,0.034774305561032,0.826762534303788,-121.61415381993854,23.381706761328378,15.48084328873879,0.9039983436253056,0.6197356210389983,0.2488221337714733
1.25,-12.075218546456153,56.14379961532126,183.15073484274672,0.2241943697017079,0.0176917847994104,-0.0690006945957171,-90.9066725949211,67.01223017819785,-3.747432231531132,0.0901634631687615,0.2300739006168092,-0.0630237350704614,-168.55397245976846,3.942860965095269,6.925471254801322,0.1106169613099109,0.209920961945159,0.9826098606477612,-121.1395216812579,24.14222083607781,16.290927102364652,0.6627209798052394,0.8066241976890682,0.2688866732017037
1.26,-11.97544205698157,56.53646632603146,183.00200868038917,0.0828734866084995,0.2786297327030025,0.064142898197014,-90.74777512427386,67.39032461326745,-3.877412496040552,-0.0633536566743591,0.1904374640542048,0.0735869174948763,-169.4594876951844,3.8932903133476606,6.9421028412948775,-0.0334929517403557,0.040833481299052,0.7967180376385943,-120.71315284898029,25.026221845220377,17.155074033672353,1.0334590888987876,0.7387210019768137,0.4684966811270998
1.27,-12.015722739239363,56.56730557215475,183.03873173727052,-0.0276892635921456,0.3050225003938203,-0.0280145326731074,-90.97655737839187,67.3493487871458,-3.8260236776218095,0.1833967597069798,0.0272940904553282,-0.1361882897828542,-170.06480924040233,4.106236655260589,6.858125191963533,-0.0331314229676324,0.2006951073715225,0.5966496243526014,-120.14505701297438,25.97117645427128,18.142076912958533,0.9772718385328484,0.7260996989239568,0.5703285799939166
1.28,-11.96721231054923,57.0054721965806,182.89503389449132,0.1059549100024975,0.2943497098333776,-0.1499085293381141,-90.87544340610523,67.7639366155969,-3.8028284334599394,0.0459615743073618,0.3064279249304019,-0.1173142342252746,-170.63301552500243,3.734602968022182,6.383045974790637,-0.002571739551063,0.0458864391066645,-0.0657292081384103,-119.49426934342354,26.80579337685672,19.165555511708504,1.0845952027127028,0.8338383801455423,0.3645566513289524
1.29,-12.277805870437366,57.349036752064045,182.97215343762304,0.2444098480962703,0.3752413321760985,0.1146183355398274,-91.22820252054366,68.30572633434107,-3.9322301134126256,0.009961369795144,0.304330435289913,0.0894407373239002,-170.13082921549835,3.0228145949846184,6.145444478606175,0.2239122638637941,0.3646051699992013,0.4493999146611576,-118.25768544542652,28.64450445862526,20.824238515071062,0.9081681402074204,0.4578747372485935,0.5556158374017431
1.3,-12.398522880816042,57.614482191066806,183.27764544019504,0.1226493211392648,0.450570225818194,-0.2502865754157869,-91.43372290940852,68.69976823722534,-3.933712301947909,-0.0214069932355097,0.4977393118309965,0.2282803161158596,-169.46577423925442,3.013966585535077,5.881108467580511,0.5233926751153503,0.1861567341437729,0.5028822987155199,-117.20171953308162,29.561761064578956,21.726708356439996,0.875648699717877,0.654621292038254,0.7554730554560698
1.31,-12.50149385514194,57.89448672516672,183.13196252366168,-0.1056907676782271,0.1886814003186565,-0.094399530956848,-91.66281005133632,69.37651124732324,-3.5844155271881584,-0.0259470075130282,0.5233884052924188,0.1927308885342334,-168.8208001404091,2.9278980252843247,5.298654704919422,0.3852868591989098,0.1912538405871126,0.2490098316161398,-115.52929852600356,31.032420059721623,22.27676883241197,0.9744512438957734,0.956111017819314,1.357806268013925
1.32,-12.518115929072083,58.38450590195638,183.0258250168621,-0.047933420147303,0.4230755471628437,0.0270433103429687,-91.8957336002506,69.94578718570857,-3.446319255035637,0.1804499375843967,0.544046347787499,-0.0519345650977824,-168.52439155669475,2.7827579639021205,4.916620203620833,0.64663122521253,0.1311569178853257,0.153906394232497,-114.1449093190008,32.264183046915115,23.017605721110566,0.9620581450957052,0.9854740504165796,1.0596664219988792
1.33,-12.60253091731527,58.79994495468975,183.05051528379565,-0.0483143668885817,0.3038389171085557,-0.0794551684757746,-91.98750726063668,70.30686927426675,-3.447901898335899,0.0574725302780218,0.5698734755765137,-0.0080646558705774,-168.74294374099458,2.525606360570064,4.385111010956347,0.3737388257640103,0.4158884479825294,0.2323249876490345,-113.0596692204562,33.60680623953702,23.55555242880868,1.040147588444334,0.7758853038727497,1.081740009943581
1.34,-12.547378840596377,59.15010592489921,183.2833010374344,0.0308925635110185,0.6610381868955952,0.1372650258336681,-92.42051477114951,71.26163222203074,-3.333905182226746,0.0742222573967488,0.5782043774957785,0.1107590523502815,-169.03139548159217,1.8591121289964216,4.54195923731813,0.0401737998493723,0.5899768159674915,0.3792100896797222,-111.96789956482644,34.66179649885086,24.38328739929205,1.0428009465027557,0.6560805531836377,0.6724392171116477
1.35,-12.657102042086564,59.65732575206601,183.05420375766693,0.1075267763244438,0.4100161069058534,0.1552719968910003,-92.19864474662276,72.04511965341331,-3.306574070673224,-0.0025142262893691,0.7676478247272551,0.1403993475580822,-169.97848496049917,0.980331444101528,4.544458863494039,0.2469743025237521,0.8116366036308279,0.6923891306668625,-110.52930635058428,35.86250758770726,25.20151833724964,1.067464066630272,1.0275964490580367,1.3286917947897074
1.36,-12.834887513716884,60.44462408340792,183.25012299070832,0.0437704797796971,0.6208614416089562,-0.0577652339295901,-92.33129456589396,72.91850325080003,-3.2242247274624973,-0.0528532381810922,0.7973796422031229,0.2093491464805357,-171.05024126879573,0.2093128587607283,4.7324807019258,0.0714115505283704,1.0528936984351311,0.842050002302893,-109.15836594893878,37.47251460728463,25.663212768694223,1.173623100677478,0.9154814541145082,0.9217777152972266
1.37,-13.080573346369306,61.090329881123566,183.25340391906164,0.152547991543809,0.6887704381873739,0.126488254496922,-92.45103807061378,73.72269773655162,-3.100727436121913,0.060614520052241,0.92738037487285,-0.0122702296056342,-172.0406281712008,0.5482121742744424,5.147387735168769,0.5196381756554866,0.902353068426086,0.7699543101642479,-107.84531112412466,38.79910368176253,26.39275336997941,1.0787159640707802,0.9390661696349484,1.1235945975474244
1.38,-12.842521984898086,61.74431754643959,183.42992006614315,0.1306584690522369,0.6901108159203878,0.1047161690839091,-92.58288096106786,74.46618924065048,-3.0711089026198835,-0.0997096623519269,0.8342372044686935,0.1907919084352303,-173.08245216113892,1.7397159626320486,5.507849470787816,0.353301157729782,1.1500480854820108,1.0485943366625474,-106.4649226213032,40.2718854745264,26.98364653460412,0.9073448240094087,0.868500939823536,0.9827287575195292
1.39,-13.056616579891807,62.47334132697828,183.50200067211304,0.0526503522480792,0.6368084859446592,-0.0352940288691985,-92.53916434910175,75.18513670999552,-2.5998451060507834,0.0546354673245239,0.9718399998375872,0.0151093751948854,-174.19295539150386,2.5385018031144284,6.251658363653882,0.4209922346526822,1.1694564577247868,0.7287930488451514,-104.95755708454428,41.877701314863565,28.03613605424668,1.0405694473946832,1.22931638556406,1.023360297178482
1.4,-13.040413878660472,63.4892660559965,183.46831229313764,0.1422447652051137,0.6775448744943735,0.0991215828918749,-92.6827171107429,76.3813696182663,-2.502757581194187,0.219243989770551,0.8385201393826658,0.0041972072900052,-174.5416619474451,3.5087340132417144,6.818253509401013,0.1201167616880816,0.7224510634208268,-0.1073367492407769,-103.59276802967564,43.69425134852738,29.00116515510509,1.0668993168121923,1.3613269860277692,1.4444902037777818
1.41,-12.938244085217551,64.41406769275254,183.4959395914509,0.2415805795559247,0.8793163947783583,0.1234389503367329,-92.6899773222163,77.25998648637547,-2.389569097482948,0.170631940445219,0.7436326974185853,0.259280401178481,-174.4137915974177,4.436448855310229,6.9727424630339785,0.1447922223224697,0.8725803645392908,0.3796795138067759,-102.1570716168068,45.81602056184634,29.635216461910687,0.90844563386489,1.3429824490880498,1.1781752230512827
1.42,-12.93930273742743,65.507155342858,183.5453806870456,-0.0308471344442394,0.7196211647047598,-0.0642895284438664,-92.53600919884916,78.33254117229527,-2.388565317059165,0.189835347736162,1.0050966159120234,0.1273729330656704,-173.81113015115696,5.4634471209366,7.142669863507942,0.5165536028610426,0.7936108097729857,0.6454549089922195,-100.6371734156965,47.91552062566569,30.69577827265265,1.014813113522726,1.6677710861737565,1.3874728016095477
1.43,-12.961234398584969,66.43389577729575,183.52405623591136,0.1314228713852375,0.938654111587638,0.0580786410726084,-92.53499505297,79.45347539047692,-2.119763462327346,0.1282389327017412,1.1303939500911306,0.136647690754069,-173.43682839707932,6.199737290283485,7.726806571844992,0.5515061827567853,0.9517901838579602,0.6012470887956003,-98.95884482799887,50.13080061701913,31.38322750079183,1.1257773396621753,1.7509959388667955,1.431862884501807
1.44,-12.67613650604622,67.69145582749866,183.27010519286412,0.2994170434362808,0.7635801594636754,0.1012444039565076,-92.58673790697353,80.49218527996969,-1.678160652973337,0.2986260970991964,1.0021288843773697,0.2838518418505974,-172.86476982924833,7.63488319626598,8.45015180017777,0.5437636624695963,0.8051499667581432,0.3634775681018104,-97.35389288928408,52.43272650042122,32.703295824279785,1.2688555922480125,1.592584911897961,1.2633905715358205
1.45,-12.25717272452104,70.07309581771146,183.31654891915943,0.0602597799666855,1.0637869307116985,0.2793596730913805,-92.12513485487855,82.58196996782672,-0.4447609148736614,0.4518985168221751,1.0897435583898265,0.073834508154226,-172.34958600935678,9.575563324255697,9.311543376487364,0.3915292718623034,0.8880133410426067,0.2062827816861529,-95.26377508328429,56.46555893583334,35.05006025468582,0.966322768528672,1.3631279215528105,1.0411687126960365
1.46,-12.354730316480907,71.28329184815063,183.82347051894664,0.3096141567523972,1.0937005492839569,0.3057558929033095,-91.9210370043918,83.81882923023983,0.9132352449308428,0.1651330472405076,1.075848914401814,-0.0215267650091878,-172.240802760855,10.721359179213952,9.88574168573316,0.8258649574384934,1.1077655057438194,0.2802210845309248,-93.62326974474304,58.12365574915018,36.11024899170048,0.7449713865465231,1.5779006688319757,1.2515741281178574
1.47,-12.252576358490328,72.48028347039997,184.0441404035197,0.254079332510653,0.9841267684123478,0.2472905104279216,-91.72701724273249,84.84959115309002,0.9009125582005086,0.3352510898236575,0.8363537081502179,0.181321093472198,-172.5074661507081,11.875848719892804,11.05410478413016,0.6652163061721738,1.006767701756593,0.0873327906256775,-91.92120587309444,60.431327345422616,36.66657804320997,0.782448995548831,1.282327570046835,1.3806489467274303
1.48,-12.002097300930334,73.81645773788225,184.3680617301527,0.0686089647983523,1.0938141724138877,0.326146540285181,-91.36882255626648,85.54813327333795,0.7663986736732504,0.2194196821803404,0.7898731692945953,-0.1143140549177485,-172.6720047303509,13.5009253840017,11.790060978743464,0.7464438714994038,1.2278150706631858,0.3549492429548786,-90.02365315234411,62.78526736679589,36.63905856857103,0.6953758613864733,1.3641231463464618,1.5621400162580883
1.49,-11.815935254618603,75.12709126877344,184.6530600854726,0.314586763136107,1.1399173195040615,0.3674017765375568,-91.2543720208464,86.7095897718833,0.936855411837477,0.3919843011076931,0.8529348192052832,0.0863006196228632,-172.86743075424036,14.62276141605554,12.771980531467689,0.6618125104004275,1.26327980369669,0.0456175315356419,-88.78200413791303,64.04632068150943,36.21477390296639,0.6430355270272176,1.570686441624478,1.4638516697080923
1.5,-11.663252601074406,76.13498009164793,185.08911224670945,0.3206213932493092,1.081006213275487,0.1416666867506685,-90.78205722787597,87.72212651597926,1.0380445123302358,0.4847019592868625,0.7974523129356355,0.0729791913353285,-173.16406378249283,15.865226942915422,13.549660159456389,0.7009627896234656,1.217137076078587,0.0561116143683931,-87.02194547291202,66.1316094475776,35.91204141703667,0.5087043253692576,1.183343813735187,1.4465497789282509
1.51,-11.439440175546888,77.37465873120188,185.61494214274828,0.3443213702444281,1.105403140994271,0.2655845370739348,-90.35777784695192,88.40522690601,0.9302373384064118,0.3336704613086825,0.9407246818460452,-0.0957413347107658,-173.31869091940123,17.334832920446058,14.870180217243991,1.1284390134686362,1.2252344950221308,0.2046828732206654,-85.49492579807372,68.33702748705498,35.3881491356798,0.2952718254285176,1.34507305592962,1.2723307490424092
1.52,-11.116377070203704,78.33575810610574,185.2843595191184,0.3247894044257207,0.8960192377599445,0.2739241155968983,-89.85646779459631,89.5208482735295,0.8815387413227032,0.4891894622509088,0.7883554402661278,0.0849445681130322,-173.55716741674834,18.532016867155,16.441084467061632,1.0493448848671594,1.4611736429371074,0.1896508782440745,-84.02686605672162,70.0755902874841,35.09897755992882,0.3691443623617323,1.3062178717038404,1.1279818857466608
1.53,-10.860219695054194,79.3973950989209,185.6679228449841,0.3725586594061461,0.8646761063298759,-0.0009122700099963,-89.60854857723686,89.34748696372847,0.8147454572701791,0.3696429331457601,0.6804840643175422,-0.1525815272345713,-173.907515620664,19.75784520561021,17.85934119367114,1.1335275598937653,1.4874081175458382,0.5213515258721694,-82.57442664541185,72.16551038938218,34.57328060486637,0.3411602186160007,1.5186049236924866,1.5242764599141188
1.54,-10.536883579099737,80.37848340552338,185.98326602605084,0.4098439290481422,0.7589709700523043,0.2138412404591501,-89.36842048412365,88.43857811541115,0.8217573989870105,0.3306014145020103,0.9093724634200416,0.165341064410355,-174.45477412794054,21.284742335298706,19.4566350444846,1.2154917442478872,1.4321860306546692,0.5709996812569638,-80.78924491799738,74.29834559309788,33.34399942537357,0.1991619565484881,1.6399350766176206,1.8466395789803975
1.55,-9.9937041950191,81.26679388516766,185.93825805314808,0.3538538613647793,0.8849470945093735,0.0206972261307373,-89.2965696166159,87.30580433520034,0.8714209971423448,0.3073852487914768,0.9089886483311104,0.0999388132043024,-175.41486398443192,22.508666302075703,21.67196561385358,1.3740082397768505,1.4668972430952587,0.4239554756109817,-78.88585700351184,76.9067074127386,30.98769105752905,0.250352413552976,1.6544682080232296,1.4268121967168637
1.56,-9.561998643121896,82.39704558599989,185.45467858844287,0.3551963051101212,1.095703964757942,0.1143521620779133,-89.01091191585697,86.15435173361827,1.229040487983945,0.2061455042381504,0.9272162437236666,-0.0601716514180951,-175.85303036097957,23.666210194885707,23.711530239050003,1.4461950302920172,1.3008560576089985,0.4016816482064506,-77.01510516909775,78.89982769157712,29.326236230843257,0.3335348736109008,1.4835289777639875,1.3875180738684452
1.57,-9.3214546638888,83.67359853372653,185.9200877529813,0.5882849386010225,0.9760481723505268,0.3522667011361399,-89.00763000684346,84.97107969287406,1.3329883432788858,0.0393773084644541,1.256509466785162,0.0350940711285762,-176.33462569809993,24.928485319242437,26.009555067047263,1.3803389466811211,1.3900565487767689,0.4122524451336016,-75.61742695819474,81.10162086277865,27.364668816593856,0.5998339045518565,1.3084655372804794,1.1817414094221863
1.58,-8.997356683572141,84.63403467717089,185.96823149610037,0.5621523426590946,1.1309025801893249,0.1479403438632784,-88.88222708770813,83.84318498724386,1.260315608950341,0.2367907872941121,0.8277956861915298,-0.0842241180647108,-176.58824286551555,26.102362763784672,28.044843289660903,1.458387699878929,1.1364998176313286,0.2523835651502478,-73.83175611927136,83.18046424680297,23.82659226700764,0.37221364132564,1.4623383889949546,1.447434148610956
1.59,-8.840736481133892,85.7009892575285,185.79057872622548,0.2330759832230013,0.6981718602678265,0.1508751009663531,-88.3074398467955,82.86701452491316,1.1805352941697225,0.3276018836304403,0.937254277182472,0.0756834166881787,-176.3829127476594,27.26956491504121,30.139610480964805,1.6799306007490773,1.2737025053764324,-0.0334054145059007,-71.89370174023026,85.05604915061248,23.650995670389467,0.6157933903616601,1.3121059010232026,1.6924519444408903
1.6,-8.591476388500482,86.66311043952592,185.6514856465689,0.2259755580446605,0.6837138040770521,-0.0611650814727521,-88.16410533311561,82.02731671176971,0.5694320726539731,0.3813113949205941,0.7006353929999015,-0.0998658307042729,-176.41361598862463,28.175631503599657,32.342636218613684,1.736978169915885,1.145068719278308,0.3903447275527226,-69.64376029084256,86.49798277220326,23.124346504421627,0.4447895484206433,1.170229320449855,1.564848686929125
1.61,-8.004444893631941,88.06340008561843,185.64666808255816,0.4091905704496907,0.9081892288531798,0.1353313811375597,-87.46197484793593,80.68245524288876,0.2262260393305279,0.2036071376118136,0.5818543165806984,0.0303119275934375,-175.0985812791653,30.54997988686802,36.4318824436806,1.8365032782305368,0.9867616537116712,0.3333755351452367,-65.23537721645974,85.76749274731333,26.68633846446478,0.312148657467849,1.50770348545342,1.8668735290119167
1.62,-7.744449786233337,88.97360140359305,185.68161512994024,0.2666282416269708,1.0800808764540344,0.0326181457541131,-87.19089339483223,80.12805495045694,0.2676112403186142,0.3018361475882475,0.479945170887705,0.2024177350877102,-174.75484931197073,31.882649617833263,38.670604861281575,1.4934885599003995,0.9589153354353412,0.2480232144168415,-62.964723557399736,83.65634034445915,26.873560190063493,0.0510188895720492,1.3115161890768672,1.4220255469273604
1.63,-7.5649870483812816,89.1262550113303,185.3000055161505,0.2705077485705657,0.5330607176283053,0.1034253318447809,-87.09080930838537,79.36430027963587,0.1128915558674138,0.3432799862316026,0.5947664713695638,0.0210548906738044,-174.46143678617193,32.55987921982145,41.08918852442657,1.910494251535096,1.018007947211731,0.0906440324657185,-61.34691716634034,81.98579915592833,26.70320473850293,0.2830580341927061,1.3229539128388548,1.2574491246910675
1.64,-7.419450108533006,88.84105097363076,185.7758876245834,0.1637014066246321,0.8551851280684717,0.0310418954905206,-86.69965049403613,79.08082540492394,-0.2058586884588634,0.3347972326956636,0.4505814906549391,0.0339479229790808,-174.26917682717678,33.563220351668626,43.686750241579205,1.920957756403028,1.1044994533810912,0.2483739666181424,-60.02705358575849,79.90016806704907,26.761084374575347,0.1263582671649381,1.1361808035723555,1.3873817982961627
1.65,-7.151868716961071,88.1954050397654,185.6862361770372,0.2965294332604656,0.5793204691194836,-0.0854879777438444,-86.57071573232126,78.8040919631019,-0.2628951393700328,0.1556262932262773,0.3319787449066529,0.1349890342595778,-174.01245057264364,34.63360318370708,46.3328544092512,1.763339063305571,1.186150203777714,0.1047587549949549,-58.15816175550742,77.82713986920457,26.850479954628195,0.1900955803282701,1.1818699690388936,1.2194001909476224
1.66,-6.916108878905436,87.43061572842814,185.7297266182868,0.3094705814955925,0.59976124864842,0.2297536674884333,-86.34200378774811,78.32705156984296,-0.3281821839590616,0.2491737843699499,0.2252941012659493,0.2210831628554183,-173.53716873616247,35.61848687342104,49.004525161129166,1.769735638554201,1.3101902160707968,0.1383346520693539,-56.4118806517671,75.77382404619557,28.9416686509216,0.0069426585420615,1.051927128712084,1.45412367952762
1.67,-6.745989963642405,86.87235248499107,185.7260130706391,0.346859863199948,0.3307036605693267,0.0495354157725702,-86.14435163272508,78.2986788770739,-0.3833451085713682,0.0862613047276453,0.2508878426470187,-0.1158019927523794,-173.4815547994574,36.53891454176861,51.17188656162164,1.7344166416981832,1.0706482280233294,0.3792598743699977,-55.07611509768193,73.9160191716867,30.242231701972464,0.3963181429210657,1.1691427329816648,1.3235949871866983
1.68,-6.600126470670667,86.57634814063375,185.7957535827606,0.2928840236774443,0.3951341846932355,0.008449709930677,-86.0654173563846,77.7970590326443,-0.3626989024365876,0.1880056517048701,0.1406987090396349,-0.0637207848845741,-172.54085782131042,37.69768250198936,53.95410417788944,1.5849623191414584,1.2442778913566503,0.4440335853184093,-54.1089763623613,72.08985851779708,31.202655200063493,0.4796642410484949,1.2160756072494392,1.323622351368484
1.69,-6.554950650091241,85.90773452233503,186.0443765193109,0.1209342989504791,0.3079992264524386,-0.0232234465142723,-85.74371813533777,77.80481877464854,-0.339556950745595,0.4472684556897607,-0.0965238543491223,0.0041721677591769,-171.69214124291634,39.13251208693831,56.43720634142308,1.7771761704636495,1.2156258265990452,0.9325874434808424,-52.79861951183137,70.33616688145679,32.25507573582508,0.5891408766675781,1.0470540801035657,1.302874298395733
1.7,-6.247013522942167,85.63305977918122,186.2099330931217,0.0627591752582427,0.3472757639162804,0.0760412103405439,-85.36718074684221,77.95378582859468,-0.2406886736410464,0.2746655582475599,0.1113768475675014,-0.0603820465756925,-171.04872033003377,40.5365358372095,59.043404233764704,1.668785040620421,1.1399270911682022,0.8429406995841059,-52.04787836617501,68.73754019687219,33.41855029667759,0.4812369499418385,0.9692853507875632,0.9095804260471878
1.71,-6.226076205686221,85.23081573876381,186.0485880342463,0.0974288363663378,0.2529860626750809,0.1784496689911163,-85.06773762245237,78.03631169769677,-0.12692031544191,0.0436959291336815,0.1035609238218485,0.1019128727459309,-169.96290691726745,41.74774388879992,61.4555687755546,1.5556480262505985,1.2119898817480326,0.5921105131562423,-51.03752529672364,67.32126465488122,34.88108122667959,0.4196781879837004,0.9805428051315672,0.9399853111090688
1.72,-6.303033666599675,85.1099575999298,186.31152171384727,0.0078305906637946,0.3042378330362233,0.0887003357897424,-85.00950049078128,77.9887984728,-0.5642992474801536,0.2132409051007187,0.0568273623785242,0.0629539280026744,-169.43780975508875,42.737050838485146,63.21031497601778,1.510395633998454,0.9866877371220606,0.8289739522693951,-50.46531858140981,66.15970289982279,36.0740742261117,0.7316931307819301,1.1606870190517404,0.8854987422969293
1.73,-6.050949944399187,84.81311655475015,186.16084851629992,0.2856519066267388,0.4440115898958735,-0.0770613946634151,-84.7593521725078,78.13105877146425,-0.9413593508486722,-0.0576902043729725,0.2705513810887693,-0.0272437646457811,-168.7840714518504,43.63043163342255,65.05930970362198,1.383732815006035,1.1016291003384324,0.7547935535935948,-49.89843665062416,65.19267575820916,36.91643585716492,0.5735486600398988,1.148284533279041,0.2772665625686973
1.74,-5.518038228156543,84.42232671363782,186.50638267004024,0.1886489400014449,0.3245808776806546,0.0531251549727395,-84.61073219811266,78.66602324557391,-0.9964215892442728,0.0295677456654072,0.1947374920326252,0.0293669612699275,-167.52609344398144,44.949926135774405,67.75001357132199,1.640503503079668,1.1402513397840766,0.5959787145508395,-50.1532281635648,63.947462064629136,38.68553639339186,0.7456190344419147,1.0919390563894642,0.4827292603259147
1.75,-5.338343106156624,84.44737890712567,186.44427114236055,0.2958861733600113,0.2839813819022351,0.0770596992407516,-84.47675866538792,78.87943737759579,-1.6378291226450248,-0.0355461776591306,0.4212201295262154,0.0840374206113671,-167.28326305382456,45.928057341375165,70.54460486838907,1.561188803683322,1.3710977130621724,0.5048229071450371,-49.76938233536163,62.65203667761507,40.8576969027047,0.6192849377064114,1.2419563395379771,0.7937568142564461
1.76,-5.225268855914773,84.33319168169987,186.3112594479406,0.1874134182041057,0.0236934492296343,0.1679982097898439,-84.30628196575876,79.3612680988747,-1.733171304460857,0.1198359583329383,0.2645407315441912,0.0107111256212026,-166.33018865687853,46.75586796340111,73.71468896291864,1.6512589017144668,1.2029443728372549,0.3178926542875521,-48.90251637904034,61.13018294995671,42.53963456359478,0.5109462722853352,1.071502920520388,0.3999161781785898
1.77,-5.093287244220327,84.39511638322703,186.27207705192475,-0.0078837875545884,0.0135298198606444,0.1249063198291033,-84.20866309002221,80.03686460722736,-3.107542163202801,-0.0019537845494023,0.3333291983487105,0.3589350180763565,-165.36305727958816,47.83675403552419,79.8272734151333,1.475419901867718,0.8676021377521955,0.7270347478006304,-48.76051864887128,59.05297652685196,45.90633536643909,0.5214039593211096,0.9930141312260692,0.1168100840912793
1.78,-5.014675907722709,84.44371019669295,186.40482633915204,0.1243310687351328,0.1122374081764416,-0.044352302353033,-84.03511447507245,80.15720969353067,-4.064668241021805,0.1038848521342079,0.4141116231354244,0.1070845340083495,-164.27080995753863,48.697777552259154,82.12217381565357,1.1925969009611674,1.1281232542612063,0.6608979398079415,-48.58047105528616,57.96541460461949,47.311903601906224,0.4661678873772075,0.9942928874558684,0.1772707550808813
1.79,-4.732328858929395,84.59858441439552,186.2298405398336,-0.0384523078678137,0.1825957918221197,0.1140475344825039,-83.99423381466879,80.62806431674214,-4.249536199293186,0.2173435925403213,0.3513471150772996,0.1104793510622444,-163.19903532724052,50.23493014729782,84.75166579476884,1.0751823332797212,1.129213992718734,0.8546399121756264,-48.33160073262897,57.16431865223884,48.75514521074226,0.3937598587407867,1.0156608801586662,0.1477977040081363
1.8,-4.801165383201337,84.76799008884075,186.2693227406695,-0.0276858754943576,0.0989363992181198,0.0751080331966077,-84.02939481125482,81.13004290483721,-4.93387547239352,0.2341457349823048,0.4489417687653838,0.2180130974384146,-162.0794185297269,51.08411175709644,87.10945101701587,1.0723270990514688,1.0138526288335477,0.498649887749474,-48.42169270731062,56.1123429764473,50.11979821085604,0.6099986982569785,1.0164794438225244,0.2612613744711682
1.81,-4.77611014376067,85.05231603657633,186.0813014192871,-0.0261883440960964,0.1779503193296655,0.0146241611679552,-84.12209946799548,81.66103714820359,-4.274145671787818,0.1578673689635133,0.5354133149298891,0.0763375760489996,-161.41843174435064,51.58685987369189,89.33606135506355,0.9197485172097476,0.8526125217395258,0.4354703558918332,-47.86386471596319,55.05754030382271,51.18959504646397,0.483643273015389,1.0286208371846552,0.1476070438204266
1.82,-4.863499289706955,85.26220769468333,185.979482914702,-0.0055530484562793,0.2675818110456097,0.0682860898164121,-84.29461857263578,82.02172318367181,-3.477228770471467,-0.1837940956236785,0.4162856276229595,0.2736148164388826,-160.5329981929291,52.06634638445483,91.638068034276,1.1765108765797403,0.7873425132049164,0.3924932408403925,-47.64598508017709,54.06590287530797,52.433381858912654,0.1706913685967858,1.017096983191536,0.1164087378295919
1.83,-4.632738520509372,85.69920416681369,185.85312747305636,-0.153375974191233,0.3386320932648042,-0.1905144514577441,-84.06155829453317,82.55880857732936,-2.8169065811351763,0.1482648035667884,0.6579924626453175,0.0558919926990073,-159.8226218001223,52.53203258460228,93.9622597314377,0.8277285976437891,0.6225532328493655,0.4411047235736538,-47.52993512535283,53.06005297029046,53.68449726059292,0.619918744494159,0.8147572228130893,0.0473680200940165
1.84,-4.548829181086845,85.88650404663493,185.5449317296244,0.073631325965371,0.4885376784394664,0.0750306401333485,-84.0979299665684,83.23046164887018,-4.644376567001427,0.1601513767510444,0.2971288799633945,-0.0129598979343616,-159.1462020848033,52.93192651156633,95.95713382544584,1.1037901580448628,0.6100748776406482,0.4549684857618747,-47.68261717391597,52.21303281003144,54.76000981301672,0.2950189792166913,0.8858278004023885,0.0322515272462189
1.85,-4.419401336939625,86.17428806701908,185.86262394033295,-0.037207500219938,0.3003603131745004,-0.0436318951284755,-84.24522788516767,83.64190362664425,-4.687476097439547,0.3255130085537778,0.2353928240050979,0.0824471903487912,-158.6401716348719,52.99436523180232,97.98735489123204,1.0169309614576456,0.5228679427486608,0.0617051287620464,-47.68998133255389,51.69202721117648,55.9870766952498,0.3021215239773455,0.9779350057550976,0.0017105957529786
1.86,-4.553486508724976,86.49543026618274,185.7185992176004,0.0102259739864012,0.4323149054329758,0.1570585305586805,-84.37075157083713,84.2256496657186,-4.551731812056584,-0.0158677252946,0.3918905757075238,0.1524590539303058,-158.11940426092184,52.54512346748756,99.6159481539132,0.9935034494670996,0.5456173192341305,0.4641822141099868,-47.8792779665252,50.78935964106057,56.905822385971945,0.405451999700307,0.7113337521618069,0.2548844815816326
1.87,-4.549523796529485,86.78546347850532,185.64896101893785,0.1837786659787852,0.5000937906487583,-0.0834104272673571,-84.34583554551318,84.5586283939837,-4.565029176595305,0.1074622006125408,0.5043183328350855,-0.1832280047345581,-158.12624243287962,52.02717800308019,101.41897911871546,0.9202949499625316,0.3879611001669165,0.2639727911623588,-48.30304568227905,50.27913536221855,57.88544583555132,0.5085892171173041,0.5368728062072102,0.0625143913621617
1.88,-4.5240498698810585,87.21056570888749,185.60185877040763,-0.0247283861628455,0.1150896550451546,-0.0791472028753562,-84.26995955561435,85.52816834239101,-4.486604707225576,0.0608514003865826,0.6936250442289018,0.0849204958250721,-157.90516517628566,51.86002376063552,103.36825862310036,0.8650083917090196,0.6794732561698907,0.1118426298416942,-48.4649421447217,49.589146990222446,58.2452293918722,0.3888096694722619,0.3819495410997352,0.616457897590235
1.89,-4.993659348215151,87.63643154601661,185.61103812518965,0.1339950705382436,0.1955287238700048,0.0182323332918449,-84.20267972931882,85.61381512814353,-4.596710405605823,0.1478641142250239,0.2411824844344067,0.0537374407513004,-157.79986773574075,51.35010145376965,104.671112941095,0.8060362162871584,0.6101131241130462,0.0532655867225216,-48.60111305800278,49.12864622877717,58.40288671481953,0.6751555277159558,0.4051786860204023,0.2520949059932028
1.9,-4.81649808232673,87.90706453206009,185.5684160530724,0.3071723297787972,0.2445887832998776,0.3224699785486158,-83.85499324257478,86.21231892401705,-4.72223211089824,0.2207346441451259,0.4564848804365929,-0.1939896761088162,-157.3087173039174,51.43174747657036,105.91818256838576,0.4460877104247457,0.5605996961339724,0.2593101221335768,-48.98060336567114,48.608386068860256,59.1802722974652,0.4245734524761462,0.455845333147603,0.1031079229520558
1.91,-4.930244352223884,88.04202968655949,185.41108727632644,0.048121688450228,0.1751010690675249,-0.0130039504092497,-83.900045269603,86.88312355992187,-4.489104886755069,0.1212252209839121,0.549019312036455,0.1102944741449505,-156.75991881463403,51.608268936798446,107.21094085659183,0.5559869545105297,0.4833366537498664,0.2667303068998428,-49.78991481574519,48.4060922656863,60.01785989931115,0.4710966017798559,0.4527061278267366,-0.0279491474041125
1.92,-5.0856296075082295,88.28034042217165,185.2846966455493,0.1562858676283015,0.3508197657424067,-0.1736406669330333,-84.04169255160076,87.38220554547182,-4.631112648057542,0.3043673288694104,0.4514463406641064,-0.0569016957770212,-156.37810271047593,51.40933997289756,108.54414401890048,0.4481818322873396,0.3096013226013625,0.1668513892949987,-50.53024884746202,48.057383314396624,60.65395631605412,0.4995005645112257,0.298184697599861,0.2502936802520814
1.93,-4.950838960807962,89.07551397551978,185.32749818853776,0.1042745227894011,0.1246423979825904,-0.0832549152644256,-84.25338333226959,88.25595946317232,-4.447300607413171,0.129790546969533,0.3818908850534367,-0.0030575640643227,-155.44523142285453,51.29436601824461,111.11693193470194,0.5025559098652319,0.4146876609671982,-0.0036330391802157,-52.345248006968,47.458686430855096,62.15072279116767,0.4130412527944453,0.2647827578977369,0.2826794502016095
1.94,-4.903901599272533,89.36896789978701,185.44864201234336,-0.0179581138611101,0.1870153630993463,-0.1175011698264639,-84.47454169375378,88.54842803903121,-4.558808860723807,0.2296042032194731,0.4611605251962168,-0.0364644583935676,-155.21079683435053,51.608889473353,112.3835229138907,0.4424787888267745,0.3921105342165517,0.2072040777077613,-53.47186659820707,47.44126986503917,63.3325319263488,0.4961261777191822,0.3064016989944546,0.1685536641335008
1.95,-4.820202232179007,89.40693699648575,185.40115957308623,-0.0320708084239159,-0.1318893227941786,-0.0082654130451876,-84.86710467303857,89.18445884534576,-4.5670919166989,0.1898918380369121,0.4478755998630581,-0.0548725265918404,-154.97920353963502,50.954596202325554,113.23551683686074,0.6386585600624901,0.3239318989166338,0.4569454895835846,-54.91851288021189,47.34128035922579,64.3667182375354,0.4448071672204035,0.2157034926756922,0.2515603375812446
1.96,-5.00000230736978,89.70030381224312,185.28022879020537,0.0675109234493136,0.0735985880222534,0.0925859820998264,-84.96813161825601,89.21763653614667,-4.411219637054876,0.2750663757918493,0.5603174180335859,-0.0157225485950682,-154.91461022025769,50.44381992692733,114.5836275796653,0.6534613044563157,0.4421742873161636,0.1845602616971711,-55.913756453157006,47.40441114618974,65.04917113827882,0.6220658423651357,0.3107215253439486,0.0220687387067783
1.97,-4.966364571605352,89.45638655483843,185.31607958798912,0.0827053052405958,0.2630607274438984,0.0519568791451584,-85.24095304406704,88.98793143111195,-4.555798371967469,0.4009545204487306,0.6392745863646738,-0.0007124371231582,-154.69322074083678,50.24229285627519,115.72963777883976,0.6248606472159943,0.5138724200533523,-0.0465632846546383,-57.654344653810014,47.332101925906045,66.24244082534253,0.5669592785105764,0.1234913036534186,0.4639835682784634
1.98,-5.012504936325467,89.6895083090293,185.24184806967477,-0.0681888688505133,0.1001021004874167,-0.2101152247847166,-85.50720110934337,88.2854592373374,-4.673420524705105,0.2700820755882213,0.4768412071027605,0.1312155003208455,-154.24734574696126,50.38738043196546,116.71256504814048,0.3629955416614108,0.3712520677534658,0.497723587441068,-59.44003391073565,47.33020513136511,67.59368117575876,0.7677658320389784,0.2215384740951841,0.6783603903329897
1.99,-5.098303209894015,89.44484439697524,185.2033677039408,0.093382084647515,0.2503873921359886,0.0890680824462017,-85.85972140826307,88.14197579866426,-4.746931705460144,0.134025398767051,0.4140539467190735,0.1071740623875769,-152.9463283986135,51.04474945950952,117.596577594274,0.3390617098335958,0.0579653705969583,0.7523861949324991,-61.32751202922784,47.86919123039904,68.6218671518641,0.4496111775585983,0.0765652330251958,0.4663538575961677
2.0,-5.48832296671117,88.87767655576893,185.30578350183785,0.2114462623082401,0.2538704063572427,0.1310519283726184,-85.76499165918919,87.67757441017183,-4.840838180180179,-0.0151907980595357,0.5018349339220398,-0.0140186876695824,-151.67863502801072,52.221866141311466,118.49049011755942,-0.0127940475449466,0.1982728151263758,1.319681217192019,-62.452597538247154,47.95311681694241,69.38640731942608,0.5200790407954214,-0.048439744210877,0.4253380119154293
2.01,-5.539271628982366,88.50444714476276,185.35320388432737,0.2875439165129502,0.2704625010492277,0.1590525495115006,-85.69446218903336,87.51047557807668,-4.895377070439629,-0.0305847297550398,0.1440387275322871,0.1332054225346831,-150.78966804425517,52.91296164892428,119.29919838145014,0.2917187542318696,0.1691604923758421,0.7081340284903755,-64.23011267038812,48.269410346190696,70.4225741721999,0.57819152838065,0.1706581876398445,0.3569622496830343
2.02,-5.929357406711785,88.22851383640139,185.31378250116128,0.3117153691981774,0.0707674620716986,0.0456743261518547,-85.9713170534987,87.14576945097782,-4.692402710132472,0.3385329724588592,-0.0099475214010316,-0.0087517908880149,-149.9316182655837,53.29710606259468,119.75997122405192,0.392071867699994,0.3075720527702815,0.0892683871593749,-65.429123219538,48.58508958636032,71.15474945137024,0.6670750130638539,0.1543254405446931,0.3384821826023047
2.03,-6.264524624815484,88.04943251740407,185.4487806662184,0.3203940044283744,0.1110453280115793,0.1412527343871402,-86.30113315241576,87.01056678204775,-4.713685546574967,0.2662793181216666,0.3402341382226767,0.2741083046112537,-150.02347816900303,53.05509380973698,120.02939958356151,0.4289110531206657,-0.0544263384137966,0.3781571785124487,-67.16256796542342,48.662598358141786,71.99056914379348,0.4142966228411995,0.0712585161436957,0.5461001427340864
2.04,-6.293855576711942,87.85286666897076,185.65369629459315,0.1395512440529566,0.3185199167530209,0.1656558197410265,-86.38923166582244,86.61624457347423,-5.077412945186721,0.3113387735987144,0.3893172916436385,0.2043868799298002,-149.26017493401258,52.8898904037331,120.18812217216504,0.4158311109483082,-0.0491533922115181,-0.0613225466360041,-68.71098800993903,48.92587938653398,72.59927676749753,0.3707891612448427,0.2155902810020893,0.4857781332330869
2.05,-6.385652396464422,87.56999244828853,185.4056453504975,0.294822077782258,0.2960427295375934,0.0310808937207036,-86.65758086644747,86.7356704029157,-5.113453820983965,0.3833480371032189,0.0694956931357552,0.121323886768302,-148.80910484911965,53.255858210101145,120.46681218964002,0.2189243635130881,0.4959269342659688,0.126310349643635,-70.41438315362483,49.46461513183577,73.93842169977644,0.3614262401489975,0.1554087439802727,0.5053922553519435
2.06,-6.69294235318644,87.43380425567244,185.2574909426089,0.169774512893274,0.3798679218833499,0.0733734863827782,-86.75427281985765,86.63993053711158,-5.054664031527322,0.3596769560093327,0.3050286993361633,0.0698125783993114,-148.3413727523862,53.53623618348284,120.13969321973532,0.4164133197678341,0.1810055342153317,0.0874377752067714,-72.13612047446114,49.68212216341706,75.00873593817143,0.3235080332024964,0.2798866663938189,0.3257527763291163
2.07,-6.758584706484289,86.939463746585,185.3533960990307,-0.1541300330739142,0.1436284599501576,0.153379167609455,-86.77036160889224,86.65990422149235,-4.964090359562653,0.3003767856400843,-0.033170282682587,0.0201934738991624,-148.06994901412747,53.12978283143399,119.79796991376432,0.508347266250779,0.2493258240455352,0.4745188321836308,-73.07839371227995,50.31154966036396,75.53249971196908,0.0148638842300732,0.2407621458583839,0.2054410571275761
2.08,-6.5588791224377845,86.82381230554694,185.18799334145072,-0.0853982560373029,0.2151094063352566,-0.0483544014336178,-87.39269728743118,86.2168168472763,-4.891177534274632,0.0100228960234803,0.4371125376400312,0.0925379959357314,-147.94802995390944,52.826789142510826,119.54404872607752,0.3403832565252424,0.2558020191342505,0.4696551737676541,-73.82292069750518,50.29852518484705,75.42048488008604,0.3089585075262894,0.4385059430186029,-0.0153648306942735
2.09,-6.664686217788074,86.47918525773476,185.0497428567738,-0.0447173474252999,0.0821900408547595,0.1808204079060141,-87.51999066312639,86.24998305234773,-5.214960629619344,0.2719115479318568,0.1287860842561776,-0.035582872645109,-147.64869363487998,52.56383504720163,118.55436115913818,0.3623096278293586,0.6182127977770856,0.5175706560325669,-75.71714132351525,50.92983727504221,76.13909102851912,0.3323591181799687,0.1972908666548528,0.0643039488839659
2.1,-6.757609788572328,86.17336561296223,185.0407132541605,0.2017589929325158,0.1463031548416938,-0.2888178936398348,-87.8399586365496,86.10507491130205,-5.361187443859095,0.02349349390162,0.1266534458340933,0.0970331713796946,-147.06012485277842,52.36967369746831,118.13253972413052,0.3611976503152218,0.5205328494685415,0.4330156062917942,-76.25575664136842,51.26733463292788,76.53766687063573,0.2149664374624962,0.0456408012866414,0.3212467803063462
2.11,-6.7942965213211215,86.05203467354492,184.72380160159997,-0.050577718435957,0.1809672933952386,0.2450456658141999,-87.90721759660114,85.70180575195475,-5.315489191889636,0.1871267637251397,0.1283745268632551,-0.0048196691256426,-146.9522147089086,52.35846557522736,117.53784426186056,0.3729069734584963,0.4948417765520126,0.205418725925478,-76.9337391744828,51.38518404462642,76.66909445293604,0.0401323584809842,0.2519690888111369,0.2377005498560473
2.12,-6.994607344952195,85.8981320163687,184.74202646707403,0.1887945047901841,0.0954200136651397,0.0434757662875884,-87.90351760792652,85.70817361654593,-5.462495588725169,0.0967147526420139,0.0873659085349114,0.2571789191684528,-146.49923770414514,52.43872753136766,116.99710572349382,0.1735721267891961,0.5718918274644229,0.1880744705417089,-77.75147113769802,51.832645313632696,77.07455036930023,0.1080527697055414,0.4087025717078755,0.3878928076472478
2.13,-7.376732301440414,85.79823690373986,184.7246228284416,0.1632229904665638,-0.0027330697622907,0.2028071209143205,-88.0343902432661,85.69257152991486,-5.184559447436983,0.3036193580332093,0.1167059667847804,0.1508537329256556,-146.13805914253032,52.4778373247415,116.32455045023788,0.0991384858791356,0.5206716105131943,0.2936337965253495,-78.67494170495733,52.25295585560239,78.01731071552727,0.2186144508993519,0.5679781958166399,0.5453698883563217
2.14,-7.56879205512518,85.8269369507883,184.76780899401683,0.2835446383913804,0.1650266489345658,0.075103176220648,-88.21079223812917,85.3455212974628,-5.46176826040506,0.0650816346821644,0.1028012014666563,0.0358829581276213,-146.03559159225793,52.15464750821326,115.56936394456216,0.3112060695458947,0.4471897908355039,0.1898152236276097,-79.36529054758552,52.900661965559934,78.39026146128224,0.0746419121863922,0.2902708139436702,-0.010501055440213
2.15,-7.836791847492077,85.64364038654875,184.61074058045864,0.072903822317051,0.0153608945868956,0.2098752587763376,-88.27213352939103,85.24887899089413,-5.402067351323976,-0.021266623250947,0.2493153034457253,0.2052748839540573,-145.8715690856065,52.05781419839561,115.17265059710448,0.3018961983222198,0.5584232771284167,0.5326905971622107,-80.0301223110323,52.83139147330232,78.5103021471956,0.084236703450455,0.1680675256155735,0.0823105297095468
2.16,-7.888040535132667,85.6796549374059,184.827250971334,0.0617866052834763,0.2089427656128251,0.0642897796062266,-88.38313902046417,85.22948850054875,-5.365062569222012,0.049069255658474,-0.1943893720708909,0.037227033370117,-145.5827908036489,52.11096154217038,114.5856847262143,0.1527366995701606,0.3500745134846967,0.3848324832591876,-80.71572241759426,53.24082963306508,78.88026892246398,0.2434967822116402,0.0947325723001311,0.0483941083115999
2.17,-8.039776099218471,85.35849835132124,184.57651258632723,0.0810071263909751,0.178519402113114,0.1304534322414721,-88.6352170894377,85.32107254845226,-5.5397790752140725,0.2034581802639493,-0.1184514189426691,0.0478949022770262,-145.93064761948025,52.06174414005509,114.0127780115505,0.1807694257608986,0.1729576915461579,0.1622539329661994,-82.07567284531446,53.44068293694146,79.88102279679107,0.3416686285515825,0.145521861147401,0.5265320630019367
2.18,-7.908504468216983,85.27134854984071,184.7106186614565,0.0230686193027864,0.1662271438984258,-0.141046811321914,-88.83075688179004,84.90019547605554,-5.297926746760536,0.2960668326569157,0.1652537751063495,0.0487672645222382,-145.74305786353597,51.84050269123675,113.94333403670726,0.2940239630061511,0.3803295712178753,0.2592708938034461,-83.27015502031965,53.63306058693626,81.30013933517579,0.3867737668005715,0.1416885400927116,0.4712258036397141
2.19,-8.023716865556432,85.28537564033343,184.6011408296094,0.1170364720606216,0.0557650884484407,-0.0122273083153008,-89.22460522750607,84.70865201536516,-5.404420908355818,0.1403040605766772,0.2235901197342558,-0.0537603503250027,-145.69605839890625,51.990676042227385,113.4022621634088,0.0639902973953059,0.3264445591551049,0.1904484655993083,-84.12623466804457,53.5932164247437,81.68353031819396,0.2906686056296707,-0.0312662003015468,0.2762628728697499
2.2,-8.041706137533422,85.04891513543782,184.56112988600825,0.0800802077598044,0.1480393735369634,0.0266677957228515,-89.38778696102632,84.56752614817604,-5.431053827116254,0.2217311693309238,0.021303159898097,0.0195822194893902,-145.10312736345668,52.26292688427555,113.1591798688055,0.1188264428977263,0.3068583458115612,0.1269956219508528,-85.149342994834,53.57980566333051,82.57475867292247,0.3959787201656486,0.167202341148443,0.0864961059529539
2.21,-8.14244586080902,84.80884668716381,184.73046527196271,0.2073568624111892,0.0968930650242095,-0.0191031386367013,-89.39817150464567,84.46773793094414,-5.6288584836756135,0.0894602010142362,0.1351641899244204,0.0615338122846994,-144.7311978907377,52.63542539938808,112.91473799798122,0.1767317769208596,0.4069137303329698,0.1968844533036161,-86.253862632007,53.40539468774851,83.40020279236799,0.5208980554656645,0.0712728172064948,0.0763302589201596
2.22,-8.58439625275743,84.65519314421364,184.5981327238875,0.0828231569093465,0.2879343539772052,-0.0290646637957022,-89.46571554949608,84.42176956307783,-5.747370478895522,0.0513976313805959,0.432006445385191,0.2862799232799761,-145.31901828616265,52.66997346225022,112.55799116653466,0.2322346050573388,0.199476714766728,0.6640765420550845,-87.55631457227793,53.34654088670066,84.1776193285661,0.4725501469744036,0.0096794160503554,0.3189879201620028
2.23,-8.846194806986757,84.71606214108674,184.76881177013996,0.3438758168851608,0.0578498133905257,-0.0031369923519104,-89.40594308081887,84.0020402729288,-5.671534288185666,0.0868189434064217,0.1222809200857567,0.0656584982608549,-145.4228792708013,52.00391666069292,112.16637088935494,-0.0492784565020711,0.2044693453036645,0.5085907845185227,-88.96402049438737,53.01917904233407,85.32666287494708,0.3043063889035478,0.1393113955122444,0.5840890355482353
2.24,-9.164083951011463,84.55507864880335,184.8631295289456,0.1994850418985954,0.1374372769433567,0.0798316880245427,-89.62697418706466,84.02866530551847,-5.524250915613725,0.0306740311977573,0.1263765610826134,0.2436284526325285,-145.56534465694878,52.098811147559424,111.27424956244626,0.2933444090437437,0.4124456107711594,0.11861381861462,-89.98200367073204,53.06419330206774,86.25518436655571,0.3248317890528248,0.2551580780721117,0.5872105967979256
2.25,-9.534993688341803,84.53562477325944,184.8434100858901,0.1576993952697647,-0.0112780646095698,-0.1679688794705124,-89.38599782705288,83.7293960433013,-5.768721402650532,0.1531950044010022,0.4792798492433726,0.1113258382114038,-145.69447523239353,52.39086431503075,109.69040342711818,0.1146388190234189,0.3542598701404114,0.6277501595209767,-92.45254645437196,52.75999939249901,88.38158756388991,0.5877945453244484,0.4631274449638188,0.5016062839873264
2.26,-9.377000497307073,84.36316945213824,184.80331448100196,0.0685806100351021,0.0299220847311683,-0.1095602441360296,-89.3402949970034,83.58149968025221,-5.843941037599605,0.2946309317154336,0.2555677279247109,-0.0919851328957615,-146.51683221262834,51.61183990452787,109.3462856522216,0.0030962923502015,0.2611371318042976,0.7469484000857479,-94.09650786155876,52.45701369915419,88.03520643981606,0.4383786115082312,0.1296879134664361,0.4630016906617687
2.27,-9.550614534448098,84.05548107251961,184.67986929955907,0.1948921891286956,0.2124661157010752,0.0657440569233391,-89.36312968898433,83.4043836857948,-5.840091175282864,-0.0008305953620302,0.0948428319812262,-0.1541739606616037,-146.67220482325206,51.00363269724454,108.88912286783405,0.0750932623381345,0.3844807212512797,0.1697086865937539,-95.76952101668044,52.14637829363374,86.6445792849102,0.2157764897937581,0.0469093411894898,0.6942543348997596
2.28,-9.36276705282598,83.83505158123991,184.7223599602768,0.085146266680934,0.1094354647263237,0.0483169939903869,-89.1917672684503,82.9020613200154,-5.948436151108136,0.056572449809348,0.1609638036102231,0.044965287304938,-146.55279342671733,50.72117332160726,108.50459003313586,0.2601234556256042,0.389548058529458,0.1844792737328751,-97.16367887282551,51.96428592108384,85.36572249095201,0.3300069122772456,0.0967542851590422,0.5335800912692522
2.29,-9.524562548613074,83.56781542885145,184.69898155829395,0.1946358539589658,0.1216262638943644,-0.17922431661711,-89.18305206412089,83.09110717091455,-5.875340830177225,0.0231071697358971,0.136837609923738,0.0737743998142778,-146.35805177984187,50.70792865385488,108.25525224386728,0.358810695164714,0.3753617833320616,0.122616921280223,-98.115746570099,52.09757967693327,84.21299301519146,0.3297799012448167,0.0825422935450981,0.5757204272505931
2.3,-9.644786057945026,83.67268275619287,184.69051929077517,0.1134126938074583,0.324896422095596,-0.0158339099333865,-89.18190145920293,82.91754582702704,-5.510748734190958,0.0830649340999458,0.2828010619164949,0.063010964459057,-145.80887943185803,50.56990874943642,108.05642263326584,0.4456043125018815,0.2233194452808057,0.3634329226856154,-99.46885399770952,51.734596984720255,83.5593695787045,0.3854178451679532,0.167627206880455,0.4487106140883124
2.31,-9.510652108939688,83.30965811768903,184.67769346663076,0.1207514071875577,0.1265783031018932,-0.1023874750661728,-89.03845327407856,82.66136133593562,-5.551583785183967,0.0492722412597506,0.1746403351187285,-0.0269154190451897,-145.6803515451326,49.89630936455367,108.01913807320334,0.4183500971066224,0.0911841863315326,0.5322345295309613,-100.65975727623332,51.59349182837972,82.6977195897382,0.2429974481837829,0.1606746532732498,0.5116382751536008
2.32,-9.629844773096323,83.00134511960195,184.72069470625783,0.0192630022988501,0.3013511839056617,-0.1378806941961066,-89.16605428146927,82.29254349032111,-5.147174867215013,-0.0804323179457903,0.0728106838984021,0.0291368482711103,-145.71838062654098,49.85636255620789,108.29375692667108,0.5005321206460656,0.1161641155139496,0.1688920995045081,-101.56203818185014,51.54747267815437,82.20850805203675,0.1920690934271417,0.0243933033993034,0.4783845840725919
2.33,-9.34863478909724,83.08814726768789,184.49228642513688,0.0984797456901067,0.0903579879559295,0.0323274440486772,-89.00778600176162,82.19141011019646,-4.947469473793677,0.0607995096658071,0.2402114803702453,0.0197891204840624,-145.13736985637942,49.80659098418497,108.26842782971453,0.1389930058874895,0.1771540994826224,0.1209530314781178,-101.91139579108108,51.21345350668855,81.61723915078439,-0.0532174719854682,0.1257410672343454,0.258474525202499
2.34,-9.407360901848774,82.77214205438578,184.53131990705205,0.0417894054334055,0.1133837721907966,-0.0958120326277172,-88.7563159903994,82.08188049862956,-4.811010016801485,-0.07858755710611,0.0615021892916558,0.1218493759120423,-144.59390199664648,49.84301494727904,108.1426397400106,0.2896295586428191,0.405528240797726,-0.0158631179448535,-102.018966678606,50.88583097417665,81.65954398941014,0.0647540444818069,0.2222978954065519,0.0322470151379296
2.35,-9.50734229039507,82.77789645685851,184.54811559254605,0.168801215592712,0.0464995301805969,0.0112347361163871,-89.0721189495985,81.82615961240514,-4.528771892109959,0.0908351991611684,0.2492170425705887,0.0717560160858399,-144.11270695921962,50.44858043052173,107.863486750335,0.1783835541792282,0.3392507013160502,0.040803855516045,-102.2782460020632,50.639748266998666,81.55035031541196,0.2938686938595289,0.117681534376114,0.4376997455474032
2.36,-9.254798148479422,82.60698956239136,184.63628093484957,0.0801562041905632,0.0792437662524862,0.1865347823736182,-88.83729065923994,81.67947593670578,-4.662973873396859,0.0614731256671854,0.2436868431581209,-0.0617710480141804,-143.580471137225,50.3906870115125,107.7911130252371,0.3333744290842621,0.4584557342091275,0.2021387077566805,-102.8740761218599,50.3529631908572,80.68748220219447,-0.2539636607714861,0.1148103395245482,0.5763789723678476
2.37,-9.460137046628866,82.64651952412908,184.52569665288323,0.0868048562418856,0.0790874506060076,0.0686469456561823,-88.7328578140357,81.58029627232328,-4.393966117002108,-0.0189081061900378,0.20688284519766,0.1525114598375844,-143.25960744795532,50.19310729835149,107.65668940545945,0.4969050811169038,0.2276631076641992,0.4169487994979845,-103.40328130433367,50.317148727332366,80.08430108874659,0.0861578976114467,-0.0947379428477718,0.4487057375681575
2.38,-9.29763318710459,82.25388043398715,184.8314647265689,-0.0811151469441823,0.2528208658058605,0.1585953707752422,-88.61820361312856,81.17566827384209,-4.46311220326698,-0.0008744079068774,0.0441713733477338,-0.0163607374788832,-142.95166612180049,49.698740378716806,107.5895731239363,0.453411930576709,0.4423772250095458,0.7462346834346121,-103.86933892883172,50.26496677763412,79.55070606052753,0.1266252371636569,0.0786397541232224,0.2079088773813725
2.39,-9.251924142299876,82.04106621477014,184.91652100121755,-0.0550718893046172,0.1676542709019973,0.0793675717111383,-88.56585866706826,80.95348308338771,-4.080893519693855,0.3361525322777356,0.0668472269651535,-0.0322423254274656,-143.4921865180572,48.981648592565726,107.34616276522668,0.47977182167386,0.2995977727108597,0.8053539642497629,-104.7277134336444,50.1461952873292,79.34161371352282,0.3358765454531714,0.2531061177079415,0.0150880410842058
2.4,-9.077271719731677,82.0509272502935,184.91306633913777,-0.0633975874031292,0.0655565746727111,0.1133020945234797,-88.21525600669412,80.75065382283404,-4.065828721212262,-0.0262015052740829,0.324441882777104,-0.0152441919453542,-143.63650149577228,48.0898521658562,106.9263753371258,0.3447174061852472,0.2711600774635003,0.661972007226025,-105.97334695770836,49.74530628454882,78.65424886255582,0.3293747309890675,0.4676882865067609,0.3510857024442526
2.41,-8.620756491705572,81.31258058862419,184.53776880474928,0.0202841928254764,0.3551360981630201,0.1123756016616657,-88.47548799545022,80.39221282340594,-4.216483713568536,0.2143624433516716,0.2009699465867853,0.1165783942162631,-143.39304840331462,47.488220913019646,107.2081398068043,0.3201659154690134,0.1879304145340794,0.1112861250074964,-108.21048803139244,49.16560996995332,76.73107348177358,0.3694411956605196,0.1797912328981452,1.2590462527462924
2.42,-8.498622943069018,81.0721715177549,184.54153898408083,0.1095670532614622,0.2461666975984469,0.0913590961363367,-88.56405718110639,80.11888583393953,-4.083513740977665,0.2211724985602518,0.3596598543685018,0.0189142730404129,-142.6975987103213,47.82647568571903,107.2140011190512,0.1983082199859583,0.1563874293773817,0.2030193724454412,-108.8866340296928,48.79923751154405,75.30536151174671,0.5293494979216938,0.0897056238106659,2.1132628277746064
2.43,-8.429098173419346,80.74152895085918,184.5051261801312,0.0711067648861666,-0.0410538022225817,0.1640465401659614,-88.44383730514191,79.92606724502772,-4.067517150600482,0.0572480332820077,0.2626272010335941,0.1919035272168707,-142.94806273498557,47.76309158914886,107.14038964225138,0.2739636366795124,0.1394067053915287,0.0078707672245445,-110.067940959622,48.06592220664806,72.9707002345713,0.271008794865056,-0.160244558495102,1.5800570194615609
2.44,-8.412445218506733,80.65125547239427,184.44716729893543,-0.0299674499395713,-0.0019327712103958,-0.136809140371558,-88.45714411968594,79.51855162028426,-3.8687066413255344,0.138268526500867,0.1555265901326185,-0.0300508531323156,-142.19062984861384,48.0050702816442,107.59310667865006,0.1889341112811473,-0.0221815358596827,0.180207250919986,-111.2569179032279,47.85199523755136,71.87055816077319,0.0474832222906562,0.0225289108951965,1.2242944469896366
2.45,-8.711337902599613,80.50574149728163,184.7797529013184,0.2671321988517157,0.2879884072483409,0.0911303432913575,-88.8199076774114,79.20378978283472,-3.700234077980749,0.2273624482672779,0.2294317210760203,-0.1490686607018019,-141.88931133112405,48.106433892994026,107.5756500480964,0.1438648918983238,0.1169855039851653,0.0897539642544803,-113.17982026715865,47.39245179997812,69.88992059657332,0.3438234099870628,0.395695763134626,1.2015884567310626
2.46,-9.008572936796527,80.28715273803687,185.0558701882813,0.1308239170551623,0.1378532036419315,0.0073167396055181,-89.05385402526498,79.1197461186025,-3.2165659492633343,0.3131972450187981,0.0204196160556748,0.0806373651523455,-142.02935227297849,47.89479757261169,107.8552258572976,0.0793005728756666,0.1366349589568976,-0.1267563452569535,-115.20203659567107,47.47710946113193,68.08384184296611,0.1921220030798648,0.4018152744255811,1.3355311985344491
2.47,-9.15677635371824,80.29314786930115,185.4998231929601,0.0370192652944117,0.1182665617348908,-0.1277623508782205,-89.40448106161273,78.96041778123035,-3.19425742076286,0.1784713504055263,0.0751274373717085,0.0639960118532035,-141.93006838970325,48.08971476122371,107.50215433071992,-0.0995587382524858,0.351257934236449,0.2090262117115983,-116.39693429468718,47.50480092260868,66.63886402482383,0.0781155982109815,0.3204456431789831,0.761443048756404
2.48,-9.509787616872252,80.10244198423928,186.07759637604175,0.4154664796324743,0.0213714462392951,0.1563684800742086,-89.55362382548708,79.06652202066515,-3.2859195471643496,0.2263436294826409,0.0379827227443574,-0.0127005701434789,-142.27325431594372,47.717673879990976,107.31378734318264,-0.1665445211258205,0.0690412144057593,0.2022876168044466,-115.5013842548449,47.80074465330749,66.50986475063621,0.3439075040547353,0.4495147976621309,0.2224771783540461
2.49,-9.815724086410128,79.98818040263198,186.8247076402144,0.2573362393365811,0.0966680175208224,0.0584288637193566,-89.74939078122334,78.79484140179035,-3.143274971738571,0.3589196367131658,0.0337462692566512,0.0489658277457442,-141.9874006257959,47.83342263086315,107.45091716463637,0.1179130130822718,0.0736828813488066,0.3104723148948729,-113.8111431398742,48.396414616338376,67.20610956677638,0.4212122982734545,0.4418660972177395,0.3267566053730403
2.5,-10.341981182225911,79.87722074708596,187.0820953515756,-0.0156924511915465,0.0263944285494174,-0.1942504273042767,-90.17589212449236,78.95334100569156,-3.1890197696354825,0.287128220411052,0.1687790501938119,0.166802704732617,-141.54137818246113,48.20612850376041,107.29388698404436,0.293497529874617,0.0612157204212417,0.182267805721571,-112.96840599320312,48.87638663625254,67.45987192092386,0.2854844859185432,0.348236799242515,0.1835544943908209
2.51,-10.248297657599892,79.78841855837463,187.2844944362764,0.1885411020857749,-0.1706529739149969,0.0148613196658588,-90.04171109725208,78.81027287334742,-3.172813680875269,0.196069026583694,0.2894690491008747,0.1933501105255358,-141.61649248576455,48.2453596721008,107.1431369767636,0.1495793131610938,0.3459661343812086,0.2975354513843837,-112.04961904678788,49.01588160337868,67.61037453618817,0.2895070525406152,0.2666693413715396,0.24241710112758
2.52,-10.671376718653429,79.9137707824064,187.5501161596625,0.148828928636623,0.141547730235136,0.0135479117782785,-90.29354238537238,78.74359969306632,-3.56234724100338,-0.1325070785067584,-0.0883269708881709,0.0653705776546557,-142.18371491106038,47.13633158998163,106.80800642058746,0.2321814946081509,-0.095807536947452,0.9838972058622476,-111.01782055134676,49.374879952974105,68.08896666424845,0.3341211714105138,0.4407554803071338,-0.0018515866997288
2.53,-10.706662847270064,79.74057694227663,187.28182818814963,0.0811930195544568,0.1670468392907103,0.1602090052459479,-90.21129602961524,78.9228341472601,-3.763271805192993,0.1199680197234103,0.1032693403549584,0.0693626730320003,-143.79389447945118,45.3139048531184,106.70285762197976,0.3416086331882951,-0.0292936569769126,2.095178104035876,-110.03634777373316,49.84469609108782,68.18017150325137,0.444775818270237,0.3867583220206103,0.2774198209583247
2.54,-10.663460262280813,79.81693305235665,187.0736433248307,0.0718338813418296,0.1473235160736662,-0.0445228909938007,-90.14906753514543,78.88621159413931,-4.133218845807916,0.014558263606151,0.1830132056649293,-0.0336963400512423,-146.00204281766722,42.73018111469837,106.06831326161644,0.4315399374547493,0.2388594141716458,2.61168385837796,-109.19038263014248,50.06468294574968,68.55657888211041,0.479099419618146,0.1765414254835532,0.4481101540415709
2.55,-10.545402195347338,79.60133018627968,186.62730771812764,0.1159446602340556,0.2024549607277365,0.1570018516083851,-90.0705556694762,78.97018362148398,-4.53154716209595,0.1646638610110075,0.1723071783884632,-0.0249924219740353,-147.6161353877908,40.54715078095999,106.19885520379508,0.4532264851325027,0.1612460545651041,2.040852794208197,-108.07389912620826,50.132426210696615,69.0567837909901,0.8271369381163145,0.1878170125440874,0.3796721223712105
2.56,-10.416095819064504,79.64433965572185,186.1907619886053,0.0612698509937523,0.2345193843846325,0.0630557769657423,-90.43957367046896,78.85891806879135,-4.766359489550166,0.0680508052480278,0.1755957645603046,-0.1166678711938478,-148.43771704600158,39.34936899345673,106.0396604747442,0.0165704943201167,0.2862490105968115,1.181629105424792,-105.70945121135088,50.81376084405557,70.69777051505143,0.6390402914269888,0.2220082822115088,0.8295393701123255
2.57,-10.305622352540352,79.51734058103769,186.23314618486376,0.1359953667749334,-0.1023691849431474,0.066576552917394,-89.82935661036944,79.32801265731844,-5.298476611626672,0.2601327426654852,0.0645618356318846,-0.0729873596216751,-150.39877845335164,38.300866166211286,104.43697706889748,0.5188218435747006,0.1715466659634882,0.612326425703733,-103.35887467409536,51.37180186927119,72.917675572718,-0.0340240631229419,-0.0726007293411886,0.5225845579176452
2.58,-10.363888514255905,79.45098747833066,186.33357031254653,-0.0966412388316987,-0.0970403306272117,-0.1112433627012249,-89.55972481763806,79.03205107916517,-5.3290251076111925,0.147984525243476,0.207735436869867,0.0397419810944079,-151.7410714460342,37.52269086086038,103.5490217585556,0.5114943678142734,0.0455983182102939,0.9335467157594596,-103.42030220820207,51.375697001647744,73.41189172193903,0.0043040878408435,0.1424527649357838,0.5764589331440413
2.59,-10.156737049237863,79.32839312676839,186.20650115885445,0.0319691972287744,0.1058316204012737,0.1158483370406884,-89.56354558783093,79.08974670336215,-5.476907370581615,0.0271442022159215,0.0032782236613967,-0.1839003762997641,-153.17208989557557,36.488023578999744,102.93529132121373,0.6187207921841612,-0.0635334846436348,0.7165678046261557,-103.33360828306182,51.25355102323857,74.26709328061733,0.15466712508081,0.1092243739887262,0.550153306529433
2.6,-9.968107834534592,79.48048095624031,186.1668028071632,0.1897918030298755,0.1307453039059816,-0.0417053942350748,-89.52700251672589,79.11766933227734,-5.699252704750706,-0.0732372391040737,0.0371526329437912,-0.1627424634899655,-153.77923052426974,36.267997925251656,102.46910973241584,0.5228625564529724,0.2005039514765762,0.1266636801412791,-103.94127675238153,50.9790326078753,73.93637846363889,0.3349703339444854,0.0906670818517347,0.6525109559998896
2.61,-9.81937867224558,79.25901722960502,185.873684255978,0.1056330345491862,0.0948837281334106,-0.1639924134152723,-89.31648160677871,79.18886838891399,-5.894564381050694,0.1075652177311485,0.2256187823070891,0.2064703605314228,-154.01407824749614,36.240236565273776,101.90007037112846,0.4112154715429178,0.216742512932433,0.4051066147321383,-104.6820764268144,50.98014728707484,73.47544058091685,0.4975686325722044,0.1111523295452948,0.5125721167868417
2.62,-9.678626210195418,79.25042705021373,185.8904590873844,0.2298304365790191,0.2569519894619153,-0.0545617718870817,-89.10880428494009,78.58024905577642,-6.165904515215065,0.1977835009175838,0.0454108008974394,0.0303767756604598,-153.87564547752763,36.71051196365252,100.99490477204048,0.5399760913953482,0.1824645075343125,0.2589743568831645,-106.633491614366,51.03742372906714,71.84665027782496,0.6025729491210748,0.3848659738873454,0.6126802590145025
2.63,-9.58961745983195,79.29869850345534,185.76380939091047,0.1509296200070664,0.0335761403485431,-0.0324824772132378,-88.961342426027,78.7905958845773,-6.586936665852448,0.1396591208889371,0.0184152959766693,-0.1456015432646767,-154.2489231389285,36.87944411320264,100.00494844834536,0.5250084883181363,0.3114684150657363,0.2914262988201067,-108.19712674881424,51.20877246035912,70.90550196055332,0.6885953619002771,0.3587816054421989,0.1631392456083938
