0.02,-67.77589974417704,85.53747594499781,175.37250276243012,0.0843887595839541,-0.0373262984337111,0.2260188155663312,-50.614906947768745,88.17931081214876,178.6994803679471,0.203702524212531,-0.1133172849706581,0.0153343618172003,-172.95577220019365,0.4031271067812465,12.996039067856838,-0.0343316908470848,0.0594248087220797,-0.0105292253484778,-163.15259069675238,13.25278468345413,7.791087589102779,0.0864930636910824,0.091177581341302,0.2267932682477541
0.03,-67.78074078520008,85.39684744282891,175.49396876182908,0.0541121086957957,0.0409480087044537,-0.0283030574268793,-50.74993164599111,88.12538017512075,178.4461637219887,-0.0920212405894688,-0.0724584194292209,0.0831734319887821,-172.89996341767718,0.5344462687089649,12.840903728059876,0.215590648493567,0.0640065433392254,0.0123779003038488,-163.08703325631856,13.108953912295435,7.777940536664523,0.0119131299216442,0.0328023585930151,0.1312086791381333
0.04,-67.94840719422096,85.47503273028993,175.65187715355853,-0.0716061035087718,-0.0262725476127936,0.1836038729281707,-50.64075690735978,87.98271808543406,178.64105355353456,0.0022159552844079,0.0797339058285597,-0.0709363357027913,-172.80666545760403,0.3681106412133894,12.85487936522624,0.0344032879079814,0.1690638067482097,-0.0337711021956116,-163.16885811498605,13.178814063530789,7.702100331389492,0.0923779954127155,0.1378437531594256,0.0527403294009756
0.05,-67.86076462028788,85.30452589647408,175.63341888033952,0.0383010629969607,0.1143317213172861,0.2055985705227414,-50.81300198546008,87.80061785785264,178.68598338165458,-0.0465501313160361,0.0460509406400136,0.2384450927519552,-172.9670325246428,0.1467212667348525,12.937852346759094,-0.0223339820107106,0.0327768814127249,-0.0088865770303511,-163.2151696195531,13.13473896248995,7.786774101434794,-0.0147329248185286,0.2573383326783559,-0.0472834120496305
0.06,-67.86109154407868,85.35040593070939,175.59109287023156,0.0799792773430738,0.0582577295319708,0.0484024112672676,-50.79779631623285,87.97706506069807,178.73961725022002,-0.0371570870096573,0.0493069825174913,-0.1167512939625712,-172.80634849501712,0.3062338678542193,12.737307496148876,0.0234014673478341,0.1812341669973675,0.0452934364874701,-163.2808539057882,13.277265400785002,7.819175625908909,0.1840094875714382,0.0328104591329227,-0.0372171936560316
0.07,-67.90074409269698,85.38744901337134,175.49322014595725,-0.0094008325680336,-0.0109147320586248,0.1479929347294878,-51.00005616039707,87.72922045750776,178.84584485276636,0.1062293937277987,0.106549819218632,0.1368829505538876,-172.93551381409014,0.4537774689425916,12.930621904247468,-0.0642866783348471,0.2155412156955675,0.0141565858082771,-163.1203867922448,13.20014014609148,7.796216861319498,-0.1525585906002717,0.0566470896954937,0.0124289239982815
0.08,-68.10111869591007,85.46192535147729,175.65625765183947,0.1401363347672264,-0.024532493400221,0.13762864775798,-50.94994906768885,87.93812327505736,178.76471646940627,-0.1364210492376289,-0.101568919805875,0.0180214477044949,-173.08914064383004,0.3308637898468096,12.715779224869587,0.3042822615862933,0.0988745804853885,-0.0837681660797457,-163.03244292860316,13.18065596088924,7.796626043123082,0.0750241134818381,0.1492647878074096,0.0109818741120398
0.09,-68.00150332080112,85.22070257085096,175.49301712409354,0.1138760466227503,-0.0728551471056116,0.1434736163435987,-50.80355926760755,87.73438135352274,178.7214208016259,0.02636422267914,0.1400811510151625,-0.0269187728612692,-172.96806536458578,0.2775644975520694,12.86724484044972,-0.0057836571075365,-0.015588836608336,0.0103036622216295,-163.21998946124523,13.047122296369146,7.926851902523048,0.07118555026098,0.0451211392673946,0.0354024149776231
0.1,-68.09614915720212,85.44352264849516,175.75169073108995,-0.0068305900045356,0.0083108077316368,0.1815363914072702,-51.04173590396872,87.76588987461761,178.8372021104569,-0.0466570574682378,0.2213190326177956,-0.0278599924892255,-173.0818341206469,0.4704474690107736,12.580037510367893,0.0414155838326644,0.072232594361207,-0.123954189564408,-163.55772511988835,12.914131546208234,7.874154462358469,0.2021119859683292,0.0840104119094671,0.2508936860425029
0.11,-68.0590035828499,85.23810467723744,175.51130081972656,0.0182457599157494,0.0869736274569335,0.2006384532186964,-51.142059640776914,87.68371426238683,178.74022183961205,0.0793183895448269,0.2149913943533354,0.2050578897455817,-173.23209130098874,0.3930475299887229,12.782767453070212,0.0652120449534043,0.0216548581162296,0.1897123496079778,-163.6144826275769,13.230861774906568,7.663159385574436,0.2989668335505759,0.1710674475640163,-0.0101609037670242
0.12,-68.12776235395359,85.34264328368113,175.52258271732566,0.1987202922136278,0.0764319680947426,-0.0428047996852227,-50.94743358342148,87.65880796612323,178.70393076494537,-0.0374697096758809,-0.1643238380383123,0.0897672025999264,-173.17642625781883,0.5794474716603341,12.593961626116226,-0.0070479944214654,0.0217307901961853,0.010432732221573,-163.48809780013565,13.198334989065662,7.864784958371056,0.0271322464091089,0.0023331327308889,-0.0169599685998411
0.13,-68.12779603858723,85.26512360765584,175.63086891597507,0.0084103899201876,0.0701604238728292,-0.0012378870952568,-50.8655680755348,87.48382352834521,178.7114076652389,0.129137950131371,-0.1018909289437404,0.1389909453805481,-173.23218579457566,0.2544799038333664,12.808666995713502,0.2555034686100898,-0.0083177111423359,-0.0516488826597629,-163.3707752856291,13.143727893598664,7.750100262214629,0.114723847638862,-0.1903160591609582,-0.0868325413112347
0.14,-68.22826581325431,85.3510877294245,175.6953003604321,-0.042957249947554,0.1260425354419032,0.1184887730581644,-51.063466565442816,87.5251581004835,178.7134336589883,0.2693172914978149,-0.0575455367954042,0.1019551725122428,-173.26068331794974,0.3879819914829675,12.796964927012546,0.0830215429386289,-0.0239376065640519,0.0896191548086736,-163.34726199794463,13.117476759956311,7.790591715523148,-0.1114085905063616,-0.055528910808108,0.0919306036954591
0.15,-68.11613466055101,85.28992029106988,175.61437365461697,-0.0379373099790795,0.1497707695466323,0.1680271196279252,-51.03801266804135,87.63102144921942,178.7808230478286,0.1134041358496153,-0.0934421764428306,0.120303089260782,-173.43825575049908,0.307248608610086,12.86498319327223,0.0900689658040165,0.2518838514396088,-0.0945265894152112,-163.4200278122319,13.145838737840418,7.816677649417208,-0.1471421693102327,-0.0399450394600752,0.0533017720557586
0.16,-68.3302028272929,85.30338787871663,175.62992882186117,-0.0886730113845484,-0.0510302542428029,0.1348739616478317,-51.13036173166106,87.8127729940843,178.77094862895004,0.1354927683858121,-0.0447872421178878,0.0317153951284022,-173.22363491340826,0.1887698557865801,12.73233144212534,0.1199006279992891,0.0742802655192969,0.1101165315272573,-163.3683978855998,13.193817132771152,7.700341693533481,-0.0202459294434555,0.0611773003105691,-0.0879376527530796
0.17,-68.22421487059297,85.16111424190726,175.25479181378884,0.0345358953977131,-0.0125046094069462,0.1006884677816818,-51.32454713752362,87.64331714337995,178.8061069150231,0.1266723570054199,-0.0126636767720618,0.0620215136004485,-173.148510328478,0.2319547337243391,12.855063759684755,0.0511344075343135,-0.1042941667663925,0.1352530636628926,-163.5211019841024,13.11685791480562,7.864502639603828,-0.0424541420799637,-0.0466660924307531,0.0727417246434704
0.18,-68.11664384004743,85.16431802193152,175.5398070889002,0.2017721688768455,0.0406382944707536,0.2691454387990004,-51.25592141390722,87.86155411443444,178.71774506907596,-0.0501278801128046,0.0913972993981861,0.168928210324866,-173.32131179446537,0.3167952540791339,12.828066776370536,-0.0837174536923355,0.107683790627817,-0.0339790616255621,-163.40182058181372,13.011008428888916,7.785430095080485,0.0255920897398858,0.0585247406501276,0.0026775047980405
0.19,-68.37206960935086,85.23284335480028,175.59119836493286,0.1059744090630525,0.0001824858079565,0.1212348657253075,-51.27485991638578,87.58770734746388,178.88293133242584,0.214429494254017,0.0880412776891913,0.0332021859080884,-173.3141760320343,0.2222730283870397,12.59715406724804,-0.1274505819939536,0.0076872855689268,0.1315280071694009,-163.35599607013606,13.215270507187473,7.751355390761163,0.0248708434416076,0.0885771818557982,0.0893283026079927
0.2,-68.30177863023108,85.18128057055411,175.76732342797743,0.1057956235159943,0.0409050423324019,0.1522667615563128,-51.26322563992672,87.58144659678406,178.88630801015762,-0.0652567338011105,0.0377615270430255,0.0644876356915746,-173.1930982114176,0.3182316945047814,12.808702786740032,0.1347545131793318,0.3220418920459967,0.0113612147295551,-163.28181000266775,13.07648901512804,7.849061457548623,0.0562977662626009,0.0969080570138384,0.1741521053598376
0.21,-68.32592420188824,85.43543585004153,175.57089117355198,0.1258617291420639,-0.03222634221709,0.1628598883106508,-51.20096897303113,87.92483598415662,178.76651500823337,0.3331050747598638,-0.1946847543394259,0.1237512076594242,-173.18921369125164,0.1848214216666763,12.822438336697356,-0.1012172156605989,0.1367160008479027,-0.2051029568171281,-163.35962910644645,13.055879359595304,7.784253704523168,0.0383764323497983,-0.0582431632878148,-0.0840355198607943
0.22,-68.39734229842422,85.33639855706758,175.31665555982616,0.1302834694516219,0.186333620863598,0.1746408191196475,-51.13702096126355,87.61347326718663,178.5655784415397,0.2961141476944484,0.1748544724537783,-0.0037370629768693,-173.10640380768845,0.3129867617297923,12.828924187156796,0.0170862632649467,0.1611875063415396,-0.0252922606288163,-163.32318549080915,12.860332784448469,7.775917754818824,0.0435309257218675,0.009466666871718,0.1194196487264011
0.23,-68.31918080769283,85.25771574140416,175.41429731982038,0.1407570167358704,-0.1806073855405436,0.0495601139270853,-51.0689134994869,87.69959297639107,178.69676198480866,-0.0080562620660335,-0.073974099294022,0.1158307550853877,-173.24870267854652,0.2541340590811607,13.03205070264426,0.0956979287991475,-0.0424815830282395,0.0602695392200601,-163.38326857452347,13.01795129417068,7.918308503742513,-0.1889593011540911,0.2056342602292084,0.2927109607449656
0.24,-68.39614692514854,85.30199606344722,175.6082687350613,0.0886840761513377,-0.2480422106238197,-0.1006898609438448,-51.045245785567325,87.64147768351505,178.616820475298,0.1575862814681905,-0.1345380604829289,-0.1001413983166604,-173.38099332922508,0.3144630406801613,12.757307305222213,0.0806964430516064,-0.1325488114254358,0.0852567124740291,-163.4043812438576,13.15548210593704,7.857469227587204,-0.0137827722598482,0.1620122855117829,-0.0682396335874158
0.25,-68.30139995714241,85.07538874121045,175.32887340986966,0.0767187759240242,0.0767633551837419,0.0803316744393645,-51.15519174861887,87.77089945985406,178.64122844312053,0.124363139197063,0.0175633682689601,0.0262628005084114,-173.3078464682837,0.1831924340465869,13.061035990673886,0.1999382379968094,0.0334290556081262,-0.0320377556837103,-163.3628849753782,13.216968015445268,7.836312307801755,0.023618304400691,0.0789843136924963,0.1299828538594355
0.26,-68.62094001137332,85.17158887793565,175.42471704140922,0.0473612242479337,0.3558219515518323,0.0174850873766991,-51.22185438011048,87.80081421978417,178.6855297184648,0.010695633562777,0.0326953741972134,0.2525225774511771,-173.28012930683232,0.0695002040028888,13.0200254081736,-0.0139710104946255,-0.1029847732436805,-0.0831574282909272,-163.32361644516607,12.888509175380085,7.90853108524765,0.0522790818129483,0.0093412740090303,0.1215125297656285
0.27,-68.49073083402027,85.30489663492274,175.33559569688276,0.0365274321311884,0.0468563372738667,0.2528962937319838,-51.21998366668062,87.57636269983189,178.8305603675609,0.0797818190508848,-0.0656683462730085,-0.0524259870161474,-173.24920239085066,0.1748842987561966,12.84172925050927,-0.0395864044883262,-0.0681331373314901,-0.0112057445870469,-163.26891475770154,13.0533927772936,7.861803620050308,-0.0867273547747685,0.1329984342596511,0.0359570322455942
0.28,-68.54758600429894,85.1630357780916,175.61567838277554,0.0635643585771628,0.1180938468035107,-0.0429442785259658,-51.33161544722891,87.74022137786595,178.77936723181972,-0.0767030995251892,-0.016674144192301,-0.0365100062017594,-173.28022391949557,0.1698549467758268,13.04235109930186,0.0845808617523043,0.1108561903997875,-0.012240001822545,-163.44785414413778,12.961766955316586,7.874522532650134,0.0015815055056035,0.1497609617971182,-0.0932370713051666
0.29,-68.41923873901604,85.17127690662129,175.5509355071334,-0.0180830390359578,0.1774981635839712,0.0273932857114742,-51.29312246064602,87.76435624570321,178.8446298060506,-0.0278006033252426,0.0595339341174125,0.0720581162101296,-173.45741114069537,0.3727647170214505,12.776115194807971,0.0320497299024539,0.1642836238193406,-0.0157490794836376,-163.55096822604375,13.018513502627124,7.829421496836681,0.1496670051080634,0.165410826411154,-0.1282583068922654
0.3,-68.69390894964491,85.1756506238414,175.4765619652607,0.1793095243165589,0.1113241290096946,0.1925593850397339,-51.24535567655441,87.72479630381095,178.68035976111074,0.0199181313883229,0.0967836740098377,-0.1475121632021651,-173.43698397840149,0.3578122408288924,12.943919690758865,0.1516123721357809,0.1308193403692281,-0.0353707580623609,-163.36304830221815,13.147764514732978,7.941566378750596,-0.1855958773673599,0.0806425855780335,0.265180518054328
0.31,-68.66207908886524,85.16948408348784,175.43930862582437,0.0590782625854807,0.0918335726202149,0.0988920702570352,-51.20390931583047,87.81574684053184,178.5790385785274,-0.0137098370484356,0.1703292680194304,-0.0196752424590669,-173.03313803346984,0.2932379454619599,12.935101550035847,0.0969457645352154,-0.031910992516024,0.0014489633946746,-163.56674563919054,12.970407207522396,7.812111691069675,0.0732017643757043,0.3066311498346564,0.0995023299308125
0.32,-68.6332063608785,85.43071985298522,175.45880889200373,-0.0443718245578083,0.0946915667318077,0.2344038971169842,-51.195496355536434,87.74596083853685,178.66947385541587,-0.051831777981531,0.2395447481871058,0.1231110369333161,-173.33328218352946,0.3568159185967323,12.8653307242889,0.0197157774420226,0.1658163460400954,0.1423645018000524,-163.47125501096326,12.870528237592955,8.19864681882539,-0.0048132092465317,0.2223228298712508,0.0941152048495617
0.33,-68.4881734793701,85.33080883501556,175.45371370153492,0.1003403178165662,0.1372363105445881,-0.0142420514760675,-51.17160204465368,87.70628056422171,178.61801450724835,0.0475149796089031,0.0490294773938905,0.202370810400267,-173.32186568034956,0.3417511013553637,12.944322322919644,-0.1118430693595281,0.0238970781124026,-0.0597329568593835,-163.7504409474079,12.73704729940559,7.903468087095597,0.1052627896209296,-0.0542028126158449,0.060976461465221
0.34,-68.81653865018443,85.30438804112215,175.55085972445437,0.0569873440441463,0.0717077922114515,0.0676476593259774,-51.30976472172311,87.90448076578542,178.6824357664249,0.1202291820673451,0.1863970732018421,0.3345053600205183,-173.38043035244982,0.4135413199954101,12.868813946247728,0.1525224386666538,-0.080514727951837,0.1093629397527283,-163.70264126162033,12.739583970867892,7.874832096726037,0.1307451255201091,0.0639101280650712,0.1651645344539811
0.35,-68.74981131375692,85.29076145345523,175.43374714024412,-0.0048735103074849,0.0296448751525065,0.1132467732077382,-51.3074036478454,87.80180632387604,178.70801273987803,0.1363144225399944,-0.0236074571522525,0.1053423363114154,-173.35457152787583,0.2560618902629689,12.999539303933044,-0.0752676261893785,0.1483637792451312,0.0517602053618266,-163.77131153529757,12.970376485876246,8.038321063993388,0.491145233542799,-0.0128909285259008,0.1224112569285549
0.36,-68.80109748781022,85.13734131656456,175.40776562270244,0.092809780968912,0.100107181640828,0.271113551543325,-51.31248665121989,87.97855864832593,178.60980955295744,0.2088226284619058,0.0193415339912475,0.1567728722519792,-173.51165735503508,0.2203132201350073,13.021535120298218,0.1593454251378475,0.0864215924683718,0.0535594397875468,-163.77255606841237,13.019347660536894,8.119714126018067,0.470936769620834,0.3907627036862598,0.1894513722414094
0.37,-69.03982930803188,85.13389161437667,175.63378401458547,0.0757828243264182,0.1155394540774388,0.252739376825619,-51.362343446366346,87.89750025934586,178.5388487255102,0.3219011100305988,-0.0862586941218935,0.1887267503918844,-173.33796396656814,0.409553121380764,12.950912478110215,0.4100489290460291,0.2183371731019482,0.1267753381917955,-163.6268070920809,12.856011816486552,7.939671798535836,0.3380722403852061,0.4225172788212348,0.1479834963537353
0.38,-68.91386231770495,85.52948137018825,175.56374329497956,-0.0366783731065348,0.1688977189958904,-0.0140056927620594,-51.37867873003358,88.02300871860515,178.66747578441445,0.0175172568264104,-0.1243623297900749,0.1678890386863405,-173.23063860379898,0.3420852624257621,13.18747596027922,0.1412811492210041,0.3155964027011699,0.1573391728288992,-163.4307422877922,13.077335643168908,8.093832561335029,0.115368401532215,0.1193846497404747,0.1496511010332655
0.39,-68.90403656357897,85.33921786396724,175.54123707214117,0.1045381451534473,0.1880514515700687,-0.0310800875386135,-51.58241517046545,88.10295218658776,178.51018773607453,-0.0489758063916511,0.1957588163565754,0.4125281464050848,-173.35469380541505,0.4164872770873069,13.002260490280868,0.0453588814470655,0.3010666947989549,0.1162184105010612,-163.1377646017025,13.126166947293411,7.977705592334191,0.2895199591564917,0.6267531830599056,0.0395987898253164
0.4,-69.13106599612131,85.3422015317945,175.39943806567976,0.1904318902336822,-0.0238963100522707,0.1357616729316581,-51.20695215468292,88.0422727312803,178.48714756853974,0.0075991952040681,0.1208852359352421,0.2091765616576966,-173.06716284214056,0.6076127168611811,12.97962399926129,0.083354595722501,0.298493217331931,0.1120697789895425,-162.77137461210393,13.391218205065517,7.612372029469237,0.4002320462230845,0.465963396356209,-0.0131356994380599
0.41,-68.9807693473095,85.51953023271606,175.48127376747306,0.0204568357118802,-0.0241123890625903,-0.0439580423083884,-51.43350830357252,88.06599094640522,178.56051008131524,0.2497773593403001,0.0864925140660477,0.1377753854592326,-172.78074047944085,0.4538299602992379,13.139503866200188,0.1932275120292216,0.2665808705073609,0.0697693745388153,-162.3851977001698,13.419278906116372,7.640040848655537,0.3340367178866933,0.5077798427366135,0.3058786307134847
0.42,-68.82047705802921,85.2422367483062,175.4568837060486,-0.1003399203165918,-0.0954266414803143,0.103433370859292,-51.0651303408601,88.12621153841619,178.45708824303676,-0.0341617705577339,-0.0917029567930724,0.2066154149074262,-172.52202217553446,0.8415236333636269,13.060586739380968,0.2629639763465664,0.3836075062636406,-0.011364180473855,-162.253495704392,13.564479177399235,7.58906286689985,0.1110160620352229,0.5495076414644321,-0.0769361482782048
0.43,-69.2868398914084,85.09936490831728,175.62352280268058,-0.0356814469445251,0.0326083019986261,0.2805819708081721,-51.19971489438067,88.2877464046043,178.34648268943812,-0.0744093993463413,0.043808046099798,0.3574825240567244,-172.17356257863645,1.0468893485720296,13.247039197199456,0.02731785558781,0.3172783339285097,0.0482758290672054,-161.77417352271686,13.85898697822308,7.434342506488241,0.1823827676578902,0.4581158372432492,-0.0339340340373675
0.44,-69.29407381649017,85.26755637322186,175.56458037976836,0.0542477769124602,0.0462112837827545,0.0220552024366651,-50.95933277602869,88.33818464894219,178.31829673400958,0.0725610801786875,0.0423400657298213,0.241585035437733,-171.8929616112287,1.0811598436100025,13.195598299966605,-0.0304365169659362,0.0691011830400386,0.0629059189889556,-161.4131350006053,13.95489643807024,7.312621466391276,0.2025260442534376,0.47507673779612,0.1610041091615313
0.45,-69.20803478527534,85.09841779504764,175.5032822500649,0.102440911478792,0.2301350744232018,-0.0055115258796387,-51.12863554117795,88.59248550014772,178.36030512292976,0.1806541779692307,0.2624539484546286,0.1995794309873289,-171.62602805200592,1.3507525362942134,13.295121691849312,0.1775996386920853,-0.1263653456463136,0.0815550929260364,-160.58560443818598,14.178410883612404,7.2426459285014655,0.0407185192011036,0.6495840956596814,0.3199493121610647
0.46,-69.09631825101604,85.14862510268134,175.39276323274504,-0.090239066947108,-0.0907646298992591,0.2138923970305886,-50.67512405807931,88.49782964392088,178.3573050640798,0.108217126102378,0.0160732020720378,0.1757413688705315,-171.5755827631034,1.412077331837854,13.177553901037523,0.063094956716851,0.2378879367321413,0.2432430262290866,-159.45554791756953,14.595335607496787,7.60550840564771,0.0237924924924027,0.3614275619622549,0.7571228716808482
0.47,-68.83175701102431,85.2854039733307,175.67109784600697,0.0540826853423437,0.1584761108902302,0.2259659994078191,-50.76540805106044,88.77303887832163,178.1701858657791,0.342210082142359,0.2035849764264243,0.1943154599613815,-171.44160769408995,1.6925702417911563,13.238889047946047,0.2045712190162021,0.3327707916203668,0.2734584303299271,-158.91033879446726,14.71727038164795,7.448486770263897,0.0076703105781892,0.6359673927136238,0.2604534518393503
0.48,-68.77813463941051,85.08679919411853,175.48555036972746,0.0332862961835853,0.0350755734655977,0.1275160662218221,-50.32868921290434,88.32666495027732,178.54233229718997,0.3661334664774491,0.0762975457426571,0.307864397982227,-171.36014990436075,1.9539482839935116,12.98434637101884,0.2234467418823876,0.4071357788127323,0.2379693007070458,-158.31139942891298,15.0259443613722,7.45380190673535,0.179716349258936,0.4490789195573694,-0.1617155574591031
0.49,-68.97868492835796,85.1349051073848,175.61497504998815,0.1248681847655336,0.1618778817156806,0.3446264551622434,-50.0430240456162,88.2272034664379,178.38149721145322,0.3737961619178223,0.066683390824596,0.1320068889965029,-171.09969267006687,1.8822678530932544,13.008057405160391,0.1228921455121066,0.2865973016945158,0.0292671526708763,-157.56763690905703,15.24283074448378,7.492720187123787,0.1350264272853063,0.251789373007084,-0.0499569774234496
0.5,-68.74970135201961,85.18355502971058,175.62090614566736,0.2260155593601874,0.0098752119959942,0.4273323098984041,-50.0536726180768,87.5266394342552,178.53918283896917,0.2493969989159776,0.1239992297033808,0.1352131276332722,-170.64240033928866,2.24589934447289,12.850225243314569,0.2668201545792031,0.1833069987947722,-0.0024386221379835,-157.0852049929437,15.28306537116882,7.680249328953455,0.1754040407080432,0.3916720610078604,0.1585267663140057
0.51,-68.59120819813737,85.02488150715313,175.65704600369435,0.0080537328446798,0.0127197370650149,0.3342981576032499,-49.90286969015774,87.34960821941678,178.4232966134944,0.3006572255014715,0.1775891887222213,0.1752005197687496,-170.18541009217333,2.32609101099244,12.420910367507576,0.2766998792040662,0.3132275903458811,0.3791631426663068,-156.70807679173905,15.307336389213894,7.99869269152201,0.1247235220708828,0.4494622536217496,0.5265722015996323
0.52,-68.45904709270832,85.04504323217378,175.87400076410887,0.0181929505063249,0.0218314881465473,0.529004151039958,-49.91926807531463,86.48001878771642,178.69305265623146,0.4543718426168148,-0.0601459013600376,0.6900545970685984,-169.82488938632562,2.437924578837986,12.314533434598598,0.1154510094274295,0.0606860479064611,0.3516945203356512,-156.1525672951683,15.26214707599173,8.214200950162464,0.3440981362121661,0.1707570907381412,0.8007892332343228
0.53,-68.5726599324441,85.15960752899247,175.85634142488365,0.3722052424036378,0.035275615272427,0.4484071291785969,-49.85120148224663,85.45436397612755,178.7758308871235,0.2667128647959204,-0.3605535532333326,0.4315516060311255,-169.2145397681367,2.5917098895337127,11.873446981148922,0.3864981776571558,0.0430936852390293,0.7853442631936732,-155.85977348645193,15.469392443082803,8.342631599724319,0.621171383664673,0.1328123177688484,0.8526936011356069
0.54,-68.35088488391654,84.92998655290351,175.59202171667363,0.2679197584308052,-0.1319861532875008,0.3412478676486683,-49.74630508504816,84.52609597142745,179.04854200231128,0.1560172979433022,0.1064357214680307,0.2238657802677848,-168.82615716653825,2.7923275052419423,11.605753138084554,0.4088488737540815,0.0795732364524806,1.263407668823478,-155.72480504867875,15.628076842465244,8.93824819480988,0.3968341680962984,0.1642240224986013,0.7870735223578159
0.55,-68.2584414414005,84.9577494097951,175.64437832150114,0.6460931358132667,0.0322715405237773,-0.2301775332702024,-49.74082058228428,83.32633782391156,179.02015714727165,0.6602664118985507,0.0070686724235951,0.0482669493183979,-168.67392825574376,2.504113769984428,11.655898072356312,0.4130156722302346,-0.0487244480536025,0.8200605232772642,-155.5681385587259,15.586189977664713,9.425601016979698,0.3940905536296203,0.4546109105525878,0.8216884780356197
0.56,-68.18764383534345,84.7315249361511,175.6490265791129,0.2802595259227139,0.3725255598090694,-0.0143942947205022,-49.827544013042505,82.12918650689804,178.40683059173318,0.4759342394764543,-0.1572674877855018,0.2668531672753286,-168.22349016133097,2.726677743846996,11.224351701260836,0.5820323416797522,-0.0655639093631637,0.8239266159356291,-156.05407108595676,15.62210643019158,9.944042884416154,0.5578915013997621,0.1757156129349734,0.5414949398013537
0.57,-68.22378698479574,84.56041446978901,175.48143599025934,-0.0561741502851522,0.3088325317812275,0.0398168183210677,-49.84519469742553,80.75648661290349,177.86785997414034,0.542830990061573,0.3134715674768082,0.2737749266665484,-168.33784096837095,2.557034648493003,11.066823927740591,0.2042125469782372,0.1698939210170525,0.6212533792873659,-156.05989258817468,15.677931900567264,10.504547014750258,0.4822152863944878,0.2220189974869599,0.3970523236875848
0.58,-68.10301336792996,83.99606671584684,175.72361181800918,0.2662076184782233,0.3506473003105022,0.4317392568039477,-50.23467902170073,79.59169008495189,178.79993386008115,0.6028886273905109,0.2975189400520708,0.1280296113868416,-168.6656102473084,2.539240052124218,11.340724074594204,0.3444523037624434,0.131112196851746,0.6275703577237743,-156.44038466750814,15.571519715541488,11.090640169584168,0.3814519461478473,0.1456414321586685,0.484456812944828
0.59,-68.05081658710732,83.61066074987876,175.46999970027318,0.6958650930585127,-0.0891179120725208,0.2752401237445878,-50.383567741806935,78.32169249315669,179.27954573178354,0.1305630445720948,-0.0038937658506272,0.115113261885834,-168.9379707079751,2.206964979255684,11.152926436134903,0.2202744255987499,0.017850074821464,0.4692964335330698,-156.75642545495975,15.414014258473127,11.682196646863405,0.7600613936684881,-0.0150024919170263,0.5218479974006348
0.6,-68.06523664950477,83.61157224152758,175.5072175421312,0.5628957016982941,-0.1347686376139679,0.2642155343026986,-49.97583934549392,77.21416400842408,179.4425397131845,0.6185851016494051,-0.0244020823551446,0.4321323435938943,-168.96462120387744,2.2228778248217367,11.06276051829513,0.1059845188124063,0.4640863211554983,0.7841244504702936,-157.11094673890898,15.512487510930288,12.45540959724365,0.3956832955235383,0.174892162418946,0.5871522745657992
0.61,-68.23083013503012,82.44269051319009,178.2496257125345,0.162118035488147,0.0955845648146463,0.2207747312644517,-50.12204977284654,74.35443983622854,178.8480249308764,0.5949527956933305,0.0874933162589686,0.0505357823121958,-168.97979609769828,2.173590915961842,10.859998470912196,0.3117574119238759,0.3941137441258183,0.5288193521848397,-157.68731273867556,14.974461472014266,13.740700509655609,0.1155167748166383,0.4126769300425778,0.7283739432121971
0.62,-68.2885625684124,81.78991103593665,180.71603730323503,0.3046654531743474,0.0565085009193376,0.0362696142858391,-50.058957533733945,73.14459981938877,178.31772913952176,0.7639984428598111,0.2115055961061548,-0.0192496973239279,-168.75890865457674,1.697457340983659,10.741210564921312,-0.0771303302276259,0.4313093594482331,0.733947952312236,-157.72122743498787,14.489898893061325,13.883720418582152,0.3486574700813741,0.1998694608240288,0.8910287357449156
0.63,-68.49512060323843,81.30801628353038,182.65619771820056,0.6394857138269406,0.0379508831454558,0.2471116151127673,-50.00662287066882,71.79135641312261,177.91312785542388,0.7303523904329492,0.426912776777879,0.4053350606158138,-168.56635271910514,1.66325260083698,10.478932120570832,-0.333538876605008,0.1971511484443531,0.5942111986509767,-157.61901238451293,14.30600813928711,14.127101953531636,-0.0472675479900579,0.2023451208670629,0.6602660869290594
0.64,-68.59386133485836,80.4937986339236,184.8283040915377,0.6996421010685452,0.051636056490179,0.0782089259611983,-49.88392781673991,70.38348287759763,177.94733094422998,1.0475649490426513,0.256249386747786,0.1896352145289513,-167.9260321980608,1.3440356295695657,10.209997872245731,0.1268857883062193,0.3803070589400006,0.7363600039792118,-157.31504496118973,14.452343844164266,14.378382062525302,0.0415314426357789,0.4764801443562293,0.912832584899148
0.65,-68.68257411372953,79.87032021496059,186.79938988692248,0.3954483613738775,0.5075524331332693,0.0874230300839771,-50.327444869055455,68.48578888750971,177.8158031893442,0.7466776432985921,0.5022513012565534,0.3401265338250722,-167.06987065681307,1.3240911607841177,10.16481791608162,0.1576034988591345,0.2277425462373738,0.8588533024359394,-157.18397539338144,14.266643308211025,14.59152706303792,-0.0322099144930827,0.5698277157015009,0.8302106142725552
0.66,-69.11424448733432,79.21574652658911,188.83558193551443,0.7452719207775564,0.4396462163999043,0.4217872045995392,-50.61211809999623,67.26720343615314,177.6955069686229,0.5865483520077902,0.5267254671459397,0.5212559731868972,-166.4168670779352,0.8731544135815741,10.130743084197327,0.1876186457944737,0.1136980783537209,0.7785733713265299,-156.79001451091935,14.021414229418657,14.536729749645502,0.2935701413842752,0.834124799514011,1.179835494667949
0.67,-69.50388167006776,78.11558784516231,190.55308813436724,0.9721310301617724,0.1810489828361368,0.8135840453579933,-51.1029064036378,65.57359044663029,178.00966846780284,0.4614274348979657,0.6606934640109777,0.5044274926725983,-165.34049071853005,0.8102565720608944,9.618829070119109,-0.1257899936202611,0.4110360990900585,1.3334360196298,-156.7454056403821,13.982428495510655,14.526760578284094,0.295578948757062,0.7806274135897463,1.3948594867390116
0.68,-69.77988233112487,77.28655507742008,192.22688575808317,0.6042751660548844,0.1114109603737548,0.922212950456154,-51.93514707152186,64.10950482190725,178.31081216539016,0.1017948494873451,-0.0379779092005184,0.1360138260671823,-164.37766406698788,0.6961991436159419,9.178765904653178,0.0857164525400628,0.5433132379195356,1.495044535805179,-156.80749680920172,13.805083021204116,14.529721585366,0.0866548003051732,1.0746268373077776,0.9372607402363494
0.69,-70.5606533810373,76.35501198868018,193.62924868041185,0.6356138869939003,0.0505592450798538,0.6761077190541911,-52.46755763208118,62.58684529947442,178.44876078354417,0.7491756879180627,0.2503989981585405,0.4909682704700757,-163.36302018423729,0.3290737540501511,9.192638775161656,-0.0014102444003511,0.4559285715274248,1.0579657797374509,-156.65835732921133,13.74462687002982,14.37671710438413,0.1808076691923169,0.8951599192572063,0.3101327238083679
0.7,-71.03530778725973,75.4231740514492,194.8225186460164,0.4406251276599457,-0.0078298484346094,0.3731016648959493,-52.72387675067917,60.97920996296832,178.70087315969425,0.9949388482402388,0.080430445311329,0.4328385405694829,-162.628768052268,0.2050115135463699,8.922910935614011,0.3133262168132388,0.6190055282439043,0.4695854872883871,-157.0132649319455,13.547290663213094,14.033208065017996,0.4239011469225494,0.9448753074686176,0.2622290446340375
0.71,-71.63080655077847,74.20249105355023,196.20122167075317,0.2336078050528093,0.2546931769937225,0.4164666687311591,-53.16153445263596,59.35522437541359,178.8934369993517,0.7241690840848715,0.4069823446107237,0.2895895909339692,-161.99744443168723,0.209345210157768,9.138229520786291,0.3281631023565565,1.0534224352266883,0.4737181769435789,-157.57460827177135,13.169479377642208,13.687542293835998,-0.0026616422689995,0.8728452237965477,0.9047825447925992
0.72,-71.97679917800147,73.00604022668995,197.47070194997096,0.0571032354869299,0.3858791134715396,0.7243864351885415,-53.89560493531242,57.81329692360093,179.12330424502633,0.3787108163572385,0.021583372661262,0.3178571183076193,-161.98298083747505,0.2728772240340707,8.95609856618658,0.0222227351715225,0.8218631692963807,1.2383347150652555,-158.04144166114372,12.676506545927907,13.88983790113782,0.267170832921269,1.2132204080109543,0.7936036339093147
0.73,-72.84031424381746,71.85634778880262,198.59126497180145,0.4860402227511933,0.6056991273161343,0.5432127527347775,-54.19683770667736,56.8734758908647,179.15107423902765,0.3171062422794298,0.3448712444751915,0.4822517778145904,-161.58673852678578,0.5797184015289685,8.827002933484986,-0.0691756165827822,0.9396391139744082,1.1941814390895231,-158.5880992356401,12.49983889635325,13.843417879978569,0.1883645556985503,1.229969540810322,0.6152615882590005
0.74,-73.31397246041352,70.74134281192434,199.46111625461165,0.5004973524567328,0.8217690401063688,0.3967325675248164,-54.61563778827554,55.67824775793536,179.48770516018115,-0.010906225871626,0.5010325340934617,0.3389392560909609,-161.60122010436825,0.8813446124939595,8.664151596071074,0.3657166378680467,1.275595072710069,0.6246997788451683,-159.43318166822854,12.286341394723932,13.824211515635078,0.2741812095374476,1.1105528195069132,0.6078271140154544
0.75,-73.51911231377254,69.6169935488954,200.5155036923183,0.0009512472398527,0.9185598408445824,0.5948337782768679,-54.48134847283785,53.89763898909748,179.27187934009083,0.0246710749716677,-0.0758357614370458,0.0913852803931953,-161.61374763227693,0.9315457968606724,8.842323448318362,-0.0260948784488409,0.9020236158027742,0.1995739253848551,-160.17454942489763,11.934724603532729,13.760792514966743,0.4403907875817308,0.7038815980134326,0.5074800827710018
0.76,-74.05513036512988,67.41067108540145,202.17932893502044,-0.04240807316069,-0.0316191027620878,0.9956655899466972,-55.196084594595845,50.9097028287738,179.37072540374697,0.5910059703655905,0.0704211102448904,0.1362990809344758,-161.88472027602174,1.4621801724807395,8.235415903430637,0.3917009934660527,0.6674906689241223,0.2862413357596627,-161.3299073333785,11.61394320374658,13.63709107574881,0.620024690863369,1.1695230523839504,0.5653212203372451
0.77,-74.25682103018512,66.55071645110269,202.9584690022324,1.0192440904971125,0.8969042377386682,0.9798343595536124,-55.84813875871762,49.60890439755539,179.72874063795527,0.7209702269831528,0.8388454686680955,0.6152017054801351,-162.11904736098654,1.727787604218286,7.935644208972426,0.6839972824948763,0.353926203139505,0.021525763177086,-162.10895099269447,11.290082354990709,13.6488192824482,0.2146968752754953,1.1378142841988423,0.4505664596687906
0.78,-74.59993317934737,65.41186168577235,203.572770686343,1.2545149715047297,1.3820246487922732,0.679412326558068,-55.74825193158627,48.23009729381479,179.533654918105,0.4989643155538368,1.5053176594337094,0.1800769968912044,-161.97856120249935,2.0672413452959844,7.791011469598169,0.4569773918050485,0.8423808632373351,0.3791875846246023,-162.83345453306848,11.010118614356642,13.333679915727734,0.2116081324466984,0.3383603842408388,0.5211987438451458
0.79,-74.93069791283541,64.19907405833278,203.81965020173104,1.0893817482155874,0.435579994701156,0.3644855964314901,-55.383318759034175,46.70308710143367,179.34173172026476,0.5694153142488603,0.2879671096534155,0.1221136594969383,-161.2602794569929,2.1714272046623737,7.323070253906519,0.5917033533624919,1.2242639865285017,0.453308404449167,-163.8247553890848,10.645988941569748,13.407570870222298,0.9063445253004588,2.730505015644704,1.3156430752912998
0.8,-74.75169935785523,63.43366127967216,204.1281890138548,0.5847076681179659,0.5643835679348838,0.6095260993722409,-55.59421764304399,45.5212532781118,179.22507337469557,0.8950378446289395,0.3873555238823661,0.2547928588937395,-160.99691633274068,2.499320132583717,6.942884943900592,0.1510219448031971,1.9202089391050996,0.0887770160697464,-164.45937273591525,10.612077899897526,13.575982204887504,0.6834041044868303,0.2184602661248104,1.2558077521410704
0.81,-74.94542359121266,62.6399788778157,204.24350134285567,0.258376439041888,0.7629421753380707,0.5475152563889811,-56.646272046481016,44.3606529082221,179.2562812796034,0.3920722815271476,-0.082811686263946,0.2838714665453092,-161.15550151004103,2.854235207542081,6.653474689628916,0.9503394884515166,1.5060861967490315,0.126544588137111,-165.80786438471728,9.813316860350858,13.181351315601615,0.2033901996167587,0.5251455480390557,1.9600345026797457
0.82,-75.41285345868748,61.85348146943296,204.47483487579063,1.022327667923193,1.0440171446672637,0.8162344657417991,-56.52597454054879,43.26806446200785,179.49345392264172,0.5835843244605783,0.4198892427323049,0.227326893339686,-161.6034261189834,3.0225366958311453,6.052791210320108,1.2903850111384274,1.4893167383655832,1.1741413577285889,-166.96004735494293,9.177493588071757,13.387631953337737,0.1323282842521646,0.3079295902279765,2.054003511015771
0.83,-75.5012797625859,60.74756033282126,204.7716396347808,1.5748054869573975,0.4839614744678641,0.4992024053293933,-56.65596411313162,42.39237612008684,179.53478611123364,1.0420477464945177,0.4275979484866677,0.3976326839523009,-161.70372613629448,3.157635412434677,5.443291208482744,0.968486979287938,0.9720176916609284,1.2647700980217322,-167.58250894859248,9.171208366426397,14.042569256653096,0.0121335082339238,0.3055689591378745,1.31558826344854
0.84,-75.68121225847388,60.15273037076224,205.13133768472647,1.2368909730137465,0.3463225964407405,0.691914086567008,-56.564013970427695,41.4945442941528,179.64929711276565,1.5235903929015586,0.0789751974379672,0.357645065460733,-162.14608383650892,3.456127565374812,4.913391939187104,0.578435416860864,0.6987825147918721,1.2250108797137496,-168.31466246579342,8.847752384450601,14.064901339251051,0.209740472183685,0.7371362672001015,1.7001632571032794
0.85,-76.01069704214879,59.540235915612726,205.36382847817285,0.5601269298735501,0.167460069484615,0.6583485952059142,-56.4855978647396,40.65055537504546,179.53686135863938,0.8907285950194779,0.9086377053707828,0.7014630253130877,-162.85748855172545,3.6158394549312223,4.097531227936553,0.0435202040476422,0.6838082600762694,1.1786852172835287,-168.7815105218218,8.560088683401368,14.692005160149536,0.2525707185660418,0.4620016870471533,0.8852710848613159
0.86,-76.11693243711181,59.00961764445413,205.4177061889936,1.454177666423458,0.0400102668824966,0.1418111148204933,-56.550753143745176,39.93116850798109,179.345163342705,0.7908209538853825,0.769225509462674,1.1074901573492686,-163.62108345853247,3.9641284819531006,3.5646567161746825,0.0046049869559751,0.240982452710262,1.386657653706577,-168.80037672889227,8.301439978102813,14.9992358556246,0.0969091475052216,0.4195806568040109,1.0131975672791684
0.87,-76.80921448073741,58.4731439422636,205.50356458615704,1.9642226540016885,0.2185821068017263,0.1753083511588976,-56.97651001621915,39.37668870642828,179.0458175396982,0.8299205636947641,-0.0242552805311401,0.7477785861357613,-164.27261069077983,4.023627169637072,2.416589002614378,0.1254191784760557,0.8054787307948126,1.5508303744129397,-168.99189767915394,8.113642578952813,15.492401341191428,-0.0503951033376276,0.1570391758483317,1.1303499260873484
0.88,-77.54248387041307,57.92877018021692,205.8685098308388,1.2515425486671334,0.174213547317191,0.4793380903899249,-56.7685428287893,38.56195218243301,178.83248692465216,0.887469407333134,0.4649774992872935,0.4747421437939605,-164.67320330255774,4.03857048379672,1.8404513935195748,0.3196174712001984,1.3295930636549196,1.1867850329291203,-168.96726052174927,7.64432168355712,15.49000840053731,0.0577266902208536,0.6889480471079206,0.7092017323015134
0.89,-77.50274409032743,57.57589683927191,206.01333746209173,0.3535707476131661,0.3391232399299951,0.8666637623012612,-57.015934756545015,38.093346931377255,178.93312953697944,0.8201166379647447,0.3058559736183396,0.2376698712192377,-164.74766758595118,4.080346492529908,1.2827406827077528,0.3018477040622377,0.0536561338437996,0.7316357578868781,-168.78583359146174,7.397858406401293,15.615675437709784,0.1174019102864844,1.0643452894286625,0.2512922791800915
0.9,-78.01677617818159,57.285844235636674,206.0144889194975,0.65019019215701,0.0345100551178729,0.5644802293524083,-57.04246623319742,38.06028905316329,178.67097059893703,0.3682025181323662,0.4571450768618509,0.4848717777059068,-164.25599689998992,4.495738801696654,0.7901411983609603,0.2546299784810968,0.8859597104223504,0.4992176076684216,-168.5346050362628,7.362426569586918,15.610273495775091,0.1860177929785702,0.2771631937743972,0.0283867249136643
0.91,-80.0087850083002,56.56313805155411,205.13864371269872,0.8530605823586603,0.3986787332943282,0.0816518494524545,-57.66787775719187,37.116932327324285,178.1689554830399,0.3615567966133959,0.2486073911852769,0.0492672759086842,-163.5230439167812,4.680049276060632,0.3402085876058788,0.5581013751035792,0.3965846575208059,0.1438898639900136,-167.97900905920872,7.043336253479471,15.703394284398888,0.2260504308342127,-0.167904967915503,0.0572591479417294
0.92,-80.74930057235707,56.35336284002631,204.72488486619696,0.3875265500798403,0.3543996874470457,0.5133799963194169,-57.906228552456334,36.65163634009768,178.25716770424714,0.2452657448668848,0.2701978598423301,0.1566272807765283,-163.57863882541355,5.074574211261168,0.3182730794880377,0.2133570544954622,0.1021790315804793,0.1821114466788368,-167.8402146122545,6.913532529961389,15.651302397156204,0.1441250358327249,0.4797819603061513,0.2043246891074536
0.93,-80.98284164313274,55.977906428537,204.9035908316762,0.5774342281032833,0.3880200216003923,0.3094329685502398,-58.00898683331884,36.4773567015491,178.1669672247039,0.2838332541631445,0.5444012080352482,0.3446621589805242,-163.706177256857,5.097552995803133,0.344897365657494,0.0320060900875075,0.37132346347413,0.0602214774169179,-167.8180910234743,6.896662962852938,15.644170003617155,0.0741075986509531,0.7611865683203993,0.4989164475316352
0.94,-81.38399117254622,55.452311562593565,204.6817840882457,0.839397566882303,0.1414667556768585,0.2321139294110242,-57.71808935124199,36.148272228756014,178.1861125661365,0.2922952723702279,0.4719731035639422,0.6063646857922793,-163.68738809174985,5.151825159461111,0.5538304823889738,0.0355163310674275,0.1597716296357438,0.1994635309972142,-167.86593399197332,6.901194520448685,15.74711370124295,0.2962215563978235,0.2207841160777388,0.0074493414049471
0.95,-81.46776679803082,55.22351014499461,204.97865222422016,1.1315969127870686,-0.1125905939652976,-0.0187813062624031,-57.78236714987507,36.118892209677135,178.19895088534082,0.248117187500756,0.6339252113113295,0.529192521733652,-163.7791808253288,5.200393741563508,0.8440749566051478,0.0636553029272737,0.0039330085199643,0.0919999932601454,-168.13513271870457,6.828287009031907,15.811498947727353,0.4265439977151233,0.1237324598894624,0.0610447836016913
0.96,-81.97135679310735,54.71975739470796,204.8012343017193,0.9422873535956472,0.1612496997499937,0.2874118923564449,-57.42693651289954,35.68192103151554,178.45274064384256,0.0433367630948167,0.5635186234792069,0.3321926640993439,-163.94913722100912,5.576702386790583,0.9258069127722764,0.3958237411791335,0.4839750483155768,0.6221947348481323,-168.3941241774999,6.908062346609637,15.806878992769317,0.6638313049993015,0.0661922745308564,0.1393986012551003
0.97,-81.77662616352147,54.55894342234347,204.94011130589448,0.7845231745984782,0.1471782088688845,0.2906301389386571,-57.85599911625848,35.386883621585206,178.2360931871099,0.4897176096112898,0.4187158028733654,0.0807462255381052,-163.80681973348797,5.430945979091839,1.4301271348705584,0.1065893804738977,1.40648958877242,0.0659113203001156,-168.40803863755005,7.045303012429097,15.649727066648914,0.4859113308253694,0.573795744932898,0.598351547190891
0.98,-81.77132461475364,54.40215137088765,204.99707840898785,0.3660998971489562,0.052400772744717,0.1872643198969615,-57.775881330303335,35.22332791733901,178.60416677159998,0.1989678759222168,0.3481524866675058,0.671971838281767,-164.16540334721006,5.4756719310403,1.347417626838865,1.149563616740188,1.4684748673861203,0.1659797469376629,-168.64451324343167,7.117268776506544,15.75092306770152,0.8132990908178487,0.4850042771674591,0.901262430482146
0.99,-81.66287472469517,54.26772932465365,205.15594656647824,0.996159557890994,0.173165270573245,0.0092263565893971,-57.65677589745879,35.42605500117475,178.91518027613793,0.0141900912559525,0.1275228015591233,0.0608901909100768,-163.93193542365862,5.806303080234013,1.667181210806167,1.2527761740558905,2.457737526156003,0.7221871206320584,-169.1281963346637,6.746840603547767,15.95982831003068,0.8844296709676387,-0.090502878753297,1.5479097123134529
1.0,-81.64486763629327,53.97515870423934,205.272973824726,1.3470235681157603,0.3982932345338391,0.1915887490531224,-57.738973111767535,35.15309998803347,179.1818469352533,0.2123520575258312,0.4216915565312977,0.3757466728460544,-163.77415330932538,5.848225876236926,1.8823259664321117,0.9922173604397666,0.3323178532080821,0.9516959348471192,-169.75451521298191,5.982859020896639,16.521839859716263,1.6738680151413503,-0.0715231892904646,0.2186150013493319
1.01,-81.93666949351639,53.76606311670799,205.26074703708343,1.2416357024906657,0.1640477072015706,0.1281634281221133,-57.25632847459585,34.9218823461584,179.43914814076015,0.4102805206561478,0.9122755204462948,0.2451706008021189,-164.0453009867929,5.512210790985269,2.603365249482953,0.6154598759284828,0.6572183074717405,0.1017524283871141,-169.62233439214535,5.701931088509215,17.020058415382657,2.184364008156641,-0.0599324009718199,0.3706529361044191
1.02,-81.55867486736483,53.58981878878492,205.3316822931584,0.349139928637445,0.1756285991765601,0.633260258175609,-57.00820733358591,34.68959889142811,179.04080049358438,0.7362899641634488,0.767586912467356,0.3824660552757953,-163.97441912252935,5.432952144602968,3.392947496427533,2.1597020068000536,0.0587224166770938,0.9134321812255268,-169.74690167137155,5.029838883575501,17.86145943877658,1.013314055470879,1.7996027088902715,2.407697394750147
1.03,-81.61874335065121,53.84324512923305,205.5342713030133,0.2921976542984467,0.0959366008252976,0.3369693485767719,-56.95152436332837,34.78305062875455,178.86688340008735,0.6615480077678269,0.7020094033249861,0.1640209332641398,-163.34975253617944,6.084239202894235,4.455681876763308,2.466016258310051,0.464499030164554,0.2543308939911573,-170.3308167533389,5.047445642895212,18.51372048662608,1.0911606548034858,1.3279986022999994,1.1838913093267402
1.04,-81.67938550119298,53.760301349713394,205.54344620982997,0.5650203106990916,-0.005822672839264,0.1357500765301883,-56.60246230561885,34.88254355325656,178.76840418690125,0.191694477667177,0.2843169609257425,0.060026694627212,-162.92912125571758,6.604073016905127,4.814434246058534,1.3514051818245754,2.312145024230402,0.8194407251629386,-171.45064417308257,4.47703700299519,19.197215174711424,1.0854158122786872,0.7653685489423276,0.2510523177347621
1.05,-81.68063925653951,53.69606784990834,205.5120776383463,0.5098534880792647,0.1911534969591708,0.1869794516196053,-56.434387200587686,34.886045921093,178.79008116419078,0.0706547717787949,0.2161013612793057,0.0565198806778204,-162.75511682505044,7.220034808012426,5.376015084638096,0.1062527437852635,4.120732216467131,1.7632552738498657,-172.85675352084445,4.291444610758279,19.770975438310263,1.0031311206227544,1.240536656410682,0.4110911991854046
1.06,-81.79882900380797,53.63387751294967,205.6242395506173,0.2178680887596873,-0.0618091937673651,0.1275098436129871,-56.422620389315455,34.52406764415333,178.93205142463927,0.0491765269685002,0.0915488727944298,0.3730527251273796,-166.21605683623363,6.894881143539767,6.082953857102011,0.52225727375188,1.5899092906440455,0.6587836677951402,-174.6265903574286,2.871571452816747,20.47289686185512,1.3852261814366122,0.6105708370841383,-0.0817200909680939
1.07,-81.99440547916906,53.200053437148256,205.452239261898,0.3821681674301858,-0.0370370283977401,0.1507697498725203,-56.392410556580494,34.33790274748405,179.11562784011934,-0.0755969803671706,0.1434288773209658,0.0255058346433194,-168.00520734732865,6.237210803486208,6.420429609658155,0.2191170794168883,3.2845119085082315,0.93142524515181,-175.22951898053003,2.700197770943128,21.14035360623337,1.4512698964403723,0.2177356044168649,2.049105334653175
1.08,-82.00783192649257,53.373729653327295,205.2620981399815,0.3200522737697371,0.1866958531769086,0.328390919211494,-56.280339340949126,34.374591196757194,179.0256584709752,0.2720722276977743,0.2223848188658954,0.1961236772536903,-168.60694144466058,6.182502261514613,6.886164754620164,0.8050299112711825,2.1687205707120114,1.1726282087631072,-175.4831353335871,2.7336094865235734,21.596959971428134,0.8039899829632591,0.8617099391754237,0.928797842192462
1.09,-82.47567484403275,53.13181442734108,205.1505278563392,0.2308762748212582,0.0712442278758575,0.3674259059634857,-56.4613677679655,34.16791647312268,179.35954965297233,0.3743283854721602,0.1137753600901055,0.2595703323244788,-168.51882865486715,6.315678339350111,6.9620450225598605,0.7778400495847403,1.019023338822416,-0.0319257769772317,-175.5363352202611,3.127655390679073,21.60166360113189,0.8645293711692361,0.169285955466088,1.4026149636091525
1.1,-82.72935176248788,53.18176204343671,205.00243947787703,0.7205088221016989,0.0171760212975417,0.0153103194533499,-56.314340065423615,34.304968071429954,179.33770960627348,0.348788118347542,0.0113235106756656,0.0450107252191765,-167.8980776541215,6.674661343921388,7.178994592483962,0.1375025085282434,0.1501790037476646,0.1905125508537081,-174.9312785258336,3.172909659195745,21.980311944929117,1.1111619785577425,0.6905347792777494,0.2563504196357916
1.11,-82.78560464407741,53.10882836281553,205.04566744385164,0.6420936279112416,0.0125096348978115,0.1035684909496372,-56.15129737618516,34.25207834760732,179.33879739440886,0.1444943967299487,0.0871466404693634,0.2063406560317134,-167.20822665434227,6.571453881711529,7.332557559037715,0.2151557429451359,0.8506082784665845,0.1967864227985886,-174.43560913906904,3.052538136857025,22.372712551800568,0.3242427122686563,1.8094952621749447,1.8910675510589976
1.12,-83.1004524066979,52.85519368581573,204.8546399910701,0.3087374868837258,0.2631284957677418,0.1246019751661459,-56.08672631697959,33.90286111405519,179.26197431622768,0.1278046491924755,0.1328778196146655,0.7109141448210088,-166.47873568931217,6.807211255408766,7.270054209974877,0.9733855017412548,0.7960621321469785,0.1390570217390226,-174.22583288115575,2.976442058480804,22.43033585112935,0.3847326770537839,1.977135532848356,1.5351106685709794
1.13,-83.43132999387618,52.60815776526664,204.968267928651,0.0753199958122694,0.2178673419601975,0.486213009499081,-56.16386613736781,33.97873282048374,179.35608457536367,-0.0292735664394305,0.1478719070149618,0.4106369793887813,-166.30684692719998,6.846113008459357,7.495420467945778,0.7095834352747207,0.3536255097058425,0.127801433626654,-174.42222491406653,3.041270852750365,22.2404424554483,0.4966533345012836,0.6757777245492802,1.6417901561704926
1.14,-83.7617998160534,52.58400051608049,204.85133980668647,0.0177957281117277,0.2566891716615078,0.3751089228685816,-56.119987135141656,33.76916532939099,179.15242173370694,0.0502652041926977,0.6727916700012911,0.2754035729008703,-166.07637966658135,6.816513800468502,7.626707610477931,0.5921862510961506,1.02619097177644,0.7956251132715086,-174.03148459727336,3.083586469763768,22.276109316416445,0.545147194356919,1.795679847041158,0.2222540234454228
1.15,-83.67146032908632,52.22187182688264,204.91712549121976,0.5858714171240814,0.0353067081255862,0.2432405036707964,-56.16680787061369,33.70710429746653,178.75239025706733,-0.1524427292374962,0.7825152558036352,0.7965254165304113,-166.159486214059,6.995499882008978,7.683756526879847,0.3803714405039959,0.2439594684991279,1.7451020279604823,-174.4068841306469,2.7581190347361773,22.239701447843125,1.3311712971747482,1.2632582137726662,0.4156901869998635
1.16,-84.00127440100799,52.04996712172471,204.7655378465886,1.0929263418019228,0.1316257858541389,-0.1517566108512086,-56.05903054402719,33.66696066991539,178.91060404669284,0.1450247829161411,0.5688524244654415,0.2406536025634583,-166.62591294011236,6.916201416029225,7.7653996881116285,1.4768836190812291,0.6167529559068115,1.1339043936040316,-174.95914187265345,2.278528270554537,22.261132457097627,0.3597745550006842,0.2692585541209438,0.0850696599994488
1.17,-84.23209741032349,51.82320275723917,204.48063322019885,0.8255487618265029,-0.067730320985888,0.1339775151803554,-56.09469768570303,33.499940958104425,179.23826479915255,0.4441316291974279,0.3461288849302946,0.4059441502399851,-166.62620472133534,6.904368575927587,8.000585445982638,0.982176520290104,0.9974187066520784,0.6978077031457619,-175.40858182560845,2.230749473010606,22.49585564387071,-0.1723629494989305,0.1198226330155579,0.720410328821267
1.18,-84.57500914566924,51.73301360445081,204.4894669340169,0.5909136141683968,0.3678640862435727,0.2244979822479189,-55.94347749898905,33.206352874295646,179.46958921500732,0.7034986088754056,0.1747958511873131,0.0694642712222483,-166.54204528979153,7.086994938640507,8.052769462982617,0.0393543759024695,0.0096887956546484,0.4219216174212346,-176.01727660781702,1.7535089405761402,22.441791684187905,0.8876384611667226,0.4072874909828458,1.932150785205215
1.19,-84.28603909634796,51.658686244306615,204.8062837353753,0.5247935083647967,0.0868825882136591,0.1036210584341222,-55.8569516584226,33.01988049739037,179.43121317450613,0.1931685670074238,0.2286047324401385,1.1109900928341392,-166.40533640270735,7.527386896985557,8.227097076282305,0.0357678439486784,1.8659313014913783,1.8473315267600536,-176.3625350809373,1.5927421534530783,22.347728226693192,1.63660967688259,-0.1008577154122923,3.54071870817934
1.2,-83.96430559555766,51.43937692526291,204.88759165748323,1.287296594230407,-0.0106192071861635,0.2587888615567331,-55.50519125828001,33.144300504633826,178.9608653214194,0.3935220269649119,0.5362276556501464,1.004337755652174,-166.76836168166926,7.391822588221841,8.809249372807658,0.1681071093958671,1.6070568562895902,2.3999026573355877,-176.34576865645974,1.4216555462779117,22.413654862535157,0.7757657967742805,0.5876545352933229,2.646341243738886
1.21,-84.47241698375102,50.59394811999531,205.0405623532322,1.0116124980539696,0.059185231580157,0.2364942673012311,-55.29099422321784,32.744095191162714,179.54139024570907,0.4595463835881098,0.2197241503217268,0.1659274281784749,-167.19185092801305,7.399857700480342,9.741369698215896,0.051150905561524,0.849596741738565,0.3521841614224434,-176.73623140058828,1.1065762730758206,22.980863338754585,0.5754652325380237,0.3586028656925671,0.6036117832324558
1.22,-84.31907192464148,50.78768696046587,204.7737507760588,0.549151780305691,0.2156383846925974,0.2745441514731995,-55.076932566933735,32.6913059694434,179.73957767103536,0.3261746317491667,-0.0381075541240501,0.0207103427732298,-167.0422813258532,7.104704155292554,10.226007091099214,0.2517181734649484,0.6113313786468653,0.4806374672777833,-176.64335357371664,0.7279713407370295,23.30539532592632,0.3411318868332028,-0.0058866269139008,0.3070460802726353
1.23,-84.33278177138298,51.045055351249005,204.60001500622005,0.9425305002052916,0.1551423910619682,0.3218987852580557,-55.02644269218396,32.387562127725886,179.46749380565865,0.7152601265904185,0.177428603646832,0.6585854969791625,-166.9207273508201,7.204126411389657,10.878775355020911,0.1418198741807954,-0.0649088532229319,0.5543368379766709,-176.00973925325016,0.6324228198547569,23.184691639433257,0.334172243620664,0.5896609850756033,0.090925891320266
1.24,-84.4074979824339,51.00653484133756,204.6728756830261,0.944290355356452,0.0808455004992462,0.1584623285327805,-55.09760975540397,32.62780895107901,179.16643561310912,0.2702306525938505,0.0803404637299604,0.1074383309250022,-166.7250754391673,7.389435812660706,11.026827010164746,0.5389615829121607,0.4903323858731828,0.4269414817706328,-176.07070424410855,0.4012618975348514,23.36556929106356,0.14978254635208,0.785228282189361,0.5215336304332845
1.25,-84.47305362717644,51.057710208173695,204.6414080902506,1.0519000077657714,0.0779427620345413,0.0713621305681368,-54.98632735918124,32.477746246666335,179.05629606483063,0.6064384848165898,0.1576447595021195,0.0586148417422219,-166.33048192363057,7.25366939643684,11.597431384136874,-0.0824574153939199,1.0728252025328413,0.2255759050239071,-176.3069793945418,0.3024134868437042,23.59665090749792,0.0593052647193301,0.7097838046123414,0.6870401644349207
1.26,-84.24161944587443,50.84356329846485,204.57778008264825,1.1310594609986238,-0.0009006452923723,0.3622533397400033,-54.87226823027444,32.45091711327626,179.0405591760258,0.7152625622223957,0.1516694322597934,0.0048786205966201,-166.19187163639018,7.513121610392072,11.845237649517454,0.3654411794267602,0.8995373868748514,1.2562738735389198,-176.16723752538226,0.2480782573434597,23.715209820746864,0.1928398132243627,0.1422656221984385,1.2781517786315977
1.27,-84.0288151001974,51.16772175093968,204.56168252221912,0.6247207132966617,-0.0927129021065294,0.3898338448952526,-54.78039043932044,32.43909436986208,178.92477066927407,0.7413596220088728,0.0838695389563865,0.000231986702224,-166.47042330762264,7.307538041889032,12.11063691161784,0.0958782384583934,1.068439190902974,1.3539703800280285,-175.65069184506166,0.062465645800224,24.086033883650256,0.7264497100422596,1.676644710425716,2.3571586641307576
1.28,-84.1625677968646,51.048772460509824,204.7050027258017,0.9027585587711108,0.1218065624508174,0.4196215717376004,-54.76202772847517,32.61328390105477,178.70568532518757,0.950065783849852,0.5333500339755617,1.2344855996074524,-167.08328237113932,6.984815402851745,12.490122252619155,0.1702766051875259,0.5551396684425591,0.8852330710146977,-175.2849070879332,0.3110998742133125,24.28987161937949,0.9098536259070302,2.1343856768415903,0.5823520001719223
1.29,-84.0457365225119,51.29000328025593,204.51496516243677,1.1270834974476482,-0.0258178855909624,0.3556822415107478,-54.66186141205129,32.727714441661306,178.43202723351305,0.2126314819012779,0.4377334182615235,1.2889238809180767,-167.3666301966956,6.996631264523976,13.121764264010409,0.1376129757236102,-0.0085270640490594,0.575061633596432,-175.3147700627279,0.606441275347776,24.63618551813456,1.9333908037356455,0.3950746281471107,0.5208122494508872
1.3,-84.01291365388053,51.33363184551774,204.5761158768296,1.5009757855781536,0.2322535065646319,0.198337806120357,-54.45057093570819,33.07320864212337,178.44525595274993,0.2193400356006287,0.2928247433697107,0.8399738825895775,-167.3573934780106,6.794794759516918,13.728820637183444,1.2579101247930395,0.2101772949618798,-0.1463353880045391,-175.4252511001693,1.463395705275879,25.12543260668303,1.8834904879881065,2.986151282174148,3.4301598834282845
1.31,-83.53364262769661,51.43707451586065,204.44882551066587,1.5317588867114489,0.1131078580981281,0.0470202852947758,-54.07724108316947,33.29135425442303,178.83257354676903,0.4862594141972814,0.1584273452712425,0.2525376575629504,-166.89988387687575,7.050604953577726,14.604615492721702,2.348595919638937,1.3275855831255996,0.5907889494701015,-175.74244356207612,1.992584526287456,25.47555648739964,0.508801695401265,1.86216599544006,2.3101145802912635
1.32,-83.29045189912495,51.616019407404416,204.6720767360143,0.952410422802518,-0.0103280863073307,0.04429592517924,-54.03443201721656,33.46972796903489,179.06308195660304,0.7712986667588319,0.4072383190587567,0.1990889572133187,-165.80579546383018,7.353532938395431,15.539499841893845,0.7684860774906656,2.699626271111433,1.966321993469217,-175.6711603809879,2.003640266222648,26.398177259536165,1.3556899751076967,1.6927993201056657,0.5189986198554914
1.33,-82.8583017861221,52.14805976870619,204.7155262171877,0.8792076771177868,0.0582993587749103,0.4259183232544367,-53.87632647529608,33.6947231998436,179.23483648372112,0.9089812554044931,0.541011470631142,0.3965701923111922,-165.84134623234783,7.428077679812002,16.102830281121726,0.5291897341250372,2.438883866124334,1.0736592794537505,-175.61334034307274,2.108756239562124,27.35919734884759,1.020531870699013,2.262234055405921,1.3078179119491098
1.34,-82.60415915396705,52.25674011924573,204.64607190822437,1.0929523754430706,0.0783819627000353,0.1644894700640689,-53.64575353210472,34.14070847471055,179.0848439832246,0.6649557701138809,0.2246679076479385,0.3670207057527076,-166.42689251266512,7.174928409639684,16.723518759547396,0.3698354675950216,1.0880813173144102,1.791476113766876,-174.7126825753086,1.898010236684866,28.04017735929252,0.32745374722935,1.2487886169917757,1.333043910427043
1.35,-82.08586660093756,52.79219076855287,204.8616217941712,0.9807477901106634,0.1075825143190417,0.1545784984103192,-53.34221501325912,34.86588332472352,178.99225571292789,0.3569562344361587,0.2106242921781797,0.6479009445691328,-167.36184143452917,6.6097560894864165,16.98192191517301,0.6330145088258128,0.6122208515316155,1.7678167979306407,-174.0188987420346,1.8795328782003995,28.759930871773854,0.9121210931889848,1.2019462056167578,2.0572339526237737
1.36,-81.36762319521975,53.64125779122725,204.8645804375373,0.7812211708989519,-0.0305068870543036,0.3784882982844269,-53.29597433805776,35.96485957540846,178.90860874236645,0.9516349353017868,0.4570669309210672,0.7010650397706029,-168.62426455600345,5.5060763588611925,17.787202395924076,0.7403758325273614,0.4214250193246038,1.511276848679196,-171.99951834085806,1.5674360028240075,31.018868080140727,0.3254517495754947,1.788983819468542,1.5480476862610746
1.37,-80.92649966331415,54.023473308663874,204.78669527628028,0.8837200572978783,0.0934094908159567,0.4002024861486393,-52.91223951169897,36.73347661088,179.00711223788096,1.0299254508472848,0.2098698332166941,0.9906189468783057,-168.76409113848845,4.987753873052989,18.534537493993977,0.8723804050347077,0.5113166271345272,1.6706103318839058,-170.42880783771807,1.0864547437345946,32.34148221054468,0.3211089481672596,0.4664936451993871,1.0574048318469569
1.38,-80.45473493718103,54.66729617163383,204.71411160268252,1.1724100436979528,0.192047039124843,0.1806487576887323,-52.91957100270296,37.72156319850114,179.05911990773663,0.4799514470095424,0.5156850005368865,0.4168101112236374,-168.53901833689866,4.558600472227493,19.116182416292936,0.339240825313948,0.0679609545967304,0.75311812888601,-169.61129351328145,0.9797772123374374,33.65985146360668,0.0357630258880761,0.5516420195226776,0.7033649267765021
1.39,-80.47086757252654,55.20350692413606,204.9202529935885,1.6641837429966546,0.1944247499516939,0.1712336120966048,-52.87917739841756,38.3531024160193,179.1559560473803,0.5485171586741842,0.375493373648505,0.6330139629796755,-167.80459625819103,4.108616649813307,19.536072517621115,0.2759964742462613,0.2150761312967617,0.714849471762639,-168.4996613989833,0.8938327026436971,34.85364987911663,1.053061807626783,2.654562070287476,0.3830355978933968
1.4,-79.89118154867876,55.93345392541721,204.8905650662879,1.4456453413995285,0.2197661806163094,0.3253074988352465,-52.84697861895248,39.30292444291797,178.97075598089563,1.0100174891722746,0.4321727557717496,0.5219365490364732,-167.3250375925612,3.8985245753756512,20.08215182991584,1.24524986406404,0.0594395155581328,0.1953236010100548,-167.64959650652452,0.9563754488602296,35.82999841486648,0.311565984655186,1.0823008906643528,1.8799947438606044
1.41,-79.53033596533244,56.47750614484751,204.90466532404275,0.9445140934752748,0.0793243151913445,0.6687559046709314,-52.63942369564129,40.26736176785509,179.33613583523135,0.6998601091593109,0.3216403366519397,0.4077329820847972,-166.61822865680588,3.312239386116768,20.628953763588918,1.476230873247063,1.3526054303687112,0.2847915296209677,-166.81688311084542,0.912126780540163,37.1904497999249,0.3141734037279436,1.3961460945612223,0.8919906319766636
1.42,-79.15900639999285,57.3958939937503,204.85501295207465,0.725176532727738,0.0165097641384667,0.5647214890888814,-52.37599569956894,41.26340074850887,179.33712835847632,0.0595533593944644,0.1995909990948893,0.1376268397974088,-166.36380474592966,2.8215542277717622,21.276604959944063,0.5106984939067128,1.065456462174244,1.1317448172788709,-166.23113942942186,0.6278150121590071,38.7871889966253,0.6718937336454429,1.672863285330697,2.2641696900708754
1.43,-78.6393807260663,58.32845820003366,204.57770373400857,0.9414003506446286,0.1772048662073335,0.4674308360372581,-52.16015536277883,42.00497615544623,179.40652830676646,0.3632360559404589,0.1829814952261527,-0.0938867657238913,-166.6455912991717,2.1416433201519225,21.63659936549477,0.0653876853163298,2.44769255956262,0.5315296192403467,-165.70906103578474,0.6094625706357779,40.27929625843531,0.0974432380642201,2.157515900878728,1.4776204177593228
1.44,-78.06890753616304,59.27653270661488,204.7971629522889,0.6683053649088249,-0.0941829755388442,0.5115985586205076,-52.12073553271851,42.806671149406576,179.5913481559831,-0.1366161168726913,0.1613742437619182,0.0858443702002594,-167.105025315836,1.675069807998064,21.72355925181848,0.6421417425910466,0.3652626734367161,0.9654777271515022,-165.02113407821403,0.3861164494841935,41.53925937167584,0.79482497267572,1.6102970642303849,0.7548074739924713
1.45,-77.44362176601449,60.01442645025729,204.72623721993185,0.5930350385876101,0.3200377371076572,0.4505750788190468,-51.95223526049628,44.01310892058493,179.5126635960769,0.2180412511056181,0.230410143570524,-0.078644458397947,-167.333973241339,1.022201854320555,21.965081987714058,-0.0277276501041938,0.2292995694003332,0.6566605413811683,-164.3389165501127,0.4754320966676505,42.71211106002977,0.4342781190737873,1.1667796776418873,0.9926592339821604
1.46,-76.94084944209916,61.04238749405886,204.7482599289331,0.8738062740125705,0.3975131596278861,0.5918753721661033,-51.36773266949886,45.039973227738656,179.5771939279869,-0.155822276596693,0.2245383061180459,0.2097532127400406,-167.97946372015366,0.2156564339117424,22.189251870328917,0.56516117241862,0.9718600248069598,1.3781241237559496,-163.01106791740636,0.1287022829641665,44.2153643545415,0.5804361363435863,0.5854601378346463,0.855201182320229
1.47,-76.47082976485198,61.8530472482287,204.5032246631974,0.4355046295680959,0.0125587178577077,0.3890688336611365,-50.60647915092198,46.52386419201177,179.05112315962356,0.1583191613996132,0.1141037615213683,0.0115269535531855,-167.89014796885152,0.595974213316232,22.586865758696128,0.4048168769351959,0.6924054618876131,0.088105970386788,-161.93397866559775,0.5739807277554742,45.77042321646401,0.920805036524864,1.14239402564,0.1996677754070103
1.48,-75.84104626902014,62.93598686765035,204.54379637761048,0.3182643725758469,0.1010662945839618,0.532307080297704,-50.114147724152375,47.37504453409985,179.00677284017718,0.0472974218592118,0.1251502677180931,0.4333997255780067,-167.91532040279904,1.2998433784151875,22.96831971900606,0.3708581257901321,0.3354782108915684,0.6182517885329403,-161.3538049555435,0.3713643948383509,47.24938859268296,-0.0040075114854394,0.4936539936287702,0.4137866370609935
1.49,-75.29767060261591,63.8595070816869,204.3922284312173,0.6659244836552847,-0.1263351487016041,0.4954191933538805,-49.76978475300425,48.8172726138005,178.90341352922724,-0.0186576033403698,0.5293622968778782,0.0948775605297862,-167.51741665039955,1.909033755075904,23.150908239201407,0.140683006774936,0.3674818082598994,0.5394684222072034,-160.97458336762145,0.7841769993094115,47.78040076538374,0.4884594636343198,1.1625341318350126,0.7305179875961618
1.5,-74.51342432483995,64.84033087715791,204.64494897553857,0.4560762656532377,0.1504002305131138,0.5653006626871281,-49.14035500875688,49.905790107407846,178.76769349449114,0.2876197538374841,0.3658976227092262,0.0079831680223127,-167.5344706381897,2.6818534472799542,23.445969213375136,0.3250575620543827,0.2912217453780334,1.5868651827798783,-159.68531868481531,1.281400747270432,49.07893303945492,0.1548327596566502,1.1083418773358165,0.3032574703738223
1.51,-73.38243653101883,66.99022083306129,204.33024190820936,0.3282606610868203,0.3888024085694602,0.4672837160449714,-48.21960317185204,52.63361236031351,178.3662665197755,0.0494904428051751,0.4095892105698063,0.147029179416093,-167.29908423913395,3.7457635965805056,23.70757424747397,0.6936665307397498,0.7464698184677934,0.574663201027491,-157.27868616421003,2.9620446202858624,52.53089256977928,0.62753158477585,0.1231876659578681,0.7212402115297354
1.52,-72.52483264736296,68.06233570719013,204.3389603948862,0.2146773227567854,0.0985356542476954,0.3124374436725078,-47.69674349915709,54.11466499795534,177.97175807182933,0.1125090333309009,0.2211398580812542,0.1137409641936524,-167.36675036628233,4.558669750219351,23.54532451502684,0.2785471680118057,0.046685141253978,0.9044104972879048,-156.30337578460893,4.100405672337517,54.42886098304079,0.409933783130325,0.262544828846829,0.6481050078740695
1.53,-72.46443973611876,68.69666625392213,204.20920116539148,0.2617566939019906,0.1953054786027674,0.5718209452482583,-47.0483524037132,55.48507173186022,177.9102576067088,0.1430406204433651,0.3679272795011796,0.4000041733473881,-167.90691098680134,5.341206406177871,23.153914399408595,0.0818090218216617,0.4360135136690749,1.0052738768284737,-155.01113970145866,5.294829931880451,56.04416805769768,0.4939180962200565,0.2070983045563512,-0.0404082330761032
1.54,-71.86172139522789,69.63952236721893,203.9145786889465,0.1634589143961143,0.380823642542894,0.6952489409564491,-46.53192739471147,56.60155345378164,177.75206812338578,0.0778972809029633,0.3740029126815978,0.5651268476310465,-168.38406990380244,6.382922757917896,22.483454479306054,0.150453112160658,0.0793905030120233,0.4321021475915112,-153.6841533488288,6.521088962074662,58.17429373679181,1.414172925229744,0.0063898890973178,0.799677074570595
1.55,-71.32121224597799,71.14325752121152,203.3717655807106,0.3900641072057035,0.5047449731463753,0.6620784303480483,-46.61888282671336,58.06234120781348,177.64488808735447,0.1002233316122153,0.2843460356941947,0.1032681404287541,-168.83467450049875,7.503735671883859,21.955497855580223,0.2184490918187729,0.1435090008901464,0.2710145695344343,-152.79435102478558,7.27528267885612,60.05112679620129,1.2579675841115463,0.9584918796640012,0.1291828490508055
1.56,-70.69650222667336,71.67985022071537,203.5311329242005,0.4222066794403261,0.2363547640699596,0.6764799514780193,-46.68566171997354,59.571720357455085,177.63467183547235,0.0437861387084399,0.0446355217224397,0.3310628469943955,-169.74326514323127,8.754826910682624,20.928349457404693,1.3578105384488164,1.436193456343732,0.5860271486528985,-151.0535303841605,8.750285188813569,62.1224070193356,0.5513439091562736,1.7157358889438326,1.2771886954467069
1.57,-70.20466415362776,72.78977755883868,203.20329577802,0.0230438492034246,0.1164327712005273,0.6520753565130089,-46.35625153308298,60.92519284823106,177.65185967376308,0.0584067795161684,0.3702911553997619,0.7875275421989444,-170.34299072108843,10.232171887499428,20.055940587896632,1.3145025545031448,0.648142027942963,0.3570482578755847,-149.37754071450678,9.98478528023223,63.8318457119186,0.4920723875482761,0.7481029983456976,0.8692785177092469
1.58,-70.02767439804425,73.5088744579233,202.83814381147133,0.112425577159855,0.1680052433173852,0.7635664316502557,-46.21069555664233,62.21843590723192,177.44611999212248,-0.1324466607512712,0.3028226234120764,0.674105226871001,-170.7137795326478,11.760956182961234,19.20712601652377,0.8105237797687421,0.7683392781483519,0.3829117732338433,-147.7557184642533,11.253014015996676,65.46194707967163,0.4699108917897704,0.3781792351236923,1.1881118665085126
1.59,-69.5837597190306,74.36376242676191,202.2168936147453,0.0702198464091996,0.0278233397682606,0.6818657689425908,-46.19178850625912,63.69611497540368,177.27373334527636,0.1429912531049752,0.3614978130983726,0.3601136493196841,-170.91714994183377,13.3142983570235,18.35006218737672,0.9104500741952082,1.9569249851410373,0.339412544363092,-146.3484322427781,12.303418379276655,67.33634893311252,0.0789754307999189,0.2356174321744611,0.6233350758155239
1.6,-69.09686991698969,75.22123533537774,201.82143426880504,0.2601892403322091,-0.0094194273701983,0.5095971232332817,-46.11687340777544,65.18027178981227,177.25203804774634,1.1212940586914244,0.9157087310616469,0.1733401119238135,-170.48463660583388,14.437536471325378,17.332761516849803,0.5897381821834197,0.196119660341931,0.3557839169905427,-144.6437213259286,13.444618811617609,68.95961249206029,0.2735114422945744,1.2766787293067077,0.6829648096949683
1.61,-68.66768599858764,76.09381827466667,201.46435708683407,-0.0129936152386846,0.4671179978757804,0.6361038841944255,-45.82494016711794,66.78992001938418,176.96482465754173,1.0652272905900235,0.8981359681910878,0.5851038638362116,-170.36436096144422,15.954184760201066,15.955617638916726,0.6055215400475875,0.194350820187823,0.2251393741089699,-142.5710968903792,14.76664266852376,70.87561196691341,1.4014825936414703,3.2648806223478646,0.4722802607876628
1.62,-68.65056447379376,76.86508539739502,200.69273855726877,0.3340679111466258,0.1222198389077979,0.7162228657424212,-45.522328239144535,67.97553498751765,176.8767548755206,0.3520522352978175,-0.0052171880772247,1.0182114914930729,-170.42452080829466,17.439120726776046,14.95118175778654,0.0706651139498699,-0.0098077246721213,0.6633901953093313,-140.43849958832462,16.25816043642184,72.35757392317865,0.6866509145654968,2.141396622054911,1.1337994910149631
1.63,-68.35584954996608,77.61467676827829,199.6755266365845,0.5879721251538593,0.5441276199641768,0.529038522351051,-44.96285329999746,69.2706180252702,176.7040673330122,0.6221304586915055,0.3079658312987767,0.9105917566639048,-170.78923395188207,19.280059179301947,13.631184344122618,1.331721224279367,2.27905125344595,0.9444749024112542,-138.8836067971954,17.446243838634654,73.82095560182874,0.0123393031843617,0.9605572674176804,0.512248908221806
1.64,-68.03589386219917,78.52117783920681,198.69574861561628,1.141209642263813,0.4749503711776993,0.5805962889839836,-44.85336002575328,70.63407521021102,176.61584531046145,0.4774740708539249,0.661593902511098,0.449778971164133,-170.8194458813635,21.052555325525987,12.51032655594888,0.9389365634486746,2.407691992392574,1.0225567860349305,-136.27910747564053,19.33438363731533,75.62822776170385,0.2603713479963703,1.831437044649637,1.8825019696674552
1.65,-67.6003798681053,79.16920190709692,197.78860675945,0.8410678963824623,0.2197019534744065,0.7838539636325417,-44.63753748653425,72.14376898219356,176.22294176627537,0.3972661214317941,0.0320927061170014,0.0979500044172754,-170.82090547378192,22.482857930245466,11.18721322681433,0.6311836306226661,1.1623261089072916,0.8100233625120633,-134.42600374855732,21.3450522185148,77.31476107094417,0.8592917957652801,0.4590335806635519,0.8521144790281502
1.66,-66.89823942636764,80.22199081304953,196.49284231036256,0.1041346980398455,0.1613601999640319,0.6893157991554797,-44.40467026485256,74.68058225112911,176.43944528543054,0.4947992316722855,0.3193575729247293,0.3497842065657881,-171.48403936238773,25.787392089181964,7.8125560212378975,0.6677988787505043,0.2755422189085384,0.312713753236289,-130.24805138456384,24.24100565850809,80.24603042840293,1.1769756040448365,1.4112009868441602,0.9485165211085332
1.67,-66.58682142831353,80.92433678946998,195.54265561385108,0.2139540165176717,0.144487872935545,0.2501236555167207,-44.64239156919847,75.87563833934561,176.75284809074196,0.4896449185374063,0.1562835340926424,0.3433060182648967,-171.98771025353255,27.4409528508614,5.630964754567288,-0.0666579529204576,0.4339826476040406,0.045039507032162,-128.1939355845317,25.9577572701075,81.99832542694736,0.2255517883151277,0.3002171542436067,-0.0998587255236819
1.68,-66.05740191199878,81.34127024948225,195.02280739763177,0.5138664224183122,0.057326705101183,0.1635923605950861,-44.434374922448335,77.08748973339371,177.20410934575364,0.5866835129116083,0.2112208519392673,0.3035124813683524,-172.67419373938034,29.23556555006533,3.4639683455463364,0.4021223407881364,0.7102022513628761,0.0176456960661308,-125.86174128144064,28.093237837730985,83.22546007573794,0.2898853472945901,0.7219073931371329,0.179129413631468
1.69,-65.69759115655377,81.8891722586297,194.47181108722344,0.3613308940710383,0.0311780718268059,0.3261969610541995,-44.821112855048064,78.3739669573497,177.3343403678008,0.7660591088420752,-0.1211239809305981,0.6459230202020873,-173.21069080784275,30.983890674377523,1.3008183553339328,0.9723404052585972,0.6645168365609785,0.2044887022744969,-122.91799446037038,30.160883755926577,84.48655608284463,0.1489691929406468,0.2940952739079647,0.6372800974392676
1.7,-65.71978333983795,82.42476715604735,193.3110714571598,0.0971253203225043,0.1665500988446201,0.5334467917682207,-44.91027831576055,79.16545771017084,177.9731032584923,0.3343616020414997,0.1766251099178349,0.4749095837867358,-173.71689882485254,32.73271489783621,0.9091715896462976,0.3586435814483857,-0.0779344748632862,0.4992136130532341,-120.2755463977948,31.925454505616997,85.74123018978516,0.310515251739299,0.8232184345969593,0.3173222631880279
1.71,-65.6456994830194,82.86964106199287,191.81715922619864,0.2729077658202792,0.2554588455916793,0.4541530023708487,-44.88386284193588,79.95016808857727,178.491849603391,0.0284293535045513,0.0138145556004839,0.1931679582756164,-173.7020744745762,33.50915398797013,2.334062688283164,0.2420225689815026,0.9142170433002124,0.937921014748876,-118.14066595780923,33.55628394597843,86.95718451302801,0.5725266319728948,1.7957090641622346,-0.0068572219881309
1.72,-65.39478434622166,83.22722162181508,191.90696811416595,-0.0572853110674332,0.3007664244509758,0.5576138944389941,-44.94250750386554,81.23805279806885,178.6210344342306,0.4000212698460174,0.1433576663780436,0.1456510927858607,-173.8918362286611,35.41338812279395,4.716133499434509,0.0386710615921727,1.5803582991204717,0.4516327699088822,-114.92442901697228,36.033310821801535,88.13998684705142,1.0074018736825674,0.6817242613000383,0.0722374489980425
1.73,-65.37019976808601,83.68774235007241,191.83091280658653,0.2648584622975551,-0.0083923121743198,0.3049177273242343,-44.73721035499916,81.66830464530317,178.9862497021847,0.4331337343376511,0.2145696414088816,0.1481448174495386,-174.3861460371316,37.18250378126615,6.888671803099718,0.5460572426614548,0.4422102984431602,0.7351039660697057,-111.7178831607324,38.64702773003172,89.44593625047332,1.0617621048761607,0.4140512853847522,0.1373656183718158
1.74,-65.20143515924427,83.81385279562724,191.81862686097537,0.3943057746212061,0.0704724663292141,0.1902074670604967,-44.67471856989937,82.45063370712995,179.2634322940279,0.260737119403223,0.0488832136072569,0.3025082769235301,-174.06907487120975,39.11087483116954,9.220714948009114,0.3373097066397023,0.2204744058184592,1.126948555893316,-108.81047513420704,40.55397397242809,90.29586467943204,0.2750766584954921,0.3007333107029896,0.3781790352844105
1.75,-65.479101689372,84.10221176933536,191.66686110462103,0.4881165517646297,-0.0068996736672866,0.0821388961481064,-44.7463905502198,83.20579014188199,178.2634872237834,0.3897957038095292,0.3715872800858352,4.792195819387085e-05,-174.21769756989076,40.91983888145612,11.932565933828206,1.0968815105102745,1.0978304072878444,0.3833182038991166,-106.63949451610176,41.98212115272018,91.43823861971306,0.6565788999055127,2.721814527593242,0.3835444125491706
1.76,-65.37974234400129,84.30119401454361,191.53139263100297,0.0383179866343992,0.1157747622797519,0.1492181583386393,-44.74314914706329,83.68269416447399,179.5019270532184,0.5607689006220441,0.2361177813875279,0.4755440856202549,-174.0333849361953,42.70217171889741,15.117805870252504,1.0449787803775814,0.6721668603617461,0.4210044094222906,-104.43754362295336,44.069193932038345,92.41696343064554,1.9620102952480332,2.949289432065732,0.460460638458555
1.77,-65.41342165348745,84.46565241124739,191.4350535524445,0.949791901657739,0.0262679564040295,0.3279992282892398,-44.72397767505623,84.33045858848148,179.16211139440813,0.6821022948400497,0.2815841234450258,0.7109428477848864,-173.92656423453852,44.39728226123157,17.686353053323586,0.1254055068527848,0.0735170971860549,0.192235582123718,-100.72367865697616,47.03971241883437,93.64631444482978,1.2566417459585475,1.3524895129803285,0.9375638795335276
1.78,-65.15074938255049,84.61920832157027,191.54499807961204,0.946955197154528,0.0490444236200399,0.4737714870093759,-44.67922250424696,84.65090962071443,179.13403823328127,0.4336491463350137,0.0935113701548794,0.2954921707788451,-174.3809044367542,46.203866848253725,20.955931298902144,0.4858947906659897,0.4154684321137949,0.5865980671022759,-98.06422919747224,49.04252465491711,94.87243018974704,1.1967701982862409,1.7353953204651615,0.0025495298388182
1.79,-65.23378548579646,84.59372892856496,191.43072736530465,0.3841780070881095,-0.0210224595742574,0.7318475896745583,-44.91583335172859,85.16082666528368,179.10263500479994,0.1504404997580489,0.2743175607196883,0.0882105822705506,-174.06816931529687,47.704471576266606,23.936454999710666,0.5163266687640763,0.6685320641989861,0.3695099805501897,-96.28501446742388,50.60682117619992,96.27611503354736,0.9029970723773232,1.5404596069758094,0.3245836031183112
1.8,-65.1086005003768,84.63421536389215,191.31105796306508,0.5827325973247839,0.1707144189073719,0.3263460112375812,-44.97116519165027,85.53891566527886,178.99335425150224,0.3356858707492065,0.3427773137166231,0.4365468276863241,-173.3508742942357,49.36413675257548,26.06720598645132,-0.0038840334421006,0.098760049385226,0.6428139171703565,-94.730335610252,51.7408149245247,97.35703805086985,1.3232302228992312,1.47599417883228,0.4452441836845651
1.81,-65.01286408675107,84.80191155836926,191.5315195439315,0.3558122189439593,0.0997080501165712,0.2931511237796683,-45.18176106961313,86.26900755560078,178.7236206979968,0.6332454889945331,0.1070786196805949,0.6811441245327621,-170.46966647469898,52.02922292569364,28.31559072902335,0.4574649343700255,0.8873874682173782,0.101407401803923,-91.93407602219762,53.96091681721353,99.11505937517796,0.9460730469423644,0.5195152442546779,1.8367596220617348
1.82,-64.82637634468747,84.62135287508738,191.68070872664188,0.3900068501665606,0.5160735657838564,0.6357711801799071,-45.13574330375343,86.4798100697821,178.85255156357985,0.097025694704283,0.277661524677423,0.7323889056174658,-169.93754435402863,53.66768512901182,30.11809975254544,0.919999004743872,0.3927523544426777,0.2840581697235329,-89.41033677787597,55.61242670212369,100.45882472134024,1.199568040641791,0.8353339682255088,0.9666924267956168
1.83,-64.96170433215285,84.70532480298188,191.49971707463405,0.5379536257753736,0.6288920101506538,0.3054318084267613,-45.46301850895851,86.62963754779831,178.66976368692906,0.1294062161136044,0.4561197600264654,0.4243267054386342,-169.48328796139722,54.69918711447011,32.343852283013035,1.4658228309797134,1.133795408917893,0.3963246711996224,-87.10381168123841,57.04113789896439,101.82057503434385,1.4420243941810962,0.8223164168335282,0.2027967104032594
1.84,-65.08216125399007,84.8000983722224,191.4316792011829,0.7929137673942335,0.5955399648810951,0.2726183288687624,-45.5065211632155,86.97069154521152,178.71756070443854,0.7076595583641929,0.2241393255272458,0.0883432440751213,-169.04744183021,55.73264404678557,34.64802086321201,1.682710239766173,0.8295824055675546,0.5720761044134838,-86.93698565774802,57.30609779401512,102.04155667411958,2.6996037399700152,2.910827996546525,0.4087425007720316
1.85,-65.50488140333947,84.5802411785381,191.49420700745227,0.2673598432550039,0.1429653442053554,0.0634243070720494,-45.864353625591455,86.8912012857161,178.4911608083692,0.1092264006116155,0.2098229044692339,0.4885152224189565,-169.2891065354607,56.64645253286913,37.50899879532743,1.5177452668413678,0.1967629158333626,0.0967021137755829,-85.95436218181692,58.367656241312766,103.1901184551574,0.3772946576907459,1.1587691320383993,2.3900727260674146
1.86,-65.51708515372576,84.70699464555689,191.64691597501167,0.2840910185274902,0.6817166772199204,0.143240934830041,-45.778860966270926,87.10661152442735,178.4710590914169,-0.0380516891220152,0.051305940671141,0.7990432687105354,-169.17045647804704,57.09784191717178,40.684098219888526,0.5249935484937186,0.3420460207764006,0.657111646934433,-83.79404184785945,59.75966825843491,104.54031970723612,0.174607709448531,3.477823851166957,2.1056019688453067
1.87,-65.52263803672392,84.62658211499692,191.5958495704108,0.1539861159658931,0.5451072523643188,0.6548599451581071,-46.16798381814664,86.89927988414246,178.53838263723313,0.0730784923916383,0.5628706153046411,0.2209517686022109,-169.41845312371544,57.43329548870221,43.53239249352901,0.5044323389993669,0.5110452906366638,0.1073885383902742,-82.86966623128939,60.526285875535535,105.55425868089952,2.149482818839515,0.381479455138026,0.8299124369452843
1.88,-65.48030969533221,84.09905434934505,191.51181518983304,0.6308043859443738,0.0054749524583742,0.6128935710770516,-46.384007689140006,86.85050787490285,178.59848627808222,0.4173737134619828,0.4759760910620175,0.7967937897433219,-168.7217310045652,58.37051502467181,44.855586978696,2.2771288951863013,0.060104400774806,0.2569513808588482,-82.23024288349853,60.7050677049015,106.98183498399536,2.6490223849933723,0.9477458369523108,0.8504515596561573
1.89,-65.67333938978297,84.21263267224008,191.6114840823657,0.7951946109414131,0.0399517361091826,0.2954056359624231,-46.542206780715865,87.07047203402739,178.84942889647547,0.3148478447965182,0.2832314580796415,0.048474276002057,-167.95768377556396,59.160825235302816,46.37575122872754,1.424727737594996,0.2090434830003522,0.6544065829343544,-81.9000878253389,60.49019903284249,107.88310697203462,0.1077173390938285,1.1864468054165975,0.4647706975848141
1.9,-66.03790012150105,83.66629087298993,191.52403575849743,-0.0570689680753362,0.2894520487918072,0.4623717049137744,-46.48813036798018,87.06065119552512,178.6587090829267,0.248677683782174,0.2469081789476551,0.2365392204618111,-168.03235087642585,59.4694668863612,48.01064992549591,0.3042407695035123,1.02260100309688,0.9553011316246656,-81.39490662244982,61.13823584129358,109.12409352751352,0.0013516118382551,1.1638065478784725,1.078179585755189
1.91,-66.04512794706969,83.8326603049815,191.59772760113253,0.2510003095999511,0.0197192405854542,0.2391625527613488,-46.54027519909862,87.31435592640035,178.73968550300756,0.0733932803100358,0.1964177028611511,0.4493658811617582,-168.04656362306218,59.582879107081546,50.68371274252016,0.560830077584724,-0.0512894123460521,0.9531114299159588,-80.46489246091923,61.9094949898994,109.88992777706562,0.7644528769719298,1.3130365494992924,1.2710535057070076
1.92,-65.90869443634828,83.60057516855221,191.6072940858928,0.6738220985848089,0.2119386911832712,0.3137791507188052,-46.55863130174726,87.1172839942359,178.71496468670867,0.7193277245677242,0.2582309468254212,0.1719063861348629,-168.36969593485054,59.44680203222188,53.589039194457634,0.5795921083626934,0.067093318246601,0.0865200018213701,-80.27419108862671,61.80993121054405,111.22028133714235,1.4327459439201222,0.6306004328298008,0.8984333158783878
1.93,-66.1061620051096,83.75173394993533,191.52778597512687,0.2896125953534231,0.3589560827581728,0.4164404614360382,-46.60346447869072,87.12690167214924,178.653545420967,0.6220063407867436,0.2163523155215123,0.2169277287413909,-168.1970861117736,59.63506394829308,55.36757641288952,1.485952005977376,0.0339333071585464,0.0872026098173582,-79.93618253130293,62.10657184038799,112.17552043421504,0.1964334258317419,0.0650554901687373,1.179706907401176
1.94,-66.10036135358091,83.59657223727173,191.43780151344603,0.2267916433841703,0.3211430988278781,0.6191316912755461,-46.64244866284872,87.20744148135701,178.82483113912633,0.5511142614991383,0.2835760474846518,0.5132893095848619,-167.65083126028102,59.93601972101398,56.19363145450275,1.110875122219335,0.4282038949016524,0.2801463695428933,-79.64695703238164,62.38346058866999,113.4471274876778,0.1085285486713281,0.6410297236932558,0.655780117628717
1.95,-65.84180106893831,83.50883801683277,191.5643758497748,0.0902554501595904,0.0182123443937455,0.5766291750467916,-46.502622414203664,87.12763613364798,178.75046777614125,0.0437433392359349,0.9103252266949496,-0.0401546371943297,-167.18627672048444,60.0959737091527,57.14997603718458,0.4680799440729501,0.987685745658798,0.5523212857042589,-79.68063642643294,61.905363987816905,114.5031425773952,0.6640738111473694,0.7151847062833545,0.8504858721558397
1.96,-65.54031364852615,83.08571249245038,191.68106925960635,0.2727906575710067,-0.0306665243787865,0.4987987712386061,-45.97852030472352,86.87253399496385,178.81431948400154,0.7854730665098493,0.5332322724660485,1.3853442153410649,-165.3960797088723,61.34742810440245,57.46730263191686,0.6416457274049819,2.509177921959032,1.2043752766532263,-79.85216655951645,61.65260580224136,115.78566958905805,0.1779023664996181,0.8109519356905044,0.6792426223845875
1.97,-65.5054024601227,83.0383794317224,191.6912256661799,0.121800967480306,0.084329543041079,0.5726043455040694,-45.75950775696271,86.89874331419817,178.67143896132148,0.1865165445692727,0.8492886844668825,0.4013756583904075,-164.76868786243563,61.92577223196116,58.24260870841864,0.5647849103179073,0.9065479967254184,1.4870364069669022,-80.04403968557014,61.55678649850052,116.44447918141104,3.735604030663839,0.233219379228257,1.4336538349788848
1.98,-65.37881858841936,82.769067189821,192.27469374547127,0.1429949848971729,0.1162230240044344,0.2785338709750006,-45.64080015099973,87.02432385354052,178.90369549192738,0.5469592533212235,0.3748019429837099,0.0030471648338281,-164.72679446031051,62.08066186284964,60.5978720057803,0.7302209895921341,0.6120491122974371,1.9128784771688463,-80.33110210742929,61.302283807752815,116.10426464930654,0.1946628320526803,1.2086404798432042,-0.0053704653514712
1.99,-65.48584759861326,82.53222867919453,192.1375671420253,0.1475545561005401,0.1781517435596799,0.2587485807930435,-45.8485246605563,86.86627979216365,178.94435859533533,0.4008753717388144,0.4793911474865946,0.8011332779051018,-165.10991743414715,61.79302723324926,63.918920132304045,0.4192046327709343,1.6787511759227585,0.2991779108156688,-80.184041947066,61.6428038279778,116.0067905581544,1.1671245452785568,0.3569202684967705,2.0591811524767083
2.0,-65.4340587525587,82.54864582098652,191.5452857777687,0.6548547182198208,0.1015269013354631,0.1419747734269767,-45.94305957386135,86.75412445148305,179.14828172566445,0.0455602501186448,0.6654405122592972,0.0791418138706816,-164.5922608817743,62.099850950516974,66.09351413811848,0.7094370523294622,0.0120382915174241,0.3611760262516789,-79.77296473553145,62.23599809413272,116.25217126648788,0.7917747423935715,0.4904243972746698,1.0844311246450529
2.01,-65.61547109255659,82.53331260765968,191.33811273157963,0.4476690508645776,0.2576615387169361,0.3083257291939161,-46.25902298597986,86.9231934883797,179.21518197573812,0.0486778506599192,0.520641273459736,0.4885552504127747,-163.28932095969893,63.09145574107235,67.01768090229727,1.181669801938116,0.3658060303183091,1.6418708795861023,-79.39349770515464,62.73948139367413,116.65015289182388,0.634695063987539,0.6877193470925909,0.0053463754778792
2.02,-65.60303931756461,82.60758470323742,191.8195173048148,0.5160947294984745,0.2835419005328725,0.2690690967968208,-46.42691099388515,86.80131973608937,179.4705112863865,0.3809479425962545,0.8114923997339176,0.255866277632489,-162.0855725265408,63.87544704156512,67.9072128656973,0.5483491923526997,1.295620868614239,0.7961959367575184,-79.94562800084519,62.8052484151708,115.73724168097156,1.520016724073931,2.3726376811493037,0.4447544366092567
2.03,-65.46066888492373,82.61126413814324,192.0520878953752,0.4701730437540191,0.3076923139073603,0.2052075042666859,-46.696243192333455,86.7597376779024,179.18254868488455,0.6755422814638059,1.057744907062656,0.1119637522658284,-160.42324723182168,64.98921479244652,68.62293635362386,0.4318855699601522,0.9353339200330484,0.4795944327369333,-79.70873151831313,63.512456680035086,115.27340082147208,2.054922193174395,0.3128284119703126,0.503866519263185
2.04,-65.50902102257868,82.67364609977737,192.1202129238782,0.5455538607362985,-0.0729955778836645,0.2310425832639021,-47.05151278624817,86.95003118454932,179.33721889827908,0.4544811716536291,0.7793959111823162,0.2417036226539612,-158.82743776034056,65.91252794316397,69.35984963130943,0.1957262995684764,0.5960201019144533,0.2625887195763419,-79.34819793282765,64.51256141892563,114.32516854742155,0.6201074029645297,3.5814666942983275,1.2055697994258916
2.05,-65.56289712821628,82.74442380204982,192.75269432491103,0.8559012481149033,0.0818462747046743,0.3337686622922476,-47.17291936434413,86.97292779497111,179.23438902283203,0.0338598422702481,0.9410058731043978,0.299237490651307,-157.1248790542015,67.34767261908529,69.26798119440036,3.5675715250207047,1.2367904623424926,1.1686935717919391,-79.8909606394021,64.501747656023,113.68520127630268,2.5696606795797767,0.6515270794119639,0.4320254829325448
2.06,-65.48714450142796,82.41238998049603,194.228627842838,0.2720037514854024,0.1644067854854619,0.4253129880325027,-47.38999616140112,86.98509633257167,179.40924162831678,0.3054080681162859,0.5036640657659429,0.4696507378143085,-155.75426790464516,68.41566984518272,68.56734967698632,2.9684445597438813,0.9191999186025768,1.2417946101513968,-80.95991654373837,64.08109196028879,113.10476992027104,1.383457434196201,1.807648729245312,0.8298946058610059
2.07,-65.49951235844314,82.44609536925988,195.70979770430603,-0.0032592744167242,0.2771614284756528,0.7436722293590708,-47.46860377481969,87.00115681657586,179.30993843704803,0.5351146079686204,1.014117516870006,0.603430481895554,-154.57033158162145,69.34065610729714,67.26514588928126,2.3870722539407674,2.509590937566553,0.129197084334154,-81.67972019365061,63.81722702983626,112.63507957511848,-0.0740032108183773,0.8937598928288455,0.597877099413208
2.08,-65.45128663804621,82.13727968405557,197.11171424364017,0.2035773075760483,0.0058961746107252,0.6428225609831484,-47.77706423777992,87.20235907848819,179.23281274175548,0.2021067637460182,0.1790630687271138,0.4795934480963712,-153.34695595697627,69.43522191618256,67.58185018426492,1.3025857173748827,0.009407112433341,1.287023516518767,-82.50661116807306,63.40182862753253,112.47659209092092,0.1579737234321979,1.602206388817144,1.3816273129562229
2.09,-65.3440758714584,82.51196211744903,197.84004973766835,0.0719565252420676,0.2621471486950497,0.3039749864792467,-47.94809211358415,87.0738234677128,179.45229749884183,0.1764977084688256,0.5006048924127168,0.3639792537465672,-153.24219677731784,68.98072977136503,69.1991503878898,0.1157761242332078,1.2049618389959913,0.1408128542931072,-84.24836910869116,62.10935957880362,111.57911167230354,0.057471700157668,3.72822701691774,0.1321980471223065
2.1,-65.63403640302418,82.33322291528789,198.08279059317292,0.1674868406618613,0.3921920667758527,0.4822502304544865,-48.039694090947975,87.11912985068871,179.31326494606716,0.1546410131985932,0.7286271881938159,0.1099555627851634,-152.60334934817797,68.75283709408454,69.66577636748877,0.56183358557003,1.2868626180938951,0.5790757247734151,-85.54466533218009,61.69156770155311,111.6529280050934,0.6500329853320657,2.304732919646844,0.1495030635632818
2.11,-65.38462654057977,82.17189462727237,198.8149140183016,0.2732837262036517,0.2505796653167509,1.1812701337060822,-47.93961390757388,87.103568130529,179.3841797961834,0.6615204270058532,0.5275381844573341,0.1898262338142856,-150.7657694855654,69.43952413005974,68.99573818111055,0.3160159929485811,1.281555812339484,2.252667078680864,-86.78609636436613,61.03487623930681,111.59656219590384,0.1667907842899118,0.606229354316038,0.8231250476173247
2.12,-65.81603178955228,82.13790450667433,199.52875322963604,0.8385628490820729,0.1542174017698087,0.4528619705077285,-48.01935053481954,87.19468371887507,179.7143952704975,0.2075983252979901,0.3740477896363685,0.2214389999388826,-150.24856356727398,69.17269854471522,69.80241494597038,0.0627269158516106,1.1601839961031524,0.4965740773059075,-88.4781247950026,59.70790672867152,111.26221647520109,0.398120870242123,0.7111389245606692,0.1215423481010553
2.13,-65.66899584782324,82.07978106936864,199.9099174515499,0.6016913431626807,-0.0057636283273398,0.218669564762414,-48.07700554641404,87.08024110113652,179.74712441166372,0.2121160949925792,0.5835256575364287,0.0661879984362691,-149.83854289993874,69.13474521649583,70.23001396856665,0.6894303962369326,0.7179960411055207,0.8631309238702167,-90.04892356959438,58.628446511635175,110.85883041516348,0.7168040809414011,4.190512468978643,1.293407712459452
2.14,-65.5380996338377,82.01864575938563,200.23019478354252,0.0826722062434025,0.1496628183750253,0.2808019907183091,-47.96025542746353,86.72255084161992,179.619231625453,0.3483285419374652,0.7164771872243525,0.5969944355696106,-149.58098493552737,68.59563074165143,70.98647394907555,1.2302062777697107,0.2524598276531669,1.0506855172977554,-90.66077854961328,58.72416567178622,110.27468975535533,1.2094455881712955,0.9712720132131046,0.0048096156040252
2.15,-65.22044598441887,81.77009845156473,201.20749811333403,0.6481782269527281,0.3606826374853775,0.6601224868152369,-48.19632799238854,86.8715074742028,179.4209065688945,0.5185201881707171,0.1930683687798681,1.08614852708776,-148.62042688608415,69.06983434617081,69.930247860752,1.727825921627712,0.8664063752762209,2.8781409563668565,-91.06982001607264,58.71564928566651,109.71435508137628,0.1176176015162649,3.613166234028627,2.879179385109051
2.16,-65.14857614740448,81.73549376191765,201.7487703784866,0.3428709627692451,0.2364058219415273,0.9465931059422318,-48.22456791055141,86.77000280206924,179.6831345272587,0.4707212498760383,0.8881800796880036,0.8518671713230345,-147.90164309472047,68.58489387891673,70.21776358066337,-0.0321261581586054,0.4889928324618011,1.2876086132644091,-92.49990532710048,58.01518850680797,108.577036198421,1.3716697758946368,0.6942241524065381,1.265492621760675
2.17,-65.24858668005095,81.64865633900638,202.4341842434962,0.3647584817237325,0.6844113075984215,0.7425572258240896,-47.90881083555107,86.67662491596955,179.6010650561151,0.0063382719138988,0.822878530182103,-0.0117881165097611,-147.4441524375523,68.54345765849031,71.28719999329958,0.7281986130162968,1.024924734690278,0.7047432741380918,-93.40711198502753,57.66580636834429,108.03125552453088,1.1771684809703329,4.78030795658238,0.7531184524055886
2.18,-65.10256497949611,81.58815961946166,202.71573918916545,0.5497461354859198,-0.0192499905977103,0.2191704932819743,-47.91071219140611,87.02809761961822,179.71718785823722,0.1827532277811532,0.3932808321936217,-0.0407953533615945,-146.60765239312855,68.91154774323066,70.56197977338657,0.992733664585888,1.2243733497597196,1.2940819517430475,-94.37025562213547,57.21153268123482,106.87601424961689,0.2870082258857875,0.9556369690252215,0.6825070001713321
2.19,-65.53883731567153,81.62717100457513,202.60185171274583,0.5025644105104599,0.6218986030807044,0.1243697099404579,-48.147237491010365,87.16228079403857,179.6923837033064,-0.0605088911639231,0.1512072706110835,0.2803841576370394,-144.82649805236068,70.05232354436471,68.45963537311228,0.8966107587244068,1.9421710214935293,3.029044881937616,-94.29627022322424,57.6983836575202,106.27136899972488,1.7927268913261598,3.5924106833316083,2.446959372319132
2.2,-65.59579775053848,81.66214300053164,201.857428720378,0.0338591317359314,0.6083530690298224,0.0910255889193834,-48.036290278305984,86.76444831381946,179.81370202266828,0.2686611948465786,1.082443954640134,0.6625279766099307,-143.58029592286948,70.66947155254881,67.07309578354578,0.2154855297365331,0.8756171216957064,0.5138951270123037,-94.79504182283704,57.67433029871148,104.79109171771503,1.3893404980517852,3.1703864183936927,1.5613487084628297
2.21,-65.58452248529751,81.74630953039033,201.38482835071324,0.5869956300160337,0.2617356350966681,0.8529100198082232,-47.96927621359924,86.3595674445956,179.6945434893869,0.3036036481559029,0.6924645326282007,-0.006519389336518,-143.22067235492167,70.77178189347552,68.20484995566892,0.764111019501669,1.6409113971023663,2.597035232416561,-95.24796147554798,58.05317624953052,103.66560951364777,0.6773199121142383,2.949364455340575,1.2186456962914818
2.22,-65.79659284254258,81.6380329957195,201.0444388274268,0.169293849030339,0.6999725644039472,0.5989548025706541,-47.73301744418725,86.05136456722477,179.63479897691312,0.3241811590417016,0.2665476473994994,0.473085109834872,-142.73430750996073,71.13040865517917,67.94117319952029,0.7574182976959299,0.0027554877933201,0.3538489233536159,-95.72631303775566,57.87015813739775,102.7189945974714,2.360013162223189,0.4390273814842226,2.104381017743961
2.23,-65.65135467943522,81.96537257930217,201.13834735831807,0.2400587651777087,0.7270336451033467,0.1858700114664399,-47.602679243501946,85.75117765350063,179.6677592458734,-0.0181720569259641,0.0993306023114393,0.8612423870992797,-141.49758465289392,71.71582722827624,66.1424559768657,0.9960515089908328,1.2023467452923775,1.9427867774045529,-96.024961885312,58.17916420573344,102.22850378149089,2.4209719773103853,1.3831739953261215,3.13184380055075
2.24,-65.4789428826237,81.63121116179839,201.55457371816044,0.1149603608241404,0.604759440633281,0.2551128555788018,-47.66542684382816,85.31790466690332,179.44776945581884,0.1466007138504886,-0.0300931097443527,-0.0533313716818857,-140.50760094680962,72.22279711372053,64.78986949104205,0.2727269338934344,1.0738429478196196,0.7450591399681625,-96.2471915619245,58.27229049659229,102.22820025024852,0.3612462744252742,1.3862750761656386,1.3970101527707568
2.25,-65.18827384422094,81.5476354262083,202.29846073119984,0.1543635151790723,0.3785631353693875,0.4278279861941502,-47.45761629249844,85.01422025369114,179.35443476107733,0.4268918180408555,0.7002805170680821,1.1065589069699495,-140.65641975901295,72.1136785362898,66.3746902843384,1.1893107098641804,0.8219746300154656,0.2247776071894612,-96.26414003256431,58.35703103798308,102.67022412184976,0.0966287030807039,2.056571110545869,0.9740764826692851
2.26,-64.53828814739676,81.06453957750101,203.8952369289452,0.452774573249962,0.1300937630038676,0.3428819391507904,-47.0951249772908,84.6897737911266,179.5468213552742,0.6493257816448692,0.7579851856977534,0.5230853358293626,-140.74731711734668,71.97970725673493,67.21679566891746,1.162257298939771,0.5821854815103175,3.156094697937314,-96.66526634604492,58.51193694911978,103.6437229888534,0.1457391848816719,0.3780233369278291,1.4032918148778315
2.27,-64.2860515322824,80.9593486912845,204.8051675542977,0.6135818278546217,0.1472977487083049,0.0251394090835554,-47.37475885831195,84.1068997157397,179.51279237853322,0.1318238342001827,0.2499489799188853,0.0399843416129996,-140.46633414868023,72.25088837705283,68.52065179940382,0.7629759158723015,0.1034899607758458,1.934662206202552,-96.2417998162632,59.11298844845314,104.06258490070148,0.9176751090105836,1.3237845765187153,0.3487912758319653
2.28,-63.991381647212286,80.93205100844276,205.2749667298312,0.4434998882393514,0.3519853433737568,0.6320119704550589,-47.50647594891581,83.53331073958384,179.394329230901,0.6284087850303831,0.1148609828610391,0.600693811483308,-140.42807065259206,72.39092874355705,70.4501831467924,0.3478558964703403,1.8287498613046904,1.0395113105919045,-96.25974600884508,59.32511816788461,104.60774473927266,2.7531310389235597,0.5375146690325804,3.371658336122041
2.29,-63.72620650530991,80.63421039560023,205.78785069524776,0.2795231613909378,0.4407225997303321,0.7033299812270521,-47.52198031196277,83.60434873537223,179.49775500985737,0.3129572447291223,0.0274936055629603,0.3258611326737799,-140.11507422767863,72.77903744309752,71.50345047925651,1.680727415377827,2.4077161555248634,0.8060809208888708,-97.4264403978765,59.14984467930413,105.10713521817678,2.007628896909881,0.5847275345476808,2.682994155075112
2.3,-63.90096992986643,80.44074282635577,206.27650565677664,0.2486848164542064,0.255860030271761,0.7916285666454579,-47.59167164717949,83.16973801930817,179.64829801240415,-0.0192817679503433,0.3896406438137392,0.1345533558061099,-138.8065967135341,73.27298325444059,70.98096899981314,1.5098207784584587,0.7576964126887444,2.169138334498113,-98.23079183340242,58.97441916188591,104.85093000459656,1.4948205961746224,0.9726541971896752,2.05951686792356
2.31,-63.77813166139463,80.56906943737448,206.0699419283087,0.3486555168186701,0.3524525620357892,0.8152067175370974,-47.71276219953892,83.08965521199926,178.90986704964206,0.1481102024269889,0.7269237375255816,0.5447536187554968,-138.08672669309507,73.59394167115431,71.46339243282422,1.0110269358271966,2.2332523184749298,1.1162972939697615,-98.74148506866482,59.13007990969051,104.87668683711624,1.66620115150443,1.5163735433299916,2.43744883632807
2.32,-63.892925004094806,80.50326205386065,206.0110846629956,0.334660965938384,0.0208993544451769,0.7556910180445935,-47.93928217173457,82.75600863933644,178.97018532606563,0.357532992630916,0.6139026868199248,0.5785989488825146,-138.0012819118623,73.1405365976151,73.15342498442844,0.9646324838616728,0.2073612517983328,0.477537688209767,-99.42319408965363,58.86555926144855,104.86418067214578,1.6555816188146608,1.2700995999347735,1.6026974019950615
2.33,-64.10836433697561,80.47291463882279,206.17517058222143,0.2336194029490793,0.0930563903221623,0.5809033540535188,-48.14845807139498,82.51833932614277,179.3269825792526,0.6720250601349391,0.2409150302763524,0.5656170278136226,-137.99549860210283,73.19250697566711,73.63140236522096,0.9040441569213882,0.4071929326656136,0.8250760603738478,-99.78540404981914,58.58176995429656,104.53665431080124,1.5058603880328842,0.80359636308591,0.618288963834922
2.34,-64.3812136420478,80.36036706741866,205.5788923357218,0.4392247894846672,0.5400002315698681,0.2730413493503271,-48.21895496758509,82.58557545329349,178.4634506435054,-0.0230560924552067,0.6627462449724391,0.3397240703227263,-137.8168577887788,72.97957821305606,74.36076483321622,0.6843126273169212,0.898670508133929,1.5440255326347063,-100.4732261342143,58.52211309128739,104.49147801982076,0.2701968864867247,0.3286448282428433,1.8616004448903791
2.35,-64.59268304417914,80.10988111303486,204.9585834438147,-0.0177697101336528,0.6152405106734835,0.1499139905146623,-48.61251672587208,82.09720697434173,178.38700323751823,0.07742005180391,0.761201462841044,0.2568313995354273,-136.5643377800141,73.4026825146541,73.25776929606484,0.3805385016276158,2.0417877780367366,0.8017247610328841,-101.33449791627292,57.99728763077327,103.94930072304057,0.4499657636666202,0.5347873599125126,2.1730999878109705
2.36,-64.80077997770557,80.17352280229831,204.7371582690532,-0.0554750465781379,0.3399895606093179,0.2152033460636391,-48.90307566042354,81.81612680838951,178.68823537320347,0.3338424038088795,0.0449939127530058,0.4759767949742985,-136.37469813871493,73.39499407742771,72.77077767809176,0.255785997569109,1.2970724565312897,-0.1318611933509839,-102.10705314101052,57.39091911541639,103.63345108644025,-0.0279287785951351,1.995419572502921,0.0701858081176585
2.37,-64.84442411001578,80.27873020170414,204.4302992724139,-0.0733095157249367,0.0693030805171428,1.1809152520779789,-48.99437172096053,81.67664402934078,178.63541967364645,-0.1337889204570314,0.5139973424756369,0.0694082893227764,-136.88783787115503,72.65335594036648,73.34933954033453,0.7494196023127436,0.9992381143424574,1.34907063566572,-102.9303972416034,57.058290457343965,103.35636478352654,5.130839406199401,2.380653141314813,1.633618739768674
2.38,-64.95860972289785,80.00526012450328,204.61627148144737,0.6979268943870273,0.1642931133439905,0.3307612014836261,-48.82156576212691,81.59171132914702,178.45013323436075,0.7796817022077631,0.1928056572133179,0.9828619901685658,-136.73542686563496,72.4603947138404,73.07024772461072,1.1884256658662935,0.7604002737933008,1.3185402542033304,-103.2443934866906,57.06525136900066,102.89453200094168,2.164988113299648,1.0684894426139435,1.48168988833882
2.39,-65.20850892951204,79.9125876065013,204.8939551193035,0.1679844911473841,0.1206121138404378,0.4698617494963792,-48.98206222691496,81.24275459793552,178.62408737892346,0.2903389844840605,0.2527071012914981,0.1121326822134352,-136.14430089123653,72.52940331895826,72.36254945741692,1.8169025363682327,1.2401242261233258,1.1316073996281966,-103.13580494681024,57.31218182262671,103.15660982066288,1.0692551332569349,0.1599807918505608,1.878615886298267
2.4,-65.11862595045396,79.77115892653492,205.32265481192672,0.0810281170360428,0.2163335138030607,0.699584743406194,-49.28700097716393,81.3241809614962,178.88332344900044,0.0795536769434807,0.5388694134863894,0.2838230755802662,-136.13358610187203,72.61298477542279,72.2581308548413,2.10458228608918,1.2912723225773286,1.6090787395153985,-103.2748999074689,57.28820963029311,103.35111914260555,1.3239021632109833,4.432463545149763,2.168795015332912
2.41,-65.10649549218543,79.55416157440092,205.46996991432124,0.1886860710761368,0.2460608831284506,0.8764815260523989,-49.0737599718127,81.16030157079949,178.7031328748469,0.1587062902274092,0.1143172967934134,0.1817023812436999,-135.97422696877206,72.51407613978364,74.01411669497139,0.8977599028057367,1.3285070932733116,1.003550240075075,-102.73162321708465,57.45145160781766,104.16924028525956,1.934624576476513,1.3876179584073942,0.4774557397961602
2.42,-65.26738217513595,79.47786731436194,205.64367996391204,0.5527219196579753,0.077853157410149,0.9451474525551344,-49.249483809737285,81.36060162733949,178.7471087163369,0.2895846922126051,0.7883062287589742,0.2449292969176453,-135.92729104885078,72.54695602263175,74.86394906760393,0.9463327879992072,2.161245496185658,0.4741456143305234,-103.36680333814256,56.91279783685369,104.4973713165682,0.3713255228043558,4.286247522819443,0.6622167651368551
2.43,-65.26155738733947,79.52541790731601,205.6532562431915,0.4079742969282066,0.0557094162969221,0.6323749256971283,-49.41116127967689,81.52278719556698,178.8974661274016,0.3037693580366135,0.564284269879673,0.4298859946280641,-135.35783998449233,72.85795440598324,74.27247845360208,1.2557803242807184,0.5656133444956433,0.2002877350836415,-104.6471074976355,56.111500982186726,104.74951661308482,0.3986615659784601,3.4500537108132776,0.683112541791419
2.44,-65.25376120091022,79.49813555663361,205.9575316928331,0.0934473113920786,0.0874159617650196,0.7846052469324416,-49.17215972581722,81.69777080883544,178.919100766598,-0.0965347409124729,0.2906914825565152,0.5043700052881883,-135.10617380798212,72.71698407941759,74.30783105320484,0.3807170911623968,0.145261475242416,0.1781501391381186,-104.26819261948216,56.06161402826096,105.15722457945006,0.8841686461514754,2.7513174808010827,0.4590778148524546
2.45,-65.46142252550031,79.49408600078463,206.0413090313248,0.3406641646976535,0.331515192486518,0.4592705719159095,-48.9720401759254,81.76150019395835,178.90515108150433,0.0057577105719262,0.2854361053957588,0.39649908173964,-135.15206660870672,72.15160378954916,75.81921491066574,0.4601582484384357,0.368539873096935,0.3707196531899382,-104.62771694686278,56.19079924069379,105.60171413575064,2.190835267481176,0.3565266231120941,0.305382298268814
2.46,-65.70149710046161,79.37805579124739,205.8052648814874,0.1858237930993989,0.3782124520230834,0.1915819025635145,-48.97774167336866,81.77542165869772,178.71989951797065,0.1035740726588646,0.4500599530184453,0.5386753654618817,-135.5207523598087,71.66583054504976,77.60756167068553,1.535868478761985,1.1374785434983767,1.059580300953754,-106.07654769367,55.5247083269504,105.92350142460792,2.6467986513091666,0.6755361595967934,0.144515747933562
2.47,-65.99388170881991,79.59865347641613,205.5340131745449,-0.0260590581689093,0.1313553898863439,0.2122218092149727,-48.9703487801168,81.61239779010528,178.3446980245672,0.070274003946738,0.2157732352964964,0.2241853702984602,-135.64406462411654,71.13186856883775,78.31362986159823,0.9613782550134806,0.0734210487430874,0.4035784190392741,-107.1483942394658,54.731999636123,105.8858392344593,0.9992996960634396,0.3053466245371023,0.8238853965365431
2.48,-65.75661904459893,79.55489279301123,205.5854637992165,-0.0215136672261366,0.1808792611394708,0.5617132613720507,-48.983957987359965,81.63698963394488,178.399273051672,0.2258861143210729,0.3596748433586254,0.2141860517568445,-135.12395239302148,70.8954854917889,77.6204100103577,0.3606242638590465,0.6527315952867929,0.5416792988589585,-108.00593495783689,54.02883485540365,105.83597494120907,1.7995060110917402,0.4095857589947387,1.4330295049575996
2.49,-65.81198462936204,79.32816072608848,205.50235067492045,0.0125719505347543,0.3438665780687443,0.6946885437340269,-48.90683357899479,81.52377457089406,178.31546238864073,0.1063111665446892,0.2131249577196592,0.1552313875627348,-135.40876720406803,70.22927775899971,77.34313520745725,0.6304685462176288,1.187279766646169,0.0911583653444212,-108.31390417565066,53.78017088768789,106.16262274268595,2.106999295368873,0.6418264397226129,1.5960064533347504
2.5,-66.19533009384442,79.05663431232719,205.5473395770435,0.2895765841107673,0.3488942267374673,0.4920328245318507,-49.24565122077343,81.52973970194107,177.58517305555807,-0.0596464250976986,0.1385022961890967,0.2085610295988271,-135.5660827422615,69.87463767806189,77.5194445179198,0.3526780528390438,1.2303385375621163,1.0861228153135096,-108.95561795536946,53.609990289916894,106.05695005955528,2.311012002883765,1.0138199226201596,1.587517736280937
2.51,-66.08569402638565,78.9222420830206,205.3109900078668,0.1192426095993664,0.1056629954123626,0.2697789470329823,-49.08017989902083,81.35113547198489,177.6787939299637,0.1023039758587099,0.1805047842390251,0.1845542375402654,-136.14360305616884,69.25059431881698,77.86462652623378,0.3333701694982994,1.255016824960798,0.6843904268563918,-109.53868450642804,53.288751295636,106.33487221303186,1.7348390214683242,0.2648288846562355,0.0060161246893048
2.52,-66.22135393638297,78.7124875615873,204.9507340961511,-0.0204788634607983,0.3634368666507709,0.2737060465380204,-49.1746781654676,80.9928923399933,177.25534083938606,0.2729741610564498,0.2596732164529154,0.0766648396165626,-136.70216870637373,68.44504236993883,78.24456578884315,1.274774895237766,0.767675818652282,1.272197344571801,-110.1357187791656,52.68511175256226,106.52285237003316,1.801762989459736,1.4971612279339186,0.4597002663880407
2.53,-66.09893593865336,78.66813845147817,204.9327429786318,0.004866224101194,0.1038835711305126,0.481484011306551,-48.9863511188408,81.08745423451401,177.04511063896828,0.6791474886137762,0.1257724941047445,0.1071713564857648,-136.76185751178969,68.12451052777557,78.39246445076219,1.0326067801713483,0.8756994990326482,1.0995987650825092,-110.46872511308614,52.14630420843452,106.6374432314192,2.4445992083065216,0.7587834985968371,2.5632739105161035
2.54,-66.23296090314028,78.69110706665226,204.6337354664856,0.1839000905897322,-0.0147787320393136,0.3867381194065054,-49.01065020840549,81.04749428713522,176.46529777465668,0.054339619961265,0.163512447336267,0.4213270313383935,-137.0147273019332,67.67745729434881,78.66154724626212,0.7958326808380783,1.359735809689832,0.9637786470244633,-110.46833622494012,52.24540059632184,106.46983491428723,2.176089328312924,0.7685308957270758,2.109837644578304
2.55,-66.15802450195498,78.6924935572005,204.82817712964524,0.068218232002112,0.157232219217343,0.7452764888921549,-49.26048200613845,81.10629456122369,175.73663349228195,0.1668980378132627,0.0228001698082675,0.5594043333386874,-137.63852235841824,67.46658284839125,78.62403873504505,0.4738247477428198,1.200038258018466,0.5314604800412179,-109.652634449173,52.549271758493454,107.10236483177758,1.3750272969210393,0.6070586243074103,0.0014159844537405
2.56,-66.04464210094429,78.44878056834641,205.05477470781105,0.1695953845173662,0.1786346117011841,0.4464442847716333,-49.232429972487495,80.88141712904836,175.9304740841225,0.7078295916108792,0.0774438986189629,0.4025266643612233,-139.43399477218057,66.08273804859333,79.29220136493375,1.841265689479041,0.8852924850851279,2.012691329632829,-108.37348462442196,53.556701354381005,108.20255054492738,0.131202897811497,1.4481128532533485,0.7180461619788727
2.57,-66.41824961298121,78.14130788279104,205.00324261140577,0.6504228672155632,0.3161352424272928,0.1833444933041547,-49.1375069672359,80.88763180664516,176.07529399363844,0.4509292912315401,0.1822463889370017,0.4301046553771726,-139.78514376443314,65.69459332707733,79.58257660765793,1.251275690917558,5.599850477720622,0.7925398355897431,-108.61615825887698,53.36469821902555,108.10249926113244,-0.0711353641812525,0.5470241747408191,1.0094240297292525
2.58,-66.10959938336133,78.29986302405972,204.9283015351849,0.482737888173608,0.3303359329736538,0.2167767267682766,-49.21288759659793,81.12533083339186,175.45956803246443,0.0361988052949393,0.2622059787918656,0.5486946699716099,-138.80666672412528,66.76780619201965,78.50932297920191,0.5400907260066723,0.0332568957733148,0.1591981239097505,-108.21844879488916,53.517031670594335,108.63115311409314,0.294003700985198,0.9173010876050732,0.6262892262978523
2.59,-66.20447038790088,78.27665573528684,205.0640192855015,0.7255822027612784,0.2076507135334046,0.7383173092738491,-49.212645632430856,81.16406625976865,175.4522530708033,0.2002606239674281,0.0318487576640155,0.3018681277779132,-137.2201272838407,68.44424343720196,76.05050845163004,1.3472143745512797,3.350009874374664,0.6893139328233664,-107.72123380312382,53.86063882056967,108.62656150235676,0.4626225695475151,0.7830713842450813,0.6992374500176176
2.6,-66.03190376063208,78.09090553317918,204.9970811531024,0.354987625921292,0.4057878303631009,0.53932000088825,-49.30249688175391,81.21637389018196,175.2753853978877,0.8063249142163108,-0.0067584915324267,0.1041333958539436,-137.2970120654589,68.26052096802869,76.00464524268936,0.9149940152371816,2.3430932844936856,0.5370311936758667,-107.27224751145394,54.56485144127764,109.11963106383077,0.727030452423357,0.2372731335005913,0.1760883433537591
2.61,-65.82190371718252,77.97681214885134,205.07104259466345,0.3392651429477336,0.122482008633969,0.4482611690703595,-48.93617406197504,81.23958219577518,175.5923869243158,0.4497438170701683,0.2556041035671375,0.3043402819810171,-137.69409373049106,68.09229271729784,75.9360467972986,0.5448833737963746,0.9686468375922817,0.4407369517908884,-107.36418518597893,54.59076025350654,109.35371584298508,0.4668756856783614,0.3444726923065004,0.4613725776069861
2.62,-65.79698288657552,77.86940236837097,205.46223799340788,0.4042742478227397,-0.003629146860487,0.5567655536071106,-48.95468229127324,81.43686393022413,175.65508568190134,0.078540607768258,0.4088551743016265,0.2197767899513573,-139.28695398512525,66.68122556261885,77.64469644338517,0.8575210774879904,0.2981828541324919,0.6402364917148998,-107.58613672872184,54.51859954731157,109.8185232706426,0.4653825229854568,0.5050075052470978,0.6783386188915127
2.63,-65.69520659317924,77.69084532214396,205.6463307590756,0.1733521750375958,-0.101153760267495,0.8767505500777504,-48.76729144190984,81.48211061366442,175.50095059934424,0.5117954843258912,0.6286344463291612,0.0185681633794358,-140.66334668312632,65.29256500146647,78.55202460771017,1.4497371651929172,0.2116590512963543,1.54435624402059,-107.45172582710155,54.8232081582032,110.92902010676404,1.1317729723923031,2.558862064450333,1.155826281915578
2.64,-65.54404658751558,77.63745606072172,206.10300768685397,0.3364878766686331,0.3205503624995637,0.5400471731605577,-48.7893317481442,81.82417385353833,175.59257163728904,0.1996581983727667,1.1057498071157443,1.6392135852057506,-141.88829213137254,63.86678900365102,79.41338620778656,1.8271581282725384,0.3591577784123313,2.4708948583207,-107.43149795645412,54.84984261952827,111.3131897211544,0.4280110021796073,0.611037212534108,1.302453172973379
