0.01,-115.96287813970672,59.41814967742094,169.4307126795131,0.21973173491403486,0.15628125883278157,-0.016415145864898326,-0.1711869613334582,0.1861534350750229,-0.021915513296119765,-0.3578879656706494,0.40293860949853255,0.670444197857635,0.5793052883017531,0.182610449270291,-108.94081550005028,84.81599603695732,0.601216949877714,0.009729470037298285,0.29127808315350223,-0.06934702086917294,0.07458983019684415,0.027916501930799587,0.0898086853035876,0.6059929283864463,-0.5622316817828145,-0.4250310129271737,-0.503818304757814,-0.0147684291752213,-177.34599271267118,2.1490717202202125,0.2592701168028647,-0.13216261077086694,-0.008828853328225493,0.16237084724761836,0.2539017027292769,0.2221700791004539,0.06002565286074618,0.3786836082335124,0.3870469075414992,0.48673612998566823,0.5003191098445156,-0.1967245593038233,-134.88281386153778,18.311691215317875,8.027262493639723,0.05652634235219041,0.029355835323474855,0.10787050053910141,0.2952246244903168,0.2363608651659374,0.2273058892147594,0.43876106376615415,0.45472728903831494,0.5374553909761486,0.5898167923982983
0.02,-116.07361917266643,59.6409337433983,169.04914190352804,0.2561655427476008,0.011564518972481693,0.1647739409281001,-0.011442462766980153,0.04465451210832953,0.18047689870271766,-0.4554349763451141,0.3463630033831555,0.3439900788193194,0.5364985064696911,0.0011336993961809684,-108.85235444381777,84.65072979167682,0.46644828925983145,0.03459823557888742,-0.04534677181972713,-0.01775979956949667,0.21545294889559258,0.13898424942289014,0.0130407969121057,0.5190050737396544,-0.5186406488494701,-0.5729481887495909,-0.36990903232847994,0.07071012919018656,-177.337122171163,2.1391630614942874,0.2994053216101108,0.056392600354418315,0.17913601829112988,0.005137161196496862,0.3482562725854852,0.18738445042304566,0.26465614862277664,0.30570616078301105,0.430680311083175,0.5113868273716147,0.5861323039055129,-0.04948094116184154,-134.68983386111842,18.0650525615655,8.12116780155816,0.014000143212770023,0.10653500478822527,-0.02665788754241078,0.10343496648754455,0.3011293088492057,0.3784731115359168,0.5049280710402645,0.48883263199717103,0.4726649689262838,0.47812595891706244
0.03,-116.11470876720617,59.477480198652934,169.25695557578143,0.17147073457650697,0.15499460324842176,0.12600042158806155,0.017960221967936958,0.07694644691445093,0.11411052488894428,-0.4757187395837065,0.5491501947625025,0.44160852667502476,0.5546813926136739,0.07993955501641309,-108.74378048483331,84.95953680101054,0.5219515505839464,0.15118630957917129,-0.03248974223604738,0.22985583563556178,0.010027068905434186,-0.08290368000624745,-0.07372127653727595,0.42839840871769846,-0.5086824286998244,-0.42596680372254125,-0.6710895954705799,0.047686498277558,-177.234427024424,2.256548069536023,0.6318358157980989,0.05525293418247702,0.08199864577708235,0.08076716782144813,0.43757203227801406,0.20743271590876444,0.3613055609799206,0.570437964079336,0.4378210749987624,0.41926173416843027,0.46476003394442267,0.09558778313855969,-134.63573714262486,18.021958146133688,8.065899585669333,0.049409071103867226,0.17529130339767449,0.061834877971955665,0.007229412564693699,0.09928207110917876,0.2477763249944361,0.43593661425005487,0.5807647145048724,0.5373134657363264,0.4635663793380154
0.04,-116.25400281122532,59.66170109813182,169.3038150526418,-0.11918285512741232,-0.12554145821491955,0.056423479291028686,0.05128294768655959,0.07455261787310631,0.08511109055907688,-0.5732570216860092,0.4774057090518443,0.6140677775509038,0.5351535618453309,0.03495625129284886,-108.79266188863556,84.88491691714697,0.4330212110743069,-0.09428345462548364,-0.1050059352808631,0.18167871274824024,0.2846106314544943,0.0979457126699577,0.13399007092926069,0.4412097975144796,-0.4972801193422786,-0.46072072886281784,-0.5126930643229397,0.022980598210677602,-176.95864162830796,2.5318931774552946,0.7066695052965255,0.19832362926504876,0.1774452982738421,0.20390569312822548,0.27106225533355605,0.15739126474554307,0.1978496220442286,0.4890511058569795,0.5832127214083804,0.5258941397272952,0.48186599525346213,-0.07699920079495876,-134.55321281254453,17.68801806549282,7.947195693401749,-0.09594919100564743,0.22320137523263434,-0.04240755415420806,0.026005413784572134,0.10875473467069503,0.2552148762013569,0.5527612569987674,0.4997421454256093,0.41222639682832335,0.45000028988581997
0.05,-116.15009869225607,59.53521071973128,169.25450900544135,-0.003575391027162221,-0.24329125326970985,-0.10213356887006483,0.1150745883180706,-0.11280026082450177,0.274027052928271,-0.5026150476897593,0.638917704631975,0.31965506719436,0.6360235358609881,-0.016491641787467842,-108.68026655487158,84.89115767639366,0.4714308574423195,0.04437722539387135,0.08553970098002567,-0.015612990225318433,-0.021044851106671814,0.2749105770220374,0.054776829797525003,0.7445043649710565,-0.6376531423899224,-0.5954784992963513,-0.5540214579147656,-0.17266784686560138,-177.03182646139678,2.654616857985641,0.5596138789582269,-0.06858620124831452,0.035273684989560676,-0.015645279665597714,0.15947596299337968,0.296251935884133,0.30446220944615293,0.43702722400821387,0.7031059403492881,0.5342460215533988,0.5512096427042426,0.02115976361512696,-134.33785228243468,17.64397235918098,8.069258463662338,0.1553820868138915,0.18397441766156758,-0.04492595463560668,-0.06138662744835602,0.09263266029682518,0.2052315904297528,0.6435964170708063,0.5555982620927923,0.538031241141384,0.6739692390078521
0.06,-116.1752592015153,59.50317125501409,169.3270545465003,0.11903545431872636,-0.06533344912792381,-0.047936768168210665,0.07010197182906752,-0.11781738311584306,0.004106563488379712,-0.5778593345095602,0.5397941107785875,0.5188268346705099,0.5262049019183772,-0.000578149758926054,-108.74069542866835,84.95610095974651,0.5496960916187772,-0.03994761106688214,-0.011193512821973894,0.08998342053691938,-0.00537294902338533,-0.04959532076504339,0.03306065699723336,0.6492554960685513,-0.3258277389961656,-0.47709073185865897,-0.44726805721738727,0.0357205620301229,-177.04150349983587,2.6627499140294777,0.528530756241073,0.07657152146931522,0.17355153373518536,-0.03470587886355617,0.12021407400774058,0.428447580488602,0.08385813356927331,0.35801861332800866,0.5879646130858625,0.5952259714438171,0.43160360513823043,0.14467596584195075,-134.33281801829457,17.504369448872055,7.94513258685265,-0.05440682712071635,0.17533975771468524,0.2962129402491679,0.3672353033617587,-0.06011290560143569,0.054977960553337035,0.5220271521966816,0.4770529069164771,0.39144114978302635,0.5738542941425765
0.07,-116.24436098755756,59.62595504889771,169.39537608262907,0.007169079800335085,0.15909485306044946,0.1854846277093509,-0.03020371181954175,0.10016868973654514,-0.007599058421341601,-0.42155190395026293,0.44963884232416607,0.6565221487114137,0.4583455976946967,0.09143237850183371,-108.82642225737546,84.92382010161235,0.7798113672582551,0.019086318201810233,0.015433014323076515,-0.02892622139066271,-0.024713462709609585,0.21687426706429386,-0.07864814632632541,0.5542298913976044,-0.4204923776294547,-0.6235191544727516,-0.6939858760705029,0.09656042767904117,-177.02342154730894,2.679454794157175,0.6272946648873451,0.11173832934390647,-0.10921451683105961,0.21554780578027133,-0.10690873933076678,0.1043316224062039,0.2538986348977127,0.7209425738987795,0.46916641183047547,0.5275609198016323,0.5909146088320738,0.11710330922493956,-134.2953961459494,17.17320352864293,7.88308009457428,-0.09546790748853093,0.25521619517947886,0.12096504162560492,0.2504040041577009,0.06479231833531128,0.1321847664055873,0.5614012905396105,0.48132015163501246,0.42374955990362273,0.5175047307261623
0.08,-116.43577401698786,59.68671644159559,169.2005670307774,-0.03741404567483815,0.0674264654635611,0.1854577838483605,0.055952872023381936,-0.004384988530301368,-0.10990602136676131,-0.5546773614527278,0.6609110754386748,0.527632594275606,0.29868449074801606,0.08247783668039618,-108.85132658423937,85.25165175487489,0.7738284583135455,0.07247246640689194,-0.10304662505755435,0.094234406780883,-0.17341751178417666,0.1525053553381283,-0.06567567414824461,0.5639991496699178,-0.6128719572621397,-0.6058727778243971,-0.43316756594063804,0.18302069742181382,-177.21064029902135,2.8448033929766714,0.8471123749064112,-0.13200156010889344,0.25901908749470726,0.18134181177988917,-0.11974486612026454,0.02784880088788727,0.2882851902099316,0.5074582205789392,0.38659049880720336,0.6434911498583162,0.6076905373719804,0.1418761108623822,-133.8831104359725,16.88259389908987,7.813567760701021,0.2088140484796822,0.1828767606931888,0.32318475350862585,0.1604408233538051,0.13203724435816838,0.1516964849439182,0.4773427665850353,0.5371569214814091,0.6037454709912159,0.4891170379821467
0.09,-116.40650628208572,59.45745538462902,169.35357428691972,0.002008480134497812,-0.20753683402803805,0.023784317917671396,0.057782152902011094,0.032787566510699646,0.17488404320780346,-0.44724379507743284,0.5474897351144644,0.3863294521170323,0.4945352474787786,0.2638088381299676,-109.02650145338627,85.05515814987662,0.6875430986087795,0.15710046399409341,-0.1756819979966706,-0.09152601179336146,0.09817975713707586,0.10845802430418933,0.01675597553650507,0.5146269473253329,-0.4941438750788963,-0.5914957789253106,-0.550055384868637,0.15191039999544692,-177.53835255836626,2.966181904530084,0.9736173445653811,0.11144942164954788,0.05278812950815183,0.11469791444311585,0.008875538494846721,-0.04944495920403698,0.1612572832577722,0.6468276481683651,0.4832221310411641,0.4008945196196503,0.5977087414209032,0.08614782703419044,-133.78475969073142,16.57973820459859,7.516792933392167,0.029430858787139247,0.42017906317150044,0.29382295473555803,0.16455089770716028,0.25979013370280174,-0.042746885189744704,0.43657316064815327,0.5466403736663004,0.6035868875562123,0.5449588164907132
0.1,-116.47007834134982,59.519820165961015,169.30826833899343,0.14439230182158935,-0.03891851308910111,-0.04653039384778937,0.11073451313895033,0.08353506293293908,-0.013390694739098874,-0.6504271790230591,0.47218931312216217,0.4899685303903719,0.7639971874717479,0.10044359297715633,-109.02052012106232,85.17605729374183,0.5526144316829933,0.0031819623971945446,-0.07853829929848528,0.016068617556317645,0.040454004665289735,0.17801226189511868,0.002595278154273316,0.43463313735504483,-0.5751949826303843,-0.5724331416987541,-0.47661387889044243,0.03787201264837112,-177.4809569852205,3.1042676214951888,0.9296472703762286,0.021555602247050998,-0.0154824080256077,-0.10955595670559229,0.0328040566805735,0.16149232936420804,0.10782283029384251,0.3783557591262749,0.5159865647188506,0.47867069921791183,0.5295463238715155,0.09879512923689925,-133.32573453129302,16.455953050445377,7.432825284768806,0.12167573331775833,0.3013818025974609,0.3320354767561177,0.39860927031112503,0.10495010411179966,0.20957175622397425,0.42747127916148303,0.4002255400999396,0.7677353565877293,0.5058711356251471
0.11,-116.3158219937307,59.599228261080825,169.2522364579763,0.1597602645515934,0.19208002114294104,0.026750765563484574,-0.0009203542150701405,0.13058073486801036,0.011422901138374849,-0.6635242731749034,0.5222413759725975,0.4711423909737561,0.4758961792302118,0.08427431112214484,-109.11898112212795,85.31253384000286,0.5784311948630653,-0.030544745025590278,0.08793100029010312,0.07631078141934562,0.07366341995414469,0.18214408362240772,0.05610044710841617,0.5500021886879164,-0.3905039227390884,-0.4285168958857043,-0.4653081712633355,0.15924640617916652,-177.32910655131903,3.4016816559006595,0.882279880125952,0.14525721348250198,0.1047954571787471,0.1725235627351393,0.00012204149318628676,0.007989104151701343,0.027071334494053342,0.3669656955445041,0.5878613159397449,0.3571717305417219,0.5165166901729568,0.0017286439780872104,-132.92250434274962,16.49189713660771,7.3354500163507526,-0.02219469240429571,0.102787225114809,0.26148714065876555,0.28658475144715145,-0.006346728322394621,0.08962703290741302,0.4863948357413664,0.39777390409098334,0.5356118135045669,0.4844045769363727
0.12,-116.5414274356486,59.5440720588474,169.4341607144628,-0.009693867497838843,-0.08188738431427123,-0.02844096321758647,0.12867711425818687,-0.01106960075415446,0.009824369189411562,-0.458607415603405,0.43313405008334527,0.3585364178152302,0.6685902413560797,0.21144600986090895,-109.06229726596227,85.20596062425649,0.568536554502464,0.05533672488549378,0.08573621082934071,0.012906882011287337,0.017126924548132222,0.13891885100392387,0.08884109542573054,0.41180873377505256,-0.44148961611772414,-0.5549710966242236,-0.4887784178536504,0.13187388141732975,-177.4624870308196,3.3996762576985806,1.0590887046741415,0.1730967650943578,0.15352232768629176,0.21098416164267167,0.10700470863455351,0.1970507989183959,0.10799919021199067,0.4433508052372854,0.4240292900816859,0.6152545391658063,0.8264014584354404,0.21642576412325426,-132.72456409936612,16.14069156948242,7.225232832345868,-0.1065513870687499,0.16822748074306118,0.2119308878575613,0.32391142417035146,0.11344378693118898,0.0712233003715667,0.46859103573340277,0.629453067281989,0.5276170043818175,0.3981688418596133
0.13,-116.43067219218769,59.65999509769606,169.25723790323002,0.05856901104576985,0.09832078725448765,0.12914290803309209,-0.0346056772474816,0.17029484874802323,0.08780795491605428,-0.579142487246262,0.33850289580467735,0.4881336931130748,0.3678026615085891,0.10583044905404196,-108.94171070425655,85.21893831082043,0.3988261017995871,0.13856354994952214,-0.23302061371857946,-0.09155170189454864,0.1925786828437453,0.11224279045520744,-0.003047405889816418,0.4497302987728631,-0.6282920699091211,-0.4334812237037262,-0.552340866299904,-0.0306279255445151,-177.30891765209046,3.208470383499666,1.1720228541874032,0.20492994835065192,0.13824428836013822,0.01403700963683241,0.037171930406247194,0.2365585375770046,0.1969993729088665,0.5350602841800186,0.2909725382392786,0.3519253153265251,0.5026776346821364,0.07549046728837311,-132.8795350429701,16.19259388418307,7.396913812037103,0.13137655648045932,0.2592201014805032,0.2004002688387831,0.1940155927139114,0.3380370239701579,0.13759050848955084,0.43118603766114333,0.6019463271262082,0.59811481436353,0.6360548088705922
0.14,-116.41575069804998,59.53692095056206,169.19138993013607,0.04500739777165667,-0.013780870021901315,0.09330000137989684,0.21979620707483188,0.16918272524999128,-0.2153351198437357,-0.6221420021718044,0.4895627822749511,0.536976158898078,0.6033212917665178,0.01998707392724547,-109.11253957066424,85.25853061120313,0.3204233265483416,0.09136028433693351,-0.12831403995540508,0.12938744337702585,0.035811548664620524,0.06622582320624462,-0.05347189863250226,0.5364358107838836,-0.6331587309374634,-0.4731835233664281,-0.43930308298431164,0.28232148888608893,-177.44483681362792,3.519286260318254,1.2833181204152646,0.2118187590697514,0.07910088495261386,0.010408466426866853,0.04257870580251956,0.015521920590201438,0.06265971472248091,0.574916810492219,0.649150498719576,0.3785316220750668,0.508517968827224,0.1584244336550326,-132.58730199196665,15.987955669972289,7.203937731311158,-0.0007958835279890768,0.15411887605447558,0.17767774697873936,0.324969022882711,0.02714749119255168,0.17157491214494844,0.5631262800567293,0.46926482535372954,0.4607712132112131,0.681575233622456
0.15,-116.41856129989306,59.64241578509257,169.40037571461244,0.005228480081928846,0.07683835900506092,0.10251193182110488,0.029320535731351405,0.09534485888513314,-0.06348403454601512,-0.5341397800064622,0.52139611830329,0.5337566990910715,0.4440887568320494,0.16483658527508555,-108.9752729684188,85.07738412553171,0.5925791553068718,0.08002796219635733,0.20033349593026714,0.11406490277446465,0.10174176686012826,0.08916200782987035,0.3694120984459942,0.2980185530941296,-0.4152931030085316,-0.6533593017089775,-0.4589700360049599,0.12251730932535683,-177.34364013168155,3.3926168774852425,1.329574612252527,0.22863213254716558,0.1610960669861903,0.11253111815244705,0.04011181967493331,-0.035594957944790104,0.003976619292499064,0.2921826318669533,0.6193821930359946,0.5254200163897709,0.5670084599220087,0.33853796086454024,-132.50486892298454,15.900422802502858,7.029032478020312,0.11177115770794674,0.29251442236172087,0.10426996056334856,0.3875510845444775,0.1941866739264034,0.2102699135497134,0.5746030687491583,0.6131806064605806,0.43698209833154544,0.39823813185188683
0.16,-116.31864165367303,59.47252600498571,169.42525060357127,0.11672705103554373,0.23324617879005544,0.019990850699292892,-0.01042703111702531,-0.10419172698675189,0.07282589323745023,-0.6430203824228958,0.5747890854306373,0.6497513576128486,0.5208090912467297,-0.02880884163615291,-109.10063230744956,85.21873870447138,0.5948318140757767,0.06827017630117754,-0.17219384930417195,-0.041598135182807625,-0.11703119719261679,0.14707122681755955,0.054345850404583285,0.3977374508617612,-0.5832196913853149,-0.5918422386566345,-0.4733451032649044,0.17055939592512892,-177.03572412295063,3.544154971994322,1.5335803800320347,0.10935787579448719,0.13586696909605203,0.09067127342239875,0.20456065668777526,-0.03989395181128511,-0.13906940260098902,0.45186132979932286,0.4023415225620146,0.5363853940071028,0.6150561423063989,0.1430862902583708,-132.23339623500684,15.821576799130176,6.9536831232568534,-0.0066405884228141615,0.22588250652405395,0.08063981771477698,0.13545680221270062,0.1401197102484803,0.15437105129506098,0.3075839663601328,0.44813465432364663,0.7285441517463247,0.5880330232095272
0.17,-116.37433790589316,59.5477198647849,169.3360443605775,0.07463839446762864,0.021019784846442312,0.02256104176357653,-0.17757677716671189,0.05060380225316746,-0.03136462004693049,-0.6361904529508358,0.38054403331397785,0.3014929120393409,0.45894649184474706,0.1983904125453702,-108.88615004162372,85.17056827515624,0.45366479347134075,-0.029198257006707216,-0.20612229540235116,-0.015462173551039725,-0.19575013142857253,0.2209651317198238,0.25360376816563424,0.3936069042924395,-0.4333096180490455,-0.5190176157880596,-0.3963958997732888,0.2921404992437629,-177.20030591190496,3.773233158657196,1.7616190320980403,0.3034911248446692,0.10633205999513001,0.011148550409160504,0.10060203749461606,0.1664782334705485,0.09719340589083793,0.49370368027248596,0.3456585073457893,0.43209983145123865,0.4410234891667322,-0.015073777064357113,-132.1015773184424,15.763873146460835,7.103153982508317,0.1787222833994696,0.049909779059312154,-0.03338087961793661,0.4306974530189448,0.10850001899441414,-0.05934332947341352,0.594603758421926,0.3251596158537712,0.7320142154014251,0.5564445394229873
0.18,-116.25262922914449,59.633691080496675,169.23959065187432,0.015819019138730038,0.03778514491731996,0.07757525818165634,0.13914437641733202,-0.1920456077174483,-0.004129908597207854,-0.36313479603636123,0.7326490614075152,0.5350179990391644,0.6288591426042834,0.18322155890704983,-109.19919294359016,85.23706192032867,0.4352549373609877,-0.02627848779433517,-0.02668664152503164,0.01759549771612987,0.08002147691546987,0.005340813258021722,0.3696110060276222,0.5739422755837819,-0.5375262659770884,-0.5227128843961453,-0.45151605001272477,0.19480426718175103,-176.89510355605722,3.8137149034194473,1.8306901250265346,-0.03474863835554809,0.053834411239127265,0.14906337202544165,0.1429539280157374,0.23495422229616902,0.3510036016835713,0.6075778056532497,0.5857318275542126,0.5513843541189003,0.5725036936967683,0.05849542889369133,-132.29616615787464,15.710071754105766,6.7338867188415765,0.10423342186574308,0.2645494260427001,0.02492370201508807,0.30423581093636326,-0.05168018809227752,-0.10631719364174654,0.5260746282159666,0.415194720913591,0.38489961864624306,0.4141458620178961
0.19,-116.006273664751,59.64639647491763,169.42382408228968,0.01657621792673962,-0.133507777127907,-0.04225263808210196,0.034045940758676445,-0.09718271569612466,0.04783648255408826,-0.6054883260503483,0.5071611103993771,0.5705258416472293,0.6218876196156409,0.18085428863540773,-109.14270905954808,85.13245239481657,0.6434651216580014,0.006738281000660566,0.085238478279692,-0.11429329274531712,0.09434383845542244,0.07613755543211814,-0.07160624795825184,0.4605605703287718,-0.42951724527165336,-0.5260619469068033,-0.4318271516274611,0.08298292689649123,-176.7854139239937,4.036176324533315,2.0509339127311503,0.23832227147860024,0.1635727981444889,0.14800991279916254,-0.09224083559280166,0.17972708279820862,0.17454043334605093,0.4596347755644583,0.5540571226440115,0.5179867935143365,0.36352060454474855,0.26476253444959164,-132.28552243757588,15.645402194277011,6.561970641569959,0.10824085183936055,0.06708331539580595,0.21654297154332142,0.3290949515975548,0.07501583829948513,-0.061396613810246095,0.3851803533093961,0.5518971328510164,0.6009873306317935,0.48762766928873413
0.2,-116.0728036729696,59.56943828792964,169.46474765641148,-0.14784075437436003,0.10025117452386215,-0.017177413928824253,0.16553881863584216,0.16865988545349928,0.042052863872971934,-0.4840099944103624,0.47755185507809716,0.4533578329942313,0.42937273123933084,0.304194533322806,-109.03074450705729,85.13729234037676,0.48617283911579157,-0.004937555625554875,-0.11986054466437718,0.00920998985647975,0.11740685081634028,0.030855701764319135,0.002898777906368985,0.5055395658875034,-0.4609540792930973,-0.4012716701632357,-0.3202229771580698,0.08719124938460679,-176.68363288613065,4.198647762075193,2.0841047634250343,0.20026783354205285,0.1674512608612137,0.03697952488278958,-0.20560223236586792,-0.05840693989658276,0.04589837500080717,0.6098894281211298,0.6831795258449121,0.4582259448859251,0.4410493924240844,0.13521476564860405,-132.7200619617308,15.450853389471542,6.7520989776675755,0.009250405050673677,0.08710423231114817,0.07181311941125426,0.12091732253363144,0.06344637219896518,-0.021458118076371376,0.5897641097076951,0.43257068663102194,0.5409833776461797,0.4649864799064354
0.21,-116.12145449880428,59.68120318095353,169.42573016483303,-0.12555957685202646,-0.012692261775833583,-0.016706552863905006,0.0015217082985788874,0.1630431890824024,0.0469448194198859,-0.6105686226098798,0.5461502532477261,0.5886603609130221,0.5986555168328491,0.08019760569464851,-109.0842449352515,85.14782295769483,0.5116685281771369,0.18573882908058698,0.0009309827287035041,0.04116315788249899,-0.008148062356379798,-0.03906495042147207,-0.011780191024924627,0.5977324889846141,-0.48882448154498254,-0.6180038828376458,-0.356310290032223,0.26176572346893434,-176.56587807175055,4.277226933694826,2.271710054339671,0.020085998764085483,-0.024047820745607795,0.08827425216076318,0.17722297659599742,0.045054330531761166,0.07464779825005691,0.2719494180202807,0.36345799769216575,0.6247025769478243,0.5475809689796667,0.09599255186726735,-132.69124680512985,15.490735637228969,6.655281508974178,0.04557098974950381,0.12356446841111156,0.12536294158152084,0.1577396778293655,0.051007897673652804,0.05255366846439207,0.38269658101891774,0.5026046627061492,0.45415523022998316,0.6452757861015618
0.22,-116.12605952205553,59.4773423154001,169.492174273245,-0.22190444371122653,0.17963858022169513,-0.0019266119480039305,0.16580579958661948,-0.07144688759515923,0.022832454921193145,-0.4435723450455708,0.5247012837412531,0.33218448691823244,0.379313829616572,0.1335296230984912,-109.13934220249759,85.0850577691445,0.5196695817763984,-0.13866827224522554,0.10256799029241408,-0.0883193885512202,0.22278099920001182,-0.029220073305051462,0.10447629341681525,0.34530569727932314,-0.40813881535524466,-0.6290010838689865,-0.48187565136003185,0.10266175584056998,-176.64825757554203,4.461506760205332,2.149808623919929,0.018795446690844764,0.07638300532713307,-0.02054183328555989,0.11991096442769186,0.08119968507234263,0.009492077596797616,0.570139412165038,0.5741164101467016,0.44633488285797274,0.32943748974416776,0.2484024580405106,-132.70822140563766,15.581942005013541,6.6131048064107985,0.09759771489970341,-0.0010659436500428526,-0.006833981115987597,0.19732877619999564,0.022574253371783665,-0.10669090120944227,0.514816422310299,0.49030716647424466,0.5315646342620118,0.42024431565545617
0.23,-115.99257801316763,59.45679277226859,169.23025010732968,0.03434941058205243,-0.04665222354353599,-0.001438105740361158,0.009715639547419695,0.1768179114330278,0.1291559826445002,-0.5599206243420787,0.483384141624574,0.6035083873651146,0.48054343273805145,0.292084036032642,-108.84398190816557,85.12854058517843,0.5044584032985028,0.06624497388095754,-0.12446557418062958,0.010998550035362601,-0.003440636478904066,0.011945997405792382,-0.09801122705264816,0.49478958280165025,-0.5454317124843059,-0.37177919985000174,-0.7441881090835899,0.19412343979551236,-176.66622525991696,4.273897423575036,2.194143318792585,0.08834753690233563,0.11433945981282265,0.10303052939148698,0.19816699806500795,0.0381272807943012,0.11642303189850813,0.5343094401394682,0.6178832785288977,0.52817064127746,0.4385131532566541,0.08446673171902225,-132.68817895144096,15.378140145989873,6.522233432877763,0.037177260099181916,0.13072554559238495,-0.11074618139204018,0.3032324552550598,0.002670502526245546,0.07382616527949169,0.6372842871080991,0.6522128442393056,0.6036621072085679,0.5474196774922696
0.24,-116.1899349885187,59.511692392890204,169.2754706743049,-0.17609927740897105,-0.1050196711233875,0.07041957759707308,-0.0964659862555087,0.14512625309214489,-0.07188766179477032,-0.6759954814237562,0.590049003297443,0.516680543756008,0.28665141269014455,0.06048796915256757,-108.72075858202258,84.96428612136901,0.5396905721170853,0.12420684161261203,-0.16238591920826062,0.004571822396413286,0.12175323725272669,0.07664845686859924,0.1431729253696576,0.479198563929454,-0.5165991548266592,-0.5581896019823925,-0.6792534231029305,0.17277547149405884,-176.62873011057238,4.371847937125152,2.341715485996785,0.008306073820823864,0.19675916344535785,0.17900884878137502,0.11549239135229356,0.17115596683265483,0.02538316002558988,0.5907091121195481,0.530233514676727,0.35775295736766677,0.5232722726062078,0.4330392850298691,-132.710703885106,15.428261885497207,6.738843265194301,-0.10184984118794367,0.20997067472539568,0.06603832870414861,0.14583458308774927,-0.06067478998629168,-0.05060934021772836,0.37330197372164553,0.5270895904590885,0.5337175981255846,0.5022135601765938
0.25,-116.17542349792953,59.437103826205856,169.27510478464586,0.1867947686369918,-0.11527495396445829,-0.17140076296475998,0.13175508761180668,0.1581755958324594,-0.02297092051310333,-0.5054149779629163,0.4930813924104985,0.4636127868124866,0.3704571495716664,0.21605713861703563,-108.61348705733232,85.10026952672727,0.555623398178205,0.02595143060055375,-0.0991086576771842,-0.00044002954611144446,0.07750904069419118,0.2698645015072815,0.04773557029293246,0.3869266786240094,-0.6136675269435153,-0.5193326181614377,-0.4210311551996545,0.04922258548535363,-176.6561163590631,4.488556368113191,2.472469114288654,-0.070779349604876,0.20614189931735288,-0.004311378967522331,0.21922903196585536,0.06598779123618093,0.09506724725974776,0.5486354360352059,0.5046528554157238,0.4214166959064277,0.5861319176978028,0.3526259360574412,-132.6495626725228,15.228414092822515,6.8034165326694005,0.05477926454074191,0.021431629635171718,0.16112829243335786,0.2730736984517184,0.001760066004245553,0.06450347253916094,0.46335871654165633,0.30360083416173,0.3620007223098503,0.5813761549770318
0.26,-116.12056113177586,59.59590127041848,169.2256773199051,0.05735379601875094,0.10973813597915337,0.01839182766383317,-0.07247397903660559,0.2721086627383829,-0.11250949806417493,-0.43255692898325127,0.4560101830221605,0.6077962752229986,0.5467155694868706,0.39364402877549354,-108.70848940915312,85.10990146805864,0.4761035497211234,-0.013035915307402814,-0.024979815750673602,-0.12117758978131091,0.14702915018601745,0.009418584562549764,0.008972897167228273,0.4164046942045878,-0.4779119103306836,-0.4978026762827485,-0.5780094871875359,0.3434516796763516,-176.66199781141214,4.601968892859094,2.6004478653657954,-0.1003107986139856,0.15667414107558633,0.19371693166399168,0.1811827910583691,0.14299128998723376,-0.09581009599715884,0.5553311034564675,0.5845000485136203,0.5686347615492929,0.3855641902603683,0.26058320290775827,-132.81802166517483,15.507168990201444,6.5247461358685355,-0.18193751272779898,0.019972929431160413,-0.026357023107270908,0.2740311699707785,0.07875635470927647,0.007261099261905574,0.5696396761137166,0.46988223874896984,0.6791059412663938,0.5125270592944134
0.27,-116.00313021733423,59.5652672387265,169.17857770464386,0.038077547161636624,-0.0282369659701149,0.05352558992137317,0.12813859984296347,-0.034990958180028855,0.14553847404003473,-0.4712411653636847,0.4903150500028082,0.4434435716043315,0.5621875541740237,0.2640103217180177,-108.81782999960859,85.17003204722012,0.4059942787374631,0.03397625265620011,0.15589842101323817,-0.030153047708221442,0.16295125308985603,0.06792634597419353,0.11745233299385632,0.6509480640728067,-0.4035701994299098,-0.5988039191011849,-0.34103033979160136,0.20110027001096697,-176.95957342587164,4.440915668457431,2.2399531179074432,0.17696177073408542,-0.006250877066563111,-0.0022104494516744025,0.15137162013361544,0.02052149586417238,0.06719722270122538,0.42147437935179777,0.6884792814049125,0.3646121932748741,0.605318050331879,0.2887188753454726,-132.77376527514667,15.668600082870016,6.7234750337720275,0.05822488387622276,-0.00946815490371214,0.20354653976263232,0.2018160909248429,0.036499908887279775,0.14913686657686687,0.39023422401351876,0.4790121946195327,0.6176340273333503,0.7539469916339954
0.28,-116.08697621155562,59.55006735666131,169.37175110098852,0.0035845641896289867,-0.0072656622469695255,0.028554127871432466,-0.0576752589545247,0.12962177351628124,0.17633871768506326,-0.325962968146986,0.3597972795539821,0.323284093624553,0.6144240474677575,0.1599311995255367,-108.98642872364323,85.0122987715974,0.48537685444023826,-0.2605479904432866,-0.06182879454584022,-0.05532090321205241,0.01185593873132429,0.08300437149170042,0.21133895808713427,0.5731422707337498,-0.4708634604389968,-0.5426575551410916,-0.5075976594737368,0.19937504636671224,-176.83968537801766,4.5922644721664705,2.3767323751247047,0.012706741045749943,-0.02293377262501988,-0.10282107525453496,-0.1841090084499341,-0.039964566129049646,0.12617976073238976,0.5254283572197582,0.5790718158227128,0.5517198429611186,0.553024411552656,0.2534042378457993,-133.14171769868122,15.755385709358706,6.849252920227157,-0.0491556842284323,0.1939005949414575,0.13089036154849984,0.3699931932642698,0.29467680555187836,0.27109424610023836,0.4445107257436967,0.5417796072505326,0.5378999504977102,0.6670227731812308
0.29,-116.01052630458973,59.41937908361271,169.4460083181252,0.03742073624696873,0.191007478118435,-0.19959590362491292,-0.21317841958114736,-0.018382091177570146,0.04980585560334842,-0.5742046231906264,0.47980857825616546,0.6029086180436558,0.618958018680359,0.15409260476960518,-108.73107293117799,85.02601089774454,0.4360553604017457,-0.0088960806056809,0.17669239297336328,0.019102267501076145,0.05752781441871667,-0.07891823652165066,0.08343331703667131,0.647638435393346,-0.5576403228310902,-0.44723545988033114,-0.6672804432653616,0.3598746630401024,-176.890348587256,4.495177965638514,2.4924093803759253,0.16655375668512776,-0.09334101865970486,0.03145559448910973,0.024082287051538732,-0.125454195821964,0.2737370598600083,0.5577638629422014,0.3740800119108574,0.3940372697352479,0.6006057129185576,0.2590757026606085,-133.31010325056872,15.871897585157384,6.778813863307826,-0.20616405014580877,0.1646518051553245,0.48269279398069326,0.5512478730216573,-0.016495688258691413,0.2627530003084985,0.5521072432850758,0.40901845075326304,0.5181887015072262,0.6075388518454589
0.3,-116.19247912884894,59.4986175102574,169.3874697824779,-0.05005544972440294,0.12450234791015372,0.12824504260992986,0.04840594823532987,0.09730681818297,-0.09312531266154779,-0.4761763919039544,0.28836886290307434,0.3700880617732768,0.733282128375518,0.32533793393676214,-108.92470364422933,85.14178290258442,0.60602193761982,0.086967671950074,0.0008606239783087548,-0.06780739787332124,-0.11164507736970565,0.15971057641763617,0.25982599702228665,0.4709168461818818,-0.3494066582066797,-0.49829554833504586,-0.4683106558676496,0.29216966696830077,-176.8577458469948,4.510934917434589,2.4256397402248737,0.19570687860375163,-0.1713706459525951,-0.09317823760473162,0.056165821017360805,0.07253243070638443,-0.11578250419870639,0.5230677838050678,0.5147641819877478,0.492517010679696,0.674105454748379,0.2067821465710688,-133.6906142006296,15.905839234098531,6.8736118904826435,0.13203579925430114,0.24498303111218694,0.20690955649140108,0.6608668878216524,0.08384745964915091,0.280112856011482,0.5011010120696645,0.4519897951765459,0.5040279145529859,0.6296827761957511
0.31,-116.11575525590469,59.5016489787379,169.37671158122404,0.06870364246658264,0.10952471210540285,0.03907781535899652,-0.07351999026274866,0.0214049362223956,0.2244725823309677,-0.4138953810343501,0.35424378751939667,0.4442989231768626,0.43900107060432714,0.39786284144812706,-108.7073757324473,85.14053445258432,0.680888493900211,0.0816027062235694,0.040503250243327495,-0.04325155310592943,0.07499693208023263,0.05642281537009245,-0.12797275451426374,0.6654682316150262,-0.32211952214980444,-0.644008552713498,-0.5331986890331508,0.18788133902996898,-176.72064355511313,4.580596158394775,2.4749977791889153,0.10892110422979993,-0.010435091350685873,0.015126966948802358,0.1966294497072233,0.18632908195718587,0.258431126167375,0.5901718531367824,0.6283932212386646,0.5212193667163615,0.36015146770777895,0.3597737112279966,-134.12637496537278,16.273289953492146,7.065640875898133,0.18600643263429315,0.20525430919976084,0.415781470681493,0.6782488986313799,-8.933162708507636e-05,0.43139462721234545,0.726540490879043,0.416777590702121,0.5553912034036824,0.6620292305944862
0.32,-116.1063571136997,59.34610626687345,169.24858785221076,-0.05832068707074001,0.16630666064849098,-0.03640788972850276,0.03844230637067995,0.06273154847625713,-0.09449545717682085,-0.5456996117094678,0.6816424152597964,0.4103977035615914,0.5188587507558972,0.4331583185064478,-108.6454963896031,85.12761549270444,0.39550339242463195,-0.07199499566819585,0.04148796643600276,0.03289425179451525,0.10757008865789561,0.21441524894850592,0.1699006164678294,0.5948761767750343,-0.694818284960483,-0.5253124637692257,-0.5885218149988221,0.1740062856498279,-176.85109636436488,4.4172904087340354,2.3629077104418172,-0.06326417901220824,-0.07793248821117368,0.16534213879619822,0.3928156841622983,0.08439774438586119,0.261951845128452,0.5389293505227782,0.6085603520679865,0.5971940577217867,0.46213411135436333,0.4306776749572028,-134.85909914435675,16.46044021160644,7.061212702026048,0.11335965429320036,0.4224165935070356,0.6884678834145525,0.3173803655345468,-0.09252361244061313,0.18772711698169026,0.3965304474330157,0.3873273578895189,0.5107159376322642,0.4152897359159208
0.33,-116.34265919891192,59.525639683210294,169.39866112479638,0.10172825242410163,-0.024735155705565476,0.20768056560899137,-0.13965050797176434,0.060481753455534984,-0.059213872042510746,-0.5159144893892001,0.5998690324886151,0.4802933850987433,0.4950933751700902,0.3118803304089716,-108.73088210995454,85.31851849033907,0.421963829307382,-0.16624640437801694,-0.006274449263425387,-0.029120894270848845,0.11576989514144362,0.031053260629472904,0.14862074681761275,0.23642378830788707,-0.5531411569379978,-0.4543861536611632,-0.5948742224115398,0.2815144966413668,-176.7256262122477,4.642598621174997,2.3639727599974094,0.03786751532747494,0.15044297952251826,0.0762599150638328,0.34523303543909545,0.09821820225196336,0.2767450505530505,0.4805537139852673,0.4270194636600164,0.3906328457302788,0.7579886615135816,0.4432310452417616,-135.50065617994855,16.836484258826967,7.430061337121039,0.121702422042394,0.4804710684850185,0.7388413346119983,0.5517815773071302,0.27666981418265635,-0.031052537099741886,0.44578452593028584,0.5087854165643597,0.5941984101653259,0.5006085196606547
0.34,-116.19188114670648,59.75238367455994,169.41593289848186,0.0867148779594918,0.09105631810456238,-0.09429158935005459,0.04546688811235493,0.11394887331052653,0.019796682115181263,-0.4981038540163701,0.4770437958710936,0.5187352705621429,0.3398920631461141,0.1904066516826399,-108.54149943580973,85.38710505203126,0.5031513213728117,0.0612319342597146,0.01392571010520477,-0.13513816313517185,0.12361003886326485,0.31959537358563617,0.0989485113002445,0.5277656160837099,-0.43586411878076703,-0.5551253053350862,-0.4386667493732462,0.3365465561209747,-176.76947222256618,4.488690047961735,2.424142402385937,-0.18571744317377983,0.033416820007571096,0.0165088138127609,0.15637410302466015,-0.003840297900089537,0.15102717864786103,0.6110906897706656,0.47794488788258427,0.7072484410039613,0.5722554292757103,0.4418114675317176,-136.5919441407938,17.609832606056255,7.92828894655852,0.05228337270738562,0.6106987647508038,0.9876771796664034,0.5429433213854477,0.5653123121694547,0.09252833176747313,0.6244799380469016,0.45938767939675484,0.4636970440718139,0.397305447016112
0.35,-116.13758639136223,59.61302041417055,169.31031360475654,0.10332814934730758,0.22964901167974328,0.3174625900082591,0.194518550517711,0.028544188398445053,0.10923894936299612,-0.5368485826484858,0.4759620841687619,0.47097261747784114,0.5014601603440573,0.2671139988378276,-108.5176553006214,85.54003824558546,0.3597972457510663,-0.0244514310738434,0.13145266188496518,0.064070944930859,-0.10519315883783197,0.2769381915713061,0.06628515193482135,0.3447294853774926,-0.570518395888796,-0.47529242695924717,-0.2949992815077434,0.28850736596015336,-176.64794937365616,4.52996272488894,2.426863860113101,-0.06369700834654396,-0.10455509643311629,-0.18231235260873507,0.26384030240386414,0.014079244620907053,0.0864599159136948,0.5207737571643862,0.42592374339070005,0.4705059709496849,0.4943659553209972,0.3810170641998069,-137.77045315564243,17.907674423112166,8.640284280700936,0.19243067266658115,0.8433503516653263,0.741278300030217,0.712317369592848,0.6876485864485186,0.15706973733308113,0.46751497375607903,0.3425584926854181,0.48988969390782044,0.3183966713473092
0.36,-116.07288396064797,59.506280592676625,169.49071799767842,0.09828162053786273,-0.020214181662882563,-0.05472909885630546,0.09926632550869281,0.08960942074481792,0.2554081507653681,-0.4292221928841763,0.2833700656429904,0.6765572490717584,0.41270540654522314,0.2400392593026548,-108.57519600138676,85.31602648536891,0.29782531629066034,-0.07106062240140602,0.05131529919228818,-0.05187904731660434,-0.008784548023509864,0.0958197330720127,-0.06361502573976198,0.6129560204144536,-0.3867347264580198,-0.5142788729019321,-0.4417191650379034,0.3108715249056991,-176.6561303887028,4.510822764095914,2.530170094276487,-0.001099718232769576,0.010899989716953225,-0.02041561850955277,0.2048579931910128,0.2956873059337706,-0.044263434348423475,0.557749552674337,0.496601684267808,0.5379030856901159,0.43103872317817266,0.2808548910044209,-138.685188268422,18.524673650285653,9.409480998344213,0.12336073115954746,0.6607716730467118,0.9411041527475136,0.3544392621929056,0.4367870319975237,0.17844707198466608,0.5964450440226332,0.7130223805804361,0.44598219375697495,0.37659908818977483
0.37,-116.17783846282683,59.65506573728112,169.19937145080297,0.00962780349304769,0.03877751963841829,0.016137332057642742,0.13561725193383437,-0.046723093628688844,0.25586192110463557,-0.5359052483849622,0.5389122061343423,0.5125830499695454,0.3995170703697905,0.3124163605228236,-108.65235628086349,85.57725584909707,0.5537751327096381,0.1514569824392324,-0.05868587008111055,0.08792864586293872,0.15642064217820478,0.01073284585326189,-0.014710371323623156,0.48375110428780993,-0.5202740895140031,-0.5113945319182561,-0.4643086591015162,0.37948154085682445,-176.63277359556173,4.438151520831187,2.272077735784582,-0.2038684679387193,0.06589132669084413,0.1513767784051053,0.22649120146871815,0.43896931656646065,-0.02480728455921262,0.55199655253057,0.4823261726198717,0.4800355420834887,0.5312048592947167,0.3435335464354068,-139.99085219035803,19.515928966222297,10.22661057790924,0.2973120921124694,0.9762873877312999,0.7928618238402967,0.3266645669858853,0.36504809999153615,0.5760140475973557,0.4660389172979669,0.462791986315275,0.35254348371812005,0.693028355419186
0.38,-116.19859659345194,59.538769913455525,169.52191424040913,0.10577300232301647,-0.023259628396551275,0.030668769824452144,0.12195729576626035,0.24213467422387508,0.22169728034603062,-0.47767931582629686,0.460779340154444,0.6798707440488851,0.38035869060218336,0.5451606721776806,-108.73777129730631,85.53822592025357,0.44029664962148574,0.10852106980054169,0.20754859310677928,0.06625122153104751,0.09216967686655847,-0.027006281901322836,0.24327208150768642,0.5539039491756773,-0.40118486161564204,-0.4078535439706365,-0.4966482517141155,0.3087860896572611,-177.0721149175483,4.470192216096523,2.3203711153832978,-0.266016464474721,-0.040337148145352664,0.2390127947383371,0.0995515290892329,-0.033732995222394396,0.21845196275400006,0.5962716583043924,0.5217074023518506,0.5533929842591743,0.459508347673829,0.22642843875088023,-140.77953930599875,20.01419963207826,10.940803890983752,0.2161185447366326,0.6949111357239419,0.995232668832229,0.0383356517986185,0.3554059908305106,0.8816113043065631,0.24313337218171915,0.40193885405582613,0.4421811180392537,0.30794419679045815
0.39,-116.24070927915355,59.651383371362144,169.38362663330943,0.0945257106727274,-0.13755611114209318,-0.15314481309356917,0.15069595782992257,0.04485277793785926,0.3319323026718235,-0.5178003084805983,0.2829612881573308,0.6681097856785189,0.5011416564744038,0.35650217835359377,-108.75492211515149,85.48726395619465,0.6585250395935903,0.05667876179230187,-0.089199035422971,-0.19111821582269234,0.08873705817659358,0.04943702822219044,0.19350321464396292,0.3664115935172545,-0.5833491560495399,-0.35631018165539274,-0.4421679583169986,0.44597738305271023,-177.17349779251438,4.451505887038652,2.4806574749494077,0.0670616232988133,0.10255063970022822,0.33030310419395476,0.06400546801813156,0.03459012315694838,0.03714479261689177,0.5282088481042324,0.38277828248309315,0.49558248316953557,0.47241532955337123,0.453393541552742,-141.2143400708979,20.305276163893325,11.34387431449036,0.2697948680542136,0.8366507584783015,0.6517242392728957,0.19943601308287068,0.5226890539934614,0.5744890688516117,0.6729088650706578,0.6574212351536926,0.3733891086223781,0.6096061360033264
0.4,-116.13007156739795,59.70340057665095,169.32588821445157,-0.05889568866099197,9.101687400289021e-05,-0.12887937764796098,0.21103423250643455,0.1410877802502374,0.1796592775288391,-0.5876137786417757,0.17969846394397804,0.5777683566342121,0.4075731942989209,0.42899472664761384,-108.71683967925672,85.57854306187728,0.41589046769900173,-0.07852990521658097,0.16479435626603012,0.05454345687417771,0.0830669796521701,-0.017432684512967363,0.18083809569625428,0.4982098157541042,-0.6142374311903711,-0.40876543967629897,-0.48342850881256727,0.3044985758460254,-177.2556968982118,4.655329022452955,2.3612826198903103,0.11080168622643134,0.16738821284076602,0.2852609251409053,0.15255364504857039,0.01885651232635904,0.20647685560875845,0.6623248276929607,0.5447491227498489,0.5116221952400197,0.3758764550292694,0.39933678768190456,-141.53988204521153,20.67857246808466,11.805785031934795,0.41432869090206703,0.5464846909532436,0.7839408966865156,0.2773927018302295,0.5921034360059082,0.4657690521174509,0.6554697924291295,0.3612776084289492,0.4567646222267973,0.48494385830321474
0.41,-116.15179173724762,59.50247132694208,169.4060860541609,0.13459912955060774,0.06681652474032349,-0.0898937351019655,0.28099340617622204,0.35652887783078135,0.19422255056246251,-0.49639292203050744,0.4032224335771199,0.5943777263400978,0.43399934872610224,0.5314388795085034,-108.74081815220727,85.63516924915167,0.3959127202099284,0.060592683938403856,0.2272861657148891,-0.0688124916356534,0.09989911205174344,0.011330139858777191,0.24812320611905067,0.4042257312623092,-0.5432153203012775,-0.39597591984532854,-0.45385691399215466,0.44826614156276884,-177.52655123701172,4.34044372749284,2.2145711991516364,0.06845681460940604,0.18803482760564588,0.3817818487134834,0.17133143224915662,0.03697642678673768,-0.03625712059577159,0.552494131341685,0.40800109705328247,0.5344463617330838,0.531709356401435,0.34342863522385614,-142.31945008007293,21.156992509151248,12.501251994948593,0.35527419883390454,0.7181643401485021,0.7541168175759596,0.29852752378095426,0.7816773085349493,0.09962564227229913,0.5094005720461432,0.3020903147019628,0.5118999379764458,0.5240566640504472
0.42,-115.98317313648279,59.51238728454025,169.41265084017638,-0.02720366253688282,0.13531311013317135,0.07290350733765456,0.18087430335286148,0.29371432985807006,0.29036469396966647,-0.45681568409282125,0.5167172555561699,0.49416233054618863,0.5565340451925586,0.5599724034415403,-108.70271231854299,85.62674854333501,0.3620994669277333,-0.04224815744607769,0.10669916724172922,-0.010111499955961575,0.3448882598804036,0.13624212582708634,0.2832377786329261,0.40292369694026453,-0.503197759293548,-0.3823838315313897,-0.48308595092835416,0.5540279038778873,-177.81110257390935,3.9687171550929032,2.382387521403998,0.21425832946504308,0.1322544751584372,0.4089294297919426,0.006384988735453819,0.3212603397391449,0.055319346290913785,0.6504622294968411,0.5166797394343291,0.41024139748849175,0.4567094240790445,0.4815384870555763,-143.14527940989723,21.961450252339503,13.215697181658728,0.271049966042492,0.606276286861332,0.5174834759500346,0.29322710189269247,1.0845271661604396,0.21581073191104788,0.6773593019655676,0.5389335430358555,0.6844410023937924,0.2681577524226493
0.43,-115.97672275760299,59.55881588395362,169.55138326340014,0.10232078387413254,-0.07057279455725458,0.01718377016340153,0.16020423713656182,0.48205715137121097,0.28946162300990597,-0.33250287092401176,0.4726084043675553,0.2765158776214648,0.4853412292797269,0.43170470999485605,-108.56149337894207,85.62407760670972,0.574218192809478,-0.07625098322724605,0.14008671777029374,-0.019631003015232497,0.0847124844679063,0.07949810168148598,0.13377633885960527,0.4660502302396715,-0.4792843506256669,-0.43324703940177794,-0.398752477492502,0.3618551243045297,-178.2693771407044,3.7137158319027437,1.9747065829815396,0.11579602454751112,0.049027633522051056,0.3571949821624657,0.12318611242765533,0.49751886915454535,0.007599005086499189,0.4698031839546475,0.4363961528151592,0.32273979993322416,0.4923282500663739,0.3451256412667192,-143.47532604265427,23.00727702340167,13.703980955269085,0.20693241716614258,0.8882438869854669,0.31487540766681826,0.13919182616069325,0.5576694823775351,0.25414204130565876,0.5822441318399061,0.36519368003988606,0.3875559990418404,0.531284486579771
0.44,-115.77258501579618,59.43771512513185,169.73676292603767,0.19044152629807887,0.11191494275403113,-0.03285146602016523,0.24743868523119394,0.4501359896285221,0.21775970082557053,-0.5545023718162746,0.5443846298453481,0.4542469093501166,0.35832231667733666,0.3734016634216576,-108.57831380483593,85.84226099100229,0.6208221952393944,-0.030769221602406603,0.2116894888507312,-0.1998826024123054,0.12270290911933812,0.09257251936345427,0.2514643791581802,0.47938886979806244,-0.8227866158414597,-0.5658254759050906,-0.5019150391275655,0.49116968774828607,-178.83300000524412,3.777540422481159,1.7447767217005914,0.20646713825199234,0.0345784652008255,0.2646895523783706,0.26306477759684044,0.7168230547729578,0.09765578200462918,0.699450201725354,0.734260064704621,0.27975641689410913,0.5043215174614628,0.4268308328070165,-143.5887448181344,24.109317920744324,14.201582798420036,0.3300624823442886,0.7545976441694073,-0.031249008698141893,0.18518402412522536,0.16872722510738433,0.41861066421648974,0.5924712758526615,0.513016689825013,0.2732427278131997,0.48347441435654515
0.45,-115.42244764847179,59.40156097699366,169.93932331770264,0.18345272065646068,0.1310298947480019,-0.00889319761138569,0.15415744410490514,0.24076566880261507,0.08471525056712434,-0.6019451008999969,0.4130564094299924,0.35001998923998684,0.4214007169481919,0.26324860406545303,-108.7505290378643,85.88890755675934,0.5540165988158111,0.06259457366343345,0.07980953820713332,0.07001096721270791,0.13839246354621637,0.015245169575761552,0.42331564520249243,0.49252871177287805,-0.6115113071891829,-0.757152684502147,-0.5310774170819937,0.4781044051939331,-178.9746183922811,3.514144733373847,1.6438270539106827,0.48124462110693256,0.24377508606627382,0.3777807468007973,0.34619656580539093,0.25130929682212233,0.17569957524814991,0.37976112164308484,0.6060010426945297,0.449596185058068,0.36661815757408955,0.5045176360557041,-143.46631112656834,24.887586732520983,14.735346086506821,0.13433149477522816,0.8590522024614375,-0.13630986775417192,-0.057624309416427766,0.4918403711072533,0.1192380864018363,0.6205542868588962,0.5380369507784946,0.5031336753560242,0.6361912275918162
0.46,-115.23775953114043,59.16945556269449,169.96185525943037,0.18406738634484354,0.05183505530898277,-0.03786947116400988,0.017648401040537137,0.25991833210286186,0.039122175106683824,-0.6189577663529329,0.5292563288770986,0.4943591304712442,0.6396282065190079,0.1642503969190357,-108.712620210038,85.84056091944196,0.5061214871937061,0.12487446670552506,0.13320006574773638,0.26772426292023094,0.06990007789852955,0.18726514457249294,0.3827144891062942,0.5351626304955083,-0.5549042226069029,-0.49844536145947027,-0.5451243495420783,0.4637216909398137,-179.61703973024083,3.2277315974951977,1.3338252426479986,0.2958725864394305,0.29097117461874955,0.2846998617991988,0.1412552128345226,0.5239415795661906,0.22043991408138583,0.3992055044571545,0.45419672819920986,0.368954417368704,0.5670092467473079,0.473502751919076,-143.80174821317135,25.50653339533569,14.958235561059334,0.2591889757348218,0.851819284517809,0.16773277162253475,0.1274992080605608,0.3272296371926184,0.05068129737351218,0.46944138278326614,0.34187263238829246,0.35584433206782984,0.4313753308515169
0.47,-115.02272335095765,58.82154347926222,170.2006771413087,0.11671328593035463,0.15879919715678645,0.06229965035478158,0.10696959946000154,0.26865762582034913,0.06092819944836368,-0.46664433621555523,0.47847174308221696,0.6267476809966155,0.4727121927123046,0.47049757106416523,-108.77325700929084,86.22358425289337,0.565844254516645,0.03579403539478046,-0.026603922232788207,0.08766871888603411,0.10375103001248598,0.0633660453703167,0.18370811349650004,0.43051508411802586,-0.4373778304875316,-0.5199534671394119,-0.5890809620651625,0.37667775529449155,-179.78860387711748,2.934560847577187,0.9069692285685566,0.3679670792945934,0.18144837416357015,0.34627337834121485,0.11109069574177827,0.28322686669918473,0.07450206070902013,0.43417585497721367,0.34901713431732106,0.5144261756775489,0.523959278112272,0.5036393620945449,-143.50879993143292,26.426030655833145,15.136057409933262,0.28191308408931237,0.7810325501233705,0.006893673950927021,0.19069982040394207,0.06882221704628283,0.41777327957555593,0.4724906116286883,0.5555965257137271,0.3544617574246621,0.5480053939633103
0.48,-114.85579328341879,58.65815115316174,170.45924970566543,0.023893897969340855,0.2504571680996426,-0.06461214681642367,0.25358773225816755,0.397618556088422,0.3790103348102256,-0.35915400509813894,0.6646736473178314,0.5049872711198125,0.5597001448825816,0.4108700532265583,-108.58984174695335,86.20528272771561,0.5779372305537848,0.1258354200456136,0.20796578404971228,0.08948470453022973,0.17436921883886805,0.1638210929474163,0.25875975333513146,0.47655687073688285,-0.530938198891926,-0.41170939155594344,-0.564069784669961,0.5535914125662046,-179.84668129994958,2.5956749451645296,0.3093129757164085,0.40439208688548245,0.18614852879871338,0.12120360158604665,0.08244404628735474,0.6292210827041104,0.3623414759675909,0.4507817381291003,0.5605320521689184,0.5907449352145145,0.7670452691566247,0.3954400969897882,-143.46717997546455,27.12331293914882,15.497952484450717,0.33884722210757723,0.5057944603190825,0.15786495652199678,0.2668641937247993,0.28823286800356873,0.9759223039560085,0.5153964314613956,0.48905218870822176,0.40740072276493355,0.48259808336468024
0.49,-114.88845197621009,58.484103475665194,170.44837607151737,0.18000908329639342,0.19348897710428775,-0.003973728354791581,0.14990264547427695,0.32301930617115443,0.2603737119025795,-0.5282893781968644,0.5851685487731348,0.37117050822293096,0.5133612063863491,0.3937550296476022,-108.61061563398093,86.28655959442241,0.5629603173709822,-0.041856731511602095,0.10359068275651609,0.005815721728451122,0.2952584885645618,0.2547660723411017,0.035281806774273616,0.47279416222855875,-0.5243463492831479,-0.41652213898901264,-0.4342794690994404,0.24792976556525984,-179.9605332281745,2.6659649575134643,0.41700875984481145,0.32801499354860336,0.2606667831539524,0.05961652672851896,0.17410733240855125,0.582722649567293,0.016989355147482538,0.5227856761444184,0.4346082448013755,0.3332491442013424,0.5246650495922616,0.5131399405578524,-143.5303642511531,27.724345808699027,15.682817998290544,0.20601972578809968,0.5939284971487793,0.20972703927582415,0.22244354235742264,0.0047256594401466154,0.7844519584817449,0.7422127380179742,0.35853988991447727,0.4236926622823203,0.2991549699218883
0.5,-114.54804037531622,58.38739593773902,170.89167579541206,0.07502626355495357,0.21389999708122284,-0.18598942498271967,0.26763412895449734,0.44857090340930217,0.21885933336289365,-0.43855080011722497,0.5403162842194543,0.5723389326443954,0.5508418833718207,0.33146320827694054,-108.66677815534123,86.74009777879715,0.8038956665748016,0.13344664250986732,0.30367900596445724,-0.1446281974961233,0.2578165808932058,0.301605170902875,0.24131945775313968,0.6293917885699383,-0.5548629760991818,-0.4703982085180004,-0.48868648350857663,0.5731179734555026,-180.26652015369933,2.230785751284969,0.5512752110894946,0.6262754731696549,0.2939329909261372,0.08693771859945597,0.15302704660653016,0.2896663111903546,0.26481531631020333,0.597003513096314,0.5033192152720776,0.43528771465512917,0.5189566864444376,0.5037751678703699,-143.66247365375287,28.241373900584,16.044770899357246,0.1931714791288929,0.5288800048201334,0.09165709125011215,0.1510520179155722,0.20580791316609262,0.7556621136653813,0.6113593985910238,0.5890665619667157,0.40172547431486594,0.49751292391889734
0.51,-114.40580052530252,57.89217192115611,171.2184722565195,-0.08423160887512357,0.2916524692967651,0.16061936913529004,0.47875703126074126,-0.028265923589955944,0.2867980738338403,-0.457403099564042,0.3828212144337883,0.47522552036050186,0.3860460606340944,0.569396299523984,-108.50622342174991,87.14630669467387,0.7894738044863727,0.09469319746682615,0.37891322369985553,-0.03888646311252203,-0.12408529329748624,0.10056671208273307,0.022887592350953393,0.43139885085662305,-0.49693278255612844,-0.5067924301001324,-0.45950337583173084,0.4846383350080399,-180.35175637021754,2.3100395066176134,0.9000859155095331,0.32867078260411753,0.1695644712267,0.1475259315558718,0.17763896888783898,0.385653814801294,0.04902895437485719,0.5691902717303192,0.4312295454875869,0.5621190943830291,0.5414880848696827,0.37714276829406074,-143.770706435231,28.656080224771543,16.430089714649466,0.12287127138973075,0.5918961279897237,-0.09508551036085428,0.26808374165952853,0.43043496407664156,0.8047014222409005,0.5689452592109902,0.5293590346063619,0.3819421593881114,0.40996240575404586
0.52,-114.31904517492586,57.62943437205791,171.40654147613486,0.026542239694467118,0.23048826116134197,0.1319499463622726,0.3974321078786798,0.2950998582067075,0.3979804712256011,-0.3730906677515884,0.5382682441121815,0.3740831164080169,0.5535857181647801,0.31541269793658766,-108.40296236617299,87.34162196493733,0.5898571201603554,0.060369298090981786,0.4293669390590614,-0.037710195775317694,0.1125118429424164,0.20995473355358707,0.025094159833601123,0.6044610441107399,-0.6668308854806606,-0.5160447360194513,-0.3817085280571221,0.38449948179126414,-180.490230431609,1.9873496660698067,0.9678096410520546,0.47647783353407464,0.09678105704595441,0.06618304308399943,0.21881640730573426,0.12897128113808032,0.1455682015256811,0.2818324103531985,0.41213075770905694,0.5267076285589297,0.5118742388108415,0.502924164239828,-143.6346474964549,28.96083740742975,16.50481574691368,0.317851590667722,0.4441264076687421,0.15497763010880977,0.22469284937258555,0.21683977852968006,0.7917714668489554,0.634351404642286,0.5029216836989152,0.25855619651376816,0.39664035299134637
0.53,-114.27435141576385,57.56984894568209,171.4520878873122,0.1046185504385806,0.1585504247492168,0.03081152437713345,0.40469266444488694,0.08343819433124838,-0.04296028201769428,-0.31402737512956735,0.46011232939322017,0.3946019468084562,0.5139051144649549,0.6598312395661422,-108.34638253951175,87.31886672452602,0.5617039058838993,0.14636187494107938,0.11179580206071024,-0.0958491454030956,0.12868072364352476,-0.015349624407135741,0.10926064578390031,0.46434086860316504,-0.4737740034608654,-0.30444180117953545,-0.4285219521712482,0.24377238011976549,-180.45549714373462,1.8285262134388631,1.4817889417690633,0.5621039531946319,0.13018568904440186,0.21775088739750237,0.0732429134289973,0.1033589800288402,0.05091154578956367,0.42073836975404905,0.47883044820774745,0.5014768452203786,0.5566959301540509,0.6405757705547565,-143.6967715870211,29.47059483175147,16.712669421522904,0.09950323763065379,0.693523037148009,0.3222495284806284,0.1723050098037405,0.18354614272800315,0.9118337068620013,0.47211585895133,0.495781698285839,0.38747656477664716,0.5126767127899806
0.54,-114.0508070337276,56.93359097120901,171.87539390626355,-0.057298897968376464,0.5504836624621768,0.17601389370393783,0.43297285898115917,0.20199487045135706,0.18145756432004867,-0.5362166605478529,0.49658917199025204,0.3014063297797137,0.45066996353580097,0.6050613994607513,-108.43037115139374,87.70709658286532,0.6073675746185713,-0.1343997576940002,0.6386489479503716,-0.09635280971415212,0.2160521935305612,-0.11422189685632611,0.08244097268913375,0.5308295978269149,-0.3901542531178285,-0.6095690293350563,-0.5643609366864011,0.33333615674314276,-180.69170747866275,1.271267610974591,1.8235229709757987,0.3294385281346922,0.2765525532384079,0.13482365321038076,0.08517041987531324,0.1635791551708156,0.4617641252838567,0.6054357926756037,0.5135254176936576,0.3738713478038678,0.41066286897049364,0.4061561857899252,-143.24167251483192,30.139591650389892,16.859086158592078,0.10493159436640458,0.4893681828356176,0.48521722756815755,0.24319507937277163,0.1488182557266387,0.10532774500990215,0.5388601081407435,0.4625801162000618,0.5415904820235565,0.45948124070715546
0.55,-114.38778645063539,56.476285263661126,172.11678162355233,0.12278325491667877,0.3474090027731154,0.08011265946750878,0.4486781238026245,0.04066360990625305,0.1373124280862033,-0.5089201514752677,0.40464856188220794,0.5959649049156792,0.6015161141477797,0.4166094015123071,-108.2616272099833,88.03426205794875,0.5591468072044616,0.16479489229552016,0.2008400115204959,0.11346509085592417,0.31356955709563444,0.25498422482445016,0.0873280983522305,0.39760951081004187,-0.4694652727998529,-0.5866252073863473,-0.4543307843914812,0.4917250200312972,-180.74781822132238,1.1277553904917312,2.3451889928255003,0.3371647520895478,0.35014853444875693,0.3671830782851363,0.013505756844782238,0.08782281631570124,0.4330002648762034,0.5801973415701397,0.39795462893897915,0.5899772111472714,0.5414986446370107,0.5918811889294616,-143.01086729250412,30.791699393613374,16.69568432415764,0.23234229609992219,0.3259936967397241,0.5862418387902331,0.5215377608467126,0.15603950681881557,0.25031806098831416,0.5185643881120942,0.5073036876083904,0.4857804369928286,0.49036252222066284
0.56,-114.31123589110356,55.66311839337132,172.4957046774556,0.08949619144633901,0.5660665991092696,0.0625399664460756,0.43613443194962437,0.054202705856490646,0.302730916416348,-0.6440069034510159,0.39754801724014965,0.5465757089728142,0.5416423274456706,0.48036152348549643,-108.25002644361787,88.43817727634112,0.5912261885459991,-0.1618565718555177,0.3957576484443378,-0.09118202695223915,0.27080106637419316,-0.03322730267892912,0.16378629409049827,0.5378800238867136,-0.4511073661717463,-0.6521101483275757,-0.48396368598982187,0.5129114353228533,-181.01045963457824,1.0503859158388025,2.4341179787929867,0.43242157778544554,0.4173355569424092,0.36154011186880386,0.15848411805695137,0.06347598862012094,0.5230455824776383,0.25734553618040445,0.24554396423757274,0.5113331763452563,0.5577202909972948,0.5208227615926825,-142.3680020548144,31.32234027292097,16.4237297362565,-0.11172540996027455,0.4965107876513878,0.441125528414876,0.9519636947206132,0.4105369529790735,0.06019696075603208,0.6614453007468379,0.5059241959110004,0.43944227021298643,0.24083313223131567
0.57,-114.63640415860048,55.17794353221022,172.7264813949804,0.2538997897781673,0.6190040391697353,0.23317721036195713,0.6323836837932784,0.11140212501775411,0.10501654460896312,-0.5139648771235888,0.4898587135098405,0.6690336105725043,0.5697681521636462,0.4777930466454945,-108.20660894760286,88.8084355804393,0.8801755254906847,0.13528344243996365,0.37531118345817227,0.1487231173575338,0.2583530222459681,-0.01088757437788795,0.3351326588587346,0.3523407904030515,-0.5817754092207852,-0.38828901989089987,-0.60148283781372,0.6175863599382736,-181.2430341379748,0.5845391923776992,2.9716930796151155,0.5025941111016792,0.2696089199916956,0.25645686127132356,0.16436051064429444,0.17494780990801978,0.7019789465712237,0.5483900118108647,0.5890572357760835,0.5331884646516032,0.626787063934915,0.5194454170876625,-142.40573204886917,32.041379937156194,16.2448364417104,0.04191046781190167,0.47245289892724873,0.1984553747892887,1.0457480567293742,0.30095231891394325,0.2740576445911223,0.7084450616408483,0.4825496455733932,0.509726481820358,0.5323848391106947
0.58,-114.72244809958538,54.80408392390982,172.89767640969586,-0.016908648408572174,0.39931004168980844,0.10615187170027982,0.7498715927523448,0.41368593411477883,0.3548028854994702,-0.4896651321799777,0.5880353273169999,0.4977565850990236,0.5597487760675413,0.5031654889297015,-108.37026123906381,89.37403978234146,0.28224425331835,-0.06791559074442358,0.3013784253109741,0.058729480566797956,0.32282036414414145,0.06997700686162825,0.32518669936490574,0.5457646135873003,-0.7931838422876709,-0.5620885703516063,-0.5713631726991111,0.4850204355083228,-181.3536922084368,0.3969151091074181,3.4385412737417234,0.4766120498294925,0.23245770864799997,0.4180054224038848,0.16658773362657095,0.5242565884417763,0.40880593690315237,0.5276878408890023,0.45215842211545415,0.6117649161628631,0.3904191244044002,0.4692256022851017,-142.33092751288459,32.67092045018661,15.88830776429274,-0.047945618610582,0.6586843707752059,0.13496620054138328,0.3682587740910723,0.35489965861873063,-0.0813506211666071,0.6129083548260392,0.3696208944723177,0.34897252175266796,0.4556115839207839
0.59,-115.04089758553599,53.89047347718984,173.19705992667005,0.17227792622219762,0.7308997449018757,0.12071649595911288,0.7622964568960098,0.40784601240473056,0.6134880953463449,-0.5584050638786856,0.2712365638557498,0.6471368073680764,0.45122510209292904,0.4638833040095866,-108.33993142211231,89.62652190838783,0.19621624941969124,0.0011636934587762882,0.37702018137898774,0.07118706201108356,0.4572791749427688,-0.06573467832018491,0.3000351613504101,0.6051442937185662,-0.5126070551614654,-0.43639735749767294,-0.289414316296181,0.5872811225470482,-181.61936644971803,0.495596042057715,3.815453414807564,0.5641640682170266,0.36282249397414723,0.09153864925769079,0.32447084650189345,0.5631797942222396,0.5145345248670445,0.5869217780888168,0.42351973672468657,0.6102723441617272,0.5579394610853824,0.453547728176504,-142.3096753090544,33.25012853370003,15.96314207777012,0.10091785634612159,0.5444748188120933,0.11462912450273856,0.5634412763190281,0.17244400797618542,0.19638380408593664,0.6673097326290932,0.6484765920601284,0.38683950881667306,0.5666596024460824
0.6,-115.41234044786768,53.26718383613456,173.2060440314969,0.12404644409896712,0.8210045329601559,-0.012451377764362531,0.431959813332316,0.0318027706837807,0.5357259030964427,-0.39965754340462045,0.509455726771656,0.27801505825206985,0.46714241205087526,0.592147248957005,-108.37882201682851,89.2970316492363,0.3335629553363069,0.12010860726869407,0.4119518405746272,0.23447122899290385,0.4375132943031043,-0.05795587933711203,0.32214956172154174,0.5343596928933693,-0.45974906563511037,-0.4563876306754198,-0.4625485085741958,0.5968173615116721,-181.60235664862483,0.5087465292955714,4.459249697558388,0.566911353744487,0.3831429900674151,0.2475035874458858,0.49475780680466064,0.1777347478737324,0.29630879499980367,0.6989232003544645,0.41712356185412774,0.5550820400789365,0.3942146531843664,0.5698235461969572,-142.5477128800274,33.71694578641192,16.211684403320703,-0.02871587777128065,0.839432413949772,0.19910026710263035,0.7024526458577081,0.2976892733461166,0.7392349924463514,0.5829370509203072,0.6837468608715724,0.35941518731999234,0.4670533840365253
0.61,-115.91556003678406,52.4960230033412,173.3380336118608,0.48345769281186735,0.902107105463684,0.2735194089802716,0.47714987978965107,0.3011942362033609,0.36008298065904215,-0.4283814806448979,0.3468918433088274,0.4645309154775234,0.476581892307714,0.4542836126690289,-108.37813565986326,89.10614913127472,0.4759089281553688,0.21597407147419728,0.7794893845776525,0.0580594790272108,0.5482443832875988,0.0783212998760607,0.22904695853636098,0.44860243982529713,-0.4578213449759065,-0.5929831803119172,-0.5988441777568255,0.6563334930650773,-181.36700348314955,0.9371627818496588,5.139700732349355,0.5679343400243753,0.3319089523690113,0.03671122369326252,0.45797878058643116,0.19307188849229068,0.28430720837053425,0.5954482126164626,0.32782006209557774,0.477162041386084,0.5798290746253771,0.5665617593746575,-142.90856661240565,34.27308548142462,16.577599553383248,0.04989250145406868,0.48284167434416286,0.2974838567640517,0.2781149642669401,0.12519109186065572,0.9796315926158343,0.7333326438524321,0.5704577557208674,0.5862087605456229,0.4980096485785842
0.62,-116.38696389566627,51.5886238171632,173.38326629342254,0.2590168697689351,0.8930514105855272,0.37814272074923255,0.22284491888679503,0.09142302978911013,0.24971276028347825,-0.31760714860971995,0.42293987673373573,0.7436407165228296,0.5164215780667061,0.43308935114311764,-108.42581219390017,88.4867745390025,0.47761023075895526,0.29710561582418893,0.6831624537150053,0.28354954590059755,0.3538552728169877,0.21505415932530897,0.49755090731277,0.32738823320525406,-0.6316603432464334,-0.4611999152986956,-0.5463624833478808,0.5101959805429265,-181.1116425433105,1.5811984508705843,5.993796372108664,0.6110735186373868,0.3613340683746349,0.17343975678503282,0.40202233957569117,0.5204862146049158,0.46736381473279937,0.4694325676071531,0.5729090696655853,0.4270417875886872,0.5655573942050234,0.6424826256261964,-143.20868140018,34.70120330294614,17.276989975388016,0.018662862375183123,0.555111190630698,0.35027293533662834,0.39881045036839485,0.44917075910585297,0.6237523077925768,0.7236902057239114,0.5959066475494039,0.33277142243642305,0.32653907010906535
0.63,-117.075522954196,50.78684071722158,173.7454682468662,0.3308699925315604,0.9716289323344766,0.2081888951952378,0.6254523176182344,0.2917007267149904,0.10072885613166219,-0.431299411751197,0.633205847303507,0.4713372114312373,0.4894199386951334,0.6418495626290348,-108.50663079039165,87.81427107009971,0.655829521553625,0.057152023191601786,0.8700225558012951,0.29951975749890325,0.4896679200163901,0.257394056170379,0.42262597676290015,0.3448583698871519,-0.5061867441920984,-0.5412321721336494,-0.45434106090850407,0.47965029928187086,-181.0751780350095,1.9147163033686998,6.705294658606956,0.5233769192516518,0.3856483584923893,-0.10709187901753663,0.15262231898050918,0.6007216225358833,0.7947701999447085,0.6325192922866352,0.26604291312072526,0.5630432228272662,0.38645729187777456,0.5593876695865189,-143.51574881749931,35.07736520379501,17.683513895569202,-0.10182292126670478,0.35528305214479916,0.17427131676198238,0.22856117931088443,0.4658845586662289,0.8725695486568471,0.5601769185712612,0.6559845748374202,0.47920930592310695,0.24700182262878276
0.64,-117.59200506406124,50.328501603533084,174.04502604208486,0.4988944284952766,0.6666205068124262,0.30686579205891945,0.37046107621435664,0.4597824080469831,0.21883908287894852,-0.4340702766727768,0.47869207541708325,0.37458697327807666,0.34129291242592785,0.82153294324343,-108.50597747171359,87.15806752990662,0.5957520701029035,0.3683710137662287,0.5764749206449069,-0.006162561678177553,0.7622942370190816,0.20141277101769584,0.15064370790068138,0.458474622207758,-0.46558431474497175,-0.3931023544928217,-0.5350807694261959,0.6215505822789804,-181.38785485594653,2.1827238390041517,7.318545505546678,0.35649088957916786,0.23076605220526397,0.3056099341672875,0.24182378705934943,0.66172734891569,1.335470704253707,0.5772111749516641,0.3959225148665237,0.503718188488406,0.4480175305226361,0.5074453728085604,-143.98041564638655,35.59839364466858,18.153665167471075,-0.009845755673903889,0.24987491667532397,0.23538691140129625,0.13480985563059525,0.4002992261273817,0.952636585652905,0.7584873362872542,0.601233561640613,0.43306214860551673,0.5234290540129296
0.65,-117.84670768469573,49.876366116560334,174.04272761498015,0.3307504177955062,0.7449833595905238,0.2938838361908792,0.5913723423969283,0.34227514484691385,0.15600881954190413,-0.3768438661205133,0.44568513406552224,0.6137652532477041,0.424804134705806,0.6748604287237661,-108.6614555064463,86.72059755130996,0.3786735267450281,0.12788911258503838,0.6300455511887758,0.12275178344041819,0.7650372519958968,0.2332364111041547,0.24011147598273064,0.43380956143634214,-0.3368539068584401,-0.41973150417591204,-0.3659245251019556,0.5654249680588779,-181.65483228104938,2.072381412025961,7.49955124616015,0.43581572716875033,0.16617458143849997,0.34635834313086694,0.03623301877913174,0.6722485175882507,1.2102547393002634,0.3529012818061651,0.4352979064110004,0.6033295070623091,0.35781996877460776,0.6078006505165485,-143.93957314852278,35.50388491479582,18.141199922302313,0.17364690140778763,0.3363056663614178,0.06025163575359363,0.3932643759578376,0.3849221953400255,0.7961710783089154,0.6162262316344468,0.5412921806194987,0.4947081109671816,0.3588079747045354
0.66,-118.24955816724808,49.52910306662908,174.09565027812926,0.4020777029731906,0.650819772977848,0.3477136282366216,0.9349456200920091,0.4827208796070013,0.24153304291433025,-0.39640271119950177,0.5936775540693356,0.46617593589092454,0.4049303604582134,0.49317370533101196,-108.85230644545373,86.28855493630785,0.5373700186913324,0.2469552464088305,0.7203089422397511,0.21208078549291437,0.5483199011136836,0.21150075849958191,0.1850438208672986,0.5165328521482042,-0.4912166361102227,-0.5778395841003311,-0.6065971823187372,0.7533499000963872,-181.73415958831671,2.1940975538643794,7.728458264366164,0.26626764304753525,0.1552156000670244,0.29107858437975437,0.2753227411743803,0.7049027139898192,1.0791702322748777,0.6155284120673779,0.476656616570293,0.6059877045954146,0.5141449857860062,0.6556459630728064,-144.21433901028368,35.61929493197176,18.39207577950675,0.107641579466776,0.3901486515785659,0.20470492806446328,0.44668371164221105,0.29352606570269385,0.5884581940651542,0.6193040196542757,0.5694293101353665,0.4138576979709329,0.5233967721632237
0.67,-118.51688622286956,48.92626864690404,174.47688074032303,0.42117547599629296,0.6071064804850734,0.30025125530419866,1.171735191388066,0.32689076372733933,0.5154084055044,-0.38736872838795666,0.44990861246248365,0.34360536393738006,0.615954261503429,0.5028619081508063,-108.93848170215591,85.70806193779988,0.3702585853008429,0.3103746018321242,0.6655833618190617,0.0897697841926825,0.5607154220319378,0.19293316283696266,0.33273706813577086,0.5344985686022319,-0.6464833901055445,-0.478434051233188,-0.3573008117904236,0.6039844676616993,-181.86151603207514,2.3483719917048393,8.075906576138069,0.3043500228564918,-0.10037482399930882,0.26430755867326805,0.6643818826706521,0.2102761087524211,0.7086271923016378,0.5504452991276891,0.35289208971429414,0.6286725227512345,0.5810657807967173,0.518726825976098,-144.28698681906198,35.86529514537547,18.817510041471692,0.09731468292733053,0.23351395824083296,0.044354717814261674,0.17774052340737193,0.5362203711064866,0.8925953131507707,0.6207162904698118,0.5368360099747026,0.46453743109516776,0.45529226600885847
0.68,-119.34985919990955,48.01760161560885,174.40787655338931,0.1675657811292184,0.7207634580992768,0.23021833742465247,0.3960853395366231,0.2760708153591409,0.9332062857351299,-0.484017460196672,0.6372197345876667,0.5406488389034987,0.5512968812171486,0.6958276637154293,-109.32364316305313,84.97900266468386,0.300060207541903,0.19238201052840243,0.3868179780876003,0.008246319626797866,0.41283046944875534,0.2430422880109572,0.2976689476249059,0.5227093765340888,-0.4585954069207543,-0.5304475175916361,-0.42503534015981903,0.6629346516011384,-182.24727661128117,2.3147839988400567,8.55528403224608,0.47036675208223155,0.018085936915373885,0.420492898213811,0.6344785890904752,0.3324523007691846,0.5221124630157357,0.692721526537251,0.5895771121218674,0.5115527982246907,0.5741607514168721,0.46337664435015313,-144.10011673691264,36.20514667168173,19.03009764875375,0.11957508730366176,0.35965662050125724,0.061061361573416094,0.24456535859562803,0.18455323681296815,0.9040242354852223,0.4405622718306307,0.44950808413016713,0.5087162974150838,0.3981986279112939
0.69,-120.1423793304792,47.103722331657444,174.47074570591113,0.24779748871474105,0.8804246250955583,0.19206587598799726,0.5289537858975971,0.1950571471759811,0.9539163766072485,-0.5002845042886328,0.6007725427522834,0.5499807292489598,0.43336757326112507,0.6311856353277006,-109.74279552015834,84.5857394701551,0.1861007164524064,0.386405495931608,0.7391854644565004,-0.02268355190573213,0.2831890378887131,0.448719916485882,0.12903634918339174,0.7248594431743504,-0.424153529017831,-0.5508287899851557,-0.5614764753172179,0.5460392919859811,-182.73101812144176,2.275434248992835,9.17353431752979,0.47885087056417036,0.008784052569116005,0.16862603898349254,0.5528409825893286,0.49082351255689005,0.2725970919720889,0.43391531302241626,0.3351144300166315,0.4713806317018582,0.41054857698884395,0.538175820880892,-144.21515155643178,36.45723017325665,19.177975907653053,0.4227931617668583,0.3383491278010412,0.3111369938210059,0.20607032824543658,0.4990918022351584,0.7711176219373538,0.5911238817355052,0.4845165130399771,0.3387048759593881,0.3693059737896531
0.7,-120.63381056212238,46.173304747463845,174.3838256588726,0.27336265821971384,0.9407766355693484,0.25673268416843786,0.9135103725586151,0.09847835067892205,0.7497101666640782,-0.40992611235841336,0.5489433279212538,0.4699804577259088,0.5423080371075828,0.6695464312889353,-110.18320057097408,83.86210098272592,0.19001513579445875,0.45730011985248975,0.6917877400278172,0.09129178700072842,0.3582532766544104,0.6252782415559949,-0.1626085151052676,0.43963285628074594,-0.6245216959231658,-0.4330331802585723,-0.5051637059964345,0.6497495974322601,-183.0343726848998,2.248667696341171,9.722422908041638,0.5458342917898311,0.11979106464924999,0.19047679560766487,0.7089419906191224,0.03148520374668018,0.4563125750058783,0.6637499878539102,0.26060965227630994,0.45896831401039373,0.6061060684518846,0.6118353201911395,-143.79375720093523,37.04780495978005,19.679611149784428,0.45126515946132434,0.2625261164510354,0.5007968493137809,0.19159703704397896,0.611360107227183,0.43553916891585637,0.5190398711932098,0.3247304429035387,0.49309984975080134,0.4709400650769536
0.71,-121.22692744665895,45.35987707036765,174.34537097878248,0.185751242900369,0.7939383826968947,0.09318344539224897,0.6946777298387311,0.3708999978089147,0.7689150514649997,-0.46732619998590824,0.53162276353957,0.4907698057700989,0.454973462187623,0.5580369862450127,-110.81618554510011,83.16370914419947,0.44043196956009245,0.5623287738368921,0.4484399220819152,-0.10606382523393883,0.40555786707722097,0.7867760442698007,0.4825555988218882,0.50555949109345,-0.47643020791296625,-0.5430837373526638,-0.443766486102225,0.6630318850264023,-183.37707557805888,2.4122144937514625,9.858915810126579,0.1882630901200894,0.05857603112917694,0.32489989203667,0.6353899174138309,0.17801448404640505,0.740393992047248,0.469869080610798,0.334426683787507,0.5642622808183825,0.5762751847522048,0.8407071791818369,-143.3669992214009,37.62667635349252,19.612028646099237,0.465770303837693,0.3186131242172484,0.46710994276857654,0.4125580352631939,0.3944404651985133,0.6215973791587068,0.753394244488363,0.7657434890850012,0.4001353101580014,0.31945747404950126
0.72,-121.2115552054162,44.64911933252027,174.40582352222793,0.06441430275760394,0.4678505200523476,-0.11256219174799663,0.4430312787597971,0.5963465155266782,1.0086227259962965,-0.3428527421566989,0.5971924162395427,0.31021774026506144,0.4552466627408104,0.6678653806129408,-111.47288496312225,82.55382346835704,-2.6459702208493505,0.591002202017418,0.6853967221981035,0.23880151789989426,0.4795575647252639,0.44922057300474605,0.27305982368193066,0.5386925482000401,-0.49558530721651906,-0.4972021623759599,-0.5016633324213203,0.7238145280741468,-183.67687508456765,2.5116574873543334,10.772849207985223,0.37058344449836644,0.08679502361734595,0.02445245896680609,0.7733398146665322,0.5995712569455136,1.089588652852196,0.5066694674284705,0.24201353287825828,0.5571327650453195,0.42711770047229886,0.6603575912354366,-142.53360873898234,38.11993980159012,19.899002415119593,0.46415334365337274,0.3614051749000134,0.5804601632773243,1.079149565777672,-0.05247572667616096,0.40991852194713546,0.7532714113339278,0.5201766897726408,0.42673381133696753,0.46053976438876476
0.73,-121.46279136861371,44.26075003083323,174.23368455207952,0.19106057110460534,0.28087301029777295,0.09330062437738629,0.6449471003749443,0.7361228356029117,1.5255689954400526,-0.5962969065148964,0.7330763982621611,0.5150631531658301,0.18667144719772355,0.5688410357203476,-112.19535103295541,81.6532040344242,-2.5574970863422593,0.5239535945529783,0.718654107180457,-0.08919426208242216,0.7361043214120289,0.3252256217063646,0.06843671027837385,0.5020316652545191,-0.6020868312776133,-0.5530803115083013,-0.5134635226715346,0.7229204190011229,-183.7678701461662,2.6636852401086717,11.13287020003971,0.4401066002366771,-0.015891845086578385,0.15653844348191281,0.7426123506228897,0.3637507098916011,1.5082310661975387,0.5470077218520192,0.1850918998212992,0.6306581006862021,0.6444890245897328,0.7248656650807757,-141.7659023325709,38.43536417106031,20.05559838568737,0.4648540504461278,0.09974657631851364,0.7393580569844556,0.49616348530515364,0.47385672357667113,0.6167212431339282,0.586938622815809,0.5619131570378361,0.45236021795620285,0.48084250223999836
0.74,-121.21254590627345,43.94233575798855,174.45955044517348,0.36547208171629614,0.3388016574676342,0.18403703322025483,0.985719059762963,0.44239545507543687,2.1676575056120906,-0.5173248984055239,0.551610114705904,0.4020927369217183,0.3520792468570551,0.8018915255129728,-112.82283696379629,80.96887135872416,-2.4830997693886023,0.45765004682868116,0.9400352634653338,0.03837537980355024,0.9436399095693423,0.24298351277987731,0.3958855194096579,0.757305137718406,-0.48531843018550874,-0.6152644244069769,-0.43584587178878464,0.6255581126010583,-183.73938737284908,2.578934337908908,11.573827353161247,0.3194766071376516,0.09341911065220043,0.187249295785823,0.6312017015478848,0.3200393536410041,1.2969896267794043,0.6316278638860439,0.5390562742692346,0.5074220051681079,0.4483744423005006,0.5563660863113512,-140.88727119219607,39.10666585730985,20.477042737285775,0.6490836390835939,0.14811305599896882,0.801339156591672,-0.004557852921443374,0.2668288555694983,0.14447493599410788,0.7003061356868155,0.4247497995891792,0.41847867862780885,0.30771873187687493
0.75,-120.87837276786864,43.4651258891689,174.71025313388833,0.2621257956914903,0.576230987783636,0.0036781951820467895,1.1255901378114566,0.049387784448388844,1.5860881064311232,-0.5390032727325003,0.5551250633802906,0.3913088652804952,0.3248597936266207,0.6333751423529388,-113.29553789652196,80.06604068319079,-2.2675906136913198,0.46444437096616653,0.889751751279609,0.06816691866712937,0.5574584416229347,0.2435227024567873,0.19670357196273314,0.615306316645693,-0.358738025791453,-0.608258160125424,-0.4659634544864866,0.5530356070194766,-183.48375962340845,2.7744228373138635,11.643567841352557,0.07939767968419356,-0.06691612061547625,0.2622637155447635,0.6640639639465644,0.06432579052809301,0.8573269752793214,0.5411709748517427,0.4926256095184019,0.5821382547945264,0.508836611781245,0.6113976027736008,-139.7476069973687,39.59076744162756,20.772501593243202,0.8734804609466199,0.2832760943378206,0.8183146994250379,0.22886474963756148,0.6379599465327941,0.528451171040669,0.7667555557425156,0.5331012721994436,0.4386310807156986,0.3105173751063566
0.76,-120.70624145288527,43.169319503884815,174.8794763169632,0.22207668976178657,0.4744136510553377,0.022774896863097138,1.094396692373283,0.4046156076808163,1.2016142098251392,-0.36253101535622523,0.5832360119352912,0.4821647775318279,0.32968300107643933,0.9581487673976666,-113.96906050774456,79.11060519293324,-1.971493771569225,0.4373767638286521,0.9623337828604093,-0.00942753057194197,0.351035193945548,0.2481288380968554,0.10635353741117609,0.49391380151239767,-0.4906603419815341,-0.5446658089639571,-0.43407156338155795,0.7351405456700486,-182.8221060671325,3.0689866214017356,11.70814726944087,0.023379318353801144,0.09853686797202696,0.4752675015686542,0.847763507058963,0.0833182687336792,0.6680547466220059,0.5205131249099989,0.542086232063074,0.5413699202360814,0.5160958355896574,0.7041977245615514,-139.14219333339074,39.7024999529504,20.63168293779216,0.3573382282418661,0.4945886853080512,1.1034299931930376,0.4504124605590161,0.8174072056711936,0.7958462836746978,0.5215081463751541,0.36497300002051525,0.47806748295292617,0.2993963729006522
0.77,-120.35586273334461,42.533256621108826,175.09865856161895,0.5508950959020376,0.6500847176621034,0.23435757061212098,1.505316251507718,0.2107361603742001,0.06719305952955833,-0.46399577482138765,0.650642772951743,0.5382180563529408,0.40510629022374045,0.5655288695813646,-114.03937220080077,78.40722401222607,-2.0897917052531514,0.17647547652317616,0.7035769906875768,-0.008578185765404978,0.23531955122379491,0.15265956528974953,0.011877988530767637,0.6869322379108178,-0.6800681057070097,-0.6331491174306014,-0.22082546881718523,0.6086218614006241,-182.40970762418564,3.310567150441933,11.767969396172093,-0.028334017278132707,0.058889566423150894,0.5035835759371129,0.27980797536475777,0.525893518242887,0.3246574837832237,0.7110946345250255,0.4308311092189893,0.49338983748041754,0.6186935555061869,0.5853301180127997,-137.95895736524434,40.807901549516544,19.990345051417723,0.5432671396115208,0.3846176966441531,1.1329943473883968,0.531295713977165,0.21317047397003266,1.336517159089791,0.612819583861322,0.5459737434577876,0.43679655411935575,0.35563187842852534
0.78,-120.35053378399923,42.260734360663214,175.34937431595594,0.4167438598304043,0.511316984802906,-0.014374200463121746,1.1336257829389114,0.23137025504530176,-0.03712378721070345,-0.3646370905986063,0.6005196460252187,0.6270216703680112,0.38504060400635065,0.873019474374056,-113.95441435709807,78.16527354104421,-1.8210730716788484,0.2723881509078302,0.7869186210792647,0.06412040947322024,-0.012322031502567277,0.059703537314023836,0.11359984988562902,0.43731340968537336,-0.7048107340977141,-0.5348574667037314,-0.5065596432619525,0.6866577530995449,-182.31143244703236,3.233402327729808,11.525169246573506,0.11301021044920988,0.1901999323556743,0.6771154762766436,0.22154462290966664,0.694641881892277,0.5251388385911857,0.5495948030876473,0.5004595372229137,0.483405278447125,0.5915421369488127,0.7377857791957854,-137.43754909738954,41.2172446660511,20.26450424339815,0.7067644714815279,0.42400963167925676,1.0489063450251699,0.15262139451517417,0.4662325184826877,0.8778640912994438,0.4742535475210598,0.6222579147304517,0.5798391605848525,0.26466965897892447
0.79,-120.13451710171738,41.80894243929008,175.44513169073267,0.30009801810111564,0.6631529434770378,0.05883791618783557,0.7931464053478905,0.04962706252961484,0.093232272952338,-0.4859861241799554,0.6422997097788048,0.3697132976838951,0.29413940242378744,0.7990268368737398,-114.25326023257419,77.93761111801568,-2.000513735876705,0.1051659337464309,0.6990223477047571,-0.13413930539929755,0.04281851712312745,0.1049828850745251,0.10082461226554278,0.4055916076666791,-0.5587578007331723,-0.5343280433527529,-0.5807441481664659,0.5751746616580824,-181.98921870722475,3.8517906546977523,11.429054884726181,0.16127997808664235,0.301076197149988,0.5404671587920586,-0.0361704824688306,0.7226662366804045,0.9163007004269627,0.7241698191195362,0.41979896121042604,0.4563059020349912,0.3078081233037505,0.8670576641381643,-136.75855794515147,41.69078151946966,20.05573652094265,0.7402422780039759,0.7802791343855615,0.8492301342194828,-0.053441283052527364,0.8333443425814787,0.23173480750409972,0.7330455334035488,0.44772931660924264,0.5206810813588973,0.28289543529433714
0.8,-119.92967284397133,40.892341764900564,176.0867792498977,0.5320659174206266,0.9478090180474454,-0.033446489296118376,0.12237492711676606,0.8405603295680038,0.5083215118520509,-0.5123779244743558,0.4805377724450482,0.3702100733759376,0.5248361642965009,0.632187096868863,-114.02914619659597,77.20549417258002,-1.790489293752114,0.16482961096716175,0.5479584698358818,-0.04860803955397867,0.04272878667723791,0.5464064892344465,0.22659972717515656,0.5984581547947413,-0.548831884033979,-0.46699702518000163,-0.46299780809159735,0.71366790906024,-181.16936053055312,4.1188309911626,11.25551949396302,0.30042442013932336,0.30687373163944376,0.5306727507211166,0.15916205701318684,0.5331819304501747,1.0169123705096543,0.614024581861048,0.49481979615567545,0.567507050074255,0.5228398127864008,0.7282113298241801,-136.17479829135846,42.54015444588867,20.528141968797588,0.7746502026112122,0.5520336743116073,0.17546542498006323,0.2917098571096447,1.1649851739284458,0.5364192200315816,0.6696870410342814,0.4406553596415895,0.46408241219313645,0.22032226576190223
0.81,-120.16387869375271,39.936252394979,176.12086000960676,0.10154668353042984,0.8105716150781526,0.013441164557041089,-0.1293149519892844,1.1950285720130767,0.8326770820538145,-0.3938705119425465,0.5877655569169186,0.20258241482815711,0.462693970259072,0.6662958456396508,-114.00350098957638,76.53194359036156,-1.6568366618338024,0.01397510083480169,0.4802121895164774,0.060943177992190824,0.34626198070892084,0.6990601546847902,0.3722173189358451,0.6311917798863499,-0.45657694370727503,-0.5154033284007986,-0.4401542329468412,0.7507594387419471,-180.8872873848429,4.339775325851107,11.010821057459033,0.21899456771939724,0.23538528797372346,0.5382275293180349,0.683917457530868,0.20600500629480395,0.09204368817821382,0.40726472771109057,0.45894809998408415,0.3961095075180824,0.44430053326074526,0.8270790587552874,-135.76752930265238,43.151974852532916,21.4287686526066,0.5337734512229128,0.41716623161631433,0.16149060606834256,0.16748876220859263,0.6360299326225844,0.46836852868501955,0.5463047179125952,0.5679926478326398,0.6207839166955574,0.33608445906803763
0.82,-119.96824301052168,39.28154610915345,175.91788590293052,0.13843358558795932,0.5435908958181482,0.22430101849080697,0.3490874655447506,0.98277902479926,0.29493794969939285,-0.47136239789010304,0.5258327923963034,0.4816980309819014,0.5589028119353049,0.9025323663751758,-113.73223426717199,76.09565968416196,-1.2241638255552758,0.14079812784308948,0.16012800004761285,0.21862906213819233,1.0812451623777453,0.5755138972191421,0.6735600553086577,0.43372811715485915,-0.5509105648794939,-0.5442423490809606,-0.4053818274334376,0.7702231977000589,-180.39673650891243,4.617230755835328,10.896886025399684,0.1865466870700643,0.3243067241380089,0.2481604976386239,0.6272858410150861,0.2750875982658285,0.6648728510600551,0.5426612025354671,0.3180452578278939,0.5577731854730744,0.4212139286221844,0.7419344197275654,-135.8612363221432,43.44538986770089,22.543283535130822,0.7465271396578937,0.5916938961481536,0.5281542426167425,0.18205717632485777,0.6835722898916337,0.45431499095616534,0.5895183584693814,0.6945876297135734,0.4449375498696558,0.2953696341350509
0.83,-119.87648436876668,38.673476179430494,175.49461490876905,0.3124593503443517,0.550509695104844,0.04017166640612227,0.7237641663408487,0.4644953759792933,0.19824456992254225,-0.343218068252347,0.5308616202943696,0.37587245442028766,0.5928280488994333,0.6817574558967208,-113.52547087479999,75.68303787812555,-0.9660374455905387,0.3160969822528523,0.20856596524500967,0.20420185897857288,1.5107405446139484,0.8911873584355452,0.8093203710494604,0.7158758615206329,-0.4673618309537544,-0.4535674684256009,-0.43922964064776354,0.6796558558840324,-180.06968860350148,5.104954573099141,10.810815338952679,0.04629364724819454,0.3603978325636482,0.3449350586127678,0.47961505732991083,0.18034090062601477,1.2098418882910176,0.5984226507843747,0.3929375713889327,0.47027884568916,0.4263811363563612,0.7871168690107997,-136.724699199674,43.68543239195526,23.864423401457877,0.5936351671765057,0.5829611395207246,0.4310199515426263,0.18158721404709194,0.04116618798042141,0.12505995732767286,0.621314221086792,0.43001756741761893,0.3692013460811902,0.30482885393433345
0.84,-119.8393042566375,37.80155658717736,174.88173613444292,0.5805910140946777,0.6264887566434998,0.11969605889337265,1.4023555991670154,0.25851442074546327,-0.04613393907392871,-0.49827304775973813,0.46166949392958645,0.3642288200592182,0.30251815555306033,0.6517447011320141,-113.29607025903147,75.533048337153,-0.709593734264865,0.2264507283073072,0.22714483115643144,0.1976088962650056,2.095879776814867,0.5192336353372752,0.3976000549930317,0.7507316417874782,-0.312158984934261,-0.7356861960703031,-0.3681808020024947,0.7695319921727736,-179.69119256653858,5.672953798943111,10.572899373764319,0.018744596994531765,0.16360411239268377,0.30937681051064386,0.41736306232812403,0.8953072624077968,0.38807540257188894,0.42108426329968185,0.3247497726376861,0.6350855221750487,0.334056245180256,0.5961019661374598,-136.88466924324376,44.31878787447597,24.86640764614859,0.4687951174908722,0.6275130486142404,0.2565593439695998,0.5699116074703705,0.32860914485662684,0.7117671042207717,0.5642142228401478,0.4481136395750438,0.5166840408568995,0.15185894829267035
0.85,-120.07839125457208,36.74987303521622,174.5367499201337,0.6122467954157373,0.8498530415928445,0.12113151996643615,1.4848058743290553,0.6446850791215141,0.04864476816232412,-0.27958315279750845,0.5695215600043542,0.5608648891645673,0.5395836552088901,0.9163881528533243,-113.06843201958374,75.29920673916048,-0.7310841726266457,0.2403981097236712,0.3353495959272032,0.0448191130712553,1.7933326125885498,0.27205134675586606,-0.051902085321326535,0.5876776281852197,-0.3744886209895692,-0.4538698094652417,-0.4863185309302936,0.9114526407735565,-179.86590051637648,5.954812379119265,10.304785086035507,0.1200280277084804,0.29868304070737267,-0.04722139725541652,0.5241221428504493,0.8953004193713945,0.15725675446684564,0.5920250466842046,0.3940163178725314,0.5022774539842525,0.39829033545225767,0.8838219328491419,-137.51370515292032,44.97740868669643,26.094278674893886,0.5188557658264684,0.48315023732119833,0.09310333303862728,0.19983029624275755,0.3996346351628661,0.4160121560182576,0.7924247263424883,0.3696452125579226,0.5276523572864923,0.2407143628843486
0.86,-120.28921036981514,35.94510866263402,174.43285390163254,0.07613613589703908,0.7490555383317412,0.10223266402673672,0.2996175488020943,0.8010687486496346,0.32997639585487,-0.4605693130318703,0.5941773401807809,0.4525631714535436,0.33840201547952287,0.8384897746099725,-112.58731679523981,74.87621597537307,-0.7870616254579423,0.25347538712467266,0.3320315518340663,0.16931014988486826,0.898313650821535,0.5506445402762625,0.23294582605888595,0.37624970847255823,-0.398233150694284,-0.44245029215055337,-0.4060492289456966,0.7862817070475824,-179.90663223132262,6.105423302208855,9.981666436743769,0.43395847898665924,0.2515649251382126,0.22071796682358474,0.4833640764166064,0.41086124375191607,0.0542718129303841,0.572252197030515,0.48133970687616795,0.6602742145795994,0.3229024810074438,0.6859596235351095,-137.26091762312586,45.75370690019393,26.76342946627877,0.39338757883040465,0.9127717773435766,0.1045501340794685,0.3736999830846687,1.2037945571624746,0.30174490119642133,0.7356483471174459,0.4807813110642707,0.4187961087746812,0.2169853322815955
0.87,-120.32879713403055,35.10142570607134,174.57644536041607,0.05277132145777061,0.5931329295781657,0.40577950610077884,0.3788009061173986,0.4617452800306648,0.24289271818258137,-0.43765282983161174,0.7409545555502991,0.4331249853385585,0.3208592783431898,0.8986165400435615,-112.44891700109713,74.46735837731654,-0.36052177502085714,0.38707186675277716,0.4227176252644197,0.38659129854064495,1.2881861241222747,0.25188989167257203,-0.04364818402488041,0.5132561838222907,-0.3017378666660665,-0.5028368715386624,-0.44488969734297446,0.7112384874634403,-179.94550133796272,6.254392691846947,9.577503063353484,0.18487512763985792,0.10651692330544321,0.29615016421379275,0.2669900195309633,0.4821883321837105,-0.20243314718955027,0.5228522519694829,0.18395140711282376,0.7341573729026338,0.30671291459281935,0.7196581505728215,-137.5386457899684,46.26481048625999,27.13686310429234,0.4480442214140834,0.5609073967752631,0.0008688943452784953,0.35586730949023865,0.7043637279495575,0.6016756238008537,0.6838766230434793,0.681884467137814,0.5583334982918032,0.06651008655544227
0.88,-120.50923422739739,34.06710226469247,174.73042556846826,0.07958651174259311,0.8664537864862656,0.0513453487632473,0.6071883877887861,0.3586032039226037,0.14700367205762532,-0.3896853160006398,0.6141351055205077,0.21867789081922323,0.3994241392663945,0.8307710390918016,-112.3273846289713,73.89320343359773,-0.29335685205186135,0.0821418923914222,0.6402713776789993,-0.09905792793147569,0.28709426254352355,0.19180365877757782,0.36087597143556366,0.5531605125551184,-0.6403782549167905,-0.597598420012146,-0.6418372081138,0.9288380859234218,-180.36562051431505,6.450964748449849,9.502536759553735,0.02882833968012341,0.12209258589483954,0.11792938748451777,0.655600842632062,0.4978509038757434,0.07755327102202271,0.5929629118073999,0.23541531392162116,0.48336508733013256,0.5623601567435298,1.0003494290251735,-137.80943813613126,46.712622445692475,27.785491299795922,0.45420056203378933,0.5136678693148319,-0.024091724631389255,0.429940460870275,0.6593835710348108,0.6703581423301237,0.6962120776215787,0.452088126006463,0.5296900832687035,0.2493895169674115
0.89,-120.93050934249763,33.34596330366068,175.02036543013404,-0.006913480774073839,0.7801803840264672,0.14164119805891687,0.3797818766266589,-0.014295270386873978,0.25335235391164934,-0.6687712596520703,0.5069519104750311,0.27150697192445455,0.4945626447754073,0.8727912343840286,-112.26085817614573,73.05695666374014,-0.18104849687531763,0.08817958460071838,0.5666356857985407,-0.05636644744411067,0.2425885195212658,0.18658544693987467,0.6555067689739541,0.6547408208575649,-0.4350986045664581,-0.6488384624924142,-0.4787265278395338,0.87006570872001,-180.59393910393996,6.442829552883294,9.401622314663086,0.10862794873516013,0.07101210802027022,0.1768124631683206,0.4978426387016516,0.22888172301278795,0.3372951469856865,0.44726085870072796,0.5727326166484721,0.4298172232569927,0.4209449494567681,0.8084617303231915,-137.82095312648926,47.308226583954344,28.784780727881497,0.46906438808607287,0.48217606263686885,0.24487729780173784,0.5980687638296892,0.1226276664301104,0.8102983448241532,0.5755003406726306,0.5205002256155832,0.5927535326690913,0.11086470386059347
0.9,-121.0430896688711,32.50522939535189,174.8518405139938,0.08319802776917572,0.7457902272500124,0.0023154125332839476,0.35249072597219977,0.10971615546931561,0.28420518950482854,-0.14922964991353624,0.6801294476215721,0.3604515564613439,0.42625103940719894,0.7141315301112936,-112.46065630271826,72.49833174593988,0.06174838530203444,0.16880723166130512,0.45207919640285976,0.10722568239574409,0.4285584386210164,0.14510818334818132,0.496799041702676,0.4297240969606788,-0.4231723689205104,-0.5321613137762256,-0.574830927273375,0.945429324115629,-180.8764576380904,6.968537555006154,9.175492659823078,0.22230954562389663,0.26534887647868916,0.4253978348363136,0.6318760613436472,-0.014784375418017554,0.44329398343119997,0.5876336008652338,0.2759489684122915,0.4522169005696898,0.4452409890751412,0.9520557566719033,-138.34354703705975,47.39768346912366,29.610755300418344,0.5801922433934751,0.643897291228948,0.25415882051677713,0.43341744225407175,0.18395385546545107,0.28777446992922384,0.7959908301333478,0.5990429807569495,0.5719673623526362,0.13119729957107357
0.91,-120.76589317734184,32.02039587207702,174.9356868025856,0.13267425497283458,0.7874682086058282,0.24557293348777304,0.09956498593645685,0.22288785767652786,0.3706475349996349,-0.368773858896777,0.6411694054306099,0.35649711040437126,0.3312751600524909,0.8732646128496563,-112.58784930780628,72.04393442449557,0.40369717998035415,0.22399922400258915,0.6828529732819281,0.09770122559476911,0.4714348776276129,0.3158115515109625,0.39928926425585565,0.5857250152049432,-0.4841089023947636,-0.6375042946797191,-0.5564895816822455,0.979687666144254,-181.31146473845195,6.854680002981692,9.367173441693936,0.10688279078051932,0.13577357391755174,0.3980007421232978,0.47454225974594283,0.09520109429451895,0.4457078055359642,0.6519859023987697,0.4634851694208025,0.46732892656717223,0.3666683522214345,0.6977921650002177,-138.48539513519555,47.84120591987348,30.416167941345314,0.24308848121264384,0.7323674552112146,0.23372776919589597,0.32533445701397257,0.5104505761905855,0.5511482831241533,0.4911107310430532,0.45678005796829785,0.410270170488253,0.23469722163197415
0.92,-120.84741990711844,31.596066634561595,174.95323622013638,-0.07467336492461932,0.5993787792294369,0.13366586505191858,0.17394281595242347,0.30752280801471454,0.4238768278505411,-0.40926355757899047,0.6242284880386741,0.4626441100429651,0.2330640956497023,0.8381647473020323,-112.65917209791989,71.90734718128522,0.6486992063950408,0.14612673383690955,0.5771721995872491,0.02403316161058716,0.623683229902883,0.4486879535100401,0.27814587835461924,0.3657317718179826,-0.41716502913756637,-0.6437820027220349,-0.5166961178170526,0.965266302053075,-181.38118829100733,7.180638060456894,9.105908874780404,0.20655217043923538,0.3236004154422481,0.2884313099141077,0.1704241252671527,-0.038550802111389115,0.38576203080731064,0.5756564347706759,0.3173890337968681,0.43111458042655415,0.47641421482953167,1.0563624761023638,-138.60749259458277,48.22191358273867,30.90785013444028,0.607190737840456,0.8599011668185631,0.19612887617205277,0.33360209249499695,0.0634262685156137,0.6124493573030143,0.5991290620649419,0.2835891260615235,0.38907953518538424,0.26370864864050664
0.93,-121.23268432669386,31.065430683707653,174.83788267653955,0.09942451726971514,0.7689353110227312,0.20655157932254922,0.9225913200273053,0.2515073644409901,0.04797217308195939,-0.413264867572015,0.5296817153155712,0.5257272717474523,0.28604101945687876,0.9362704103238805,-113.26787471982767,71.20736245916265,0.330349286422141,0.3046339022975997,0.45777689122806964,0.34587828203503257,-0.12844710099277917,0.7169494859197278,0.5260866073743045,0.43225863469780834,-0.5290267946674949,-0.7165843987246301,-0.5455990793605252,0.8607754029979999,-182.05340031026577,7.741319111107656,8.95669243302245,0.26693096207378725,0.5092805271114542,0.3500478743016149,0.24837738633642517,0.44452049280043887,0.47411301503476727,0.5664499974891045,0.46428204472363593,0.48917770068206334,0.7216070770903151,1.0301053107059968,-138.76434280271766,48.73345883618093,31.837967715146643,0.16768795072542594,0.8747962670192083,-0.07500414646732373,0.5531438592488113,0.5932902738277788,0.34551624103539813,0.7295904118313276,0.5367073056048938,0.3028185448920967,0.16641842042217467
0.94,-121.50009560750492,30.170045299747365,174.78504491972186,0.28070087447348735,0.7003220422711744,0.14950930971287882,1.3183502963968574,0.02172231421835852,0.15639812566357553,-0.50188115163171,0.6338624985502094,0.17446895394979658,0.3661454488016112,0.9673318998655761,-113.59142266948723,70.38493230103515,-0.4050153806143274,0.37985188303469153,0.6831743373245144,0.2174111887233634,0.34015765320872393,0.2997431925765001,0.7442105397663809,0.6541378654704575,-0.47490082712795906,-0.5495623254678701,-0.4867624993601041,0.7976323521899827,-182.327018331119,8.069803108573335,8.858624364756785,0.3308891721025421,0.5500735084082221,0.29517005582780703,0.4428530560734033,1.047367311032933,0.3667691353521102,0.5816204031486596,0.5032082742661095,0.38322761340715655,0.537166032639502,0.9333438190599845,-139.2326836990468,49.260505193471765,32.53179203453809,0.21751924891993885,0.6213312523105746,0.06825672736012017,0.5654040408188529,0.12752070727080564,0.14831680335883302,0.5946992940545573,0.6151853812179628,0.6253797113907378,0.15099603317737872
0.95,-121.60437782275297,29.252302491220277,174.31203104963893,0.27254129732293125,0.6823999946119352,0.16913329026514146,1.227019834553492,0.3218320550620263,0.43353428081426537,-0.48949480852399174,0.5835941678048818,0.38058618813503314,0.3567818424576712,1.1452368491593499,-114.349085160393,69.70428424841717,-0.8303747432687716,0.37202975350677003,0.9327213174786493,-0.13616414811728236,0.5228228643450948,0.18658078953630802,0.5534082186979131,0.6552158875969959,-0.5460175983661781,-0.5481615411270269,-0.25500996136389104,0.9540780401513893,-182.81115346632672,8.356833888529449,8.569172067579425,0.30663989863047153,0.4263818610154744,0.2591744843779773,0.14755220081442796,0.8262308818408098,0.24912445840570974,0.762511243074314,0.4416493825326829,0.3808544880172429,0.32210997283101683,0.9641782573484778,-139.34198373309837,49.887648938440385,32.80977977529167,0.20409447932765504,0.4906022537058965,0.14798282339009194,-0.031082970397402328,0.08858342444759858,-0.11549515402724858,0.5385561543040758,0.5430817150333063,0.5423178044656966,0.1858936476197319
0.96,-121.48328551140276,28.5959267286903,174.45476788059156,0.01449562416424418,0.5464342956161349,0.05118318803898261,0.2652558248148791,1.5028450264261974,0.26431547487122703,-0.1362696503892412,0.5906535645187675,0.22469547163473946,0.2839092810133907,1.0525084837361156,-114.8339988242164,68.81534090339683,-1.2676406728687049,0.2271173310759139,0.7843817425604246,-0.13272745908335087,0.2717783038236996,0.45388372227186424,0.20847846169601347,0.5598114543256174,-0.43566911258740826,-0.40115145238744976,-0.44551686521761,0.9340145171303617,-183.50980031357702,8.79397202257678,7.803508310629871,0.5604634206770678,0.23081283257976207,0.3243073453022942,0.21489587121669135,0.21306183761611475,0.058188785040208864,0.5870605702463103,0.3534818630484984,0.3159136504630352,0.4485847749983085,0.906837950795841,-139.29520584704395,49.749378191094976,33.441213377602175,0.16087987340379722,0.3715389969211462,-0.029170545948831124,0.14843772171152844,1.23932666785699,0.25854255789425623,0.8357995635523613,0.452215352444371,0.6637367885574194,0.26596444252937035
0.97,-121.59038624489898,27.9521163449072,174.42458980267688,0.03882573624048949,0.39819429634543196,0.13244882371424907,0.24935645576365806,1.5810373779932523,0.4361759562889619,-0.5224038913665925,0.5042413388402402,0.4476786819131342,0.1984436783621093,1.0344147404168231,-115.25618219212232,67.99926415673983,-1.442030923578968,0.29054107616550695,0.8206530981081073,0.24692709915312508,0.1563774206872114,0.10403441573103508,0.023906398097354092,0.5791161595421314,-0.5008429222054599,-0.5798624370979941,-0.6503402225840534,0.8726722571846772,-183.77271626729694,9.28919360260023,7.975644160183167,0.29984110096782557,0.7649587078811071,0.6486749436595236,0.13638150258219753,0.37780472187695696,0.28308410378449905,0.7411438027531044,0.4497527005696276,0.510191190731159,0.6100992866927751,0.9139994441750565,-139.6905370430487,50.126007582110454,33.75714422970692,-0.11647008782231627,0.5996553994029756,0.04313207060849858,0.17740195738568787,1.107943332854266,0.2949389501875402,0.6161681366697158,0.5533803349259423,0.3609225585802045,0.10594936375305056
0.98,-121.40440435984438,27.36263841096279,174.54366100949562,0.07945963628944488,0.5228024455914299,0.07799639746546201,0.6414263784949822,0.41463973077845906,0.3284902968755984,-0.5021537743026045,0.5923442011883004,0.31981578438065744,0.23642438063137844,0.9373377884850261,-115.80738721341116,67.19392002773664,-1.841276917427555,0.2146477982795502,0.8197538262682638,0.26371884410375573,0.2616302761364167,0.16270660518466779,0.15448253560784547,0.704702117656288,-0.4234180804471127,-0.5453692914674353,-0.6033761208014894,0.9552154651478338,-184.36925219169498,9.68912329679135,7.7163012800754345,-0.06248355672290953,0.6863012405010241,0.5137704846184229,-0.036244636740236535,0.052357404371647695,0.29633034543869796,0.6626307203666942,0.5525745860465443,0.38547291535258693,0.6104029923214493,0.7270902442768976,-139.96592340119585,50.866792624125765,34.23418005073836,-0.004192478635714397,0.5220438622737239,0.3299449294667409,0.18248306076015475,1.3272938600093416,-0.017785608525110547,0.5201176711879532,0.4525082939545224,0.4402938105427814,0.18024829231148937
0.99,-121.6573395892376,26.826342939485702,174.78720323610912,0.0959189209549262,0.3737597638806256,0.0617233702543001,0.6133206378181766,0.3850226302986024,0.22291564189067464,-0.3530470747055356,0.5646880254691231,0.3377299679100823,0.2668910078330593,0.9301345235837832,-116.04915865879528,66.11366766262266,-2.1892373626071517,0.42153965956237416,0.7001142652175237,-0.01851712763872309,0.5211176582711532,0.34992097106181674,0.06135978522165079,0.5148513966416998,-0.5345358022762292,-0.7101542761934048,-0.4456929776998013,0.8565455142458025,-185.20194373698357,10.358553095179891,7.817078128818354,0.004827069884260515,0.720583209028085,0.5567905411141474,-0.08014093858455745,-0.014225204731660862,0.17359826639781764,0.5921871569745726,0.26882180317941745,0.3527166350900135,0.4454956153505874,1.1247809806242655,-140.17348276621112,51.615265288828404,34.080738724091894,0.12444224188155664,0.2815935131737762,0.3141534497639084,0.48983590812819117,0.6721631525256042,0.17233218418395768,0.7975486291195002,0.4187444317787493,0.5397763273810144,0.16327891362740923
1.0,-121.42420792136687,26.486799476824736,174.9224699742663,0.20208286320110358,0.4504370376187366,0.024279661244284524,0.7761120243254644,0.5342769226308768,0.2082046920562559,-0.5161015887367626,0.6853967361315736,0.2638335503011683,0.3359807311694389,0.9767188684553585,-116.78606371568111,65.53578014906496,-2.377262358939263,0.34012725487419204,0.6247991872354961,-0.1292688610243993,-0.007963838719343308,0.15313316365906005,0.2785007374879708,0.5059439717643942,-0.5151279820417004,-0.5023965819691781,-0.5159690901197237,0.9893330537649644,-185.78489866924784,11.125203696545304,7.747456077491151,0.09082271666554169,0.7342309363752246,0.5252750361694023,0.07369628518259401,0.12855509068749585,0.01624327371783999,0.5863864974791889,0.5094395236040263,0.32415703064759976,0.48160649490063995,0.9653094015224494,-139.90574828646652,51.98624939149657,34.4078131315278,0.4172731042146294,0.346493044541327,0.24258677356255548,0.6567840909318645,0.4119124587471826,0.051787008279675376,0.6078595013262332,0.45293610145994534,0.45794119586186444,0.17393684132063397
1.01,-121.59582879195047,26.173544925786416,175.2795350887676,0.16824126827814367,0.4802683659863006,0.14351277578783722,0.8452044715133403,0.21693087098220992,0.21736441618081245,-0.33362161090793613,0.67431363685102,0.2490440578649073,0.3277636827526993,0.9347915955813867,-117.49202915029267,64.61611763477434,-2.4505031990765502,0.3530344130153455,0.8121341701091628,0.03143305975621027,0.2866031450460839,0.3450575059572174,0.20473787826826703,0.6200591987106704,-0.27881127314613663,-0.5999266838465555,-0.520455524706847,0.9222339203331242,-186.83567146857044,11.897936984077202,7.71388404062983,0.024910757165810482,0.8565350164179526,0.6014167476266183,0.49050915715340476,0.2511677982511599,0.29510766513278475,0.5467383005737594,0.31340298778210574,0.4257059303215577,0.5731337771020628,1.0645486348714341,-140.22567082203017,51.720286188451134,35.71822533396093,0.41794085728873576,0.32550903002449394,0.7346703919013855,0.4578446327894851,0.8063334893844551,0.11345657503694029,0.7050650931031666,0.7034853046993255,0.24733293477127358,0.28337322763338674
1.02,-121.90057930628534,25.660738397223678,175.4012118889393,0.02596434872929787,0.5262852897897589,0.26620896420883366,0.7602092122311076,0.11244630167111215,-0.06586263111405406,-0.2999695466918281,0.6295349706949838,0.3211563535183196,0.3180975403509494,0.9547067175959137,-118.22492715272897,63.75552675654853,-2.8869604006275806,0.5285498614785085,0.8659220038927543,0.01151597677555663,0.02936860300203209,0.2169973536616941,0.2982469432284289,0.8762993915679159,-0.4437930901285807,-0.5462592525611356,-0.4698700693057261,0.982236813196548,-187.51335135644078,12.337082442451552,7.751182156617803,0.05073820284316716,0.4848466101235471,0.3464329247963067,0.5852678913000414,0.11474491406671322,0.5249126017108574,0.7214309379449079,0.4019559829608981,0.6167188654764436,0.5171114012646651,0.8278900550294895,-141.7076906030779,51.240490341807636,37.563631938319816,0.3591014238628984,0.0996965694416943,1.0325508731992523,0.05200301578906603,1.4716290938436651,0.8243576157131403,0.8310491207419137,0.5120856002125227,0.57498892803635,0.07492993243156351
1.03,-121.91039614596149,25.014118196580494,175.81925610886788,-0.07205693324831236,0.5315965286620958,0.11373298202048919,0.7590110104981653,0.17328229651257432,0.15238894234157044,-0.4684393045218441,0.5485343106588383,0.37097564036548675,0.6011950518546443,1.0555039165734235,-118.96196516428104,62.83776526118909,-2.7644462297364085,0.5094838955797221,0.7689769341271538,0.14575147572496833,0.49283167249918525,0.5417330458285142,0.23745217145788156,0.6403453555752187,-0.31210383580599704,-0.5506533225469034,-0.629372289077484,0.9671357613344032,-187.85676730564882,12.948006923840031,7.513850723187996,0.2602335608131036,0.5624088040613057,0.27327145406580844,0.7138626258365937,-0.07191846854493249,0.745392920622229,0.4887493366530005,0.7124640365139442,0.5034749786227284,0.5773759301383171,1.1613110352421965,-143.03305249891275,50.61706167436685,39.29991620919856,0.23746095621420404,0.4646296436411512,0.6630021595639342,0.8660070537080935,1.8375565124064417,1.3883491073195942,0.7650207736773877,0.6364064428658824,0.5625032540689958,0.3134559657491351
1.04,-121.99945474872875,24.856647420913205,175.5905606629595,-0.26553597253174377,0.35151863559931634,0.13309945478126567,0.7605076781863699,0.2981727508032085,0.2993797409222457,-0.16487935487250732,0.5163185682361688,0.4677759307345213,0.4279561638123519,0.9297839513844305,-119.08941596374753,62.53491350986227,-3.218875515226866,0.24846973417780138,0.7175631925569312,0.1125708171156867,0.5499167993251657,0.17872010949451161,0.7096000583264497,0.5666995712869002,-0.3848260332639244,-0.4372927986734714,-0.7730555610863246,0.9820421481513332,-188.16997095988592,13.247737283119172,7.536306679896171,-0.02800212470027935,0.3837912648470062,0.3867119061891554,0.32800736134106245,0.06286291137953953,0.4542824974346132,0.6783433352308037,0.6069368126138459,0.28080352020043214,0.5658753075926402,0.9315521767980898,-143.51425192344004,50.44135512887769,39.97219170440956,0.10438991463373226,0.41859702975236845,0.7061463237741233,1.0302401244093518,1.4353734540282832,1.766836850775879,0.7111704701882473,0.615102460688691,0.5072725700503824,0.42727380400912135
1.05,-121.82184309979326,24.537870463667506,175.60651616244655,-0.005932033590204597,0.49255797145789776,0.18876639834923847,0.652945778013752,0.31101555460726615,0.33790825005689606,-0.3253348904456612,0.5292810909248336,0.30816582409626675,0.22076250636208766,0.9310518326869226,-119.33118726662488,62.26450400675272,-3.1141149787313465,0.16181677416305787,0.6234893475629719,0.0307510155577886,0.8015247317919768,0.20170286209578914,1.3264225353028993,0.8064346260217605,-0.39677850225798716,-0.44098815266357866,-0.611297750132723,0.9872638440187896,-188.3598899652029,13.528605716101293,7.575275036494933,0.3901676843717361,0.6344193601765364,0.17115009231338896,0.44892601584433967,0.43909502010840856,0.2890230447501689,0.5956345970253965,0.38515390461686855,0.47210115168639216,0.5168573803594344,1.1247186110052172,-144.03057970030562,50.56898410333003,40.54832021728836,0.3758388660408078,0.4604656162535764,0.4048747407931914,1.1573584830156707,1.4797706867244715,1.9273471930320691,0.670439817193241,0.31943067545966664,0.4243369587130485,0.22771398922686287
1.06,-122.00912485334494,24.32589424277571,175.55327093778854,-0.04065356471218681,0.33649065018868807,-0.06887998159914063,0.6967651186174754,0.21948982327001199,0.42905183953707193,-0.2577191778909572,0.42717269511491174,0.47861975687031233,0.4096938081782282,0.9129551776706392,-119.5240085333237,61.51825674929218,-3.2274040271189066,0.32989144653535185,0.4157487267231735,-0.20196193716424984,0.1509004744625082,0.6369960367879411,0.7114797471140706,0.6308313824278409,-0.40223380907239603,-0.40364034875069693,-0.5174762479013543,1.1390568973476083,-189.01086956000336,13.958483043171073,7.205907904291907,0.3085085857153623,0.441097197439985,0.20649648243501084,0.293087834490742,-0.06271428676440854,0.37973423270495993,0.6221896657657283,0.44434562540289035,0.31726210802019794,0.7224196883569137,0.9426322133223702,-143.92271630504214,51.18188398156825,41.20583243351319,0.11731753900979411,0.7206600551446488,0.6341570844316297,0.8217914795378758,1.0533457031793558,0.9627624999677427,0.6082247557857992,0.6593537811907311,0.5797988462974034,0.15895666308396686
1.07,-121.98997620890817,23.87455398190554,175.5111822944308,-0.14498613276727876,0.35241748290237473,0.07697978440529274,0.5806389279876398,0.5717666151930274,0.5918492467555073,-0.21045340021360526,0.3840008296179044,0.35406197673441425,0.3474733951946769,0.8828765320877316,-119.83134885899374,60.804424715850004,-3.4257384482647244,0.03758218938438097,0.47272913520269183,0.07248317772659327,0.09473073170995588,0.05875474932365789,0.1403039821737349,0.714100919058288,-0.5819266986366569,-0.5418042532755909,-0.5170265316450233,1.0750197462477176,-189.38399571992747,14.370680548142426,7.137465042927856,0.3205189049201272,0.3698262605969142,0.3839978262479517,0.46337611445589516,0.11347810155009855,0.3056884017889671,0.45005961405186545,0.47821021309585177,0.35961006493175335,0.4879045839973242,0.9474346354346957,-143.31335491008312,51.82632509491419,41.682325200489366,0.48628391346250144,0.5996161941228018,0.46759850579073325,0.5252410361851791,0.7523454772889001,1.1958577400505794,0.7795035507199202,0.5200801163643664,0.6569379820319068,0.20034442421215945
1.08,-122.20558453930867,23.63153504118707,175.66225434530497,0.015676379240809432,0.3902040440045477,0.2597517004040799,1.1400806251884354,0.35163964446529883,0.8426992162066012,-0.24600590090030833,0.5979789530489016,0.10145888095763433,0.49724285831474335,0.7326397027136851,-120.2014373383099,60.63189213199744,-3.3094482315273948,0.2536779319065751,0.456342771057908,0.1163625207096393,0.25076554514295674,-0.04121757196669697,0.18931171939508734,0.5300428057775247,-0.42729221904015097,-0.5046077494461856,-0.5528562735832275,0.8942015561618819,-190.00344321981063,14.738542238631828,7.181991637050513,0.2423496977712339,0.2819521835075161,0.2622342822451166,0.5769611470668211,0.528482029541013,0.4783832143355141,0.7151030035119856,0.4209596732307961,0.3924710891416657,0.4302007087984555,1.010704368985001,-143.403071712872,52.04850957460585,41.63041916838693,0.1704636093304348,0.38255286824037704,0.09631807743973626,0.8080384254778514,0.8621642860600892,0.8338886937051627,0.6814833793646697,0.587605607648388,0.4142229436191923,0.4027074416551949
1.09,-122.2576286312477,22.993043834369853,175.6167347071362,0.12649890000911812,0.1680114344175343,0.2678410633458532,0.933162216570403,0.5678650133718515,0.40179628775988835,-0.45440046073650175,0.6526966015987894,0.24490869149663153,0.28733078699573567,0.9772566674040807,-120.2983442555485,59.925528494663375,-3.4093565516225675,0.12483621386538503,0.6671907483926227,0.16576175683255806,0.5462886639544824,0.30269640485516514,0.03225610618297004,0.558322128936232,-0.5039769204422092,-0.45545052059237456,-0.4902183353597005,0.9397376694153549,-190.34830364666863,14.985265897438602,6.721917272911149,0.2168465812178385,0.10660498525170131,0.41037857317094056,0.8246683485084347,0.578856772190234,0.5297713173820644,0.6592255046785092,0.5588959145342892,0.5280931145273118,0.5597269319807137,1.0886263563985366,-143.63869984173272,52.16552036725375,41.8796345405453,0.03409949039631401,0.261367459496513,-0.001169913755191862,0.8193503430757583,1.1769797287166632,0.3734923129955776,0.5926962283987659,0.5235192744239477,0.30628380237081765,0.08231601533790622
1.1,-122.51526574370996,23.056221909838445,175.66552153801527,0.03206542113255735,0.4070030831438843,0.0875621687043592,0.3898011156090828,0.07990136568435623,0.025591211477532738,-0.38125558103720536,0.5944876953892522,0.2744828376849847,0.3024906486342806,1.0506938363230025,-120.35262527947104,59.06183480356169,-3.371994125356863,0.011127732062834855,0.5116310667424414,0.036494183297269625,0.6513323024061705,0.100376742410651,-0.2266772778532393,0.6370986140632786,-0.35730041563522524,-0.407694859519522,-0.6409489574436704,0.9747233926916365,-190.9208431692781,15.182448631157675,6.487381037500201,0.16927038001616146,0.0026642416344899167,0.37447161247735977,0.4637629017109782,0.5152477207042674,0.8147246463908577,0.43916343035682376,0.5922129100664243,0.34724461806805307,0.42875191109589555,1.0312324478696715,-143.89207305170711,52.603824261728626,42.322237115139394,0.41590822984395937,0.2951892574910105,-0.026934277958117224,0.8775875123036164,1.28615288261577,0.17821836964503787,0.6212830232410389,0.48658116891428754,0.5029699775121947,0.21327199249578238
1.11,-122.59650531324682,22.806067157686616,176.1104250548333,0.2779612952228978,0.38994180993984556,-0.0543609877663354,0.33101774436955955,0.25507478928257393,-0.00103652155974876,-0.403229602237565,0.5372509290261456,0.21622485292429194,0.2310753882430725,1.1801267441360488,-120.5556917787169,58.500493020269175,-3.5311905841921676,0.0369422377827008,0.40350246023332753,0.020134315491728283,0.6254998182591824,0.16613091781648193,-0.024199955094932092,0.7631684555306693,-0.45767179035732625,-0.5648219601546631,-0.5869254011705266,1.0355994508721094,-191.45167210025224,15.209979778570396,6.550513132064901,0.31906543280849176,0.2660292170610066,0.18596035327485458,0.2546922802426617,0.5926134958796047,1.0658207909662853,0.5216716317684111,0.32683917436629384,0.45375112283308267,0.48989868778953966,1.0355905665631044,-144.39610399309382,52.472390077025146,42.924864200337325,0.4461363138777672,0.03955844392323135,0.14903595079938864,0.9184064185027109,1.2212214241414585,0.14927222668233564,0.88601845920037,0.6125202336153054,0.20631738821065032,0.24495204664403297
