0.01,-113.56775363861979,73.0986101422957,174.3273620798509,0.11963938629980939,-0.037213984601052144,0.053882662492666634,-0.21264936903241688,-0.0714443113292783,0.23170830365444214,0.47601133760462644,0.414942927183001,-0.3522281003216314,0.4353465646897248,-0.0339295273034096,-107.63598586246738,82.10260842906244,37.252419959370144,-0.21211173002029565,-0.08746219881461761,-0.2640397768740502,-0.07293376934934394,-0.11167383519780455,0.12987110327809037,0.513442811222111,0.32976347602331213,-0.5286891122029965,0.2827420885405477,-0.18652416943243677,-185.95160911882542,0.8280420020352631,9.052706426420688,-0.019263673617044813,0.1162902021694425,0.1398727214861794,0.00603005008604468,0.38680570588105173,-0.04834966127407417,-0.2294280841252575,-0.3586207771687608,-0.5608550208438796,-0.4621314245901816,0.12520607405001827,-158.8309882538744,12.883259098253609,18.939666989082006,-0.18448187629240836,0.12361786216107044,-0.06824055289424975,-0.07944960148164242,0.04576805971877887,0.19108001080155915,0.5231569210582999,0.38688730863081083,0.3652294165314084,0.2195043586188321
0.02,-113.70594569613108,73.3958373279327,174.219837430287,-0.06879871541750131,0.04015550421276999,0.15084946753608805,0.1427097013174738,0.11009358464017588,0.11273180332268054,0.3649251784709159,0.7113587490167639,-0.7568582285718838,0.35030139543622707,-0.20866411042198868,-107.31475933695786,82.26135763380672,36.9687663411272,-0.12000576600557841,0.04987244456185491,0.13806004570292507,-0.2873409200785462,-0.028385137782264494,0.12322736142674831,0.50004935948682,0.27062775629320834,-0.47469511321688956,0.7105817475152874,-0.0602124606936881,-185.57150353739522,1.1137561956100457,9.05398523993357,-0.02894948072713486,0.2126090106550795,-0.10594858726437875,-0.004492546707875356,0.2950325934652851,0.05043166167051378,-0.6810089925262826,-0.49225119122647165,-0.3109711522807576,-0.5816679661349197,0.3327468941893873,-159.04400845229043,13.169247323341231,18.937853346340344,-0.18108615158270333,0.044106581237179684,-0.20536623323617045,0.15193935076945364,0.4101195735292088,-0.06838163025175978,0.5596463838546735,0.3632150773912667,0.6924344952766763,0.5550853601143255
0.03,-113.6101029298193,73.1887735384621,174.23257614437017,-0.19745977058376551,-0.2207039753645245,-0.14106783634068637,-0.11087728335032496,0.1217145531041139,0.09678443984035395,0.4458921887640821,0.48505546086912227,-0.6277987462793784,0.5819922073116556,0.13846032375854533,-107.65907189846236,82.41858025896087,37.07675882087826,-0.05687664450120102,-0.30443116182748897,0.06696691585836712,-0.19672230999878157,0.1584436983126169,0.20109318866366566,0.35409671180087743,0.532267678536136,-0.5598779485765756,0.49447042463402074,0.0034349630748395643,-185.7287647332067,0.8279022376908182,8.913236566828186,0.07426798663273707,0.1454476260453912,-0.1906307726169546,-0.021684870154837665,0.1340609225430116,0.11124242170504384,-0.35969469797965586,-0.5971135257321748,-0.3083059459633162,-0.4360709001373922,0.21322516040905437,-159.0107381728798,12.775136326327807,19.092964822411933,0.14586339492371322,-0.04533995369597208,0.06630131018643266,0.4411046733483288,0.3546910754754693,0.13033796215587473,0.41192121372657114,0.5095621464603327,0.801215607026598,0.4425713757588509
0.04,-113.68224512692123,73.08587414673434,174.4772093571691,0.08914267260634955,-0.11198120900044901,0.04214318193690214,0.015377646321625013,0.14824199200338256,0.0031129139906282653,0.3642282283399563,0.47891419686753234,-0.30866051466487204,0.4567432521997796,0.06765001663744466,-107.69357152979514,82.35023773944391,37.19546945531947,0.07790155169544283,-0.15931571595456445,-0.2870743586823978,0.10851219340356956,-0.037334024196766666,0.23111238922362107,0.3338893020526344,0.5085768681944232,-0.3268066941966856,0.5571439792422954,0.17557275923266688,-185.8886537635353,0.9294989111781419,8.804306395210665,-0.12513632475768063,0.017313974164439555,0.0005476224365875831,0.01793696516244414,0.0821595074638215,-0.18682514630743535,-0.7238255795326962,-0.48634253140932543,-0.44736872112950565,-0.39053537250487924,-0.1033522342562705,-158.98793248201605,12.843061670506957,18.73096465397374,-0.11195168572337622,0.27357962098994154,-0.20656438005592492,0.2562958874869396,0.1393547996019705,0.29841376441299294,0.14092598213180843,0.6149212183238679,0.570783260835841,0.43920852833983026
0.05,-113.6818172380034,72.95903659879099,174.21697932006072,0.012600487231940224,0.12427265220020862,-0.19502068808723305,-0.22051094194244542,-0.14007366748812358,-0.1523188704665888,0.5611278539521725,0.16648230604142306,-0.5535532231756235,0.48005944689631297,0.03547190926400104,-107.60339829602736,82.1814659689876,36.857552726050294,0.04076268753624071,0.26272107579321935,0.26632309283325223,0.12047682413641954,0.2013889704546759,-0.2565404421824678,0.5163278123270376,0.5089355869873169,-0.3258880499894359,0.6071515441733387,0.12141453343837162,-185.85788330809714,0.9693027976312922,9.011017731757127,-0.08830199986842198,-0.15507153731303308,-0.5086557765344468,0.048625605593887095,-0.09516652664720757,-0.032398315747994594,-0.29100033194754665,-0.8672234441884116,-0.35775071758642074,-0.4248652519728213,0.17909878968101023,-158.8415765311067,12.85990395559218,18.87855085215564,-0.13286876241436513,0.06275559598892431,0.08937672840609663,0.1750664433855093,0.09830772869530145,0.1544162425012722,0.5477791088075689,0.3579215296244218,0.2540141968811423,0.6587538432415112
0.06,-113.5487658718675,73.13700700121571,174.4759057931107,0.008051402319383116,-0.14192697298817272,-0.03174904414779545,0.06052909644750272,0.29452270844562123,-0.0018938968262910728,0.37908492699396334,0.5904287012060554,-0.42173716322592336,0.23735053436934023,0.08134181464501043,-107.54783189688276,82.34578359038235,37.20940396732381,0.06296220834581004,0.024405941144996127,0.37424992953921105,0.2685095591086135,-0.12376030177562328,-0.11894653103176156,0.6148894375327962,0.5950214614036909,-0.3397052825350617,0.6945965764341335,-0.20449348187919855,-186.06840789597146,1.163002709847413,9.07235288705736,-0.18036363054287233,0.04136685761244045,0.03576965652586739,-0.05873154954801833,0.12802236688889645,-0.11836529505641274,-0.3674549556146421,-0.4303631407126561,-0.6259291285360885,-0.22022584529889894,0.11341479467205896,-158.7940757282696,13.129612262904805,18.753769683469816,0.0023533376139644735,-0.052156897154031434,0.10802264082494305,-0.0873334894194948,0.09564645395166546,0.09175315650325823,0.5936773223215022,0.12057823371143983,0.45100220448136635,0.37931522718841576
0.07,-113.70594766061777,73.33597309541226,174.28143578692752,-0.07095656423894188,-0.05882749734991534,-0.1159667879047866,0.14205625434791802,0.0992553484560062,-0.02888664651862362,0.7056081671166026,0.5442158969208885,-0.6214907403342743,0.2834367902409972,-0.18402377316701712,-107.45548924002871,82.2073978829512,37.209175049527666,0.0889838145243738,-0.21532267892582596,-0.028567036652545154,0.1471071196825153,0.3580075190270639,0.1482196247405566,0.5526160528630292,0.3049009644300793,-0.68249520830716,0.3198814319265022,0.24851748593626302,-186.00215893790065,0.8607951692602293,9.045249119431789,0.2563556097923505,0.08423022112568712,-0.2485691936730332,0.10278673584404986,-0.06912682791235386,0.01831988224992781,-0.478436420196512,-0.5189299977152803,-0.5921341530634375,-0.6121900620845417,0.14461851408374604,-158.87693498165055,13.22054394054258,18.83730177295713,-0.06406613425339006,0.2051036746531813,-0.02552208031155038,0.1301248151821338,0.13264949754384742,0.11100876250209019,0.5683106754218662,0.336063711521643,0.43640396232446976,0.49931181575957084
0.08,-113.8197696270579,73.1337582610171,174.1307090670438,0.111648931005675,0.0018336004506993298,-0.11176032773800318,-0.15535160047603663,-0.14650096869711765,0.1455934059427289,0.43830052370108225,0.4963955425813428,-0.5222604002506787,0.2937478056763002,0.28761972729635965,-107.56327115325783,82.52930719779081,37.219522118663065,0.12932503543353682,-0.03006687113114916,0.11886788450769994,-0.07095331095239144,0.10646524883401703,0.3312661673196762,0.5839342202089775,0.6670885206760578,-0.5011925968947397,0.46485245545601916,0.01849094712109671,-186.107575709443,0.8006211485512955,9.25728128153314,-0.2626693254808152,0.10164119055041283,-0.005409248706446481,0.010935510013173763,-0.1100549238003587,-0.1936367101357121,-0.6304349932888852,-0.5600251150199733,-0.5223948607440393,-0.6363753852856279,0.131329779647568,-159.0411105013067,12.81633184097654,19.115996502987375,0.061525011215754814,0.16425457301749832,-0.15848872212887472,0.19463395968322023,0.14246752336958218,-0.27362812042502577,0.7291106571788918,0.8530868726250015,0.6016802409151829,0.3961710770953208
0.09,-113.49163171966269,73.09318163428587,174.3442658967143,0.278114363724432,0.11213001232927061,0.10633860108462559,0.24876856042283535,-0.20019742096695897,-0.03853340569347876,0.35796058324715635,0.5937719274314475,-0.37689067040660357,0.5909701831877443,0.19052479790373525,-107.48990990194004,82.10244740308943,36.69820406364482,0.02840712374824292,0.06668736654389423,-0.21174382191625507,0.2937019446297452,0.035506998418420484,0.2834358832631747,0.5064432880192161,0.5392754177884578,-0.4190183787034909,0.37832442780756803,0.21278941470359714,-185.7878159479678,0.9071488501324051,9.082579329323345,-0.1363192222279615,-0.1621907649320627,-0.03550052389766245,0.22414197750898976,0.08877374612296969,-0.08611804283038105,-0.6117902174123284,-0.5788054714980004,-0.3806167540235167,-0.4486940548032708,0.2734402557845589,-158.90622766145432,12.825573929421408,18.78270360478157,0.009483554709634329,-0.0015688111032167648,0.017878483682625113,0.3362241412212842,-0.12832888372704934,-0.10704549323606322,0.6203146708021005,0.2786304903736012,0.4671993126843996,0.3876019715872234
0.1,-113.60940552007902,73.34914284106733,174.27118407612122,-0.051426196928336804,0.0546418649943,-0.046962514483133225,0.15764752858787714,-0.029943263225499298,-0.12168104829726437,0.5137252945003703,0.5576200765142997,-0.3211385196841743,0.5335498272210808,0.11776612415120852,-107.47329508124713,82.30642497224166,36.60852808528188,-0.06250187645435776,0.1110268546859518,0.36457088214314126,0.16834739286991968,0.2775994992464528,0.051846174543166874,0.7414188603399869,0.4043566372826888,-0.6901822971053704,0.6079819833068362,0.09470231649449792,-185.741051399928,0.9142036100223012,8.937586930414023,-0.07477203658132846,0.23085244578810069,0.004515906680957339,-0.11467476435599587,0.23880171683747198,0.2438326363955293,-0.32547633118221175,-0.5600086354325435,-0.4613747478316114,-0.2979591583688433,-0.02194731354122221,-159.07974690678398,13.319013624596709,19.178635280306192,-0.09443261637255249,-0.10458547637304894,0.07318554402301855,-0.08756210645655615,-0.12020953209313356,0.2225702096409162,0.5416707107409372,0.47489086131217495,0.3870308753191045,0.4727712184409023
0.11,-113.58415670245172,73.06790364957409,174.44264348490017,0.22148675967299541,-0.1160580606029501,0.21758522415918477,0.16687130641475986,0.09650597051104207,-0.08619574833447133,0.9863721180823682,0.33855932591451343,-0.49821835348438503,0.45522168634002813,0.012867382093534274,-107.37560549802797,82.22070735550655,37.057653159432874,-0.0882343110837978,0.22785755238434874,-0.06709551367319398,0.152519879255545,0.11952493813471494,0.07910189142561157,0.4269586712930833,0.43975476633125515,-0.5550897396409342,0.19146754038056701,-0.08424522350699237,-186.03334520074029,0.6730048070935892,9.23430293244684,0.06599507230577947,-0.021424179226488444,-0.09700289059052702,-0.02876418364689362,0.11142314453987495,0.12993589574266146,-0.2082830802669051,-0.631044320898231,-0.5126890714275834,-0.6287662070538389,-0.06692493041083954,-158.71398220979657,13.079999694522693,18.96781777566513,0.3198804993326648,-0.018663891038979197,0.1626913544283381,0.15155819372974,0.29971703081901474,0.17213302670233077,0.3836835502875655,0.3239092652420527,0.6568639988508632,0.3908232008171465
0.12,-113.3470718004265,72.91616747911245,174.22351187978177,-0.07178833812031914,-0.07010689204215181,-0.15127605132621355,0.0171346298045643,0.030750122481907408,0.1303739880436076,0.910139817896366,0.5599086821328942,-0.2545832819220975,0.4788558425734439,0.10092431370803959,-107.45857677519686,82.24278355947058,37.02101665872158,-0.028754986081423333,-0.0018610987440893997,0.04046455338531313,-0.02487364212935223,-0.08705528490326206,0.24417484238347958,0.3799306600073886,0.5890309253369674,-0.7175618148580308,0.4253157937135058,0.12012928706827926,-185.81396528197055,0.6165192212189647,8.766358283095995,0.07810278485442024,0.03669504778594375,0.11607521489863878,0.05892915947760341,-0.04192628148291073,0.06387222008521336,-0.4678369567686143,-0.45653322110644756,-0.3200136363740439,-0.5787894670489198,0.27935694271012973,-158.86502922997238,13.258567788682377,18.62018567827303,-0.10848069213234138,-0.029028909407759918,0.06332019766958046,0.06397604046679095,-0.09885289524541761,0.08358431894871296,0.7549887956662966,0.735401847232629,0.5064178787996444,0.5248040861654463
0.13,-113.73658295693751,73.26765784693696,174.28738521374953,0.10992807929320113,0.0665766271715639,-0.1305370435503345,-0.10750564990220304,-0.10351511565531592,0.2681324872761801,0.4377423257944361,0.6859207249255446,-0.4422328681061932,0.32862259808799205,-0.02847160585822099,-107.29584429094923,82.2788180493644,36.8013457597079,0.25883549455634386,0.12847578305321572,0.2667437563854502,-0.049212151976266466,-0.04311549707452683,0.021257671343871916,0.4950288434309594,0.36559144361349427,-0.5546353267602615,0.6516160653318944,0.15851428546758195,-185.94440043321202,0.75292149282046,9.464844324713706,0.1661973344961721,0.08955275020676426,0.32997925859887556,0.1386300586891382,0.1047983156286003,-0.14428117507897625,-0.396511775225196,-0.402960982692192,-0.3100532178703752,-0.34065266220023227,0.2357303748055665,-158.79462181039898,13.0793982943383,18.802955111443293,0.05898930385515018,0.10943866707543434,-0.14692165707731342,0.3569511770122956,0.07960872109401204,0.10448415531315225,0.5340039472347142,0.5684066865493601,0.778751547601135,0.6480998489962142
0.14,-113.63440711242598,73.10324501942908,174.3534862666806,0.09148404433534418,0.030199879941141893,0.04371478763916193,0.17905830022880848,-0.12929286948847823,0.07467433977861979,0.47027471546536703,0.4437436430998132,-0.19093144498969447,0.8578812848903883,0.2637792609188741,-107.70321270977203,82.40023015112995,37.12054415517318,-0.020852446341411507,0.08196964812338654,0.18990197397541583,0.04956473214089163,0.14885069202979145,0.1682183145157699,0.35644034188796514,0.34447776108767475,-0.5674554717344316,0.5984456967215745,0.129483847233752,-185.8217793330456,0.9495907657431317,8.942147928733027,0.16289898699167382,0.2851500857706645,-0.08462930392333207,-0.010122862166774674,0.10370907798086634,-0.022670335953643234,-0.5127815734838583,-0.4923106130079732,-0.43680142093318963,-0.6331372957111544,0.09437059399299454,-158.95884631777054,13.238256934193641,19.00860470461063,-0.07152285161140506,0.05934930517052607,0.033548601946704906,0.0938901609518567,-0.08070100552638447,0.16632301936291516,0.5096508573500018,0.6503463943288401,0.2807004034798859,0.37359152485396274
0.15,-113.53531276649028,72.9785324667953,174.19690417012106,0.12348884221527992,0.008645708553716096,0.26117142110630437,0.12308202544637592,0.06116575483532921,0.17690858730292874,0.5191690406441903,0.584823484501326,-0.5198952211468871,0.42128510013075565,0.02824506354779814,-107.33390924709117,82.23180707260072,37.072853909761285,-0.03517442810683981,0.18085552486498202,-0.060515749864198526,-0.2041735560906712,0.2811681644581683,-0.0263453380621986,0.38637630828386593,0.5747855248912346,-0.5834069114792312,0.37434117851387144,0.1462152103351519,-186.1149069910606,1.0696856837720725,9.065200572614987,0.047868722593676236,-0.18162369604705958,-0.05107608513799314,-0.04744939423027606,0.10141180761194894,-0.06314626387400504,-0.2600056695796339,-0.443587732243469,-0.5663295033871487,-0.26020668067600033,0.2735951318545322,-159.02178100999734,13.053786379438012,19.163141951389626,-0.16176295891151746,0.1363214484361363,-0.10917342585241395,-0.07274349408665466,0.17516343782582502,0.15732971652522326,0.28793212519051103,0.5314534272599853,0.5093822214975112,0.33801694714998687
0.16,-113.67802602498072,72.95579329744609,174.4478327672886,0.04381941406757215,-0.1547298169266354,0.043488503267202286,0.10013515579374148,0.03668048829217245,0.01036131555628946,0.3606658076625866,0.5644588519518892,-0.7630626352294063,0.6013471698750511,0.07128302804589039,-107.31037882032922,82.41830470880724,36.811463133338094,0.08128856109401439,0.1499125259300583,-0.07731169094085155,-0.21839119893641362,0.0965490423222931,0.07671766137499628,0.6294742231852133,0.47496690908095,-0.4182525681445731,0.4067355618444343,0.18264768809544557,-186.0755808593081,0.8996656017829067,9.313297338299293,-0.022890716871829996,-0.028852495539791356,-0.011780844841614319,0.03158924484279266,-0.036105948062997884,-0.06490919607891496,-0.5463702886119143,-0.45512099466297823,-0.6304390116280975,-0.5326922844725017,0.32391743181275967,-158.82254513460757,13.193309420581281,18.987095381869665,0.06435396191111437,0.08380401540468194,-0.03774571014394859,0.1405170505774997,0.19303176270476669,0.1427226885759186,0.3861415026588609,0.3987663870977862,0.45696629023280594,0.23268040875752555
0.17,-113.7011021361027,73.30292556485556,174.50579888526718,0.26867781136052526,-0.012196528170670337,0.11005132094551284,0.3693124267969126,-0.2741322082505577,-0.1126691880400773,0.38057097342166263,0.3463136997831534,-0.6447844669924919,0.6835186205541212,0.18320215971058526,-107.36463701197657,82.41532685489103,36.92552916658058,-0.06554719423695629,0.036839003965290384,0.10868287466414946,-0.06206462445390684,-0.09145149900416541,0.05470775953607019,0.4593410737934018,0.489433544516223,-0.47564010856541716,0.6614966443601633,0.36081291605291643,-185.9736667905549,0.7713515076693056,9.3297415399013,-0.06026424145975948,0.0834053277423153,-0.24016009267769023,0.14207374012463658,0.10274738658496502,0.03860663317972618,-0.5999459415819284,-0.7833111437992746,-0.5775614059736847,-0.6541601130562416,0.007254850603083174,-158.8619305034624,13.44404250466751,18.900515005885,0.02341892068718196,-0.03165920768216306,-0.0752503708545374,0.04623979497240633,0.15406580773033046,0.11927414258891661,0.29614044783097393,0.321569829956337,0.6808260666508998,0.3633714295021568
0.18,-113.57953951823457,73.35526059438637,174.2353712671273,-0.029918717754531192,0.09190164776274619,-0.06131987147226406,-0.03696148126622483,0.1442257549728243,-0.07628793936241733,0.6348999201551788,0.40849495450882733,-0.6046395350962921,0.37651280424748834,0.3326889548947121,-107.33983591633053,82.1324736509762,36.84770634504852,0.25182144222000685,0.08888290520546013,-0.026091659542757106,-0.13580214539160138,0.046193142889632124,0.23979284181704058,0.4867762327704449,0.5673817186090881,-0.23907486631205954,0.5018907562643007,0.02650282010223702,-185.94641023432706,0.9199747604164864,9.25484054644488,0.07853226571412876,0.0635007080008173,0.11393365964605852,0.0976966181871333,0.2593618950984804,0.08276206417808218,-0.27313276790105556,-0.6724842565831135,-0.7238596408287576,-0.3838431331562115,0.08710713465271128,-158.74716393874613,13.42234112654496,19.050184346012685,-0.061802501388992605,-0.006821279003492282,-0.144032417333507,-0.138742756484791,-0.18159047916973278,-0.06303949099055618,0.5547713759923559,0.7044314617026566,0.4908693825865432,0.5149376490756561
0.19,-113.66387835119087,73.36911993220384,174.50423240103927,-0.17478370471783225,-0.2242308662726891,-0.03434948737444253,-0.04354407732861309,-0.13282487355239836,-0.007681152506583218,0.370011411234682,0.40201992333969905,-0.5084314114734754,0.646609405479577,-0.1315895883599617,-107.19393994641904,82.50228100866973,36.724995731372545,-0.07053067685693602,0.10639847441980337,-0.07561221645216773,-0.0934957028156983,0.23280726956446957,-0.15808151262556447,0.7941084233365879,0.49590143325221137,-0.6886550206572262,0.5769986379278924,-0.25434261972109606,-185.70501589600227,0.6337630609000582,9.220195572451175,0.054023040073230735,0.1496362771744299,-0.17143089029739064,0.1923315401554031,0.13323310311636197,-0.20089446699410374,-0.3954283445830539,-0.4751741369344015,-0.4595410105805492,-0.6282143146791033,0.1586441231551894,-158.97143725961692,13.270697407512934,18.790371978609123,0.1295454121276562,0.16085447796133823,-0.07564018915907149,0.41860150282791514,0.010384549579787253,-0.18926076188795238,0.3533371671149855,0.3679757022593546,0.5845761201594928,0.7189488400182784
0.2,-113.7205408044288,73.16089697972001,174.32682056608874,-0.028739451883216048,0.368305914396022,0.0647517220814269,0.017116104432893922,0.24975612579672923,0.015594542938595295,0.4154854168509063,0.5244336363835955,-0.6677597925056961,0.29290813667675625,0.002684905783505609,-107.27764578948569,82.53932754378435,36.430327447847084,-0.013644598422761285,0.13444451427595333,-0.02053682658060266,0.06445797556860035,0.07662272673852218,0.08127728238973386,0.5182126180540357,0.5415953487754007,-0.6734431836645702,0.7264053562122956,0.14957023670165612,-185.72530601563426,0.9578555590140098,8.954669685758272,-0.06318063245291586,-0.27191390309685703,0.14930279911189717,0.06871650170275806,0.43382445990322605,0.1697085236265583,-0.4764072850322975,-0.5314267910899477,-0.4196357139781981,-0.5133517391431694,0.24574802985293914,-158.60033262742382,13.27304888579941,18.945218050352356,-0.1761752453112028,0.03203669774625585,0.21562158986665597,0.012615803202964307,0.3203180637497777,0.009732296476962499,0.16542105751310637,0.6780558430332098,0.39991951315270396,0.6814088922075415
0.21,-113.68854136403469,73.05487557737618,174.38771008293472,0.07067425645075354,-0.14843781868598926,-0.05300395575047056,0.11391167553950136,0.0932386712992278,0.26817438750586303,0.518586969880525,0.6774604624977054,-0.40413387305159965,0.5193747736998331,0.320781141076652,-107.33175031265161,82.49164516399443,36.70749849375538,0.11078629744208945,0.1692209315059024,0.16466974999647088,0.07364913931527003,0.24782462357188884,0.12479218684456433,0.5139346757924464,0.21735610804454436,-0.4142575432613756,0.34177096617904257,0.14010943654397842,-185.66808716426524,0.8575816934271684,9.317238663396433,-0.09943011293714815,0.17802907765524356,0.1484118154710526,0.14468970920042362,0.14452959436281976,-0.09457674580767476,-0.41203211558487796,-0.5028102437406531,-0.5682553725418342,-0.4295129412316414,0.17022887441503187,-158.76290783841557,13.462928421124278,19.10607912623952,-0.18669410399190056,-0.09758059850469275,-0.18208528137461272,-0.13866436468275675,0.10910258527140462,0.16532875309885653,0.6676962554076576,0.24873107739051498,0.2956091975413868,0.3531922528609736
0.22,-113.4008205478678,73.34809794961582,174.1784972539888,-0.06644090410086029,-0.17917682200147067,0.0383767529831809,0.07461771637173266,0.13317599609301672,0.011295351230529702,0.5320986994129447,0.35482287068480145,-0.5654801266457534,0.5174956622497552,0.13060260086656494,-107.36994872656199,82.34787577312042,36.564134795502916,-0.09003163813709492,-0.043642357458539255,-0.016661478046546108,0.3448872954797686,-0.2772141432694196,0.06850096331382156,0.4602883972235517,0.32969437221845543,-0.4360173938302455,0.49957675470195534,0.2199982435672491,-185.7523557459237,0.8883146080604674,9.418601098575254,0.054327007258826686,0.13350225525181464,0.09258338107866645,0.22792124183385473,0.13947666118149818,-0.004806001169377794,-0.5338384572769197,-0.5627930484489332,-0.5596613657669732,-0.4149318915058199,0.18990396992300945,-158.5798528488964,13.185727939012553,19.10991548685841,-0.0056263291549303734,-0.2073500647569725,-0.17599544697708158,0.005655764819855916,0.08791423860148351,0.2640915664608662,0.49216915620727114,0.33177665766994135,0.5376638718197543,0.4268776104863397
0.23,-113.38132289503217,73.24858758905098,174.34570690081097,0.056190489854317585,-0.017128213587754442,0.012500579609662707,0.04202654352251161,0.34450313820749534,0.148221011176033,0.49065201235344535,0.4755351710021387,-0.6149319895170857,0.22729281663431256,0.20155780799925377,-107.13962053831754,82.47016733476772,36.21709523703673,0.16866447492577247,-0.15026055981004036,-0.1590846168412223,-0.07374925986581392,0.06207079112312973,0.1868286335301176,0.6222523719019593,0.7429491248160067,-0.4685335649160234,0.47999219009102384,0.11185621041019866,-185.80761886728732,0.8386349561011013,9.347296293868093,0.004549644656904241,0.11914155376823239,0.025802774275176785,0.1256916880223348,0.1727897798018388,0.13775289780152836,-0.5841147084586167,-0.9157259921955523,-0.775562424007487,-0.5402964973063086,0.24121862000130978,-158.87692125152188,13.297307853823652,19.014951040733187,-0.021855849190683452,0.15347492362411852,-0.28802009896400266,0.18388222931774997,0.22574107087596124,-0.22061395946590728,0.757898601238408,0.430218222209864,0.3482311173826541,0.34771395030773294
0.24,-113.51410732127032,72.89211974786171,174.0803040181998,-0.03238744742832675,0.20636508875313742,0.057807975611906065,-0.031132871856136213,0.2560087780212716,0.13326858254343305,0.7074000091939232,0.27390351183005246,-0.8068199249098276,0.5008730889116588,0.27092920255580444,-107.34479977039184,82.20916254195991,36.49622989049934,0.14331038656385503,0.06560079410283216,-0.09794314448002006,0.01139835885641205,0.00478347922500957,0.15215874233659446,0.34513255919822605,0.5877611138416663,-0.6979454672953037,0.24528457691742375,0.319907815093013,-185.79447309779022,0.7728721803828499,9.436430329489234,-0.18780416286317952,-0.12764196596132826,-0.06943900732919288,0.10625593108150816,0.018608425110675328,0.08805889518431391,-0.5024650216496953,-0.3190562837454315,-0.6897646927996303,-0.5176113851026157,0.17381255802050394,-158.78444368380192,13.441821772041477,19.074229886151286,-0.06027295955502378,0.13317157066410598,-0.0077081741345617905,-0.24795878484719025,0.2141590895447048,-0.03693992717846967,0.33784272682834804,0.47995133244060445,0.47888006516241144,0.3768727309630896
0.25,-113.66007200555178,73.22424099591677,174.50459627700005,-0.06072227396798084,0.02650777314599892,-0.04170807151653277,-0.2153933900547022,-0.2025648266701331,0.1548999014643418,0.6924126970634017,0.4836632211753527,-0.549285734682138,0.7373510891848091,0.40815573420707035,-107.15099514911806,82.35955927441167,36.55533216770289,-0.001307803004147623,-0.03952286258215508,0.14101023794830722,0.08427673907880251,0.10451355944645503,0.0023736433508108057,0.4300903672590898,0.48545237634931143,-0.39347191586240826,0.4127488430847659,0.3007110944406186,-185.76305622940959,0.9670240323925136,9.39852347756398,-0.13191590306094425,-0.12063199415412035,-0.01036632341698647,0.11932824429868077,0.2727570398901281,-0.09177282724338373,-0.14783058291060347,-0.463120835015715,-0.6652949629221541,-0.5318671556723692,0.43796359408491076,-158.78833551480014,13.41430355730584,19.160904769380753,0.051461753374716826,-0.012920476711140133,0.17681495220769405,-0.0301036606532896,0.24295167655920052,0.142069653096156,0.37685487537359047,0.605958662295615,0.3424504088701051,0.5033144034074539
0.26,-113.38540560633321,73.25213199777902,174.23076664957517,0.04082547610346096,-0.09978019270756384,0.1392541058247527,-0.08847902692576147,-0.03557269601681437,0.11062519476476985,0.5626509020663426,0.5987146822833482,-0.4652524376713037,0.7158945510343849,0.337800356484653,-107.08792198193073,82.32376235914734,36.63147762989413,0.4468507031844875,-0.12135286633614117,-0.12498178361432788,0.16239124561267088,-0.03673320926681719,0.07715804225272986,0.2684627578575723,0.19485957573764964,-0.5820447159892718,0.5766735656629509,0.1985204265653739,-185.86103826807548,0.8993886334627117,9.222405891931817,-0.08857468141935892,0.08154780751883343,-0.101571147226437,0.1339595336632871,0.1300065242797289,0.015859006987451102,-0.2573300034397117,-0.5549525105868737,-0.45167340546499185,-0.5236111383758496,0.17334873819897423,-158.91916011712289,13.18872823201093,18.691912766263066,-0.048735861277177425,-0.06994640640005026,-0.36060997380774884,0.39174890693432224,0.3251715305865883,-0.0908064332383601,0.4345611524850997,0.46433564694977375,0.47472127546268345,0.761864793237095
0.27,-113.59900738355832,73.33387200989625,174.37780258421378,-0.31488182920287555,-0.02088755466801189,-0.04345012211387208,-0.11709611334663042,0.17773970092133298,0.012431745156929172,0.43149983913978496,0.349175245283732,-0.29893519369880167,0.5432890615427795,0.4753097913043008,-107.33863211189937,82.316164433032,36.84803611497611,0.10721370987644765,-0.05086612415059649,0.18902338468353985,-0.019638405841337133,0.04306083318746395,-0.19521513781807667,0.5191920909864094,0.5813887984008942,-0.5438229408990911,0.4667564945105527,0.24687856755942073,-185.9206024381356,0.838954161648804,9.15774165240029,0.2516867427139712,-0.12393711116875131,0.2662255478647795,0.07608967066298604,-0.016663089772050138,0.1660046897965175,-0.5819158785831597,-0.4704596990516556,-0.563972336482559,-0.5249529304018642,0.020556694405116677,-158.88430376544724,13.25829368459065,18.977928426071156,0.0507945205931697,-0.17785118789806142,-0.016252790344229037,-0.16032802407749996,0.22135896307142167,0.2226794754060403,0.6457340578038888,0.5720799272902128,0.4139304041104345,0.5985211937370982
0.28,-113.38601428371342,73.27657479423553,174.41681933882143,0.014388623395815939,-0.02406142941392199,-0.11091492260757294,0.17997241686345222,0.2861792721657577,0.02540812075040179,0.5266009360004664,0.7366953939052303,-0.46895342388070094,0.5973648106789776,0.4559157533207268,-107.36139563529962,82.21986781861612,36.69416863171202,0.28019749179293374,-0.22859153499882445,0.15599239452596336,-0.0656828868138383,0.3069338091669772,-0.2280788257167378,0.22240755412430405,0.6673977902101782,-0.28275202082449835,0.3276099271326513,0.4909660486828362,-185.7197747650957,0.8963439031702765,9.335068525735535,-0.18033927697658883,-0.2935434171886771,-0.026523093837662937,-0.12285516633649761,0.10887025116759719,-0.021496900563456087,-0.5720014549665164,-0.5514176467058793,-0.5203345357390394,-0.5740859748102518,0.4301924676543821,-158.94329382666467,12.948282673860689,18.87299063714507,0.020518090036850616,0.0945331493759214,0.13719539188228702,0.16253821043506322,0.01022267065953629,0.005678987129159773,0.40924106819706013,0.2828685871017126,0.38428534483040067,0.8229905263741525
0.29,-113.53028319041094,73.49228044803148,174.18998524820938,0.025776813040007587,-0.028339355431809793,-0.09196229456462666,0.018245319006977956,0.03910357273028059,-0.0947839803865824,0.3816814311310406,0.4996829587797703,-0.553495017158689,0.46081779942946577,0.35022885567995177,-107.14965254268753,82.48696337510555,36.61606483851512,0.1811290631665351,-0.09723042371743107,0.028218059310888326,-0.25171546339946466,0.13050030092427173,-0.10920893775140379,0.42370614766120945,0.5546804124171597,-0.47193376985993546,0.39450843887526454,0.17935643967596862,-185.90610708753908,0.819109440382545,9.27766367701802,0.07135289786730667,0.13050475361710767,0.01657478665140752,0.0586687072564432,0.0703953269913899,0.07110356348850339,-0.49312829545155884,-0.47689198248543746,-0.32004724643265564,-0.6267385264272936,0.09683029403597951,-158.79655171472328,13.453167413280156,18.89457786367004,0.0584962941066344,-0.009296398641801214,0.028519001749431158,0.11647356064755045,-0.0265993431988539,0.12025065533288053,0.36940170182466464,0.639533561422299,0.30848238597396405,0.7346354352645574
0.3,-113.51027367531054,73.07594256160039,174.1935055257509,-0.27399673903320715,-0.18726023355437116,0.19739481606246922,0.03174769292344366,0.15987942401486777,0.18881360721668153,0.27138754167724083,0.6862526811335486,-0.40222523451596914,0.29803969514263723,0.12774944161194035,-107.46016611693547,82.4688755435512,36.69998879890337,0.027869266143337817,-0.013812103037093147,0.24803859777039244,-0.025115264229459915,0.006024418169447904,-0.028071904033607015,0.3823509152273369,0.465353938037216,-0.6190623807171665,0.4637806854741053,0.35064340932742244,-185.71221790336062,0.7245350754495533,9.23858033634065,0.1822057486136682,0.22740503995783312,0.011039581765026566,-0.057306271907315125,0.06829871122477327,0.007659475051260675,-0.4492925215709903,-0.345766675519706,-0.11146566503506936,-0.4875992773679509,0.3789087374459031,-158.67490542056237,13.229261956895026,18.809250835159688,0.014692046090298838,-0.15396509040577216,0.040450883376973217,0.06294485424130322,0.2330161542674294,-0.1480144578063185,0.44375865108501633,0.42051702494941295,0.3982218673030858,0.6537198930982444
0.31,-113.39826025943366,73.14853480179217,174.39728100279152,0.13063975027893682,-0.04426445934106964,0.08722840603552627,0.065827792267526,-0.0677481073612454,-0.11650751553009836,0.5117690381493522,0.3810386415705178,-0.5060556115272241,0.1881668208375286,0.4933631993396751,-107.59975788584455,82.3008338497156,37.0683730735477,-0.21573545840189762,0.32000229874573877,-0.1186303206201009,0.030868140905865548,0.1265232348717762,-0.15909801721836495,0.45478375360509193,0.6137391605157011,-0.8205051409511697,0.6162760638346018,0.2908819043809584,-185.94042156600864,0.7891341472351946,9.40455160878989,0.0934682778857979,-0.0841494035770914,0.06054111418662502,0.21319997125658788,-0.026487747431264662,0.05634863668258466,-0.544209120578918,-0.5710760290758942,-0.37935816959596186,-0.41070804096614455,0.44163819374667485,-158.66213114305754,13.36703357482666,18.690745789527412,0.03727933570900122,-0.08733702581920175,0.02682667125812177,0.35551103860100897,0.06329699786925969,-0.12403430308658862,0.4639130115714559,0.5100333817784781,0.3262430543476771,0.6345324373481843
0.32,-113.63825074419846,73.08901250389992,174.21551427986907,-0.07752182563786644,0.0022191445399817877,-0.04625840820177403,0.05203997524477834,0.05146281733707511,-0.07431935687735158,0.4606542964386147,0.34246027461062273,-0.5151813110723875,0.3884381409392714,0.30335108101784336,-107.43633951126768,82.35062488439085,36.8843402753839,-0.09270700351824311,-0.1508667550842107,0.05236217263084901,-0.05770632012530323,0.08297904646317221,0.035542944403404456,0.6263506603636623,0.6679515481872392,-0.6004394298384296,0.6199877158140007,0.22001523281392701,-185.95709402447758,0.801081834960221,9.273936841895992,0.3524936833470132,0.34924051716395804,-0.02829272003543761,0.3325048740296197,-0.0012678972461093382,0.0957351869285858,-0.6701722323172103,-0.6163446854138286,-0.5599774131325466,-0.28011780915921547,0.43631797635505565,-158.68219350309923,13.1873929468964,18.83623568612103,0.08388424089481195,-0.01176263954459704,-0.12234764834574827,0.16370559366116244,0.020993235517619693,-0.1807332179511304,0.642289756897502,0.5095837016117665,0.24111899360859718,0.606872884519986
0.33,-113.72454084138666,73.1738970887982,174.27252496885112,-0.20356855197447926,0.06977598832974577,0.12255097787114891,-0.002334136339866578,-0.10366177487490418,0.0336520535819708,0.7906761601954124,0.3647714795304443,-0.6076307440577108,0.41704670530047,0.19622141649682456,-107.47608647830327,82.49649900022,37.03329863728635,-0.11694039571883905,-0.2324307354340381,0.07403279918435196,0.06472909314166728,-0.33977849127572374,-0.019138032578041378,0.6071368574828737,0.5903640913410528,-0.25391689892332536,0.7620161731725401,0.24959183241071706,-185.79098142621697,0.6364231769254695,9.325779677393754,0.020017239496868657,0.04431316276900669,-0.11319805621658995,0.30263474683682023,0.06335699596692866,-0.25657821200784253,-0.4948178824213051,-0.71106151489066,-0.5555140454712959,-0.3703155550107324,0.44728045094107993,-158.8092570070623,13.127285165639204,19.07297152659469,0.07528713398513409,0.07730691327255625,0.09877826715966331,0.08834085900800678,0.35441737873697526,0.1281929006062694,0.5073434495535676,0.6109681087647192,0.45210261546036606,0.6866317417000918
0.34,-113.62147244865388,73.10831710584482,174.36907886654524,0.15510615137420497,0.05808134291466803,0.0012457420933714158,0.010817691782102283,0.11627571084751188,-0.12296384093502352,0.6828301565973096,0.502758521502878,-0.4466999618476831,0.6675050759720187,0.36399000576518376,-107.38321946213678,82.48809286599067,37.03823789218731,-0.04307184082816351,-0.11124606618254178,0.24299561546613677,-0.03639157759271758,-0.01878548403157458,0.007983882804786624,0.5847896073476526,0.6456345630790994,-0.47659749591501777,0.3708360901953168,0.39912733358291685,-185.74092195024025,0.8072633546380119,8.936653284016257,0.05310283685741586,0.15078537131978392,-0.1106045498307761,0.07352110558276553,0.333748458434947,0.1887939615540094,-0.26495576368784063,-0.39317600519257234,-0.5382957190954135,-0.6451704682166559,0.30196814370783187,-158.691179860782,13.326017825667769,18.60178660220807,-0.0965378781484134,-0.1089558444427289,-0.0742804456544372,0.18069516185483964,-0.05003805964788476,0.07228964051501276,0.46266506613755803,0.266719333182283,0.3281898695061433,0.5744996042036997
0.35,-113.34919684079067,72.9294870922625,174.47740079429084,0.09945156382141221,-0.2509452793270821,-0.04803186993629835,-0.049470937279373864,0.06515437728010023,0.026874122088282854,0.2931319426105299,0.4844685398785668,-0.22268186624816605,0.5793463660336748,0.19834337960436194,-107.11758932888263,82.52800104934241,37.24531775888783,0.003082698732065084,-0.18192703137682223,0.014255964360899626,-0.03329251278561225,0.1400268112931825,0.014642261800152209,0.685784063498367,0.296520119377134,-0.497550893931362,0.9066672964632075,0.2527143965366718,-185.90395532626738,0.63110808466971,9.064510367045871,0.24526189771626222,0.014336969499735702,0.12157348058252972,0.09072210190005629,0.11210283742986793,0.18675122785025694,-0.5241038813599697,-0.6364915108230184,-0.5843270748624754,-0.4118954517489337,0.37694324175472876,-158.88350013423977,13.221510897980654,19.04719164557268,0.02696749116214983,-0.20642176906191897,0.06069712539030505,-0.2521145613088002,0.13911115992683973,-0.09026356332564081,0.5527187048187377,0.6788190178791851,0.5423106401274262,0.34969839659182106
0.36,-113.55239606420318,73.13639923148598,174.1981720163099,-0.13589338658697903,0.048039448795684586,-0.07930061504958998,0.37966490927062635,-0.10896211885997185,0.16498711568894148,0.5163042082949035,0.48375117261882794,-0.5544193457285586,0.5313980399552155,0.3332625020166215,-107.56648090363295,82.50416247077925,37.12268307852948,-0.12507808932881584,-0.02711204561885843,0.06130359419316328,-0.015826484885780367,0.29705871584138777,0.011047158357119002,0.45070242099191243,0.4642496719446289,-0.6395885787205208,0.31269410094743144,0.3998081882407385,-185.6100932981572,0.9909958765880958,9.206700925022295,-0.12508330929172481,0.14679275086255006,0.033259973823673225,-0.00011456246566746153,-0.00689330606763636,-0.22770490026312215,-0.6840416846861106,-0.7083447271763296,-0.33122001892936137,-0.5658217805868755,0.5490319147538776,-159.04470492977174,13.212777682945312,18.85224443820268,-0.007003238883515311,-0.22069311496179478,0.016269209469672335,0.20983129409515117,0.1190558935772728,-0.09931659645131809,0.5577207567252663,0.5524214743556063,0.4635995406367264,0.4960960033823481
0.37,-113.71409818397912,73.30066400079266,174.16494940140888,0.08982610138081432,0.17779127156876323,-0.21623619753618142,0.015625337067032355,-0.04468149828623921,0.13726559404197328,0.3502025618002082,0.6488195126336638,-0.49810237250286943,0.20044493456139512,0.4709021027165682,-107.33218931367583,82.32077107553496,37.18336485209683,0.18413444403773171,0.07831550088514103,0.056804480144137456,-0.10793464464872247,-0.10108254553213988,0.2268559916715245,0.3203634542931289,0.2963041771317203,-0.5428827574657534,0.5378967683698161,0.37769624931626394,-185.8839826516829,0.8342612042477091,9.278802212461265,0.05631249337056342,-0.025875071365030367,0.08509646221595174,0.04296860987531145,0.163770306625531,-0.01085100767093411,-0.3096101381680734,-0.5971016620629197,-0.610345212391807,-0.20058937887310402,0.462955954272002,-158.61030986853666,13.207537994436615,18.785519796421823,-0.0682836713429893,-0.011270949548691317,-0.07435062493986166,-0.01977156110542664,0.07148627729849506,0.02474345213523528,0.40623027012684076,0.38439128996461847,0.5808647801217446,0.500638515659786
0.38,-113.63262023000338,73.09500416071518,174.12512465205904,-0.19396676163506607,0.13591403873217242,-0.08005780024070394,-0.07436539619652797,0.16417044814709045,-0.061368552953896455,0.2572477116036182,0.26822768738382174,-0.4485223064503739,0.5696605015063819,0.35373205232802235,-107.52523811893661,82.19577127364042,37.3337548410276,0.09274111629260469,-0.07165518444555574,-0.0843361924552881,-0.016830386737445982,0.1911392247548509,0.10921184120570854,0.5849814216355148,0.5093458985161685,-0.5194168466555102,0.3619787314878196,0.47702589364265946,-185.9745798079093,0.7094489027990394,9.329208352111914,0.2236779486879269,-0.1461770082680965,-0.08718732455292626,0.020228512971597,-0.03334299474197487,0.015120076011118921,-0.82113620269383,-0.5722386928065798,-0.4986665565560094,-0.6330474447216147,0.347602298951354,-158.8704133144347,13.246470030605833,18.877864637919924,-0.15375199762624905,0.3331637168345056,-0.07181886246623329,-0.07324933231633851,-0.009507834700106785,0.2568350000886433,0.4199876925290289,0.48410248408566764,0.4900250933081112,0.21723949918647728
0.39,-113.43021427040803,72.95799480949358,174.20293285737688,0.1595049681928222,0.10085356688033968,-0.1268818452307646,-0.15834648317354044,-0.24478033599325222,0.04400263115290676,0.6094377274180961,0.25758382173147476,-0.7499791775837198,0.6109834148217335,0.38690445653328615,-107.10315903936443,82.7542004720158,37.56653932411773,0.1554060552602023,-0.039223081101740116,-0.06783107921776417,0.0607010985722481,-0.0044581856730643785,0.1401730208155137,0.3868731245190615,0.5751830571574501,-0.6471339779090377,0.787556305301462,0.43587957852761955,-185.8928820668873,0.7244466927915733,9.233151839265272,0.14024310819973226,-0.010551278235236614,-0.04610430457187225,-0.1334754065663033,-0.2618234524734315,0.12617129804680327,-0.4083565614103719,-0.5237891320016055,-0.3754863320763571,-0.1974071265282802,0.38196194762254154,-159.3259768405066,13.232914402859745,18.625344220869216,0.23570101021846857,-0.033531396087838526,0.28560596718128023,-0.06652240047220503,0.252013463361786,-0.035067108775434355,0.3363325742310067,0.48764971628587284,0.34989266109455053,0.5755586832736314
0.4,-113.4693403568003,73.10617875513238,174.0958002127772,-0.08072416596146077,-0.035368589824217554,0.1684391953022507,0.11461136993487467,0.044199528944833436,-0.028967207899918815,0.5393157684357134,0.6854326873569514,-0.43083001503013063,0.4021251156056847,0.3046370326095924,-107.35481919508625,82.67398819329034,37.57176421789725,0.01651629190507367,-0.133048284846286,-0.007062081448201862,-0.08101096087957613,0.06832968461033666,-0.018562025769529034,0.48158379644351457,0.5960986927465322,-0.6739991264621161,0.582543616247156,0.48608729155259256,-186.0933905445355,0.8851922600909551,9.207783136104643,-0.1263117547493168,0.15932626245895667,-0.1477155704379354,-0.19998297501845919,0.06198914764199953,0.46651564925857353,-0.3581270519603079,-0.5167417770790661,-0.5046975216136151,-0.6143592961315385,0.6224978696161299,-159.0879397943424,13.482241592460491,18.915471286972416,-0.21682688402902217,-0.04842271994142908,-0.009277241431391539,-0.05425096684869361,0.081524102825829,0.038988374300339156,0.5191255704354877,0.34276957170235517,0.45779425760275905,0.5754466984636286
0.41,-113.61680568480169,73.15975535011043,174.3170862888019,0.1297541323569856,-0.013092772726201275,0.09779029152512866,0.4342744847186065,0.2720819218067987,0.12525970991033167,0.32929052188917085,0.43679837281754136,-0.6482731421425597,0.3698837913566978,0.34585998281254454,-107.44031530174614,82.54988629282545,37.67652248972853,-0.07221825856174421,-0.07477668333626916,0.02994621398825663,-0.3534215529390421,-0.039408279421978804,0.33567183870409756,0.40702569824517776,0.7120308439469124,-0.8473843755560462,0.6839808824889957,0.5089057373863353,-185.92913340130752,1.0680179975747277,9.024660381904711,0.3300158017502152,-0.026415854738560923,-0.008715673573487112,-0.31754114456011795,0.32685065400632696,0.14000179802966678,-0.6742810069634227,-0.43539525775163634,-0.23793867101450314,-0.5573800605961119,0.3845810315459831,-158.98273850619543,13.266227896421432,18.88980444369357,0.11846345919167371,0.14965624921080606,0.06354162428392211,0.25985196443615766,0.12370136158472077,0.18883715055117573,0.594801343897392,0.6900530155446732,0.3858292193265821,0.4587048677216109
0.42,-113.69400627398294,73.16766494726842,174.08106285107075,-0.002546613514797652,0.07124691774916647,0.18700039054755907,0.1393850340105151,0.1491997299497395,0.5408540981321988,0.2164907275600908,0.35166730782418976,-0.6657887535017054,0.6340508215502954,0.6530016105971218,-107.53808594075373,82.45116962728807,37.462810957289534,0.11518853355263675,-0.030266403259560783,-0.03949155468638715,0.26624877677778613,-0.13817017385139024,0.1043044886512328,0.40533631532534004,0.5517021785165246,-0.4453409775674163,0.5816208177416835,0.5071640256071579,-185.93933873678546,0.8435609119106617,8.770658848712491,0.18096106770823916,0.33512404039378585,0.08859923587952429,0.3062220006366909,0.047456509076252464,0.0716772816217636,-0.5085886950799241,-0.4247125578080486,-0.5366291112945836,-0.17851145479459138,0.48236811974654026,-158.70660881155138,13.101224593475708,18.63666088465628,-0.05136777623030219,-0.15660539590253317,0.35360804812457425,-0.13154257766209407,-0.0007772715001785908,0.4062620213360714,0.3482485480881818,0.45124782764391014,0.34380601329085086,0.8061618211728081
0.43,-113.84047021240073,73.54935795982767,174.08594312207146,0.25816488365525986,-0.001381274866361075,-0.19679791964577625,0.23356059583497668,0.11923407822169763,0.5252823946715627,0.5552033144030133,0.7314839438976073,-0.6725110053360048,0.1397769264752093,0.38486316364766393,-107.29464750954422,82.45899564156265,37.38946480619104,-0.033382674834963225,0.014245393490249204,-0.002732081074296972,0.1290942851574563,-0.027632371307286532,0.25755735014695025,0.40654297449317445,0.27506034823135495,-0.48177498867617785,0.58211326696705,0.3984710727164213,-186.1481394996087,0.7158775245231911,9.102493436482565,0.11830182932835787,0.1004427332674961,0.03502287314803837,0.6578458041700913,0.10809465721033337,-0.13036524652350587,-0.574082049287911,-0.5566113398093457,-0.6617709143615763,-0.8014768728664056,0.5037373220941141,-158.74496850745763,13.176759679651326,18.97711151449858,0.046178874152179875,0.09242446972830583,0.1535611196204813,0.35456592982030644,-0.018977460786571393,0.007019367132263421,0.7353041558283934,0.547057004600199,0.6515327768353778,0.5312315522395761
0.44,-113.64285290858099,73.13718969075317,174.16452687316226,-0.2623890286265617,0.08910942084746727,0.12491889080869795,0.36556781999792964,0.3237497691378519,0.6379583338498868,0.4809378477990916,0.4235182174482805,-0.44916863435965976,0.5208233689258968,0.41715469699724333,-107.28082719551367,83.00259934563859,37.64436046558198,-0.04203515393025395,0.16420216892656364,0.24800130245852348,0.05123424381113532,0.10004582127255215,0.10280834393745203,0.5063061866072599,0.5750741639594064,-0.5737872283736375,0.4693859871672117,0.4755407606600222,-185.82427281439175,0.3440480960432808,9.083067415474455,0.0918524148982433,0.09815713816444599,0.2798305062084524,0.560915403616024,0.21166406353694162,-0.08652519998006777,-0.6901577062116921,-0.6231658211570053,-0.4730230307447786,-0.5249610258938112,0.41523848289644966,-159.0559351160944,13.011485334032969,18.576170591841286,-0.37367753008134014,-0.07558210904155943,-0.1403048713054348,0.6977441228887056,0.2429230541106779,-0.06688932181173954,0.6150925644751195,0.2871698428741932,0.4655767065334795,0.5408408650113065
0.45,-113.86116151525886,73.21908155113839,173.95432284310482,-0.03827250177139303,0.2974596762086291,0.027931284635011534,0.29712268511746226,0.134740169482966,0.5614393626528402,0.3950017946904687,0.19580331021188424,-0.4630202095875495,0.358003599504982,0.581406200754897,-107.27130098882836,82.60245210063164,38.23808518276458,0.024655620127827828,0.2298273490016107,0.19082854852934003,0.11096756786418853,0.1648351250418121,0.3402848145080432,0.45130760289394384,0.6217111068985459,-0.39616967201366426,0.592625144330879,0.5321615509611102,-186.34019713266008,0.7924784773457572,9.090973138739143,0.28337062957297987,0.3803921624393369,0.23011314624713214,0.3635305320828469,1.2060693980521573,-0.07064780663523458,-0.42763107669991307,-0.3789917630843259,-0.4161143920630658,-0.2636092299750649,0.47566260110251446,-158.8676780978128,13.170047137967465,18.721647509401297,-0.014053834774141726,0.015170197258498871,0.1983916170932672,0.981575381754239,0.027181782611705094,0.2402512898727353,0.5196867705964637,0.40818047508590666,0.4033679008591753,0.4756098369455893
0.46,-113.7219373407852,72.49022706050688,173.7889976882324,0.1714752046865597,-0.020102989140664954,0.08216326992897792,0.19732203184237102,0.10900284869877519,0.3722270079104377,0.4900311275064447,0.4752501501408806,-0.6395770131080917,0.5866305443440873,0.6532259153276795,-107.28283548269992,82.7428580235232,38.61582965057283,-0.05087931865635695,0.032754779804746864,0.13582753324860983,-0.19357823811075445,-0.2226127302012851,0.08394951888353197,0.5632314401513149,0.1607555655963327,-0.6576990314964236,0.4377427142959832,0.6850629810206011,-186.25614803926254,0.1134187541946991,8.938330157363847,-0.09443528278852806,0.15405529944278717,0.10635249353288123,0.43920793854147916,0.6422306349424458,-0.06439882268044984,-0.5990555433559824,-0.16819095206256554,-0.47122915700908585,-0.5232516678175712,0.5826116345574756,-158.807480433689,13.110404650093285,18.893723208186454,0.038990465063448804,0.0013061462116571165,0.21598053642806084,1.1456714266227352,0.49566541158726574,0.30325742953192536,0.24170305772371098,0.484895961885264,0.4061394686894776,0.4863112851425764
0.47,-113.97194965382451,73.00629493679766,173.9090596277472,0.04006630267275435,0.15957671037791682,0.044424557215753245,0.383306587947352,0.1351806809122948,0.44039476927404053,0.5170875297113277,0.3251234306887292,-0.5413614234542274,0.7686559411750539,0.23348543098907912,-107.46140533584965,82.84687184419167,38.607145610912134,0.021276877848315744,-0.08454308864685423,0.066141208443128,0.2306047727459469,0.3018946345301257,0.3554625744702996,0.24731240362543186,0.49708965509931863,-0.533314776884814,0.56349897268497,0.2258322982644665,-185.84490784926186,0.16835403059389983,8.768625166572868,0.29001160640981954,0.12763120922281063,0.3099726395231423,0.23166841972121568,0.6146867560841784,0.7791879183549587,-0.5203658141303663,-0.6532216791585531,-0.5180135780973939,-0.4040949862220544,0.26527408675109987,-158.24924168620186,13.011931812283137,18.897331517559124,0.10801177686662719,-0.12129515030399021,0.34455479423486335,1.2973913722427808,1.120242132272546,0.1283545540088116,0.637895493418547,0.6173721973849378,0.5781615169717482,0.6045536179872966
0.48,-113.86789149107675,72.84530993318373,174.04305993264708,0.24374534206566592,0.1453978941513276,-0.15617168823087665,0.17916519366769224,-0.014876962857189278,0.5232844673840956,0.3773764510155405,0.4843797461208543,-0.2993830207484021,0.3294940729348875,0.12831859582771318,-107.40542318106618,82.87212570435229,38.51301410978201,0.07981264404268644,0.2076857353439119,0.12422590893789724,0.215082836072382,0.46762652789576736,0.5448099788564928,0.3221239274726322,0.3737717811072601,-0.5683653058750495,0.5174162716578579,0.46484895091459294,-185.66382148439916,0.23180398960880835,8.976092577394638,0.056467804263635096,0.3588769968589859,0.3414886684303326,0.10891682495661495,0.5566006515886839,0.8757123056182682,-0.40326447431481366,-0.7202456535625662,-0.545447614370022,-0.6182165789012511,0.48691164429626876,-157.99848203688222,12.980074867657404,19.02057242400084,-0.012914986215008015,0.1845686117524351,0.3683564301091633,1.6311892961128258,1.3235688756407875,0.240448513319827,0.5628873464059101,0.6036590272753605,0.4487719000091348,0.4990447568301043
0.49,-113.79240292827035,72.95398485388475,174.31545438268324,-0.10634594037489556,-0.056921585858842966,-0.035644619470425326,0.4757099830585496,0.01898553374274418,0.7298056940890671,0.5635361788912986,0.5902372278354097,-0.2934267899261713,0.47974209430246845,0.34721685480056047,-107.48692867818795,82.66824777668414,38.181699830687535,0.05921771831673275,0.23077793583227274,0.20304448254045857,0.07972873415451329,0.18839365367186284,0.2252541485556272,0.41502039884722497,0.5619943293386912,-0.5591197229002908,0.864527825182647,0.5535459346321716,-185.93913856220874,0.31287326469958077,8.911121618834699,0.1642484892979887,0.17204651418710326,0.020227370758284985,0.16088868688609434,0.3649741810980596,0.7296609475737955,-0.5214522660930435,-0.591739030709284,-0.45553592211406146,-0.6549789142717315,0.7108085274159397,-157.89863418227316,13.319701123886269,18.98563493376104,0.34693468844669884,0.08088238995305702,0.5489206678794801,1.5887380167059535,1.6060689556623493,0.6349780636178589,0.5677019681579103,0.5040951485803851,0.5695918640785447,0.5735180724073669
0.5,-113.77761957115537,72.8229950481542,174.03307894611223,0.39663471235928793,0.05566151656434376,-0.12744092650901143,0.2516539705204579,0.24246575352237842,0.5675334083498844,0.563522113005202,0.5178545117788169,-0.5712530596917741,0.6009695802095826,0.6768823984839333,-107.71030856639193,82.88640612064746,37.81793785396981,0.1483935545739334,-0.06411467471437371,0.04028509505287366,0.2915781161013225,0.29878708783019714,0.3252475423287253,0.4263890867767097,0.4753631383256792,-0.47280887431661867,0.3871754263925056,0.5425335509258471,-185.05917812200795,0.504345800917134,8.702731364033836,0.15569929703938026,0.2772022192796704,0.4663814357397504,0.46850423578847095,0.26527014948588,0.43602636424955854,-0.4874614575519081,-0.41175361865569987,-0.4050811044140954,-0.45933672986996515,0.8306563320632848,-157.2964115532812,13.188322178185974,18.85468035541457,0.17940115633434167,-0.1320572559470438,0.5662006502749646,1.0857164690629755,0.48556601795019827,0.4969978307777101,0.24062120882253965,0.4840516486609507,0.5687278982578481,0.3807363804387143
0.51,-113.65439166362873,72.16052482137869,174.11571841192165,0.043020990377382023,0.2391765875357597,0.04088963126782347,0.3247405732904566,0.04975929539170529,0.7091911556614051,0.6268241865529757,0.4870237424809374,-0.8387970730909202,0.3623098926903211,0.7930904088833455,-107.67251056397009,82.89120174296382,37.512397357175864,0.0409217170207119,0.11845769595578301,0.15797678104851434,0.05210390922000541,0.24069832974758038,0.4303881186566991,0.5127488104014897,0.3886677518935238,-0.5773391587672556,0.43352222949294544,0.3823956948594784,-184.804911538804,1.0545765683724773,9.003909170833374,0.05001885629003534,0.4074614117810401,0.20581468009749054,0.5928501378190427,0.2884329364412251,0.2748853091829763,-0.3326015521803787,-0.4266156381134011,-0.3063719640071543,-0.35460117255299195,0.6076306460256212,-156.92548543244044,13.847310831148079,19.216609234162796,0.003916879980055894,0.0971155592401233,0.5429910451364827,1.1112952210818938,0.49946571170006787,0.2953095216738544,0.6880825611452142,0.3885734073659783,0.4958633675986754,0.6794623229316754
0.52,-114.02794978193853,72.46840362903794,174.16550978342428,-0.13245053827561692,-0.1309938165553659,0.03007209230207051,0.16757002742582738,0.4165516267643995,1.1650602296741754,0.4727018830691152,0.4639598893931907,-0.456620597024135,0.39433500252422715,0.3581676438955464,-108.1910347164261,82.94460654228872,37.483024240246436,0.18327072950165524,0.122884495449464,0.01732091724349217,0.2575867685810562,0.29136776146660126,0.3186024629872559,0.4649729934975849,0.5784166146238656,-0.45615515130219403,0.5137581581251462,0.7559122144165271,-184.7958826806485,1.2053386139918365,9.045154781323927,0.1709149291463858,0.4419497233814047,-0.01746907295106094,0.9325190060220001,0.4763125503329918,0.14583803409498433,-0.5436472829190232,-0.35132507223597553,-0.5373801443834343,-0.45743261507320343,0.8092851050661165,-155.914649475999,14.364533579071432,19.211413235827003,0.5163580104748253,0.14583361320646926,0.42937163010264245,1.3820059177406623,0.6628286889603185,0.16820415216701354,0.4860732815080292,0.6801063267283366,0.5875978613463093,0.5001738675212977
0.53,-113.70171317234718,71.82912864388234,174.21423668275827,0.07694459249297164,0.10696979802830213,-0.019149854784703498,0.08252480730217916,0.011899489505487582,0.736568217782216,0.678829971745922,0.5631330552319518,-0.5739047072858781,0.5860857473617476,0.4775446260295163,-108.14185341151097,83.29511578762028,38.05282237316124,0.07366532337264468,0.21645090363142183,0.02220187494549869,-0.2616429236526775,0.2990652059109509,0.2264169182898599,0.48185562598996257,0.573721922756457,-0.5284646862890533,0.4531602057396503,0.3669562140229278,-185.03699453749275,1.6602098317244887,9.144873204039174,-0.1819601735950438,0.1406985609361892,0.05500606603119013,0.03972115491595343,0.629428578824585,0.19902021710285883,-0.5119937698830458,-0.3909852326887147,-0.47047348565728786,-0.5100557604635196,0.5559610923728224,-155.4620029202961,14.662971478047758,19.52331712024676,0.3012968459757934,0.4117611714213405,0.34512887230662115,1.096993712063975,0.7170224842909108,0.18612063999725553,0.26186069510338655,0.5050387220731879,0.6595376211149093,0.6677979745740759
0.54,-113.3434555195637,71.64476812853394,174.19842785160475,0.10576505686053515,0.079919600382797,-0.01949900268165432,0.5723767712337764,0.15705264345422199,0.33903053655824555,0.6339054451019146,0.3155684185749201,-0.3449406202382427,0.5902212464070267,0.554848445561377,-108.08497929475179,83.17902142060636,38.19404336682969,-0.0342780834611732,0.18866538396099597,0.36856302423065757,0.1542102702686185,-0.23515456055942235,0.11953414208114865,0.61256443723599,0.45238650085123133,-0.4020852322608321,0.6363009284730516,0.6399270038522434,-184.86464002671795,2.24607497652718,9.027013717690043,-0.031122201906737555,0.6474547587983891,-0.13643018009315086,0.31778586806933795,0.9255877367172696,0.24045549369431377,-0.6316602168592778,-0.2540875155423396,-0.666409097524011,-0.5582807510825929,0.662307748262156,-155.35658491501007,14.961559794297896,19.774260480532313,0.4316425451923321,0.41392094828457654,0.20260985185137917,1.2240321560904392,0.9497554078790272,0.5386738977143949,0.33216196069097903,0.416502348525991,0.5386776674339557,0.4929635673271815
0.55,-113.04228795991875,71.51233188943851,174.30385747145354,0.18121751815327491,0.06080978778900899,0.09222145377910096,0.6850957792300345,0.16749834976523525,0.23241752700822935,0.5377540321653179,0.362796785064134,-0.342394712603273,0.6006913042272609,0.43757829029947454,-108.11187578077477,83.67989523567405,37.828310934495164,-0.050935677747186686,0.48910570808170367,0.1416400819922996,-0.09686434614566844,-0.00485620682426402,0.547761674687655,0.4963582980064886,0.5102314538725364,-0.38525857343042086,0.3861645022189014,0.5745203770623317,-184.7061007221772,3.0457591610564303,9.568536713221523,0.25310296684624184,0.2266833828910881,-0.026207499985608174,0.07055207065412195,1.5143455310597225,0.5950247529390139,-0.18009173332572265,-0.4195321842071631,-0.7760580833856175,-0.40270586765647554,0.8068420677941665,-155.00784305298617,15.405412262579258,20.193626156670046,0.47359361467749655,0.3696999282667093,0.21430331773542483,0.45502346454207265,1.002058455045796,0.27953025262242714,0.610876937634607,0.5191984845879424,0.6453512351872497,0.5454732275230886
0.56,-112.80407360794874,71.03025324098053,174.59588928515066,-0.001442135228882306,0.23645250837623413,0.08329353359135547,0.6592668980954138,0.21891465445545122,0.21255592314378746,0.48229375158126686,0.7504421934622726,-0.22424907669292446,0.39175889246513124,0.6249097976173924,-107.9585756622397,84.62000720100075,37.86995487125955,0.04124723840416336,0.3494662112274587,-0.09818588286482635,0.5064664519070671,0.15924918418931525,0.236871038810133,0.4918789065885359,0.33491252773046826,-0.635099130651374,0.3478648013166322,0.6490626032525272,-183.66456636828931,3.52268391700533,9.566429627519767,-0.14485983493062382,0.5426438239676806,0.5449801452212149,0.5388990529095214,1.0314329677068477,0.8049405404030116,-0.5829242974084601,-0.5290487082067075,-0.6024033499156275,-0.39102770526833863,0.5276445660532113,-154.55980140331437,16.40054964187511,21.636517534018644,0.5093104945614484,0.31554131071610836,-0.07117703308898962,0.20980555266225723,1.595297891039635,0.310317017247128,0.3489227834253297,0.6618824118852783,0.7062071001221851,0.6725988616701447
0.57,-113.12744152882206,70.34701252764536,174.81158239494098,0.20741277788463708,0.5873659694616415,0.24800966474752068,0.8692755054086044,-0.13652432505167625,0.09834811281527317,0.4913124656249304,0.4356275630203755,-0.5052877032922258,0.4986640659400404,0.5829668998328883,-108.03759056550305,84.64247638512924,37.916438905043385,-0.05663368680004084,0.584715073504654,-0.35338177974741963,0.30295687926435705,0.13088318063272364,0.11190100922947124,0.5605228568321442,0.561600934530825,-0.5236635830506013,0.19728305586842115,0.5951904495487336,-182.92364461706055,4.3113178642397125,9.063451133072897,0.13972138583353894,0.2243628025120288,0.483736184752122,0.4104932272847431,0.8665753112358586,0.777084770091949,-0.42599567934810045,-0.687076702143203,-0.47244696879187903,-0.5405417324816051,0.6050988498025345,-154.36436227081632,16.964437294398603,22.11001794076956,0.659254904183042,0.1698613827893552,0.26112643468311947,0.41184579449310876,0.872436385556714,0.5244749099608217,0.42203733841593555,0.7209999586143491,0.3851552315876763,0.304839910723927
0.58,-112.71114984852476,70.277091047192,174.82143450293273,-0.0065440179445099556,0.42055842790204245,-0.07342382153535124,0.7955839001359697,0.315526591708737,0.12970486357158056,0.48535688386947706,0.6399529866532945,-0.6321347433064061,0.4654423565171004,0.547710567116463,-108.21183122002165,85.14348294201639,37.95752830300093,-0.14699391679904253,0.5747563334969096,0.12341432871129188,-0.00825527243882583,0.2287691641773582,0.4697707018276649,0.561068507173202,0.4362497740525733,-0.019063204376132487,0.482498950833814,0.5311842514667853,-182.01813846688196,4.584354296386508,9.301427388547046,0.03868707588815007,0.3008367352388466,0.7642760582902802,0.2759070131619349,0.6972531115474693,0.677891488391665,-0.6004493291506212,-0.8734005832046043,-0.5616050311935681,-0.7531076450561096,0.42395519449312796,-153.27795941702234,17.295767428277998,22.819035006103224,0.4368309640464724,0.34382953105559677,0.6967550696691768,0.3414679174650813,0.9933028347511985,0.7278148249461394,0.41302261097231113,0.5180306687893329,0.5652248766491836,0.34997471347195513
0.59,-112.77890949916105,70.15451001212492,174.65163701383162,0.1989619319642473,0.409499353375049,-0.13010621624318908,1.2057443898586448,0.22185549739616273,0.17705977841992693,0.6374400970227574,0.3703588985756081,-0.5767319826126731,0.6818173706907865,0.7074440552114172,-107.94568774725283,85.51907574481748,37.74246146381089,0.36568316971049664,0.4132271755812996,-0.04323923562318298,-0.06516068173344518,0.015979596443538843,0.128768261626602,0.5776322483196946,0.3560098540923678,-0.4443990975181315,0.2964229365203823,0.8278243755872595,-181.57050973772223,4.704139256282021,9.418312769024775,0.1147338647487371,0.2190837469587529,0.46470593573151125,0.42863210757597503,0.5423071101302525,0.6240261305156676,-0.5647554414310235,-0.6825581400218935,-0.5759637969644837,-0.27652644461554826,0.40361500013535995,-152.8108612458624,17.782903565078946,23.003413843440377,0.6537532232935138,0.2897861827921113,0.872934358800892,0.6852611779646981,1.119269195354359,0.9618153713685575,0.906358953740565,0.5660903694818286,0.5639260715305018,0.5400436373007993
0.6,-112.88206048846656,69.19601130088317,175.19658440726906,0.3017008920701435,0.7914976377768316,0.32720617191100954,1.3702661236774039,0.3345329226343303,0.4867097291739621,0.6108216314841745,0.4277050182902288,-0.6460638549244402,0.6221857663735935,0.37701584830024554,-107.71295145649376,85.81605471650147,37.70779647807109,0.16117552990207404,0.8609254063368045,0.2448753231344896,0.030059127640331584,0.216010019588036,-0.11640840427686973,0.40075875240978936,0.33999403114047855,-0.46720429704111743,0.31085429250206276,0.5543636318121472,-180.4398086176819,5.060863641735687,9.34936498540636,0.11720883613128853,0.026770916507256347,0.7350899577995358,0.508777404139235,0.6605326900168611,0.8785086264775278,-0.5658360073846013,-0.6247267365866769,-0.4021650442579744,-0.37067964523144603,0.38725837992240464,-152.26764150752814,17.759613595392626,23.692465567732256,0.3815790411233128,0.29673650632458226,0.6318924160268485,0.5768260188928781,0.7646117486790402,0.8338318353932983,0.4314411837604002,0.6306298442660574,0.5243103108118424,0.6382812153696255
0.61,-112.581816655904,68.11015603930836,175.29654531286587,0.1087201366926023,0.9432930523816391,0.22118922021532428,1.2740195602433009,0.142971794534398,0.4330174341231333,0.7952688126142755,0.5222168485616874,-0.4510636748156906,0.4746917934613964,0.6046978409500541,-107.24761241504031,86.16461726510755,37.99653313589366,0.26846313215998563,0.9235305545691094,-0.04491149487382819,0.3804513082911281,-0.009047128758540163,0.1800861911884415,0.34315448957525363,0.5073815270369394,-0.5926257290930246,0.6137518289245731,0.6005730733705601,-179.76306301512471,5.51275275089247,9.541014411553203,0.013503799728488267,-0.07257313938905502,0.6698738168354523,0.5558650447797783,0.37531515530861537,0.9386772735574024,-0.7343791356845304,-0.7119313672918928,-0.8316695010727727,-0.5276869039748279,0.5738268681981806,-151.44912593482678,18.21667236401211,24.475192639566867,0.2818288532477766,0.0801001084323878,0.4567089051350561,0.612661045387835,0.5878959484424833,1.1384229722092116,0.46776240351365017,0.5498088847655157,0.6425367209250081,0.4163665215569049
0.62,-112.59913483455726,67.12944546702911,175.26428261854267,0.2453470343591393,1.4410452656156723,-0.180158976683049,0.9200227991583793,0.12921474280976109,-0.21154969871555152,0.29527707854011637,0.49460257635151134,-0.9184777685440801,0.5498114742706619,0.7465783986307821,-107.19921129361002,86.19898777687725,37.92879230743456,0.05374029760011903,0.9626542112211319,0.07007655542861599,0.23050391733364478,0.4259982935255931,-0.04518049010850475,0.4674600260854678,0.5076002896965457,-0.48509988936654697,0.702911730849976,0.7744344649268182,-178.94495944841987,5.622733588222629,9.439183855829643,0.12936709017197945,0.15914293565523788,0.8172817492055279,0.6486399667155824,0.09160873163596114,1.7498188689926457,-0.5335276435210533,-0.34187874145377095,-0.3659277639905825,-0.325443428536607,0.47957286965908064,-151.23981686225528,18.68145935749135,24.565425388353464,0.19355930586904557,0.08565509395905384,0.7801771655348241,1.1990443369729444,0.39662269261933986,1.0184706398940861,0.5105678553450357,0.5796617724190402,0.707067998551607,0.5115051369942977
0.63,-112.26260962434044,65.568323073251,175.39131132610964,0.23290704329503162,1.2892164855096504,0.13311819185138896,0.8896427408775939,0.044204514710498126,0.21894482091506973,0.46240585448121974,0.4064030132921499,-0.6214206769455998,0.6278839211076921,0.6019598802066933,-107.20745933550963,85.54881370323308,37.5972746108926,0.15105689124947483,0.9785354603758218,0.0018882279704744986,0.522028700749888,0.38574720701711057,-0.053848676804109756,0.5289308841113213,0.16584449214292646,-0.38152267280878477,0.721491904625192,0.6392177749673518,-177.89462507808435,5.50445463149301,9.385253659795476,0.2001046704639123,0.14738320504042238,0.9594623442737064,0.8281883377829942,0.36553837982697746,1.4872116803305027,-0.5365779606177015,-0.6306360829392788,-0.7410460667834083,-0.49449482856348786,0.8029972202104602,-150.2437272908432,19.025969728631548,24.99280225492268,0.37239548994620353,0.03229850718700976,0.467722137154616,1.2815046295026524,0.06357677979793191,1.2449610253060512,0.5198619940413503,0.49616546369666975,0.6809259567093661,0.47463426466332326
0.64,-112.52913957751628,64.92795933041964,175.22020878245726,0.180444155216947,1.3715262030717525,0.15993244443421528,0.6348203453634977,0.09383297596782887,0.35725764891688877,0.509833141546481,0.4486702895194714,-0.6770750052269109,0.6008971151239018,0.5764095132783302,-107.14671002535962,85.21086760361041,37.62803387910888,-0.05492780185957852,0.9331454379271056,-0.05541921617208778,0.5137216929158096,0.31851803994831895,0.027065827783242638,0.49896628486178596,0.39210957472451763,-0.3871276249091046,0.5715876756264606,0.6692872914453292,-177.54802840277938,5.484461518639494,9.45906522843195,0.23703036989659818,-0.1480614791223231,0.9302435488143375,0.821386040437951,0.09316630767681598,1.50247774260283,-0.6672127245750525,-0.49291924687429167,-0.580213861524555,-0.4967795341462094,0.555636439433846,-149.8534142133484,19.143305690122183,25.286912923986197,0.4416680842127553,0.06650647776457719,0.48260073806879217,1.501121885148695,0.018638767263297502,1.3158766338630903,0.2141368386008918,0.5642946292042719,0.7400947430676572,0.36767702881372416
0.65,-112.76139284950646,64.19672557397575,175.43085770632132,0.11778769033473808,1.2712311661692848,0.19431994421845747,0.7955364776571201,-0.07810402947437942,0.7603871071083297,0.759572350144782,0.41828907966576917,-0.7752208221291644,0.3767066706528261,0.6922740876111498,-106.91890162438678,84.91701839344299,37.83577972999557,-0.05154249035643674,1.061209434016042,-0.23531294359624372,0.320439118949729,0.2646697858686394,0.07669239712754795,0.7947226285318334,0.33700177631919725,-0.329060302146114,0.5845904595893165,0.33458997728067014,-176.87859252448192,5.57165748511411,9.263511045081035,-0.1253730689419022,-0.044699682539011146,0.7630566992396798,0.7030485934304103,0.10159544170394505,1.8326117463071743,-0.34726189184181555,-0.4473681068304637,-0.7367556224735026,-0.4538789514976479,0.5505074429777222,-149.55263533927868,19.251492324564513,25.328172592572255,0.2491507539457795,0.12825397043530332,0.3856351806799837,1.5618464139570598,-0.07731426488075707,1.4201808889425889,0.6693124210481605,0.5553250055023518,0.6011967804230024,0.3858978298616159
0.66,-112.41322315750003,62.573038476477016,175.47834065375682,0.47921839641205843,1.6289142057145045,0.023858811729394008,0.5414160653004068,0.0023228278768289423,0.6275813626681673,0.27249700480089123,0.3429964476609401,-0.7338662427328967,0.5346239005759071,0.5076749253025744,-106.51038582317948,83.93309117827123,37.82750828375077,-0.012702661812789298,1.0826692328700673,0.0013612182389066696,0.40999220508131357,0.18537520326148274,0.06005742436282829,0.604774107215295,0.3036696201297848,-0.5226697756580997,0.4689882694878428,0.7585430130175538,-176.1282490338523,5.2632808122304215,9.028760973509488,0.06063711637761146,0.38856637220254425,0.9666312643076234,0.7824159686700685,0.005615931642888178,1.4571475303892405,-0.5257303827275425,-0.5551918256214596,-0.5517957078499691,-0.4955458741884188,0.8529247650330471,-148.6277316144121,19.556894055022916,25.835614851177574,0.41931920865271244,0.2664198066991227,0.3733132756327111,1.3230121543503273,0.32831574111377076,1.4597798251779117,0.6168851275354539,0.68986473648946,0.6853272996093469,0.4449462348025511
0.67,-112.23949072032794,60.5493676744637,175.47494512403355,0.4660962393008667,1.7714509539396355,0.16126380096829154,0.5648786100541998,0.34743091798896847,0.3372587336251648,0.19354565133053275,0.39340013778138866,-0.6611626315457289,0.6883351248863869,0.7117378211435208,-106.38313778055543,83.1041193582781,37.32555805514518,-0.07015590817194248,1.2698278449131022,-0.18593243017316788,1.1857262033721692,0.04312945591354682,0.3282128819014134,0.5706535023745184,0.48304149747053127,-0.6149186170833987,0.6494237002457008,0.5704078603564657,-174.6580744261523,5.105607070977659,8.796417387720616,0.07199570972130837,0.21055581103357118,0.8858805403631876,0.5807420417408193,0.2867850440104946,1.4524942124342568,-0.3835387640882697,-0.7568808070350873,-0.49284770205077943,-0.5201283667193246,0.806238595831752,-148.1553452439659,19.34254160385789,26.05676713671397,0.4677901794872923,0.2004761608504141,0.4307733242885921,1.220547451323915,0.637410485056237,1.2425019895037124,0.3845460679995135,0.6418048899561911,0.58484307879582,0.5212354355159015
0.68,-112.29129273352439,58.845773183943884,175.8560660583769,0.0028231124673221836,1.915845796253053,0.33944348640906274,0.19705943241756446,1.1754326368064958,0.6936332427735744,0.5645533210695843,0.427967518849098,-0.522569944398575,0.565293317882149,0.66623393202026,-106.3942175256223,81.76166491324304,37.549409419774584,0.13376443370722463,1.450959115728544,0.021969572375127006,0.8062033298062584,0.1837738139649474,0.012372838065442225,0.5275239754627887,0.2818094742496138,-0.4922601160101474,0.5273807555894812,0.6638863470710027,-173.74697505899604,4.626798550971987,9.378740601383695,-0.14455213316990814,0.3450301018134921,0.6776645390254602,0.19539137351064423,0.5662553875098633,2.11431037399705,-0.306817004969669,-0.8483057275264252,-0.518451052665346,-0.7442442838770789,0.7323901606928481,-147.48800319358173,19.339497278937667,26.33516149443703,0.5160793259571705,0.45942176563668985,0.5105262925962339,1.3937054311918364,0.9208125532048428,1.5137310337080128,0.5136006400982333,0.5189830265365749,0.4579685654854586,0.1388583019828366
0.69,-112.5554366008093,56.96550901441165,175.84251928779446,0.09693128505763433,1.886529682898554,0.24103422859267615,0.5145754234409413,1.1525431895503244,0.45301370361644056,0.457545129951489,0.2992403949218872,-0.8729273153305122,0.6207088069535749,0.6391815892239427,-106.33944286830096,80.47575958955716,41.61924507981056,0.07820852694138825,1.3906134538259818,-0.11760927078847552,1.1983743564949128,0.003562600634963997,0.09666740568420207,0.4827098314024471,0.834562273225246,-0.43532373229793614,0.44554428469525253,0.7158685870180423,-173.12962249038154,4.308758819784225,9.12663052690507,-0.10942396075172685,0.4102199933453878,0.5978837624655461,0.5877391245346659,0.6360678893229521,2.429337738733727,-0.3748955208963425,-0.6488259313310261,-0.7524916233771046,-0.6839062993168203,0.6433420005697256,-146.9562763205386,19.3990547797682,26.442894329257246,0.6021246852855938,0.2657146015147712,0.27329335612490085,1.357853384161578,1.386430803011535,1.68879366688765,0.575850670828414,0.4440208306710441,0.6187065508055676,0.7354102076073648
0.7,-113.40106289616648,53.72309763057173,175.40656027661163,0.18143893398343688,1.4264317452081585,0.03137431304658761,0.5929103699520666,0.11670781361530026,0.5423439910023935,0.35422881655409266,0.29292831319394375,-0.21527610456029425,0.5243938248165351,0.5523754881214509,-105.72640716586292,77.57131292456032,46.83731495251811,0.21531741515319833,1.4247432118901386,0.0964914756951399,1.3070326688654927,0.1530721576589997,0.2176530956792484,0.4048800782935646,0.37006632334773704,-0.6316430288392936,0.6877552394155153,0.7974431123507396,-171.6642498598081,4.377626840031621,8.709002840310761,0.10555412933032615,0.2088144533764935,0.5660289575268019,0.9596356546825111,0.5657282896928691,2.2305087643725483,-0.4407272959371832,-0.5297885395346638,-0.386984859368968,-0.4367500250463781,0.5667845540840196,-146.9106328019388,18.840302882026922,27.29229866226192,0.31988710005883975,0.27639726311125723,0.2436749566011701,1.1611918283935887,1.031369131160015,2.2222856050067348,0.31639561013342676,0.7350643685450362,0.6469380952315631,0.5896497583553755
0.71,-113.80383659511098,52.43589526021412,175.3015936450496,0.05197929103152407,1.173282114159258,-0.032210871627091346,0.8788340747450164,0.4088517466683051,0.5322563102446852,0.7275316238491216,0.3304958290682696,-0.6747041912382499,0.6308984301601471,1.0178865695496038,-105.00515408853245,75.95580557844171,48.728432805712515,0.02183954429637204,1.8784694557189063,0.21110055445397036,1.1720585248238293,0.12864877957128676,0.11795430399682513,0.5699132550335599,0.5492837638394854,-0.5247930918893391,0.4480594241187951,0.6061204116490246,-170.93645585739944,3.754955710050265,9.072029694613038,-0.039190829732892854,0.49538290674468877,0.4699827273485364,0.750377219383735,0.20794916603400992,1.796193074189947,-0.41623936562432234,-0.7170357786663901,-0.7525270014149822,-0.4377765972087248,0.7283573995384931,-146.58088432284464,18.58322849756299,27.294742622306167,0.19824638536994532,0.5690128890917252,-0.024066462531384364,1.049032012506578,1.4128439013261476,1.850569276836149,0.47686493859520623,0.5219298755252708,0.7166079934775883,0.22804600482373422
0.72,-114.51616046191378,50.755600114733355,175.61958763251036,-0.034488133844579,1.5280744507361754,-0.024122342098875676,0.06054021015006247,0.7910711523337456,0.7370629010937787,0.5775797992803886,0.33359221830334884,-0.41543516371050726,0.500591522192856,0.6151223094694058,-104.71367690692855,74.06243574039335,50.3903819277508,0.03853871313681548,1.6603166366614592,-0.0308343445433873,0.9041597109469707,0.03241189564553429,0.4931950303622701,0.5894385584857493,0.22265015419463496,-0.8558867594851899,0.23159375305252447,0.8594259823237519,-170.1849735439144,3.473036638071662,8.761289179000434,-0.1440099888948303,0.30055396050446265,0.6108326731710212,0.9160434796587229,0.17029883203427482,1.490910040459684,-0.41918883560244136,-0.4725164725052263,-0.6948717983674948,-0.42207720293523177,0.7714493125670295,-146.11867766656545,18.40222541569562,27.376641247651115,-0.06249104173909756,0.5263384287858877,0.11119294234071471,1.2234462298924111,1.2796184987697983,1.6085282758851696,0.45964044236769597,0.43785882242667723,0.6479415985394902,0.3381163154516831
0.73,-114.92608675764342,49.116000672167864,175.31902637115252,-0.09191386154279553,1.5086461535643545,0.3213806804043529,0.43256900774881163,0.6083858857835671,0.9847786825996201,0.6371559745820733,0.3374147596298593,-0.7786052428404442,0.5267205349644439,0.6558310900213493,-104.56422997514679,71.97023969254242,51.78850475405244,0.0738839503158922,1.6247736962266748,-0.17246551986122377,1.070534035644294,-0.03631403337042262,0.4532208116504812,0.7762767259739838,0.7976698817777881,-0.47802231977527987,0.22685889069955528,1.008779686107079,-169.4291741200116,3.153916621056168,8.556648430664387,0.2462384839335099,0.6164775976271532,0.5206611367847837,0.7164167673844732,0.7652257396380183,1.5563629657244709,0.018483045477104443,-0.6864493468455016,-0.6115262197862295,-0.20972540726409283,0.7568042333590953,-146.0112102199447,17.805926291156574,27.381356922839014,0.26087735835780024,0.529007306368911,-0.016503100166511298,1.3052053336799017,1.265823456810353,1.3184735117265973,0.41827730160264587,0.4821320959061951,0.5489120196567701,0.45787170166122965
0.74,-115.17279525918713,48.12207089184208,175.30961898365194,0.05524063877916342,0.8487576959501332,0.2595469552554121,0.5441290002756703,0.12997031698662623,1.129370991881425,0.7561716918815737,0.5826847437807647,-0.6049391547901894,0.38378792813045876,0.5683137300262386,-104.18803490525272,70.85272245510357,52.63031393635278,0.03369040952280681,1.6639629822476507,0.06845209042761179,0.9663001480386909,0.09810896958949974,0.19535113187386652,0.2684871319520342,0.42777336833011786,-0.34193804350658674,0.614420547623238,0.7909906629914267,-168.80001286902584,2.978564849951689,8.956578873984112,-0.008806135321835995,0.42338137428954964,0.345334743039052,0.8870347801356152,1.04431651886358,1.6260654547873725,-0.3902129959694247,-0.4996197543193484,-0.5601766846055265,-0.4075457515441313,0.5246463160801502,-145.54475426134047,17.645326100356666,27.307780286083094,0.11857846348823481,0.2401458612681343,-0.0027812352784308964,1.5717881520331776,1.7594969856583411,1.457811403281957,0.8136107596739395,0.43973749794199474,0.4861269682667031,0.47959519073405565
0.75,-115.36257360482769,46.90036083305612,175.08256807247213,-0.1410956163173947,1.0497099408852781,0.572166131845885,0.33522192431314696,0.24774574304649508,1.394265026274458,0.7315719911257171,0.3126936955888932,-0.7246540684489049,0.6706585595395952,0.6178404122577799,-103.57078899510209,69.06814186503676,53.65836653915521,0.0651160397303784,1.681431729705781,0.17829522079566554,0.9905301391410951,0.5920806867239272,0.05529427842369544,0.4944735467503198,0.3518585336348352,-0.5832212181948377,0.5748868130075098,0.6504845082075773,-168.31773214134404,2.540271935913449,8.734240185577015,0.12987691773174725,0.271791500175978,0.25234772567856245,0.5392586502028509,1.2528371508422051,1.4939241436415385,-0.09391323786627295,-0.5805479130727111,-0.49420001459141255,-0.8230100032427174,0.9204424500035687,-145.63406624871274,17.0517222105253,27.07571350491208,-0.013890195052633572,0.39883887789196315,-0.23136393014193424,0.8355054122043726,1.2035109751916613,0.8660653387071401,0.8265140353462382,0.7136203970621768,0.8132894990707397,0.5587068050756502
0.76,-115.66330141156932,45.6930966917814,175.23178550465096,-0.051422177726453626,1.0139578606797985,0.14906096465401517,0.29603771748452506,0.07260942412256802,1.23694943514476,0.5438489725376303,0.11030096566713621,-0.6690746555040091,0.382722579205654,0.8957547506441704,-103.4911350996358,67.40043243667186,54.41509122668821,0.21145225841856635,1.6214546539117196,0.08915819007543849,1.3301854101296668,0.5877653080937659,0.3201811289734697,0.3163794436000358,0.24993563972236482,-0.3767438768406861,0.4553638210649915,0.6374374998428657,-168.3314078302165,1.9902452321763817,9.140745550612781,0.07548595249603188,0.6744872697239468,0.15767728157591768,0.35258531307250734,1.3491720122404627,1.7201124050061765,-0.5406142541704042,-0.5366716634553059,-0.6494999422005701,-0.5328373788998547,0.7667370860510901,-145.46348319460242,16.403697066735173,26.80589499458292,0.46216166747580134,0.4741299315361751,0.33104307498226204,0.8905316633019817,1.2112311292893754,0.7189030883457364,0.3296417749995171,0.546876652101706,0.5680645097842004,0.6290223134995794
0.77,-115.59836107307704,44.318188937474424,175.04451610355503,0.11296443140677317,1.1439738537329225,0.10770608681229261,-0.06664130926489835,0.747688413640946,0.9212595747876609,0.7043210125760971,0.2599549396425205,-0.7308239475856048,0.579030856029509,0.573070588893964,-103.18126629256895,65.9516182241737,55.274391191823184,0.07798349942027868,1.728673296454441,0.31328763865904746,1.434947647932241,0.06738690824078919,0.6462363137905507,0.5598606229194755,0.4827024479257612,-0.6315261335127231,0.5622839896252531,0.9439635692107682,-168.17491436734824,1.391231769335126,9.273292878963725,-0.02121175449867138,0.4763097160850322,0.23470167786079546,0.7629815601727008,0.9254513091343051,1.096995780908328,-0.4078008550160166,-0.6642606695546787,-0.5713902463132966,-0.5612475224155735,0.7480346539870983,-145.97487194999414,15.883353953054911,26.65244835623959,0.08209983125613377,0.4354927864531033,0.15275851016220945,1.0668816229175082,1.4532165204459924,0.9673869708203313,0.4431126213639602,0.676664457931178,0.9833678678531128,0.520993030026053
0.78,-115.46151203299905,42.813744424954024,175.47244787786852,-0.01891251316592083,1.2533999675629954,0.030642363039332973,0.39124303478719075,0.6444817113584169,0.9898406648711131,0.6914855469159689,0.26883600406074615,-0.4799623917271409,0.5475999417266681,0.7797320163418064,-103.04376293142872,63.93678575526449,56.06634021525601,0.31963970264533287,1.6716130816056298,0.14390275893712845,0.904281057229888,0.05765049193500592,0.8367133531470629,0.4021110524579434,0.4969633021696152,-0.5684388285348103,0.5810847889939887,0.8384720557377119,-168.34499114234214,1.083440664061467,9.1899488193764,-0.05378276752986645,0.525152069473322,0.11634894723951454,0.5620354569052909,0.670588832928319,0.49277962717299284,-0.4015510455950894,-0.6651617914178269,-0.7293352381754042,-0.5234824661688242,0.8463368867029513,-146.41253615559293,15.556803578352193,26.437148112871288,0.20383447347489814,0.28455528486301307,0.23796148208379797,0.9028720946727644,1.4286630393810897,1.0026092702130152,0.5868196842146176,0.3485301990195233,0.3499944308342493,0.278721713104389
0.79,-115.21437285068453,41.56042324164949,175.3400895029757,0.09481311137126666,1.1853921100096003,-0.17213987967806527,0.07170735892906757,0.7275060043709508,1.2031570092317794,0.6433683032211178,0.4531994957848276,-0.7186788567215996,0.5628645775366745,1.039342753466637,-102.82570205967232,62.11802808573077,56.59710296398619,0.09614085490637163,1.3869131386242464,0.09837561297201054,1.5389851754429626,0.2105328975713266,0.42616212841150025,0.6283437583892685,0.33495003205233337,-0.47381054396162336,0.5612645400019299,1.2298247029498273,-167.98408132571342,0.5546718980190506,9.373903588586742,0.237576446277739,0.3586438161842817,-0.039886189288631836,1.021168781064382,0.8628704372865607,-0.059118803017877884,-0.4695762515882564,-0.4792617736783964,-0.5727057464267926,-0.3187249934290833,0.7608478287457958,-147.08766223527533,14.803018615659479,26.343010829887135,0.1345349407769052,0.26452702904934344,0.5800972120590049,0.5825607234509305,1.0366111514264131,0.67630569356859,0.5961871586569908,0.511972136355016,0.5308624561334434,0.2554981108096569
0.8,-115.41687237785003,40.736887904214505,175.6192963070748,0.10071887348572098,1.116924222613328,0.04209339802010262,0.4352862902354147,0.6961797803479244,1.2357880197673161,0.6516455772935174,0.3339102456562734,-0.5487652654253824,0.4198801734456311,0.995723391632794,-102.81465374869566,61.33054159920561,56.97932073584859,-0.03717846927161507,1.6332587999144446,0.13602382077494468,1.3784526641145074,0.24497358214161088,0.19416191785009462,0.4064677507897827,0.2878032781618938,-0.5586658300314202,0.41541676357470436,1.0677390341037156,-167.82141520514955,0.48795166521839267,9.410883331353649,0.174039329678328,0.42719605218968315,0.12621965911975358,0.8741298752385412,1.1224031597462363,0.2495489239355727,-0.2771902358294879,-0.44487825061153136,-0.6780158326968162,-0.1733488975211852,0.8375601353126296,-147.2391858527251,14.697581483787337,26.1464935806012,0.34924784329870884,0.2567502262444791,0.7233286393630971,0.6777887588337563,0.7319047880949628,0.3838439487791245,0.31516017267684754,0.2332576892389525,0.6423848928250422,0.2879406243831772
0.81,-115.31039362661252,40.00509800682369,175.83850588203393,0.25691797411911227,1.4931618367425838,0.2474447231095219,0.7912300511470941,0.5754391287274558,1.15224262909765,0.5604901968376583,0.5620577057786748,-0.569690569769589,0.517763279661495,0.8589451915438232,-102.67652667498776,60.58917465211381,57.074781567578476,0.09944326052014638,1.5104272992593082,0.22312938354653536,1.3085035617033864,0.18754719367230963,0.16591615247513045,0.2580909244960785,0.3704586267905711,-0.636931620215003,0.4726592077237065,0.7845873357036939,-167.93904621299166,0.2889502146733464,9.443705152868207,0.07038621202610683,0.4128952315246425,-0.007226713225463623,0.5317603213757952,1.2693172249261717,0.27409252384328414,-0.48705360773661377,-0.3661272350974797,-0.8131062122293415,-0.5447369978798201,0.7306043130816238,-147.41151439189315,14.60246905642821,26.308921178521334,0.061403921751993495,0.5817404173663617,0.7421495689616308,0.8538515484483494,0.9227252263264594,-0.07108957993658256,0.35782840619474515,0.39336459910733323,0.9705857554081512,0.35662309935554454
0.82,-115.6142642155198,38.69887712447043,176.18163562019956,0.1753774329430408,1.1842897163050183,0.5728585163942969,1.6697703238157868,0.40242069225890376,0.5520509362830336,0.7873604038958387,0.32841642881048094,-0.48282479831593444,0.7339729774985623,1.015952513812412,-102.25020083580888,59.05441468427454,57.49739261666088,0.22266937720665758,1.5073727194193653,-0.11929939987334545,0.6670688715613223,-0.05002726493695455,0.09424410811045836,0.5793427380270479,0.43714611699716605,-0.29830667096086816,0.630562148563176,0.6640697470351185,-167.91852240300588,0.25546904331209497,9.354329737611469,0.2347471082191601,0.48385703151857384,0.22732004754065366,0.42272758679970623,1.1023945793862493,0.6542137051698542,-0.41853120220968976,-0.5838859851340445,-0.46501866989617135,-0.3671547192277063,0.623444336952751,-147.83008076336847,14.101337076341487,26.09459921839362,0.04828361730980921,-0.03725947978682448,0.24047584451880627,0.6220557886539613,0.8424326606045859,0.24623460292062987,0.5770200038592477,0.6224770692907956,0.39388920371999375,0.4180120430537161
0.83,-116.08400341114283,37.82911291645339,177.04227470794407,-0.06404292929670653,0.4422639181839667,0.2651793394253675,1.1400930798105733,0.027279644663135816,0.5051211186492253,0.3732914921339098,0.46249953746924843,-0.5411388360052839,0.5714426624945904,0.9023363949351995,-102.15169704520909,57.39181066231993,58.180056325042365,0.19181594247141967,1.283362115129374,0.03550721208987778,0.37901956991241825,-0.09401755718861751,0.27691032549429634,0.41616318812894193,0.4887433723704901,-0.29161266314364553,0.46226072418029274,0.8693963079182243,-167.88183885238178,0.7748255161601574,10.082734790537499,0.21979100360164977,0.570698551645325,-0.052242945798212745,0.550664002211268,1.3692807259455555,0.6683902879494518,-0.5282684862261899,-0.38793537186809224,-0.683906382002894,-0.7094393989086911,0.6081645718158374,-148.10096188441756,13.508522748114222,25.877179163296713,0.18108880962888335,0.24259780747810736,0.6614187863323321,0.6819545628232344,1.3527515350086003,0.6974860538947985,0.39292056016974386,0.5925642511693067,0.6237538248304604,0.5549996802264502
0.84,-119.70275164804231,45.00392102257593,178.41409400748645,0.31731343714961746,3.4364029788689305,0.5297580737566099,1.926249789895043,0.10111650769930405,0.4047400119691168,0.48579159767876223,0.11717905076294297,-0.3288424344903861,0.674535604850387,0.7473723659570632,-102.5549745610075,54.595258362908304,59.24445786722454,0.28162418259688343,1.0085575192076002,0.029857352737521436,0.3315566144881252,0.09835728490061629,0.5558017322786564,0.5467752756594645,0.6448597910394291,-0.5579033903967672,0.5483179327433508,0.8713441181133692,-167.88262455604553,1.3858273990389887,10.073221095464376,0.10212992946381208,0.3455124478600149,0.48097286105773507,0.4195438912340367,0.7324966960195923,0.15104394349086653,-0.45209985789823687,-0.5697468531682618,-0.5163344971629471,-0.5200141858319608,0.8462968645530193,-149.46275002651123,12.983838735616136,25.317398254759595,0.2501350710500145,0.10399452131075293,0.3617176627295929,0.5591690685551036,1.2766577094464329,0.30155140561246463,0.5061051893620833,0.42194372442241296,0.4635553013220344,0.30603443281257786
0.85,-118.73430385384508,49.06520025386281,179.37921940885934,0.49989632387028315,3.58812920526496,0.5239933736187012,1.4099432556787093,0.30677099646999406,0.24926602951202115,0.21540772075086806,0.3113097476074324,-0.45195457177191717,0.44958659355705943,0.6954751978992918,-102.41940138606967,52.46618021763383,59.84478252464209,0.11502474604583765,1.0482766936504337,0.09753340772969316,0.7748852248764405,0.27927591529738205,0.6394822952538531,0.3635714020188962,0.34562109643423966,-0.47228471141397405,0.3495223826986569,0.833061378132748,-168.48010409884304,1.8456437682619766,10.263576820967142,-0.07671844376188167,0.4068099259356036,0.0422478986863367,0.3982898151443448,1.576794442642667,0.9217678508129775,-0.5015154371987726,-0.5691177790000698,-0.49418797086801014,-0.5090758137574413,0.9039685826611857,-150.2671079619708,12.376381918878629,25.13420312344672,0.20802859072172683,0.1896419792137794,1.119771327137037,0.08034067881076679,1.196794701735986,0.04390341504813243,0.5481033493063818,0.5890482212704201,0.7724711949340525,0.33688712431012957
0.86,-117.38918973416857,53.206458332487266,179.9106382930776,0.14979819811946543,3.512576589205927,0.2568135957921791,0.9901178361833546,0.7431757890185596,0.4611081232126345,0.4655235207096795,0.3400231888070339,-0.8869406410215565,0.7283139862025293,0.8078781503103003,-102.52077971304408,51.80152593527629,60.155741905407666,0.1293862836043409,1.4417690158839136,0.12437905650007436,0.5377583763702359,0.5500380288207719,0.8325786947455827,0.7197873353638471,0.163231461895385,-0.33998106959245294,0.33917168791437713,0.8665620033712423,-169.2013267490634,2.300480689858409,10.306887449379687,0.19067273085200065,0.24493841238156497,0.643108370558013,0.33042311854943807,0.9480291199770966,0.47809529425108427,-0.3104793607134095,-0.33077194342932215,-0.5397180754355173,-0.603095522816392,0.9925011227025724,-150.82257605740145,11.745463056432628,25.12106522792889,0.15544023329792156,0.18072634645482263,0.7475933020923443,0.25012600403657337,0.8378343572074194,0.04191586715984634,0.5540481044705151,0.30688295710455393,0.6092206184237289,0.427250874656146
0.87,-117.57666912741325,56.17756310851339,179.5081978606937,0.1613202163888386,2.4664048016657474,0.447981521604176,1.2283107960441693,0.7055013110267413,0.9444525929212887,0.45557071891611395,0.5794262384231874,-0.7142987452543483,0.5305945159138605,1.0379958312698585,-102.78102066304575,50.84116046968197,60.80262005899427,-0.12906141265030083,0.9916830101924375,-0.17484456477470015,0.32096880711296105,0.6032848837914219,0.32261210570660553,0.1891131045552234,0.43903085040239115,-0.11945697411406295,0.36873493957646003,0.644701340391202,-169.33084780886733,2.32534983813115,10.442657836451376,-0.007752721744834268,-0.0568018253368712,0.16889830013693294,0.4774555663823658,0.6233084451867923,1.0062943973946146,-0.10652821380495783,-0.39900388789287955,-0.8854162763140108,-0.30713994454532745,0.7488161713214236,-151.81176188563995,11.027955515140937,25.35546593817465,0.01081019079675613,-0.01098435598750927,0.8824820582722538,-0.011142684161855869,0.9391898326289555,0.3927618080186981,0.3494872653165147,0.5693376419112819,0.7228367482617448,0.48395042822839135
0.88,-117.53803418490786,58.17482984497701,178.9681522471235,0.2918799336569846,2.098621769479884,0.15392418611192252,1.6617239686587606,0.7342686701540765,1.0281037672003686,0.4030967305941751,0.49327956327087374,-0.3421748347901913,0.6014273695533442,0.6948170362507288,-103.45600093705835,49.33164450811835,61.27589661202887,0.6132470730896761,1.18851352012023,0.21306217124716217,0.15332391080980792,0.42731155839918245,-0.053076212855729464,0.2947231800289391,0.28045151879014085,-0.390146822775428,0.48455729798930647,1.0336302584653858,-169.77797091025002,2.56503858834685,10.536295110096662,0.07951801880112966,-0.07852643385019953,0.49343053050034597,0.2628317501793777,0.7478514045564366,1.545109058602458,-0.17140795958899246,-0.6062984498358133,-0.637671988715251,-0.2239368593920247,1.1677130249999277,-152.9429326663408,10.68314176716777,25.203131738362707,-0.1396630687200213,0.08683594522713847,0.5598017740196392,-0.24491998501569684,0.8969342176436887,0.8535683288317132,0.5949608731533549,0.567450298465162,0.7222568549170191,0.43425020088120303
0.89,-117.4317905075794,60.52516866598129,178.49591113289713,0.10075108749535552,1.530744168077129,0.17352831793877474,2.2784253041840485,0.6022031149555118,1.154145280350427,0.5811254174790657,0.31582706059088744,-0.49531482353725054,0.5529808827448768,0.8078827253499341,-104.240388727099,48.5083111997848,61.96390793222504,0.6571977152054522,1.0557597948668371,0.08932307117229396,-0.05850160739994063,0.39450085150879505,0.07999182170600505,0.2539189242789545,0.26943098028560614,-0.4175438637184898,0.2888396937940059,1.0213656068661023,-170.35594781620324,2.7472171854374863,10.37431034373437,-0.09466712924183497,0.09206288106578936,0.37816339797862264,0.4839937850319722,1.1892946976595011,1.3207615066095824,-0.5379307611842624,-0.5576251320822825,-0.36852360457463773,-0.42303674065902486,0.7005126772505751,-153.7008788915346,10.292899395036827,25.106880758353178,0.2150553178104292,0.02847873377864019,0.4558708801932396,0.34239174925483273,1.0342816334926608,1.3393234696605367,0.5939635500342901,0.6117121300607427,0.41204421226933846,0.5713736874119849
0.9,-117.29395584550501,61.76030529288957,177.81826729958993,0.07111227098197169,1.6533374951644155,0.04889468181335728,0.6574037733835101,0.7526919186652399,0.5948344511937137,0.7895534617801512,0.49569655591444955,-0.7076180024468917,0.48609791321479195,0.8965265595196631,-104.62027540094526,47.70885253145984,61.987588501906096,0.17298289568340475,1.0538851242659202,-0.02358888507762825,0.08088537398648186,0.5485740134032177,0.18913096396722653,0.10276661660219774,0.43816662231633935,-0.15939901776716675,0.16263317249682435,0.8850592756012694,-170.85894634019286,3.1205206362135796,10.200998524100774,0.19154177239491874,-0.07391661564771969,0.36750586699025045,0.6354438766840532,1.3172157063070729,1.4458705578837112,-0.6201615742190315,-0.651742970203902,-0.6228172660338707,-0.4852663450612145,0.9446962787993821,-154.39526688726275,9.974716917119036,24.845663504493103,0.3271200949528805,-0.04498136434779582,0.4926109566645811,1.133967942696814,1.1056200719699603,1.7956766200055467,0.4546280096203903,0.33786358649829573,0.3311720405660109,0.46249808959132604
0.91,-117.51649392707465,63.41695323107648,177.7599492254708,-0.04913582395926275,1.3073247972613058,-0.0413172304634563,0.3450265344652537,0.47885497246016673,0.5358548127699856,0.5701635432115622,0.3742685058186497,-0.5502595256476933,0.3389991815387668,0.6317464643573465,-105.01302318753487,46.33142989381991,62.421550950872934,0.047400452070700774,0.8135221763481432,0.29373115225298574,0.5796306264580655,0.25000190735223404,0.3320059449366497,0.41205470320416865,0.6057750454604103,-0.520403157653856,0.2096711115489222,1.0874295533791327,-171.3245491632294,3.2437927623798326,10.277511465948882,0.24439147961579205,0.02958225332121805,0.7776168130743996,0.5717002577407679,1.274425097245055,1.1150561898964408,-0.6252745697905026,-0.7161693907568354,-0.6249976691737884,-0.5311082885767281,0.9476554681799478,-155.18360393740974,9.541131244489357,24.625026410641965,0.33949267839353314,-0.015276227816440155,0.6841871480505909,0.7215143648217829,0.6183324352411875,1.5034667324625923,0.4856410236808002,0.5839312985621079,0.6445419857658425,0.6276237658119331
0.92,-117.76859109946102,64.98881039259209,177.8083591597997,-0.046374707361550194,1.2862558764220222,0.4345789893622767,1.4574059578253724,0.8257048315847062,0.28522980553092314,0.22573603803636091,0.49258657543691275,-0.4643996747455386,0.3652115818262625,1.0265572529757505,-104.90299335800597,45.55601293550775,63.076686832536545,0.2795805412124788,0.9333337105357046,-0.149062971635266,0.7789597979971994,0.556370659731817,0.3391106611972139,0.5378581979429975,0.46310130833482177,-0.49671075085191,0.7731681164330123,1.0570964732597106,-171.59036268600173,3.2937443474273067,9.798426970663533,0.044887803578106955,0.03796676026174173,0.24978636292821485,0.4486802582856583,0.3662006725411298,2.281276469235506,-0.385572507826533,-0.7390513453903227,-0.6795466816188951,-0.6311502544448916,1.133198976249088,-156.09040902707147,9.553496676784706,24.77887570888051,0.10600946666486719,-0.12121849899638877,0.4201539931740669,0.22977162728400663,0.5231862860279358,1.8372861934831919,0.5132770549931949,0.43426567691368084,0.6228733762515097,0.5141856253156201
0.93,-117.61412091896673,66.41416488363414,177.0421477817305,0.01095229402970362,1.0324387304979954,0.2260316912871846,0.8905406884008723,1.342426250091721,-0.27043816281675914,0.46624457711653516,0.5548746311832845,-0.5445098737351017,0.5904498048198784,0.6433295838757401,-105.03302454063885,44.83755721415762,63.29383034544465,0.47765591645642624,0.9138366074163167,-0.18117649732029342,1.274387787892314,-0.07684591888857234,0.4147190278700014,0.3241798764329196,0.31065490083288744,-0.41732328478830794,0.42565158070591996,0.9775534588760666,-171.62858345333376,3.394474762382501,9.486197586941865,0.6012733258823657,-0.2615370783981912,-0.14111063544849375,0.957280809138726,0.48594801660366294,2.415338236023535,-0.4096208339868831,-0.6295611848078311,-0.8605902286039191,-0.5253346406668981,1.0766492757749135,-156.9119643028294,9.195494084935405,24.655009413667603,0.1640374647340661,0.1264578829603557,0.9103635713138039,-0.01825833392280525,0.45310224140398975,1.6761240443222531,0.5169770460013751,0.404059887620143,0.4960227476190352,0.4647516746041269
0.94,-116.76458904987678,67.27080563581605,175.82791143331167,-0.11886119244454768,0.7969050653665333,0.307917958527799,0.20398793727646478,0.5923152100982637,0.4812110409942546,0.3860304777096119,0.1041705396040335,-0.4771234808975154,0.4541330158811233,1.2137196784245827,-105.1309551718243,43.82488370278138,63.638341995381815,0.34127615574086856,0.43905016664325947,0.07145506651021422,1.295149847820138,0.874356520297114,0.9539264307796939,0.26581005470215463,0.27416115161877896,-0.09389580580604572,0.16009296667234796,0.8800081476642355,-171.4014528770902,3.155130140973683,9.104262257637439,0.3822447629439693,0.011018399515866362,0.28179015705896016,0.8682516020327994,0.9372333089980359,2.4201328931585415,-0.42233402095593836,-0.571369608891312,-0.6653764805173988,-0.49343125026558315,0.9989812833516986,-157.51230749806982,8.381154997167018,24.63898201948393,0.03988008435650714,0.1255862909280989,0.5814347100349346,0.23926839045681234,0.5132774369058888,2.075972294005316,0.47327626462042655,0.39049027478325676,0.790862057062153,0.31613499474494666
0.95,-116.16643272034767,68.34046937319248,174.711628552495,0.11137676926620164,0.8675348171502855,0.1168576772733092,0.5191488345750885,0.6771238771807903,0.896296513722339,0.5270856652000068,0.4387070811362564,-0.548492550989689,0.5151213121690764,1.0304420215791312,-105.21554604471686,43.307714549328836,64.17600973891525,0.14014435586787705,0.22397605267011253,0.29893331569648085,1.1244512074012205,0.7086069177794136,0.9965793572327137,0.14163983289739834,0.18897496538804154,-0.5758143847570001,0.4301331668002911,1.1239623376156695,-171.14863012610957,3.109805889912524,8.354291978384193,0.3672876608207839,-0.12023097841118081,-0.09611540401487757,0.08213706595936213,0.9319318056291083,1.4681687415917415,-0.24193662229626273,-0.3278675908090966,-0.5205929447668298,-0.40937082063671015,1.1225164672487884,-157.9050712772187,8.31188713197563,24.995386179995634,0.3070786256040714,0.11750751106587246,0.5580577762669356,0.6539856982861226,0.40027957614977416,3.10875500032276,0.6611966306109108,0.556872510421392,0.7725699417165371,0.5284640423857486
0.96,-115.95469487819999,68.56863014836756,174.0948298191002,0.21498654724549035,1.0990327683219112,0.3081385116388162,0.7087079383348969,0.602328472232766,0.844858545018007,0.5771493319231046,0.6929118985710592,-0.5716052205721343,0.41755288096793886,1.0930295839167585,-105.04673392991467,43.70855853180602,64.18178908829024,0.18802530692039632,0.12899802540614444,0.20149500036831913,1.5158802415083588,0.5900719577386998,0.8986134467058988,0.44848330126468855,0.44995604653583154,-0.3723747964820816,0.44351401418304875,0.9349406663464336,-171.2526680959077,3.201941267167646,8.273795441833535,0.5362822445769163,-0.039293408638283914,-0.01890346078549357,0.24148375941773972,1.1289997126195113,1.6331944708948551,-0.222842010683378,-0.7071042381604453,-0.46620188870509915,-0.4287278656692003,0.9500972157433217,-157.83903494911723,8.340351627746843,25.027896128686166,0.18886825971346238,0.17069545155088095,0.2599071895675318,0.4930988240969226,0.19965224133207088,3.1122849107867565,0.38928943707526703,0.527617053351733,0.6617600454387956,0.6066942817381302
0.97,-115.88231635760026,69.21913768497276,173.3834029439084,-0.2826951542383467,0.9164758553201064,0.32396033666490404,0.5210011346819614,0.5632372385752326,0.5147478873458773,0.5274548362939449,0.6170438820304065,-0.5636151382734785,0.4895414327933315,1.1333127435235562,-105.1002968674929,43.665985164228765,64.14777292385995,0.09294046965112462,0.11094070716931137,0.18128655028610005,1.8835128304701738,0.2057345114682511,1.0295866045314233,0.5449537833530391,0.17491695384787065,-0.36379418100033867,0.4966563943146164,0.9072559138572838,-170.9356127352052,3.1255700787464655,7.984599807109643,0.6375348590564286,0.06469045272260569,0.12193660377643155,0.26781711679840803,1.0472555970392123,1.6563542701391867,-0.5679941257551347,-0.5737690053315819,-0.5223103092413807,-0.3068028594814533,0.862818737008041,-158.02539108249886,8.579725159152115,25.433896967288977,0.11152497143131293,0.0355828756448907,0.11002589909891608,0.5351799415126307,0.2148097390259993,3.5294362942899498,0.5915330691638244,0.30801475592270805,0.445588740510193,0.4258357414170611
0.98,-115.02916528662021,70.6160317644534,171.49273428057313,0.23866857022189286,0.7599603338512235,0.09781790353554706,0.12508981552516488,0.10364737468400458,0.43999540512472923,0.3467272215591625,0.5091487957700738,-0.3790529838529234,0.30404783232670457,0.8075093927574872,-104.82897335135682,42.8735140858405,64.48748721347367,0.1260607986809004,0.681322184991968,-0.1622081016704513,1.2920215159484265,0.6313901074787727,0.09714258576110049,0.33885493764783187,0.4918048749000626,-0.2532803834007875,0.19837977813670582,0.9117160558970838,-172.05710693997958,3.477433111852315,6.75994692205621,0.5154288408996405,0.30868577901132355,0.5446171484282573,0.8736641117321738,1.1020211583784774,1.9638691659674463,-0.6052647616985247,-0.5881860334556372,-0.626710962644041,-0.461620212097534,0.7411479964206651,-158.79511931712833,8.826832876711835,26.029228172421742,0.4103605254465171,0.1310312343882551,0.6534414794388942,0.33932583387646414,0.9702142205350681,1.7212220388640078,0.6070130329023895,0.7459547376191253,0.8107999317558978,0.40168254512278745
0.99,-114.69565694175617,71.6044389018997,170.09685287372568,0.08594426105131775,0.6803870832547869,0.07726817046352068,0.07496409216905159,0.3325153553165191,0.05885856518832458,0.5806073956968979,0.5722172882067005,-0.450412565402539,0.30303892646780833,1.184557982938991,-104.86139244310354,42.44156983938761,64.576305353042,0.16140666769273504,0.4526216315396769,0.09591437492408057,1.5250566046866363,0.6429019654946553,0.16085780266694744,0.2650156647739895,0.16023823136082738,-0.2529583730238903,0.012855190352996593,1.1515854027107175,-172.98790782886368,3.380554462787413,5.797493325490202,0.810487777242313,0.27326155366856886,0.6647581646847336,0.8595868088914395,1.1498327516480265,1.5150170056591648,-0.39367531746582846,-0.5020772921772185,-0.7238954353975573,-0.46989994943553953,0.9677096102346152,-160.1747686906821,8.839733934917335,26.800810465760105,0.8080071596803151,0.5684682097202586,1.1667316505479821,1.4744263703067497,0.29252521785856295,3.901190604341877,0.54113720370734,0.49256511347381193,0.3881031070289559,0.3668776585710371
1.0,-114.45891006888712,72.1153475014426,169.73433313216918,-0.17137234049950473,0.45792094385217347,0.173805572279915,1.3039955071228428,0.4142248016608643,0.46678980954250854,0.3949917911367727,0.1338792422498522,-0.3684923572001345,0.696038793956818,0.9364714746312202,-104.71231817094201,42.35661101097107,64.65428188236788,0.3371995901907701,0.07821966143148563,-0.17383984666591254,1.5249380567921806,0.24141342307472022,0.3268568357080377,0.2943934957832711,0.2614393563936736,-0.32942353183898704,0.3179279109901894,1.0954995769589322,-173.26714563369939,3.1037060760402047,5.290860269287643,0.5402774387772271,0.2803649987967846,0.37287718063019293,0.8115111844488101,0.9790804302449381,1.2527887138750793,-0.39593012267283356,-0.6974033769460324,-0.6521628084110412,-0.5135945142079148,1.1168597347816487,-161.86803742833112,8.408056704139375,27.83640934233642,0.7428123963458938,0.5718148902008285,1.2267165448690014,1.3829568433202089,1.5395230387292853,2.6596811023454254,0.4039606817133648,0.5369601851761687,0.5228615613324722,0.6019060055201382
1.01,-114.39660418918773,72.67282045603847,169.15702219020824,-0.04457309139933947,0.6703929396626928,0.355771353584213,1.281886099583231,0.975865721164486,0.2525587241597272,0.5628386802783527,0.45866180188771444,-0.5084032040669055,0.4359084991120376,0.7312078768734004,-104.82988396106991,42.461345661280724,65.09598433140674,0.06276050021373991,-0.016394468948783214,0.011084003591346543,1.251037380895747,0.5384135350441116,0.20560405902497753,0.5537472542587785,0.4454955440780317,-0.13605800207989846,0.1745946280302204,0.8918698562490252,-173.55284472392603,2.563318051442358,4.110514525148538,0.8656863059294468,-0.0035645067624931054,0.20519855828099123,0.29850575504146876,1.6950456109470406,0.51959934682507,-0.4661382796062801,-0.6718009744937298,-0.41907236378549323,-0.31477431659640664,1.3325318580649306,-163.4798209858805,8.204116363031877,29.40333189594913,1.013487159112411,0.3795790923842588,1.290726219583922,-0.1551445565983604,1.7238822932945754,0.841234552436951,0.8117861030978937,0.2568441327941507,0.44792055358531196,0.7519633535998945
1.02,-114.2408448794489,73.33787263414307,167.8442324093009,0.08186557270577172,0.7687108925997295,0.3903536656453819,0.7581891554889417,0.3251401864789888,0.4898427913910467,0.758357703930078,0.5965743947942831,-0.28648371926252686,0.24852341952823967,1.021370077236246,-104.5425636146375,42.7346808422047,64.87766217724908,-0.013833446635832592,0.33199054126855876,0.21555007978396928,1.1364497425110147,0.24375007269405166,0.12780507183106965,0.2708417836064409,0.5838421503864382,-0.4326644266487636,0.24089895498672312,1.142511962618116,-173.0072627994682,2.569692861787766,3.536597786295899,0.8246997259144276,0.3603142588828248,0.31391883190603587,0.3626250097791427,1.6379718221733965,0.24801792788982618,-0.5887487357884007,-0.6675516945055975,-0.44147609994755144,-0.3718160064324058,0.8045828416968176,-165.0043226625948,7.650159613755186,30.47434441012701,1.1770342677515693,0.07373987644953339,1.4950492157836894,0.12258865275348063,0.25033676895319695,0.5630453040773844,0.8576004394057732,0.3035612870925493,0.4049613040940847,0.33382468659661124
1.03,-114.020287353231,73.77446248552161,167.21065689082613,0.31948506310830016,0.8308226030850595,0.08360520867252749,0.9562024895955473,0.3265661183117746,0.22927984685612696,0.5833545265712253,0.6278590677283495,-0.8033001959365058,0.224761941520614,1.057647964672286,-104.69085703284948,42.60329064650224,64.99800970881913,0.32100559599734785,0.14352943700903073,-0.019002895362203287,1.269128985380306,0.06795590280685784,0.4919581412877905,0.4252723960146734,0.39126697150540946,-0.21264353502091976,0.3719222464822119,1.0782756628383428,-172.7852410353615,2.2654591762404053,2.6799210007335605,0.7904864223200438,0.15904337453930173,0.6272949634165379,0.015593895191491042,1.127501563688657,-0.2356780398888701,-0.27280272209755896,-0.5219678643971972,-0.48722054164388073,-0.5225130110609632,0.916595310017813,-165.9170349551637,7.16334053098871,31.737462619657972,0.7933716377487803,-0.07057516733747585,0.8866132070191679,1.6841972383217951,2.7298606350939187,1.0812023862164402,0.6377328037603784,0.49000616467228975,0.4975278744184653,0.6123027362867761
1.04,-114.20618426626545,74.59135643957207,166.40930147838955,0.07146825438429275,0.6024072291944926,0.28268343807005725,1.719331465901125,-0.0005485001138890305,0.47762148993727405,0.39830048948194596,0.6495148966251296,-0.4162485920779155,0.1972266249428592,1.128802023960069,-104.5162576196043,42.84350176234335,65.11566781576335,0.23016912438505266,0.37550800468036866,-0.12743259802718135,1.1216576739778117,0.04669679010945105,0.5284410590830408,0.4809199968357388,0.33080234321285995,-0.420095758562311,0.5546359685665843,0.9909604054637816,-170.87608627747088,2.224917685741078,0.7479887831956211,0.5265380709855441,0.32011753085743205,0.37367975079327803,1.0567544953042927,0.23158003673668684,1.8217572806093676,-0.3171369208163792,-0.3105034072734426,-0.3839613839603118,-0.18765020334630497,0.995798845299562,-166.35748471692565,6.712174690228857,32.98351962107013,1.0926972184045636,0.3283065857792533,0.024864518810710834,1.4148592978418864,3.7031917993900167,0.3562247451902534,0.36804137294393346,0.20447556086376661,0.4985249165615127,0.39757931432887356
1.05,-114.01684601874052,74.95136701058577,166.12190473217782,0.0110544427213152,0.3750373366243204,0.09368787811934359,1.5372538386743426,0.14929268703167276,0.3074736546492313,0.34247734859606027,0.5525832105180575,-0.6376899925143813,0.41942101843231244,0.9933088865041759,-104.44815940984941,43.04130923293214,65.68564583881427,-0.054732988680217656,0.3302116082855227,-0.004953296035548629,0.7615279775100141,0.5328166289973706,0.5312638531886247,0.11936361005529957,0.5088457536444405,-0.3260919877731693,0.257371255249737,1.167548424053091,-170.9831389929412,2.030394953166435,0.9233158474883276,0.4442027653696104,0.3305937465486588,0.1777157226644017,1.547212166048986,0.2444143245292053,1.5164402725398494,-0.35855825153005794,-0.413679280434946,-0.4066313822239497,-0.7063373678314063,1.0852677071758323,-165.18744947734362,7.015241830719363,33.72044495044415,0.8873674404123464,0.7850783400564785,1.16604275344867,0.6393122054610656,4.998970199667803,0.04192526131441769,0.5391414787087583,0.4003074620327982,0.434121817377975,0.4541373162877807
1.06,-113.98899876597552,74.8889629119406,165.92179940602776,-0.012240600748145168,0.33853064484872997,-0.05667961732839574,1.6135507119017118,0.2919605588190335,0.11442678225163426,0.5507350285079089,0.45547339947052295,-0.30886549883481806,0.5624000151514676,0.9977835922397497,-104.26505409619367,43.30486904002473,65.76537052220034,0.06473777417800844,0.30805732418630083,0.09660111875241773,0.3204501369344922,0.24412836723405373,0.6913510174998413,0.3144115632509257,0.18057854277172883,-0.18342033174123434,0.2422919420602433,1.0796519652410084,-170.89216560781313,2.0290670982094023,0.27913563959158816,-0.07797747020285496,0.12099149086461201,0.2822613044865274,0.5767129448062913,1.4258840037039175,1.538173285381724,-0.2747516298507519,-0.6866089115975691,-0.43770849978418414,-0.46725565476304953,1.0635524675533692,-162.4561904788012,7.749465507417154,34.317385694078624,1.1689256736240299,0.46294193649302895,2.187735903982095,0.46955619251892305,0.9268716213818768,0.15990726314116147,0.3594396859238182,0.1325234276582967,0.6047451634580264,0.5433409095327292
1.07,-113.73490277903328,75.78014110591408,165.8137129754139,0.2122939789870279,0.22680572528458537,-0.015967457276505788,1.2540699460975084,0.22064892981762646,0.0718876987333619,0.4865783447155893,0.1200540215372618,-0.2359518206748537,0.3085742624134187,1.1635930632382798,-104.51536093795595,43.369472688365526,65.50887844602708,-0.1334527574291925,-0.028182308749629834,0.03305976914318578,0.8198290953793788,0.5887801048536185,1.8912740341313132,0.02062077837428869,-0.07597337729376055,-0.299400549087999,-0.08134862725220673,0.8386089097167019,-171.07557483290984,1.624207214465559,0.16743752778146478,-0.011380403485878418,0.07793361769147426,0.6272242095187309,0.752960167402891,1.0348612817551242,1.7087891151776389,-0.22303188991452128,-0.821375295794614,-0.6276205745507372,-0.5242206688280701,0.9559855575680104,-159.97088130074283,8.672791448286876,35.97001084788686,1.3560062598599893,0.48948368940488085,2.0418513177873185,0.234804779842653,1.5549302971289782,0.21277858771459443,0.5588509916037019,0.2723160173587742,0.735042678313305,0.46575664507341497
1.08,-114.04057460226058,75.51645111800185,165.9892257503201,-0.2127005835040861,0.02204533527827996,-0.07591499128666859,1.481147336736076,0.07245377077403212,0.06917475669221287,0.5716321786823642,0.49594648127655,-0.32718552233678966,0.5750938915380772,1.0496785421763948,-104.29575096722668,43.45717526154975,65.9228999316674,-0.0028046802680896203,-0.1124574909408888,0.04297012398864749,1.5857945167812835,0.24818760188201464,2.302297685215968,0.47330076449809977,0.27027667462628996,-0.41745070120411687,0.4971250634667618,1.057468368371448,-171.50750362424552,1.5778585256891535,-0.0571774177635805,0.014220065981430519,0.3859160387047601,0.619588042943972,0.11195458548519116,1.3450793711046205,0.9527574755388175,-0.6202352724829021,-0.8387377707510404,-0.4238512624429744,-0.350564770651555,0.8905015926184698,-157.91251385934038,9.195743076741214,36.670778379788906,0.9058240997810396,0.5618899490634139,1.4372406234594717,1.6921618529598772,1.9713008576520372,1.751730891114275,0.5592963218681324,0.19124913197245186,0.3283562765062652,0.3907688664155745
1.09,-113.94726235830936,75.59345873994315,166.1554686868154,-0.05629490115732799,-0.15357181665046848,-0.026342926629805134,1.4110365410491308,0.15901914579246465,0.09105365248203368,0.5312601680415386,0.4825906590965614,-0.48219288909585756,0.389403516482095,1.0132566297874672,-104.1717563693016,43.748525419696165,65.80975252268782,-0.04057658654701789,0.10893656872509547,0.11386603539464296,0.9694298990642254,0.46024652483700423,1.844270464165025,0.24041818229255182,0.2754462479568318,-0.38869288402189056,0.07548537555559658,1.1596122981262296,-172.20454077198926,0.686583428110295,0.21596466080046994,0.07930061212835365,0.18916719697422166,0.23939926074579018,0.4541881115530445,2.5450099633840044,0.48378577995930794,-0.3919202777986708,-0.4307590948851312,-0.6039448415233387,-0.5959526429416865,1.136685808461846,-157.23455668951718,9.299950568883572,36.96765618747021,0.5629371631549527,0.1075239901327305,0.8894700660038115,1.7974387531690312,0.650695929548965,1.5521546851739516,0.6489205274543938,0.6714688281817932,0.8252505397377758,0.3259535719972192
1.1,-114.23421514715325,75.4064404308385,166.63025776041212,0.008775691851577505,0.02164137533756512,0.10417709788570337,1.1867284776629172,0.12872928004602988,0.07773111817720105,0.67068816537558,0.7259832397885071,-0.3923928462583978,0.5097384302663619,1.235685274703077,-104.18794409072466,44.15332355629049,65.47694014173547,0.35589783793688046,-0.20684927240541687,-0.031176164821031783,1.2085822101969887,0.0034739446006041563,1.0209938060049923,0.25655832795749267,0.39604643167386483,-0.41066195992557253,0.4451600295811075,1.0852471737620921,-172.1891363497523,0.8150060372820593,0.652252934915317,0.24780859108400463,0.16021415913550197,0.23831441327269173,0.44324271259526726,1.8978234216103278,0.5103735865274299,-0.3039990634153076,-0.5149577527931162,-0.3881122825193186,-0.5847587072973462,1.1866331480419334,-156.17409594742338,9.919096065021334,37.2685507000032,0.6282923778235548,-0.031144678388374265,0.9291000058602015,0.3088931332267504,1.0928429001233082,0.8476795757251393,0.4457637430704779,0.4277240183684431,0.628803407998036,0.6050587216980128
1.11,-114.4941894510042,75.06976710982335,167.82214458389691,0.13613881467883399,0.49061160588549446,0.10154605923354301,0.7999507418068439,-0.07838086678163189,0.3545087528409589,0.456056148739898,0.5835743014894667,-0.43424136825206555,0.3834457559515845,1.3498509893919413,-104.1226546310028,44.115215217020655,65.1368943766653,0.11703352792954799,0.23735566135306752,-0.1499515675553951,1.6661802249790996,0.6030888359213904,0.7368646101500381,0.3414073132329606,0.34544583473228085,-0.01739174101022281,0.43808581700212235,1.1331190899554042,-171.92822916515348,0.7359361925160605,1.1697443501023428,0.16888718928686572,-0.09312718645483792,0.49912837247241687,0.2219486440498189,0.39312980906497313,0.5965770221707654,-0.335186501167326,-0.41035851776167,-0.4583932310459245,-0.4421856574724675,1.292254693324185,-153.34166336196955,10.720929707752587,37.27149568161132,0.09617187963495694,0.07083233521643276,1.064250401796643,0.4824435383925361,0.24230696527370704,0.2635607446407704,0.39724401285617517,0.3476838403707776,0.6677173551958597,0.3925987978153263
