0.01,-111.41,74.81,165.69,0.06,1.06,0.18,2.04,0.76,0.34,-99.45,82.18,100.02,0.19,0.66,-0.03,0.81,0.44,0.16,-156.08,3.3,8.37,0.2,-0.03,0.0,0.07,0.05,-0.17,-127.88,9.2,9.08,0.04,0.07,0.18,0.34,0.13,0.11
0.02,-111.08,74.0,166.56,0.06,1.19,0.09,1.92,0.2,0.27,-99.59,81.64,106.97,0.38,0.87,-0.18,1.36,0.57,0.18,-156.37,3.1,8.15,0.07,0.15,-0.04,0.33,0.12,-0.19,-127.91,8.94,9.18,-0.06,0.03,0.01,0.53,0.55,0.53
0.03,-110.64,71.62,168.41,0.19,1.31,-0.01,2.49,0.58,0.83,-99.71,81.49,113.73,-0.09,0.99,-0.05,2.25,0.07,-0.03,-156.28,3.3,8.16,0.26,0.16,0.04,0.07,0.08,0.07,-127.75,8.98,9.06,0.23,0.14,0.09,0.82,0.74,0.59
0.04,-110.13,70.24,169.12,0.45,1.3,-0.03,2.79,0.33,0.63,-99.82,80.81,120.63,0.03,1.13,0.0,2.32,0.07,0.46,-156.17,3.32,8.07,0.17,0.24,0.09,0.08,-0.07,0.19,-127.64,9.1,9.34,-0.14,0.12,0.24,0.84,0.74,0.22
0.05,-109.3,66.49,171.3,0.21,2.04,0.19,2.48,0.21,0.08,-99.69,78.72,120.58,0.18,1.81,0.09,2.05,0.33,0.47,-156.35,3.03,8.01,0.03,0.04,0.06,0.07,-0.03,-0.07,-127.47,8.94,9.02,0.05,0.13,0.09,1.08,0.81,0.39
0.06,-108.95,64.08,172.05,0.21,2.22,0.14,1.75,0.81,0.4,-99.28,77.64,120.74,0.09,1.69,-0.02,2.31,0.42,0.45,-156.62,2.86,7.86,0.03,0.04,0.02,0.22,-0.0,-0.01,-126.99,8.69,8.75,-0.0,0.3,0.45,1.3,0.65,0.9
0.07,-108.52,61.64,172.78,0.04,2.12,0.19,-0.2,0.97,0.07,-99.3,73.56,128.83,0.21,2.09,-0.18,2.66,0.17,0.8,-156.51,2.94,7.75,-0.07,0.23,0.25,0.42,0.07,0.43,-126.78,8.69,8.77,0.36,0.25,0.49,1.33,0.72,1.66
0.08,-108.36,59.5,173.9,0.08,1.9,0.28,0.56,0.31,0.05,-99.08,71.72,132.06,0.04,2.19,0.01,3.21,0.43,0.96,-156.89,2.8,7.49,0.19,-0.04,0.21,0.84,1.63,0.73,-126.3,8.43,8.31,0.1,0.27,0.87,1.01,0.3,1.92
0.09,-108.21,57.58,174.5,0.32,1.71,0.37,0.37,0.98,0.27,-98.85,69.73,134.31,0.01,2.08,0.04,4.52,0.45,1.31,-156.88,2.75,7.43,0.3,0.03,0.19,1.24,1.65,0.47,-125.51,8.35,8.35,0.22,0.14,0.79,1.23,0.01,2.32
0.1,-107.75,55.49,174.86,0.26,1.44,0.09,1.63,0.13,0.83,-98.62,68.63,135.74,0.18,2.27,0.16,4.44,0.19,0.45,-156.23,2.51,7.24,0.38,-0.01,0.22,1.43,1.7,0.1,-124.81,8.21,7.88,0.18,0.16,0.54,1.03,0.27,3.05
0.11,-106.79,53.86,174.69,0.16,1.99,-0.0,0.13,0.1,1.54,-98.39,66.09,137.91,0.23,2.34,0.22,4.27,0.19,0.33,-155.83,2.68,6.81,0.29,0.1,0.37,1.09,1.79,0.92,-124.05,8.25,7.67,0.19,0.31,0.35,0.66,0.11,3.2
0.12,-106.51,52.93,174.79,0.24,1.88,0.05,0.91,0.37,1.43,-98.34,64.69,138.58,-0.07,2.6,-0.0,3.75,0.68,0.31,-155.47,2.83,6.8,0.21,0.29,0.36,1.28,1.66,0.99,-123.46,8.15,7.61,0.18,0.18,0.57,0.66,0.09,3.13
0.13,-106.32,51.87,174.76,0.2,1.89,0.07,2.07,0.58,1.34,-98.33,63.47,139.72,0.16,2.58,0.09,3.23,0.62,0.57,-155.23,2.79,6.66,0.08,0.13,0.71,1.1,1.57,1.22,-123.51,8.03,7.43,0.1,0.16,0.53,0.72,0.11,3.1
0.14,-107.02,49.79,175.69,0.16,1.89,0.42,2.23,0.38,1.38,-98.13,60.44,141.45,0.26,2.88,0.12,3.3,0.38,0.09,-154.5,2.86,6.22,0.25,0.2,0.75,1.16,1.04,1.68,-122.87,7.88,7.05,0.28,0.09,0.49,0.68,0.07,3.13
0.15,-106.75,48.01,176.28,0.06,1.53,0.38,1.48,0.19,0.89,-97.82,53.93,143.62,0.32,3.09,0.12,1.52,0.61,0.42,-153.53,3.15,5.76,0.36,0.15,0.81,1.03,0.47,2.28,-122.33,7.7,6.85,0.09,0.14,0.48,0.26,0.5,3.62
0.16,-106.11,46.33,176.19,0.14,1.55,0.15,0.95,-0.1,1.16,-97.05,50.41,144.63,0.05,3.26,0.21,0.99,0.54,0.5,-152.69,3.25,5.28,0.51,0.0,0.69,0.93,0.49,3.09,-121.75,7.72,6.32,0.16,0.14,-0.14,0.38,0.68,4.69
0.17,-106.31,44.75,176.24,0.14,1.33,-0.08,0.38,0.02,1.86,-97.11,43.64,146.03,0.08,2.87,0.05,0.21,0.5,0.69,-152.12,3.36,5.2,0.29,0.14,0.59,0.87,0.4,2.81,-121.87,7.42,6.24,0.2,0.12,0.03,0.21,0.71,5.37
0.18,-106.2,42.84,176.19,0.19,1.87,-0.01,0.84,-0.09,2.28,-97.01,40.31,146.29,0.17,3.02,0.25,1.15,0.63,0.82,-151.42,3.36,4.73,0.35,0.13,0.57,1.01,0.6,3.01,-121.6,7.26,5.88,0.14,0.07,0.04,0.22,0.01,5.22
0.19,-105.86,40.97,176.38,0.12,1.89,0.07,0.85,0.55,0.73,-96.87,36.84,146.82,0.18,3.0,-0.06,1.51,0.36,0.65,-150.73,3.56,4.55,0.3,0.23,0.61,0.86,0.52,3.15,-121.42,7.22,5.74,0.03,0.06,0.13,0.36,0.2,4.68
0.2,-105.87,39.04,176.58,0.02,1.76,0.01,1.29,0.16,0.48,-96.42,33.9,147.13,0.05,2.49,0.19,1.24,0.63,0.24,-150.31,3.86,4.27,0.38,-0.07,0.03,1.21,0.36,3.19,-120.99,7.33,5.49,0.27,-0.06,0.31,0.15,0.45,4.44
0.21,-106.14,37.16,176.76,0.04,1.55,0.16,2.36,0.32,0.95,-96.42,31.1,147.51,0.18,2.43,0.14,0.92,0.46,1.34,-150.04,4.0,3.91,0.33,0.25,0.19,1.03,0.47,3.91,-120.69,7.29,5.2,0.08,0.08,0.31,0.14,0.55,3.27
0.22,-105.98,35.49,176.94,0.15,1.52,0.17,2.94,0.69,0.05,-96.06,28.71,147.59,-0.15,2.16,0.13,1.11,0.23,1.28,-149.68,4.09,3.69,0.62,0.33,0.36,1.15,0.07,4.79,-120.48,7.26,4.69,0.18,-0.11,0.53,0.01,0.69,2.21
0.23,-106.0,33.84,177.36,0.27,1.32,-0.01,1.54,0.18,1.0,-96.14,26.21,148.02,0.38,2.21,0.06,1.76,0.54,0.63,-149.47,4.43,3.11,0.36,0.56,0.46,0.93,0.17,4.87,-120.39,7.22,4.3,0.22,-0.06,-0.04,0.22,0.09,1.54
0.24,-106.25,33.78,177.26,0.06,1.41,0.2,1.73,0.3,0.54,-96.07,24.91,148.19,0.45,2.21,0.06,1.49,0.71,1.43,-149.01,4.42,2.98,0.42,0.26,0.21,0.66,0.15,5.16,-120.32,7.51,4.27,0.27,-0.0,0.03,0.36,0.4,1.3
0.25,-106.47,33.09,177.24,0.05,1.21,-0.1,1.44,0.47,0.38,-96.06,23.63,148.61,0.33,2.22,0.05,1.25,0.83,2.21,-148.73,4.51,2.71,0.57,0.16,0.2,0.77,0.41,5.2,-120.5,7.42,3.97,0.55,0.06,0.15,0.31,0.65,1.08
0.26,-106.43,30.88,177.32,-0.13,1.0,0.16,1.71,0.33,0.56,-96.15,21.51,148.91,-0.02,1.65,0.19,0.9,0.29,1.91,-148.19,4.48,2.2,0.28,0.17,0.48,0.58,0.25,4.85,-120.52,7.33,3.61,0.32,0.05,0.17,0.44,0.27,0.61
0.27,-106.57,29.44,177.24,0.23,1.0,0.13,2.07,0.36,0.74,-95.88,19.76,148.99,0.09,1.88,-0.02,1.26,0.17,0.5,-147.63,4.9,1.98,0.45,0.1,0.56,0.4,0.13,4.66,-120.53,7.53,3.22,0.4,0.17,0.13,0.73,0.13,0.96
0.28,-106.6,28.52,176.95,0.12,0.98,0.32,1.77,0.34,0.5,-95.84,17.78,149.22,0.15,1.56,-0.01,1.5,0.23,2.26,-147.09,4.78,1.65,0.38,0.01,0.43,-0.02,0.61,3.37,-120.69,7.59,2.82,0.45,0.04,0.19,0.73,0.51,1.58
0.29,-107.27,27.6,176.58,0.28,0.9,0.29,2.2,0.2,1.18,-95.82,16.19,149.28,0.19,1.5,-0.23,1.07,0.28,3.01,-146.7,4.8,1.53,-0.03,0.03,0.41,0.28,0.72,2.96,-120.93,7.9,2.57,0.19,-0.02,0.24,0.62,0.54,1.59
0.3,-107.65,26.62,176.47,0.2,0.55,0.15,1.35,0.87,1.55,-95.43,14.96,149.52,0.02,1.37,0.15,0.64,0.5,2.17,-146.31,4.56,1.38,0.23,0.17,0.26,0.91,0.04,1.69,-120.93,8.25,2.14,0.21,-0.03,0.06,0.4,0.14,1.74
0.31,-107.61,26.27,176.74,0.22,0.52,0.33,1.37,0.71,0.77,-95.42,13.61,149.68,-0.01,1.07,0.08,1.07,0.75,1.87,-146.15,4.54,1.25,0.31,0.38,0.34,0.56,0.2,0.96,-120.6,8.71,2.19,0.02,0.08,0.24,0.66,0.5,2.19
0.32,-108.0,25.73,177.11,0.09,0.04,0.1,1.94,0.97,1.74,-95.25,12.36,150.01,0.08,1.23,0.27,0.89,0.96,2.59,-145.49,4.16,1.42,0.06,0.15,0.14,0.89,0.33,0.8,-120.46,8.9,1.83,0.13,0.25,0.43,0.83,0.08,2.24
0.33,-107.75,25.35,177.11,0.07,0.23,0.02,1.76,1.52,2.01,-95.23,11.02,150.01,0.17,0.74,-0.09,1.11,0.01,2.76,-145.05,3.74,1.83,0.07,0.25,0.28,1.17,0.31,1.11,-119.4,9.51,1.66,0.06,0.16,0.4,1.0,0.22,2.66
0.34,-108.23,25.57,176.79,0.02,0.01,-0.08,1.4,0.33,1.75,-95.35,10.54,150.28,0.06,0.61,-0.13,0.9,-0.07,3.56,-144.83,3.48,2.16,0.23,0.19,0.19,1.05,0.67,1.62,-119.09,9.47,1.86,-0.02,0.04,0.4,1.11,-0.05,2.88
0.35,-108.4,25.58,176.9,0.04,-0.01,0.15,1.79,0.35,1.09,-95.37,9.98,150.32,-0.05,0.55,0.03,0.31,0.22,3.13,-144.63,3.16,1.91,0.11,0.28,0.12,0.44,0.51,1.65,-118.76,9.86,1.82,0.12,0.01,0.45,1.05,0.27,3.4
0.36,-108.27,25.54,176.57,0.09,0.08,-0.11,1.57,0.53,1.26,-95.39,9.73,150.44,-0.01,0.54,0.03,0.72,0.22,2.77,-144.32,3.13,2.3,0.1,0.29,0.4,0.8,0.64,1.56,-118.66,9.81,1.8,-0.0,0.07,0.53,0.81,0.51,3.45
0.37,-108.22,25.52,176.75,0.08,0.01,0.09,1.49,0.32,1.57,-95.45,9.56,150.32,-0.05,0.34,-0.01,0.8,0.14,2.23,-144.05,2.91,2.26,0.16,0.37,0.65,1.05,0.64,1.75,-118.41,9.66,1.84,0.29,0.06,0.71,0.64,0.5,3.36
0.38,-108.71,25.96,176.67,-0.07,0.3,0.06,1.21,0.27,1.51,-95.37,9.16,150.3,0.07,0.04,0.21,0.9,0.59,1.9,-143.18,2.58,2.44,0.19,0.11,0.63,0.86,0.67,1.97,-117.68,9.67,1.56,0.21,0.18,1.01,0.8,-0.05,3.58
0.39,-108.58,25.81,176.51,0.17,0.13,0.02,1.94,1.05,1.49,-95.29,9.15,150.63,0.18,-0.01,0.14,0.47,0.29,3.45,-142.65,2.31,2.8,0.35,0.17,0.95,0.94,0.86,2.05,-116.59,9.52,1.36,0.13,0.07,0.71,0.72,1.39,4.67
0.4,-108.81,26.23,176.74,0.16,0.1,0.1,1.87,0.63,1.06,-95.49,9.4,150.67,-0.04,0.25,0.18,0.49,0.19,2.08,-141.65,2.22,2.82,-0.01,0.1,0.86,1.01,1.09,1.91,-115.99,9.4,1.05,0.04,0.19,0.04,0.72,1.9,4.15
0.41,-108.8,26.53,176.57,0.09,0.26,0.29,1.89,0.26,1.25,-95.41,9.67,150.82,0.1,0.52,0.19,0.78,0.5,2.75,-140.92,1.84,3.21,0.23,0.34,0.73,0.89,0.87,2.47,-116.19,9.5,1.47,0.48,0.04,0.74,1.28,0.36,4.0
0.42,-108.76,27.04,176.43,0.18,0.61,0.18,1.84,0.14,1.52,-95.41,10.26,150.94,0.12,0.46,0.19,0.77,0.3,3.11,-140.23,1.53,3.49,0.21,0.32,0.84,1.13,0.74,2.92,-117.5,9.39,1.79,0.47,0.11,0.87,1.59,1.36,3.89
0.43,-109.38,27.85,176.25,0.03,0.63,0.07,1.85,0.13,0.73,-95.54,10.83,151.06,0.24,0.44,0.14,0.86,0.16,3.4,-139.47,1.05,3.61,0.08,0.31,0.47,1.11,0.74,3.52,-117.58,9.2,2.52,0.32,-0.04,0.33,0.44,0.66,4.23
0.44,-109.32,28.04,176.45,0.35,0.72,0.2,1.46,0.1,-0.01,-95.37,11.31,151.23,-0.03,0.62,-0.06,1.2,0.36,2.45,-139.15,0.82,4.0,0.24,0.03,0.58,1.37,0.13,3.19,-117.68,9.29,2.66,0.14,0.17,0.23,0.03,1.39,4.2
0.45,-109.41,28.74,176.54,0.01,0.81,0.09,1.35,0.34,0.69,-95.71,12.24,151.32,-0.1,0.75,0.19,1.34,0.47,2.4,-138.33,0.89,4.05,0.13,0.02,0.86,1.06,0.31,3.08,-116.92,9.44,2.75,0.52,0.23,0.49,1.59,5.08,5.0
0.46,-109.9,29.92,176.32,0.12,0.83,0.11,1.6,0.87,0.87,-95.78,13.35,151.34,0.04,1.08,0.16,0.93,0.14,2.25,-137.64,0.96,4.19,0.09,-0.07,0.91,0.69,0.13,3.72,-117.03,9.64,3.16,0.41,0.29,0.65,0.92,1.47,5.26
0.47,-110.08,30.98,175.92,0.11,1.0,-0.07,1.48,0.43,0.61,-95.78,14.71,151.49,-0.01,1.1,0.03,1.16,0.4,2.32,-136.9,0.69,4.53,0.1,0.12,0.46,1.21,1.3,4.2,-117.81,9.84,3.77,0.68,0.11,0.58,1.2,1.99,5.3
0.48,-110.09,31.49,176.05,-0.14,1.29,0.15,1.28,0.34,0.2,-95.63,14.88,151.5,0.11,1.21,0.02,0.83,0.35,1.85,-136.71,0.45,4.58,0.09,0.08,0.31,1.09,1.98,3.82,-118.13,9.98,4.09,0.63,0.61,0.75,1.39,1.08,5.42
0.49,-110.29,32.31,175.99,-0.0,1.21,0.05,1.37,0.19,0.24,-95.58,15.5,151.39,0.2,1.02,0.27,0.79,0.5,1.18,-136.67,0.47,4.55,0.13,0.18,-0.04,1.25,2.45,3.67,-118.64,10.34,4.35,0.32,0.45,0.89,1.72,0.58,5.82
0.5,-110.39,33.7,176.04,0.15,1.31,0.02,1.31,0.29,0.23,-95.62,16.72,150.99,0.26,1.19,0.17,0.72,0.75,1.21,-136.49,0.28,4.65,0.45,0.06,0.26,1.03,1.66,3.56,-119.42,11.2,4.95,0.41,0.81,0.6,1.15,0.44,5.04
0.51,-110.19,35.08,175.67,0.3,1.46,0.17,1.12,0.25,0.39,-95.69,18.2,150.91,0.31,1.42,0.01,0.69,0.12,1.31,-137.03,0.16,4.95,0.33,0.16,0.68,0.99,1.33,4.29,-120.13,11.72,5.84,0.74,1.01,0.93,0.8,1.96,3.81
0.52,-110.6,36.8,175.37,0.19,1.53,-0.13,1.16,0.37,0.48,-95.47,19.61,150.45,0.26,1.34,-0.02,0.62,0.25,0.69,-137.64,-0.05,5.43,0.26,-0.08,0.67,1.05,0.1,3.98,-120.99,12.65,6.85,0.4,0.65,-0.11,0.47,0.63,3.93
0.53,-110.65,38.23,175.16,0.09,1.36,0.03,1.39,0.24,0.91,-95.46,21.26,150.15,0.29,1.57,0.02,0.87,0.4,0.34,-138.21,-0.01,5.84,0.15,0.19,0.27,0.49,-0.04,4.09,-120.82,13.62,7.06,0.38,0.76,0.24,0.0,0.69,3.5
0.54,-110.65,39.92,174.91,0.07,1.62,-0.05,1.14,0.17,1.02,-95.37,22.89,149.84,0.29,1.57,0.1,0.57,0.31,0.47,-138.59,0.2,5.76,0.01,0.16,0.11,-0.06,2.95,4.63,-120.94,14.55,7.77,0.37,0.66,0.16,0.18,0.56,3.47
0.55,-110.5,41.82,174.81,0.23,1.66,0.16,0.98,0.13,0.9,-95.45,24.64,149.69,0.06,1.53,0.14,0.62,0.21,0.47,-140.09,0.53,5.63,0.09,0.12,1.29,0.4,0.53,5.15,-121.11,15.07,8.45,0.49,0.54,0.47,0.07,1.35,3.06
0.56,-110.61,43.84,174.43,0.2,1.71,0.08,0.88,-0.07,0.5,-95.21,26.62,149.19,0.37,1.78,0.25,0.71,0.25,0.27,-141.25,0.61,5.35,0.27,0.3,1.09,0.74,1.05,5.03,-121.46,15.89,8.89,0.52,0.83,0.18,0.5,1.3,2.69
0.57,-110.52,45.42,173.91,0.16,1.79,-0.02,0.85,-0.0,0.97,-95.26,28.65,148.75,0.27,2.0,0.0,0.87,0.16,0.12,-142.22,0.77,4.84,0.43,0.12,1.06,0.31,0.7,4.53,-121.32,16.89,9.6,0.48,1.06,0.29,0.6,0.54,2.63
0.58,-110.66,47.43,173.41,0.36,1.55,-0.01,0.77,0.19,0.77,-95.25,30.83,148.48,0.2,2.05,0.05,0.53,0.19,0.69,-143.64,1.09,4.4,0.43,0.31,0.95,0.17,0.23,4.28,-121.8,17.76,10.36,0.31,1.15,0.52,0.9,0.22,2.76
0.59,-110.73,49.38,173.31,0.25,1.78,-0.08,1.1,0.12,0.88,-95.29,33.03,148.44,0.32,1.89,0.02,0.19,0.31,0.49,-144.44,1.47,4.21,0.34,0.15,0.78,0.12,1.48,3.58,-122.28,18.79,11.21,0.68,0.9,0.28,0.1,0.29,2.47
0.6,-110.5,50.46,172.73,0.21,1.72,0.13,0.75,0.05,1.0,-95.41,34.27,148.5,0.21,2.32,0.15,0.21,0.13,0.3,-144.88,1.21,3.89,0.58,0.19,0.5,0.06,1.37,3.26,-122.12,19.13,11.63,0.62,1.08,0.13,0.28,0.39,2.36
0.61,-110.58,51.36,172.84,0.09,1.86,-0.04,0.61,-0.03,0.79,-95.12,35.57,148.23,0.26,2.13,-0.04,-0.06,0.28,0.24,-144.87,1.63,3.6,0.63,0.05,0.32,-0.04,0.88,3.29,-122.23,19.81,11.87,0.44,1.17,0.04,0.48,0.31,2.37
0.62,-110.7,53.42,172.26,-0.21,1.92,0.19,-0.04,0.29,1.14,-95.25,37.81,148.15,0.3,2.1,-0.04,0.12,-0.06,0.65,-145.47,1.76,3.13,0.63,0.07,0.23,0.73,1.14,2.79,-122.25,21.22,12.7,0.65,1.1,-0.01,0.09,0.59,1.77
0.63,-111.51,55.54,171.89,0.07,1.85,0.14,0.18,0.46,1.17,-95.38,40.12,148.26,0.35,2.14,0.05,0.31,0.2,0.4,-145.38,1.77,1.93,0.72,-0.13,0.3,0.8,1.21,2.69,-122.69,22.6,13.79,0.85,1.21,0.83,0.14,0.66,1.54
0.64,-112.07,57.32,171.8,0.03,1.54,0.19,0.76,0.13,0.91,-95.42,41.25,148.37,0.11,2.32,0.12,0.29,0.27,0.01,-145.99,1.62,1.27,0.45,0.07,0.55,1.3,0.19,1.86,-123.25,23.81,15.03,0.74,1.31,0.38,0.7,0.16,1.18
0.65,-112.19,59.61,171.12,0.18,1.96,-0.08,0.78,0.04,0.71,-95.53,43.83,148.2,0.07,2.09,0.14,0.29,0.67,0.33,-146.48,1.81,0.61,0.71,0.16,0.32,0.85,0.96,1.7,-123.71,25.27,16.25,0.65,1.3,0.39,0.16,0.19,0.49
0.66,-112.08,61.7,170.25,0.09,1.94,0.32,0.13,0.12,0.7,-95.4,46.6,148.3,0.0,2.16,-0.01,0.12,0.53,0.9,-147.04,1.76,0.83,0.7,-0.11,0.61,1.21,1.91,1.88,-124.19,26.76,17.47,0.59,1.52,0.74,0.28,0.22,0.32
0.67,-112.21,63.78,169.05,0.11,1.85,0.24,0.87,0.09,0.92,-96.38,48.87,148.16,0.03,2.26,0.13,0.29,0.36,0.36,-147.68,1.99,0.69,0.67,0.08,0.83,1.24,1.62,1.86,-125.33,27.9,19.35,1.1,1.73,0.92,0.52,1.59,0.57
0.68,-113.15,67.47,167.46,0.31,1.8,0.05,1.52,0.56,0.52,-96.69,51.64,148.27,-0.11,2.44,-0.07,0.51,0.16,0.3,-148.98,2.16,1.19,0.67,-0.08,1.09,1.17,0.97,1.34,-126.72,31.49,23.14,1.29,2.11,0.53,0.82,1.99,0.31
0.69,-113.44,68.4,166.99,0.06,1.42,-0.01,1.12,0.26,0.89,-97.52,54.36,148.21,-0.02,2.64,0.28,1.56,0.38,0.46,-150.17,2.16,1.99,0.65,0.16,1.37,0.53,0.85,0.91,-127.18,33.45,25.61,1.21,2.16,0.4,0.63,0.89,0.92
0.7,-113.72,71.28,165.22,0.26,1.06,-0.04,1.44,0.08,-0.09,-98.31,57.21,148.17,0.11,2.51,0.21,1.63,0.53,0.4,-151.36,2.53,2.49,0.62,0.36,1.07,0.66,1.02,0.91,-127.74,35.49,28.35,1.6,2.24,0.56,0.53,0.97,1.36
0.71,-113.84,72.74,163.83,-0.01,1.02,0.01,2.18,0.05,0.35,-98.72,59.85,148.36,0.17,2.44,0.21,2.06,0.21,0.88,-152.59,2.82,3.0,0.54,0.05,1.18,0.59,0.13,-0.03,-128.3,37.66,31.27,1.47,2.34,0.45,0.34,1.7,1.6
0.72,-113.81,73.0,163.06,0.04,0.92,0.09,1.87,0.0,0.18,-98.8,61.33,148.26,0.18,2.35,0.08,2.19,0.13,0.65,-153.21,2.79,3.21,0.42,0.13,0.96,0.5,0.18,0.14,-128.5,38.49,32.81,1.8,2.33,0.42,0.37,1.91,1.87
0.73,-113.87,73.69,162.62,0.08,0.89,-0.06,1.76,-0.08,0.15,-99.28,62.75,148.19,0.1,2.3,-0.1,2.33,0.22,0.48,-153.87,3.1,3.45,0.37,0.22,1.08,0.61,0.46,0.14,-128.78,39.52,34.49,1.69,2.42,0.3,0.48,2.15,2.22
0.74,-113.51,74.47,161.1,0.05,0.91,0.02,1.0,0.33,0.1,-99.13,65.39,148.13,0.17,2.26,0.15,2.5,0.04,0.44,-154.87,3.02,3.63,0.29,0.1,0.99,0.78,0.17,0.33,-128.69,41.69,38.06,1.81,2.67,0.04,0.96,1.76,2.29
0.75,-113.15,75.16,159.46,0.24,0.73,-0.05,1.1,0.41,0.13,-99.39,67.63,148.23,0.33,2.16,0.18,2.06,0.07,0.44,-156.09,3.42,3.69,-0.09,0.21,1.05,0.56,0.15,-0.04,-128.48,43.91,41.9,2.03,2.56,0.23,0.55,0.16,2.48
0.76,-112.88,75.95,158.1,0.13,0.62,0.04,1.11,0.01,0.18,-99.37,70.1,148.24,0.45,2.07,0.02,2.15,-0.06,0.15,-156.57,3.67,3.75,0.07,0.21,0.88,0.72,0.35,0.9,-128.43,46.25,46.44,2.02,2.78,0.08,0.67,-0.06,2.24
0.77,-112.48,76.63,156.37,0.37,0.71,0.07,0.44,0.05,0.36,-99.32,72.26,148.34,0.27,1.9,0.17,2.07,0.59,0.56,-157.73,3.83,3.53,0.13,0.34,1.09,0.62,0.14,1.08,-128.44,48.0,51.36,2.38,2.66,0.22,0.67,0.39,1.81
0.78,-112.05,77.87,153.69,0.27,0.39,-0.01,0.48,-0.1,0.31,-99.54,74.29,148.22,0.37,2.01,0.01,2.26,0.35,0.22,-158.65,4.46,3.46,0.48,0.35,1.46,0.73,0.84,1.24,-128.29,49.91,51.38,2.59,2.91,-0.0,1.0,0.82,0.79
0.79,-111.57,78.19,152.38,0.16,0.4,0.06,1.11,-0.14,0.13,-99.13,76.39,148.26,0.2,1.85,0.07,2.04,0.07,0.36,-160.07,4.95,2.52,0.64,0.42,0.97,0.09,1.5,1.06,-127.04,53.81,51.19,2.5,3.31,0.44,0.9,0.47,0.01
0.8,-111.23,78.59,150.89,0.48,0.28,-0.02,0.3,-0.11,-0.02,-98.88,77.85,148.21,0.31,1.66,0.18,1.56,0.0,-0.02,-161.24,5.28,1.58,1.08,0.66,1.03,0.15,1.34,1.1,-126.14,55.52,51.43,2.47,3.39,0.78,0.57,0.71,0.35
0.81,-110.66,78.92,150.47,0.17,0.19,0.08,0.02,0.03,0.12,-98.65,80.84,148.22,0.5,1.67,0.14,1.56,0.47,0.31,-162.21,5.87,0.27,1.35,0.52,1.16,0.44,1.19,1.19,-125.24,56.38,59.09,2.73,3.23,0.28,0.36,0.36,0.01
0.82,-110.52,79.05,149.7,0.23,0.16,0.04,0.4,0.26,0.28,-98.27,81.92,148.36,0.44,1.45,0.1,1.48,0.6,0.41,-163.36,6.59,1.19,1.45,0.72,1.0,0.52,1.7,1.43,-124.39,56.64,67.21,2.41,3.09,0.65,0.38,2.05,0.78
0.83,-110.49,79.01,149.37,0.17,-0.06,0.1,0.27,0.39,0.53,-97.85,83.61,148.25,0.42,0.91,0.01,0.63,0.31,0.52,-164.42,7.16,3.09,1.5,0.71,1.03,0.44,2.34,2.23,-123.47,57.07,71.44,2.83,3.28,1.18,0.47,0.76,1.59
0.84,-110.23,78.99,149.24,0.18,-0.07,0.07,0.35,0.52,0.31,-97.63,83.64,147.99,0.28,1.2,-0.04,0.54,0.15,0.69,-164.82,7.51,3.99,1.33,0.56,0.69,0.55,2.6,2.34,-122.31,57.16,76.04,2.67,3.13,1.23,0.51,1.38,1.09
0.85,-110.17,79.08,149.19,0.02,0.17,0.01,0.29,0.34,0.35,-97.75,84.01,148.2,0.35,0.93,0.1,0.42,0.23,0.53,-165.01,7.86,4.85,1.58,0.75,0.77,0.79,2.25,2.26,-121.33,57.5,80.25,2.66,2.99,1.01,0.63,1.85,0.37
0.86,-109.71,78.98,149.06,0.1,0.17,-0.03,0.03,0.22,0.15,-97.64,84.1,148.47,0.38,1.1,-0.0,0.24,-0.0,0.07,-165.42,8.94,7.05,2.12,0.95,0.44,0.52,2.43,2.1,-119.64,57.28,88.7,2.5,2.87,0.48,0.93,-0.03,1.62
0.87,-109.88,78.84,149.64,0.15,0.05,0.05,0.18,0.25,-0.08,-97.21,84.17,148.41,0.44,0.91,-0.09,0.3,0.66,-0.01,-165.88,9.7,9.68,2.23,0.76,0.43,0.86,1.04,1.62,-117.81,56.49,96.22,2.22,2.74,0.81,0.54,0.01,1.72
0.88,-109.41,78.9,149.9,0.1,0.16,0.2,0.55,0.43,1.17,-97.06,84.12,148.52,0.26,1.06,0.2,0.5,1.1,0.13,-166.37,11.99,9.89,2.62,1.27,0.57,0.72,1.53,1.54,-116.06,55.59,102.96,2.17,2.43,0.89,0.59,0.41,0.94
0.89,-109.45,78.68,150.5,-0.04,0.27,-0.07,0.91,0.33,0.94,-97.14,83.89,148.66,0.33,0.83,0.01,0.28,0.72,0.21,-166.86,13.25,12.72,2.69,1.15,0.53,1.04,0.54,1.18,-113.77,54.25,109.3,2.17,2.57,1.02,0.41,0.71,1.04
0.9,-109.45,78.36,151.39,0.03,0.18,0.18,0.94,0.05,0.34,-97.25,83.47,149.02,0.29,0.65,0.03,0.59,0.54,0.33,-167.35,14.39,16.19,2.62,1.8,0.46,0.9,0.38,0.83,-111.86,53.04,114.89,1.93,2.48,0.77,0.44,0.36,1.73
0.91,-109.28,78.26,152.35,0.26,0.35,0.15,1.03,0.91,0.1,-97.07,82.73,148.89,0.11,0.49,0.08,0.31,0.42,0.14,-167.57,15.94,19.62,3.16,1.54,0.16,0.76,1.53,0.94,-110.05,51.39,120.16,1.59,2.55,0.77,0.4,0.2,1.15
0.92,-108.79,77.91,153.32,0.5,0.35,0.18,0.55,1.8,0.08,-97.22,82.12,148.78,0.06,0.51,0.08,1.19,0.5,0.13,-167.76,17.2,23.26,2.98,1.69,0.06,0.71,1.28,0.54,-108.24,49.51,124.29,1.45,2.43,0.84,1.53,0.56,0.73
0.93,-107.73,77.27,154.22,0.76,0.62,-0.15,0.09,1.75,0.56,-97.31,82.05,148.82,0.09,0.48,0.03,1.17,0.71,0.18,-167.26,19.04,26.73,3.1,1.85,0.15,0.18,1.21,0.14,-106.95,47.6,127.47,1.02,2.12,0.57,1.86,0.38,0.13
0.94,-106.9,77.05,155.01,0.22,0.31,0.2,0.85,0.57,0.54,-97.14,81.92,148.92,0.29,0.02,-0.08,1.25,1.85,-0.02,-167.15,20.93,30.58,3.16,1.76,0.16,0.3,0.98,0.27,-105.58,46.32,129.88,1.36,1.46,0.2,2.14,1.27,0.73
0.95,-106.71,76.41,155.5,0.22,0.37,0.05,1.34,0.29,0.6,-96.99,81.64,148.73,0.25,0.06,0.08,0.71,1.82,0.07,-166.85,22.5,34.66,3.16,1.89,0.11,0.12,0.62,0.98,-103.91,45.07,131.8,1.22,1.14,0.19,2.04,2.07,-0.02
0.96,-106.56,76.3,156.36,0.21,0.15,0.05,0.9,0.35,0.57,-96.83,81.71,148.86,0.35,-0.04,0.16,0.97,1.09,0.63,-166.6,23.41,36.73,3.17,1.78,0.14,-0.07,0.59,1.14,-102.49,44.91,133.03,1.38,0.92,0.71,1.42,2.13,0.64
0.97,-106.56,76.29,156.82,-0.09,0.23,0.06,0.57,0.72,0.41,-96.55,81.7,148.89,0.44,0.08,0.17,0.77,0.37,1.0,-166.54,24.04,38.6,3.22,1.79,0.08,0.05,0.28,1.09,-101.43,44.57,134.15,0.95,0.82,0.84,0.89,1.77,1.3
0.98,-106.45,75.76,157.88,0.06,0.29,0.02,0.11,0.46,0.4,-95.99,81.89,148.65,0.52,0.16,0.01,1.13,0.19,1.07,-165.78,25.86,42.63,3.13,1.65,0.3,0.34,0.18,0.7,-98.29,44.12,136.67,0.99,0.79,1.26,0.83,1.28,1.37
0.99,-106.65,75.13,158.7,0.2,0.45,0.18,0.14,0.24,0.8,-95.47,81.81,148.81,0.21,-0.11,-0.15,0.45,0.31,0.41,-165.34,27.66,46.76,2.93,2.05,0.54,0.83,0.86,0.28,-95.56,43.6,138.96,0.71,0.69,1.04,1.31,0.8,1.85
1.0,-106.84,74.68,159.34,0.27,0.31,0.14,0.49,0.04,1.65,-95.58,81.54,148.79,0.04,0.36,-0.1,0.81,0.5,0.59,-164.65,29.44,50.75,3.14,1.82,0.64,1.11,0.69,0.96,-95.47,43.43,140.59,0.66,0.54,0.67,2.27,0.74,1.21
1.01,-106.91,74.55,159.69,0.46,0.19,0.01,-0.11,0.1,1.54,-95.59,81.56,148.85,0.05,0.12,0.21,0.69,0.49,0.26,-163.5,31.29,55.0,3.01,1.61,0.72,0.45,0.11,1.92,-96.01,42.99,141.76,0.23,0.36,0.76,2.66,0.86,1.83
1.02,-106.73,73.82,159.49,0.09,0.41,0.06,-0.1,0.91,0.58,-95.48,81.43,148.92,0.11,0.32,0.02,0.03,0.32,0.85,-162.91,32.59,59.46,2.94,1.93,0.53,0.45,0.39,1.8,-97.11,43.07,142.85,0.04,-0.09,1.11,3.15,1.83,2.16
1.03,-106.63,73.75,159.64,0.15,0.32,0.23,0.17,0.45,1.03,-95.46,81.87,148.73,0.23,0.16,0.19,0.34,0.23,0.61,-162.16,34.16,64.12,3.05,2.04,0.36,0.14,0.0,2.1,-98.6,43.29,144.05,0.06,-0.01,1.16,2.2,1.94,3.29
1.04,-106.14,73.57,159.46,-0.03,0.21,0.08,0.29,0.26,1.33,-95.54,81.93,148.79,-0.03,-0.0,-0.02,0.72,0.66,0.52,-160.06,36.71,73.42,2.84,1.85,1.1,0.74,0.26,1.38,-99.21,43.57,144.55,0.32,-0.01,1.11,1.24,2.7,3.51
1.05,-106.32,73.44,159.26,0.07,-0.05,0.04,0.2,0.1,1.29,-95.29,82.0,148.76,0.13,0.01,0.08,0.48,0.6,0.42,-157.73,38.68,77.8,2.86,1.59,1.35,1.71,0.92,0.88,-100.4,43.69,145.17,0.5,0.0,0.12,2.25,1.84,2.59
1.06,-106.31,73.37,159.38,0.2,0.15,-0.07,0.8,0.21,1.17,-95.25,81.99,148.98,-0.03,0.11,-0.03,0.64,0.88,0.4,-158.08,42.41,87.1,2.95,1.34,1.93,1.86,1.25,1.36,-100.6,43.58,144.66,0.48,0.15,0.08,3.44,1.33,2.78
1.07,-106.81,73.11,159.41,0.34,-0.03,0.13,0.92,0.42,0.86,-95.32,81.94,148.74,-0.09,0.01,-0.04,0.28,0.36,0.08,-155.42,43.95,91.6,2.59,1.54,1.67,1.65,1.51,1.51,-100.7,43.49,144.13,0.27,0.17,0.33,4.16,1.2,2.72
1.08,-106.85,73.0,159.66,0.7,-0.08,0.11,0.55,0.34,1.05,-95.33,82.16,148.84,0.06,-0.1,-0.12,0.33,0.35,0.37,-154.01,44.79,94.02,2.47,1.49,1.58,1.36,2.12,0.87,-101.03,43.6,144.16,0.02,-0.04,0.09,4.25,0.86,2.67
1.09,-106.91,73.19,159.76,0.75,-0.07,0.15,0.03,-0.11,1.05,-95.41,82.17,149.0,-0.07,0.1,0.04,0.34,0.37,0.53,-152.72,45.3,96.14,2.15,1.48,1.48,1.37,2.7,0.22,-101.15,43.78,144.02,0.25,-0.04,0.43,4.55,0.42,2.2
1.1,-107.65,73.09,160.03,0.48,0.22,0.17,0.41,0.07,1.34,-95.42,82.29,148.98,0.01,0.2,-0.02,0.1,0.04,0.45,-151.09,46.23,100.56,1.83,1.62,1.31,2.11,2.23,0.47,-101.97,43.82,144.93,0.24,0.09,0.79,3.31,1.95,2.12
1.11,-108.57,73.11,160.15,0.65,-0.02,0.02,0.25,0.32,1.48,-95.55,82.41,149.1,0.28,-0.07,0.04,0.31,0.24,1.39,-149.26,47.04,104.51,1.78,1.71,1.06,2.81,1.59,0.06,-101.97,44.39,145.25,0.42,-0.04,0.27,3.06,-0.01,1.56
1.12,-109.21,73.1,160.72,0.55,0.17,0.1,0.4,0.23,1.57,-95.69,82.47,148.91,0.22,0.23,-0.07,0.18,0.05,1.07,-147.69,47.46,108.4,1.6,1.26,0.83,2.88,0.49,0.35,-102.58,44.74,144.98,0.57,-0.0,0.17,2.62,0.22,1.72
1.13,-109.67,72.71,161.01,0.64,-0.03,0.17,0.48,0.47,1.39,-96.15,82.29,148.92,0.22,0.1,0.12,0.05,0.01,0.27,-146.02,47.98,111.62,1.25,1.07,1.13,2.99,0.61,1.27,-102.96,44.59,145.13,0.48,-0.26,0.17,2.31,0.68,0.73
1.14,-110.29,72.74,161.04,0.33,0.09,0.15,0.1,0.83,0.76,-96.78,82.25,148.9,0.28,0.26,0.26,0.22,-0.01,0.83,-144.82,48.16,114.36,1.11,1.08,0.71,1.89,2.97,1.05,-103.65,44.84,144.97,0.34,0.18,0.27,2.74,0.46,0.29
1.15,-110.72,72.76,161.11,0.4,-0.02,0.01,0.07,1.15,0.94,-97.24,82.47,148.84,0.36,0.22,0.06,0.59,0.55,0.63,-143.91,48.25,116.87,0.53,0.95,0.93,2.93,1.93,0.37,-104.92,45.19,144.68,0.35,0.23,-0.01,2.61,1.3,0.73
1.16,-111.18,72.68,161.41,0.42,-0.0,0.15,0.79,0.87,0.85,-97.61,82.65,148.95,0.19,0.13,0.05,1.0,0.66,0.53,-143.33,48.39,118.68,0.72,0.59,0.32,3.63,0.92,0.2,-105.65,45.8,144.34,0.49,0.51,0.21,2.11,0.38,0.14
1.17,-111.98,72.72,162.03,0.4,0.04,-0.04,0.67,0.91,1.21,-97.93,82.7,149.01,0.2,0.1,0.11,0.83,0.46,1.46,-142.45,48.51,120.07,0.6,0.38,0.7,3.1,-0.1,0.41,-107.21,46.34,143.9,0.47,0.68,-0.02,2.62,0.54,0.32
1.18,-112.81,72.7,162.88,0.44,0.46,0.11,0.02,0.9,1.24,-98.36,82.9,148.76,0.26,0.39,0.15,0.72,0.49,1.33,-140.71,49.23,123.02,0.3,0.2,0.62,2.26,1.69,0.2,-107.56,47.24,143.64,0.15,0.73,0.24,2.19,0.91,0.63
1.19,-113.27,72.49,163.59,0.31,0.12,0.23,0.36,0.91,0.51,-98.45,83.55,149.98,0.05,0.26,0.11,1.0,0.49,1.06,-140.16,49.19,123.66,0.25,0.13,-0.15,1.21,1.74,-0.04,-107.63,47.93,143.54,0.26,0.76,0.24,1.71,0.8,0.42
1.2,-113.28,72.28,163.51,0.3,0.22,0.1,0.12,0.43,0.8,-98.59,83.43,150.29,0.04,0.15,0.02,0.48,0.3,0.94,-140.36,49.11,123.94,0.25,0.34,0.21,1.09,1.2,0.01,-107.89,48.28,143.78,0.17,0.52,0.36,1.68,0.96,0.46
1.21,-113.55,71.99,163.73,-0.08,0.58,0.08,0.33,-0.04,0.75,-98.72,83.62,150.12,0.01,0.14,0.16,0.03,0.22,0.56,-140.71,48.79,124.38,0.16,0.32,-0.13,0.92,0.74,0.19,-108.05,48.55,143.65,0.22,0.51,0.4,1.96,0.87,0.62
1.22,-113.3,71.5,164.14,0.12,0.42,0.18,0.05,0.12,0.7,-99.01,83.67,150.38,0.01,0.16,0.09,0.63,0.41,0.56,-140.94,48.5,125.04,0.18,0.4,-0.03,1.65,0.52,0.71,-107.84,49.3,143.7,0.09,0.72,0.31,0.94,1.13,0.94
1.23,-113.56,70.86,164.75,0.45,0.18,0.02,-0.0,-0.06,0.62,-99.32,84.07,150.8,0.19,0.25,0.38,0.84,0.34,0.08,-141.15,48.33,125.41,0.04,0.34,-0.01,1.44,0.64,0.97,-108.53,50.43,143.76,0.28,0.9,0.52,0.73,0.66,1.29
1.24,-114.41,70.78,166.02,0.64,0.26,0.33,0.2,0.02,0.78,-99.67,84.67,150.7,0.16,0.47,0.06,0.19,0.33,0.19,-141.61,48.12,125.56,0.04,0.1,0.11,1.69,0.26,0.87,-108.7,50.96,143.97,0.35,0.67,0.42,0.83,0.1,0.9
1.25,-115.35,70.58,166.99,0.48,0.05,0.22,0.4,0.05,0.77,-99.77,85.06,151.03,0.06,0.37,0.14,0.0,0.03,0.43,-141.68,48.36,125.87,0.24,0.39,0.21,1.39,0.34,0.15,-109.03,52.16,143.61,0.71,0.61,0.39,0.62,0.28,-0.02
1.26,-115.95,70.37,167.76,0.24,0.31,-0.02,0.33,0.33,0.01,-100.21,85.44,151.0,0.18,0.57,0.19,0.54,0.39,0.08,-141.65,48.38,125.55,-0.01,0.13,-0.03,0.2,1.2,0.09,-110.43,52.61,143.7,0.35,0.57,0.3,0.74,0.42,0.23
1.27,-116.5,69.91,168.41,0.17,0.2,0.04,0.26,0.39,0.14,-100.58,85.75,151.04,0.18,0.25,0.04,0.34,0.24,0.01,-142.23,48.31,126.06,0.14,0.34,0.25,0.88,1.22,0.79,-111.36,53.38,142.87,0.51,0.4,0.34,0.56,0.09,0.11
1.28,-116.68,69.81,169.19,0.2,0.28,-0.03,0.51,0.23,0.38,-100.87,85.92,151.09,0.29,0.39,0.06,0.63,0.29,0.47,-141.79,49.35,125.96,0.0,0.1,0.29,0.48,0.72,0.6,-111.37,53.58,142.76,0.47,0.49,-0.0,0.36,0.18,0.02
1.29,-117.23,69.45,170.06,0.29,0.36,0.27,1.01,0.18,-0.11,-101.12,86.36,151.25,0.17,0.21,-0.11,0.09,0.21,1.37,-141.1,49.66,126.22,0.06,0.27,0.35,1.5,0.19,0.97,-112.64,53.87,142.32,0.3,0.16,0.08,0.01,0.23,-0.04
1.3,-117.65,69.44,170.7,0.18,0.06,0.11,0.61,0.39,-0.02,-100.99,86.74,151.38,0.0,0.36,0.02,0.29,0.19,1.06,-140.2,50.43,126.22,0.2,0.29,0.32,1.31,0.77,0.58,-113.08,54.54,142.1,0.39,0.29,0.02,0.15,1.19,0.07
1.31,-117.86,69.34,171.23,0.08,-0.06,0.07,0.34,0.45,0.15,-101.09,86.7,151.32,-0.13,0.35,0.14,0.34,-0.07,1.21,-140.5,50.53,126.49,0.1,0.28,-0.03,1.22,0.16,0.44,-114.16,54.5,141.32,0.49,0.22,-0.05,0.06,0.64,0.28
1.32,-118.01,69.27,171.43,0.13,0.05,0.28,0.23,0.41,0.14,-101.33,86.93,151.42,0.34,0.42,0.06,0.34,0.19,1.12,-140.48,50.63,126.14,0.28,0.2,0.02,0.98,0.26,0.39,-114.53,54.63,141.2,0.34,0.11,0.12,0.16,0.48,0.47
1.33,-118.21,69.28,171.79,0.18,-0.12,0.36,0.01,0.46,0.04,-101.31,87.14,151.39,0.17,0.33,0.25,0.34,0.23,1.03,-140.44,50.58,125.96,0.22,0.16,0.21,0.69,0.7,0.53,-114.72,54.77,141.37,0.25,0.2,0.05,0.13,0.22,0.74
1.34,-118.59,69.09,172.44,0.1,0.3,0.11,0.01,0.38,0.21,-101.31,87.22,151.69,-0.06,0.06,0.11,0.13,0.54,-0.02,-141.11,50.78,125.85,0.28,0.08,0.06,0.11,0.53,0.26,-115.31,55.16,140.82,0.49,0.24,0.41,0.4,-0.02,1.08
1.35,-119.25,69.09,173.5,0.21,0.33,0.3,0.16,0.27,0.21,-101.39,87.55,151.82,0.2,0.23,0.23,-0.04,0.38,1.18,-141.22,51.12,125.78,0.05,0.04,-0.13,0.18,0.68,0.23,-116.49,55.4,140.76,0.39,0.28,0.33,0.13,0.61,0.8
1.36,-119.53,68.77,174.11,0.12,0.21,0.3,0.38,0.12,0.11,-101.37,87.76,151.88,0.02,0.08,-0.11,-0.0,0.34,1.01,-141.19,51.54,125.56,0.16,0.07,0.26,0.33,0.81,0.67,-117.15,55.72,140.33,0.55,0.24,-0.04,0.12,0.27,0.94
1.37,-119.85,68.65,174.84,-0.22,0.17,0.14,0.06,0.2,0.06,-101.52,87.85,152.12,-0.07,0.23,0.19,0.16,0.55,1.01,-141.08,51.76,125.86,0.14,-0.03,0.33,0.11,0.64,1.2,-118.33,55.9,139.79,0.4,0.32,0.16,0.18,0.48,1.11
1.38,-119.88,68.61,175.15,-0.09,0.18,0.15,0.27,0.27,0.45,-101.81,88.04,152.32,-0.01,0.47,0.18,0.26,0.25,1.02,-141.14,51.85,126.28,0.04,0.22,0.28,-0.16,0.54,0.86,-119.09,56.19,139.61,0.54,0.22,0.2,0.37,0.38,0.79
1.39,-119.93,68.26,175.93,-0.15,0.18,0.11,0.35,0.52,0.36,-101.68,88.01,152.28,0.16,0.26,0.07,-0.04,0.31,1.16,-141.17,52.09,126.3,0.07,0.24,0.08,0.37,0.19,0.8,-119.44,56.58,139.41,0.31,0.29,0.29,0.18,0.51,0.8
1.4,-120.15,68.42,176.44,-0.1,0.26,0.08,-0.05,0.58,0.2,-101.73,88.19,152.55,0.01,0.26,0.07,0.1,0.75,0.78,-141.44,52.04,126.42,0.07,0.08,0.2,0.55,0.19,0.63,-120.59,57.25,139.26,0.51,0.34,0.25,0.26,0.28,0.6
1.41,-120.54,68.07,176.72,0.06,0.18,0.23,0.01,0.53,0.07,-101.57,87.92,152.44,0.16,0.26,0.08,0.17,0.77,0.56,-141.02,52.57,126.86,0.2,0.05,0.54,0.19,0.58,0.65,-121.68,57.81,139.32,0.5,0.25,0.24,0.09,0.18,1.0
1.42,-120.8,68.14,177.55,-0.03,0.22,0.13,0.2,0.35,0.14,-101.67,87.75,152.43,0.16,-0.03,0.12,0.03,0.48,0.91,-141.04,52.9,126.95,0.12,0.01,0.57,0.24,-0.03,0.46,-122.51,58.23,139.09,0.61,0.22,0.39,0.38,0.46,0.88
1.43,-120.78,68.12,177.66,-0.05,0.36,0.11,0.38,0.32,0.08,-101.78,88.19,152.45,-0.15,0.22,-0.01,0.14,0.53,0.76,-140.97,53.47,127.41,0.09,0.13,0.57,0.55,0.25,0.75,-123.2,58.75,138.76,0.27,0.25,0.31,0.2,0.21,1.07
1.44,-121.03,67.65,177.96,0.1,-0.02,0.01,0.14,0.2,-0.06,-101.83,88.14,152.52,0.03,0.23,0.04,0.14,0.47,0.65,-140.77,53.63,127.43,0.31,0.11,0.59,0.32,0.56,0.98,-123.65,59.13,138.59,0.42,0.09,0.17,0.06,0.41,0.89
1.45,-121.19,67.62,178.34,0.17,0.13,-0.1,-0.24,0.59,0.14,-101.95,88.01,152.66,0.17,0.13,0.07,0.05,0.7,0.46,-140.75,53.69,127.48,0.09,0.05,0.44,0.35,0.75,1.04,-123.92,59.47,138.48,0.41,0.16,0.21,0.08,0.37,0.79
1.46,-121.38,67.66,178.51,0.12,0.15,0.23,0.07,0.14,0.32,-102.32,87.51,152.88,0.08,0.14,0.23,0.02,0.13,0.87,-141.04,54.44,127.61,0.27,0.3,0.37,0.26,0.32,0.94,-124.78,59.87,137.92,0.38,0.18,0.28,0.07,0.95,0.86
1.47,-121.65,67.52,178.55,-0.17,-0.06,0.01,-0.03,0.26,0.27,-102.22,87.28,153.12,-0.11,0.07,-0.05,0.12,-0.0,0.94,-141.29,54.29,128.02,0.19,0.11,0.3,0.25,0.06,1.32,-125.17,60.18,137.97,0.56,0.3,0.24,0.04,0.09,0.96
1.48,-121.73,67.51,178.88,0.1,-0.04,-0.05,0.06,-0.04,-0.04,-102.06,87.33,152.94,0.11,0.0,0.04,0.18,0.4,0.99,-141.26,54.44,127.94,0.09,-0.01,0.46,0.07,0.38,1.0,-125.37,60.66,137.97,0.42,0.19,0.22,1.29,0.27,0.95
1.49,-121.66,67.49,178.66,0.27,-0.11,0.0,0.25,0.07,0.11,-102.51,87.09,153.06,0.09,0.17,-0.05,0.34,0.27,1.0,-141.16,54.86,128.47,0.08,0.07,0.35,0.03,0.17,1.14,-125.94,60.86,137.77,0.34,0.47,0.43,0.83,1.49,2.37
1.5,-121.66,67.69,178.88,0.09,-0.07,-0.03,0.11,0.17,0.05,-102.54,87.1,153.02,0.08,0.14,0.04,0.02,-0.1,0.46,-140.56,55.24,128.81,0.14,0.04,0.45,0.28,0.8,0.94,-127.05,61.43,137.06,0.52,0.34,0.34,0.83,1.78,1.49
1.51,-122.05,67.73,179.11,0.03,0.0,-0.03,0.09,0.34,-0.04,-102.19,87.23,152.91,-0.08,0.03,0.15,-0.1,0.3,0.82,-140.16,55.52,128.96,-0.11,-0.02,0.34,0.33,0.53,0.99,-128.2,61.32,136.16,0.4,0.25,0.21,0.94,0.21,1.32
1.52,-122.03,67.91,179.12,-0.08,0.03,0.03,0.22,0.25,0.22,-102.16,87.27,152.91,0.05,-0.02,0.03,0.5,0.24,0.4,-140.28,55.54,129.07,0.14,-0.02,0.11,0.37,0.76,0.75,-129.02,62.17,135.85,0.05,0.13,0.2,0.07,0.95,1.66
1.53,-121.86,67.98,179.15,0.28,0.06,0.1,0.28,-0.05,0.23,-102.1,87.42,152.76,0.21,0.02,0.06,0.1,0.77,0.38,-140.55,55.79,128.91,0.08,0.01,-0.0,0.63,0.84,1.39,-129.2,62.34,135.55,0.23,0.22,0.1,0.1,-0.03,1.5
1.54,-121.77,68.0,178.94,0.15,0.01,-0.03,-0.11,-0.01,0.13,-101.97,87.43,152.74,0.15,0.2,-0.03,0.26,0.65,0.62,-140.66,55.73,128.87,0.04,0.14,0.31,0.12,0.38,1.17,-129.04,62.42,135.54,0.27,0.29,0.2,0.12,1.07,1.83
1.55,-121.29,68.18,178.62,0.32,0.26,0.01,0.18,0.27,0.24,-101.97,87.53,152.67,0.11,0.28,0.17,-0.1,0.7,1.21,-140.05,56.72,129.0,0.15,0.31,0.8,0.04,0.29,2.01,-129.5,62.41,135.4,-0.13,0.21,0.32,0.79,0.09,1.36
1.56,-121.15,68.03,178.49,0.15,0.14,-0.01,0.28,0.69,0.35,-101.91,87.59,152.56,0.19,0.27,0.06,0.36,0.82,0.7,-139.7,56.81,129.42,0.21,0.3,0.45,0.32,0.26,1.71,-129.27,62.79,135.76,0.02,0.08,0.3,0.78,0.2,1.28
1.57,-120.97,68.27,178.38,-0.09,0.13,0.13,0.09,0.67,0.33,-101.72,87.6,152.79,0.14,0.27,0.1,0.64,1.03,0.6,-139.34,56.91,129.69,0.05,0.09,0.3,0.15,0.35,1.66,-129.06,63.01,136.1,0.12,0.14,0.55,1.14,0.31,1.49
1.58,-121.09,68.48,178.4,0.05,0.22,0.03,0.14,0.53,0.32,-101.85,87.81,152.72,0.16,-0.02,0.21,0.42,0.09,0.28,-138.21,57.79,130.08,0.3,0.37,0.41,0.21,1.13,2.15,-128.68,63.2,137.19,0.17,-0.1,0.45,1.79,1.31,1.34
1.59,-120.73,68.65,177.97,0.13,0.34,0.18,0.1,0.82,0.16,-101.67,87.63,152.61,0.27,0.16,0.28,0.11,0.11,1.86,-137.95,58.19,130.38,0.05,0.18,0.35,0.78,0.37,1.33,-128.01,63.18,138.29,0.42,0.2,-0.03,1.7,0.76,1.84
1.6,-120.73,69.01,177.54,0.07,0.32,0.39,0.07,0.6,0.44,-101.57,87.57,152.3,0.17,0.21,0.07,0.06,1.01,1.81,-136.99,58.86,130.27,0.1,0.22,0.41,1.05,1.37,1.27,-126.88,62.96,138.45,0.53,0.35,0.18,2.89,0.98,3.18
1.61,-120.35,69.3,176.71,0.06,0.3,0.29,0.72,0.1,0.06,-101.52,87.54,151.94,-0.08,0.57,0.09,0.58,1.74,0.43,-136.38,59.32,130.47,0.21,0.51,0.19,0.93,1.73,1.15,-126.26,62.58,138.63,1.0,0.08,0.73,2.81,0.25,2.87
