0.01,-37.03022287721508,82.98063164672494,25.572118708766904,0.010836265018633466,0.018441835404978624,0.01027516947351216,0.04643878102039491,0.029286778277826105,0.0844313247075977,-0.05015892521433016,0.6701392772309399,-0.08990099888346628,0.739736431771836,-4.764695394747135,88.4649406353061,178.77002515823943,0.018895989889072887,0.036554522049989234,0.009337721305647854,0.3459230531485015,0.0615387233487944,0.0655197355239018,0.7105117954907267,0.039515656489571054,0.6994430887135412,0.0395860399771586,-164.03808507542843,3.332911754406937,7.8894414935562445,0.2859250145032401,0.22072532721223795,0.5221843481444193,0.03044546901699854,1.2744709791492532,0.4572191404388312,-0.020155087829804706,0.07019039202247737,-0.9899911367455724,0.1396832265837021,-347.3620984145219,12.203040790379893,8.235060101531479,0.10260179349259964,0.10386013998677655,0.11489687627530717,0.19591385424249538,0.8758666692205997,0.4826565663121769,-0.08045260231146749,-0.10008204955926422,-0.11947814216338172,-0.9800434129449693
0.02,-36.99169794336415,82.97488992404594,25.404020385684262,0.014862258568488345,0.023257296064140606,0.01035759023525674,0.05216725656795343,0.04472034136656275,0.07232296087881938,-0.0500804255703325,0.6681804350299265,-0.0914350394560539,0.7397268210114243,-4.779759352760492,88.41100487292584,178.77021211536348,0.021538591309650554,0.057778719999519945,0.010054359022004179,0.33929064411007115,0.06335500889838021,0.08789289056671766,0.7122243648593949,0.03943299828849434,0.6984811749002183,0.03958067444941963,-164.32702387285616,3.3669305693744476,7.548538439104135,0.2716641536810086,0.1929436724982925,0.5151196647495736,0.08955096785714563,1.1363838503659864,0.44387708204804205,-0.02040829411992412,0.06728435840126612,-0.9899888665711919,0.13724771249441703,-347.39128629635644,12.101514021518554,8.138306986599874,0.09250924951179267,0.09831301584796145,0.1725072237282051,0.19952308998622756,0.7703791958074717,0.5166730878147364,-0.08002078146558365,-0.09854610536573731,-0.1190875544000184,-0.9817928667290475
0.03,-36.950284809252246,82.96819725363014,25.24001316336187,0.01852917298921682,0.026904537829050553,0.010256899476702337,0.056099348229404,0.05979967620601973,0.06074642679054478,-0.049971743440453825,0.6663349354178371,-0.09293045482122296,0.7397454291732153,-4.794256832678133,88.36498436759653,178.7607086069897,0.024231217218954906,0.0770742771995634,0.010793809553288633,0.33153544822804615,0.06483641921571982,0.11015367295700919,0.7138216443484433,0.03939239580773903,0.6975851062239244,0.039621416430076155,-164.5908797922369,3.3985590711223326,7.207800730131227,0.2577072140844926,0.1661777206422629,0.5070351075531719,0.14560172156476414,1.0036714216889195,0.4325069532174563,-0.020680118444688714,0.06441016545522678,-0.9899872231723055,0.13502928657049468,-347.3901050308697,12.005285495361354,8.031738212871632,0.08237110306489098,0.09313623112166555,0.22976654841483313,0.20265542909270984,0.6663202497537803,0.5471071080958747,-0.07952025801941158,-0.09709991720489791,-0.11893059247767225,-0.9834179337728856
0.04,-36.90631339041413,82.96126549560618,25.0839639568431,0.02174152704305748,0.02918848636752679,0.010067355363434602,0.05841465890726717,0.07423726658150714,0.05076694620328117,-0.04983737022168837,0.6647032480158322,-0.09435321895204493,0.7397976884180995,-4.810215769123142,88.32145620687353,178.7405614196401,0.027114542274418767,0.09442529531581667,0.01153556561980638,0.3236940345334753,0.06579840764195408,0.1316185163006158,0.7152746275104025,0.039410422666752425,0.6967395039110484,0.03971610297630652,-164.81202433890516,3.42854711601073,6.871477779726916,0.24416692098031265,0.14143599566021434,0.49725477214262603,0.19623739040240049,0.8810607483234965,0.4244359175062319,-0.021003837392511517,0.061629491350629166,-0.9899865571189028,0.13317934993372496,-347.33055559868757,11.915023093619716,7.910337175839541,0.07262076163047314,0.0886308184227286,0.2865383549661565,0.2052628414991601,0.5675706867517519,0.5721847698339274,-0.07891150904400561,-0.09577326388479197,-0.11923026403011233,-0.9848113518731969
0.05,-36.860542476723275,82.95457754678536,24.939286983249378,0.02444061399717769,0.030014898482310107,0.009922045791105207,0.059513939619658465,0.08772498737516703,0.043478827036023564,-0.04968622685020012,0.6633666816957662,-0.09567390592442956,0.7398866406607252,-4.829699105511151,88.27429142673773,178.70974697034734,0.03032164644688522,0.11010579796467049,0.012260544450856533,0.31717291631759464,0.0660990693106047,0.15147301043513617,0.7165724149731738,0.03950193383524667,0.6959224555304985,0.03986854335335114,-164.9759644192007,3.4578487871738472,6.544237003852636,0.2311113953273626,0.11951018748090593,0.48520439686347544,0.2395771173944309,0.7721388401076793,0.4204737831482923,-0.02140650462044288,0.05900294062164344,-0.9899872045565947,0.1318217930709238,-347.18888887164974,11.83029724996115,7.770574924419874,0.06371289889550148,0.08505267552515014,0.342152617994075,0.20740316069977474,0.47745526632640317,0.5904162023298216,-0.07816495123827347,-0.0945796238660425,-0.12017964877535953,-0.9858881669752659
0.06,-36.814279618523074,82.94842151802511,24.80880220987282,0.026610345735491373,0.02941951959728926,0.00999010111892472,0.06002351820996511,0.09992992277225769,0.03993960564024745,-0.049532036863644116,0.6623813889791191,-0.09686917953698429,0.740011894636952,-4.854720523461788,88.21670609318288,178.6694505692998,0.03396442842031981,0.12470740784443486,0.01295131871918492,0.3137592405536514,0.06565748990799902,0.16881279146198622,0.7177257186242563,0.03967807602999885,0.6951046506915461,0.040076923246355554,-165.07255745595114,3.4876089641919283,6.231121768378022,0.21854348174575103,0.10090787305568308,0.47046501069628505,0.274379726919104,0.6790668729879374,0.42081452635904093,-0.02190635269091768,0.056587810454585136,-0.9899894460470946,0.131042582316696,-346.94762770104603,11.749542819711438,7.610971186509018,0.05611526297377911,0.08261723525408139,0.39527537695972925,0.20922769979822506,0.39854547872008234,0.6007066986611443,-0.07726562106122409,-0.0935142377315621,-0.12192580715488734,-0.9865931324693882
0.07,-36.769451212864034,82.9429838920673,24.69463150876417,0.028283356321810643,0.02759532412222819,0.010468915002517658,0.06079277603960872,0.11050618701034938,0.04109559169998935,-0.049393331368427745,0.6617751044882716,-0.09792290270297155,0.7401686572002424,-4.887169011542628,88.14129994581246,178.622302645681,0.0381243448811487,0.13913999905997562,0.013592364317361015,0.3155660609427007,0.0644694211606567,0.18272000315739176,0.7187678103594035,0.03994420870962149,0.694248502485408,0.04033236332600521,-165.0970076582333,3.519132009762529,5.937430460310352,0.20639231932271326,0.08582801460380943,0.4528286149135157,0.3001471066490855,0.6025027517423688,0.4250267502413705,-0.022511277224651287,0.05443549582680469,-0.9899934605510878,0.1308813135595216,-346.5971411093136,11.67015897199495,7.43250084635864,0.05029885687870472,0.08150481195700901,0.44392898509865253,0.21095939670301858,0.33258813123248626,0.6024766999894074,-0.07621659704312235,-0.0925542666040213,-0.12455642617435383,-0.9869045635463896
0.08,-36.72860879676343,82.93849731927892,24.59815143378808,0.02954606473653771,0.02491443914608617,0.011571275792521077,0.0628795757127387,0.11912256366741496,0.047703149274131613,-0.049293005651184815,0.6615468507220725,-0.09882659649392737,0.7403469570964087,-4.928745604767177,88.04010442994476,178.5725358071166,0.04284817007711351,0.15459914086531334,0.014170288983949451,0.32490675092165494,0.06261822757523906,0.19236867844280095,0.7197529036966613,0.04029794756229469,0.69330765109825,0.04061781851777883,-165.05049974008585,3.5538299096966592,5.66851061025767,0.19451903376181792,0.07417966477364489,0.43234640513864386,0.3171553748915601,0.5417386276530962,0.43213098550252227,-0.023218581255249383,0.052588748971672705,-0.9899992783633975,0.13132590601058367,-346.13662596250254,11.588758476769092,7.238802315808993,0.04672463545124809,0.08186434917757843,0.48567252381591836,0.21286570862952495,0.2805497814364281,0.5957709880040631,-0.07504077228747069,-0.09166126688202667,-0.12809043347024748,-0.986834429062295
0.09,-36.6948653630848,82.93543097905892,24.520018322716933,0.030540495225834657,0.021940668863146644,0.013507700119965113,0.0675158596255536,0.12550205379216672,0.06025094860443348,-0.04925737911208168,0.661669504214031,-0.09957906144186726,0.7405311874441332,-4.980914201070942,87.90466714645932,178.52602572191034,0.04814816676223185,0.17249745136512618,0.014673926536814534,0.3441029489572369,0.06027888713649449,0.1971451773695495,0.7207523138813218,0.04072758451354525,0.6922272914978468,0.04090751224678337,-164.94033252347091,3.593148187963292,5.429474382583739,0.1827364721318961,0.06563790650123116,0.409365139352823,0.32640156127140496,0.4950190381774597,0.44075093850025543,-0.02401600561679859,0.051079088512208916,-0.9900067379497897,0.1323115890609539,-345.5743871280899,11.501562633529291,7.036159036028986,0.045825517865183414,0.08381390196471106,0.5179223029308337,0.2152298301254765,0.24275222289647141,0.581329252388569,-0.07378078205981468,-0.09078587158916504,-0.13247371387197046,-0.9864249126928999
0.1,-36.67176480818477,82.93470233254094,24.460271863677338,0.03146041206061294,0.019428052479039722,0.01646465074135391,0.07604490961554793,0.12946654156762327,0.07888929123836608,-0.04931475590578861,0.6620948403238165,-0.10018515864307956,0.7407000889434154,-5.044866554431493,87.7261992256314,178.49018241003662,0.054005151202119024,0.1943614234087033,0.015094251559878341,0.37524052379604783,0.05771326208910981,0.19676534464956433,0.7218489831597,0.04121116208590941,0.6909456221008663,0.04116708766809438,-164.77946558407905,3.638468378201244,5.2248515258095605,0.17084061355111693,0.0597254808230412,0.3845496840688553,0.32946254525811375,0.45997556053479144,0.4493194449056135,-0.024883871637416812,0.049924640564313366,-0.9900154525305738,0.13372495104856982,-344.9273602874006,11.40491786029522,6.833243467236537,0.04798316013550275,0.08743779675356904,0.5383624948957437,0.2183218910786021,0.21906687916909634,0.5605937923543577,-0.07249714735635415,-0.08987423789978076,-0.13758078437375282,-0.9857420552157031
0.11,-36.6630967235239,82.93787937015946,24.418510265794676,0.03254014097501202,0.01830079596860361,0.020579946646241094,0.08982447596190112,0.13097812569749787,0.10337416315942129,-0.049493541160422413,0.6627604576123995,-0.10065393807436694,0.740827276764189,-5.121500372314228,87.49580536140212,178.4736678055054,0.06037290286682873,0.2217000674855767,0.015424321368346058,0.41989798960643526,0.05525623676993967,0.19136915223336518,0.7231310879540045,0.041716477067324974,0.6893964360493603,0.04135462148304387,-164.58547829832324,3.6909857446493977,5.058201875244167,0.1586483218327096,0.05590456877438924,0.35888563512199456,0.32828055858985694,0.43410320007707714,0.4563158282318038,-0.02579793344363964,0.049128586143632594,-0.9900247927435222,0.13541309971571794,-344.2198909981595,11.29588680759047,6.640634936992493,0.05349969724268881,0.09278219811650656,0.5453722840812304,0.2223710855576082,0.20913196029064304,0.5356442763803755,-0.07126494448966521,-0.08887555903593768,-0.14322277227008584,-0.9848674054745234
0.12,-36.672675526325925,82.94733406561157,24.394116426378083,0.03403616426728878,0.01961068587733827,0.025917578928553054,0.11009649430671692,0.13016829556053572,0.13303544057464795,-0.04982003268615735,0.6635977951122733,-0.10099643163368827,0.7408823785040637,-5.211409419578768,87.20480359024705,178.48593084642917,0.06718307684701773,0.25585655865892615,0.01565975748291526,0.47888071260425824,0.053294234733872924,0.18157668508206534,0.7246854678328841,0.04220225092946336,0.6875125914470108,0.041422583200277106,-164.37903804508187,3.7515607051766446,4.9317141361018315,0.1460339207371691,0.05366227841054738,0.3336503214540707,0.32490958391463814,0.4152093883377333,0.4605073605638461,-0.026732348553085317,0.048678239624257096,-0.9900338916338096,0.1371971155563266,-343.4818619633897,11.172845675196985,6.470147060339186,0.06256631133628511,0.09985148447215646,0.5383855417603078,0.22754080319578507,0.21255332393532958,0.5090644242586833,-0.07016945305882005,-0.08774976869430802,-0.14916132372199417,-0.9838888154881569
0.13,-36.70410570308209,82.96630354200157,24.38650285233799,0.036203476151297674,0.02447029876878801,0.03244505493239433,0.13783302650531215,0.12734761478787046,0.16677897161462443,-0.050316073939769404,0.6645402920420018,-0.10122348577190515,0.7408327984988821,-5.314885409064695,86.84512435178945,178.53657204805234,0.07435066964991635,0.29785848106887436,0.015800423224386136,0.5519999220380882,0.05223892221041864,0.16849576761068058,0.7265915338071701,0.04262062559056546,0.6852298956394545,0.041320734034396504,-164.1820539674113,3.8205436667540393,4.845823020655632,0.1329579858522884,0.0525765320645515,0.31034193451304054,0.3212675038686726,0.40177943067265953,0.46116400092011056,-0.027662129617537064,0.04854467379670431,-0.9900416774174591,0.1388882397019348,-342.7463345599169,11.03600592949147,6.334023062042665,0.0752329194212861,0.108606935380365,0.5181071236360423,0.23391044604650313,0.22904914997636924,0.48375273858558465,-0.06930122152060574,-0.08647449004944342,-0.1551272888749956,-0.9828915364388153
0.14,-36.760553522530884,82.9988184460432,24.395336756131886,0.03926999302012006,0.03396414132480681,0.04001693395076901,0.1735769912599056,0.12299250271087708,0.20313006254285085,-0.050996811252397814,0.6655306495413466,-0.10134400365677135,0.7406460571732199,-5.431932736861391,86.40975797181933,178.6345736513911,0.0817807646308138,0.34828514561862717,0.015853810968329708,0.6379351189770949,0.052498949570704286,0.15367894027056145,0.7289161429250182,0.04292101846617125,0.68249086595152,0.04099984882961732,-164.0157351725775,3.897577562388516,4.798881960322251,0.11948601022713302,0.052355405922230036,0.29056729530106584,0.3189335970501804,0.3932164163215269,0.45821448161492423,-0.02856458593364706,0.04868278293923588,-0.9900469378436741,0.14030484140557353,-342.04692493836865,10.887777228017434,6.24407372763541,0.09138525279126719,0.1189676725753357,0.4865369886715407,0.24146837843710514,0.25850235972397073,0.4626895392794618,-0.06875087734835175,-0.08505030255014225,-0.1608423948760742,-0.9819505776489698
0.15,-36.844541771551434,83.04947040325851,24.420707452490994,0.04341272644523118,0.04904466185748354,0.04836817727566154,0.2173028156906051,0.11771123118217532,0.2403219968638935,-0.05186883486578467,0.6665262249611872,-0.10136391332290302,0.7402925776397906,-5.5622984572714005,85.89319997939889,178.78745650782545,0.08937763689041853,0.4071708443178822,0.015840258640650133,0.7342098762995138,0.0544519390905988,0.1390331740175381,0.7317097279154388,0.04305519896218827,0.6792478886567694,0.04041601928786675,-163.8987744496841,3.981390391377634,4.786931419804061,0.10579968002639657,0.052849914370894494,0.27590225306402266,0.3190147977571883,0.38992881424583903,0.4523143410317579,-0.029419540720758964,0.04903172922578022,-0.9900484175000747,0.1412881866746249,-341.41515713539775,10.732901064107043,6.210839483311229,0.11073589300096791,0.1308127277917432,0.44679389629704996,0.2501196114954414,0.3008966125107335,0.44867372407218054,-0.06860390211075407,-0.0835035259425652,-0.1660417981491084,-0.9811249543613588
0.16,-36.95778068268623,83.12301197493284,24.463204913033938,0.048739184167417134,0.07042455433392376,0.057120262660123135,0.26832416862314346,0.1121961592235403,0.27642877400895227,-0.052928984630526574,0.667501858994416,-0.10128608901829991,0.7397487129088134,-5.70552088779006,85.29182959177972,179.00044776385454,0.09705719472394893,0.47396036825108157,0.01579958621133599,0.8372945037324329,0.05841837480981603,0.1266886354094419,0.7350038287304272,0.04298323223548197,0.6754654437825302,0.03953516973610333,-163.84584854751125,4.069599606900439,4.803602094627004,0.09220641245549512,0.054045246700438955,0.2677460365802256,0.3220869236157015,0.3932563595146316,0.4448044106961344,-0.0302084061802494,0.04951582028828799,-0.9900449461072668,0.14171528726536176,-340.87802216284103,10.578311436671768,6.2428534422987925,0.1328341924710027,0.14398257598755024,0.4027735064600595,0.25970930578316487,0.35613436189538644,0.4440516266236659,-0.06893555554273283,-0.08188596337340663,-0.17049545423251442,-0.9804540938124712
0.17,-37.10104702434077,83.22380963912828,24.523888555008995,0.05527686894980396,0.09847954882859977,0.06580172939742279,0.3252717421579679,0.10717151661694589,0.30953601687250626,-0.05416405077431785,0.6684498375089237,-0.10111133983193749,0.738999736434844,-5.861000000575419,84.6041541389642,179.27576027740258,0.10476285124281248,0.5475273356550374,0.015798167224246148,0.9428285530514329,0.06463860005256178,0.1188338708663178,0.7388101122371905,0.04267968620150795,0.6711212205814678,0.038337304777199425,-163.86657304618785,4.158558680313243,4.840187647281933,0.07915229063515317,0.056037810333630804,0.26718852313492386,0.3282050940231924,0.405244518245513,0.4375539253890265,-0.03091243407905986,0.050045986341835824,-0.9900355918814964,0.14150757762085475,-340.455930501532,10.432718038302154,6.346066834820965,0.15709714642751776,0.15827801301549285,0.3587083062595509,0.2700597668516846,0.4237661237149712,0.45047385131201867,-0.06980617148868595,-0.08027141300905909,-0.1740265802305781,-0.9799563747990212
0.18,-37.27412377820512,83.35519715776383,24.604136996423822,0.06297271076563953,0.13317610718464515,0.07388304486010379,0.3861538720593274,0.10334496369702519,0.33793699933599425,-0.05555148402731508,0.6693771062177567,-0.10084045374444506,0.7380424699113968,-6.028090082031984,83.83086582954842,179.61209073135805,0.11248305867135928,0.6262567681252368,0.015934870921219462,1.0459380890185948,0.0732534558811579,0.1175258175480463,0.7431209184744355,0.0421392538175731,0.6662060792636224,0.03681993309137937,-163.96498030781805,4.243281628726098,4.885912967561165,0.0672400271811932,0.05900568470444576,0.274900188498273,0.33697061824256463,0.4282993376332004,0.4327041254889918,-0.031510609878604996,0.050522134043266685,-0.990019829665607,0.14063481658676996,-340.1611904303161,10.305954232726062,6.52347611325873,0.18286037697741622,0.17345464806108415,0.3187095365805162,0.28101476719161184,0.5026887590126372,0.46872339689002124,-0.07125713472480995,-0.0787492352317602,-0.17652594551174736,-0.9796295672317815
0.19,-37.47581251471963,83.51879761049939,24.705381430058303,0.07170252570313107,0.1740360523347402,0.08082365731390095,0.4484997855180406,0.10136729857345726,0.36033273131182364,-0.05706105687903448,0.6703002058985644,-0.1004771569541039,0.7368872115268859,-6.206209385496776,82.97468714255848,180.0044329671005,0.1202662728883913,0.7081821083039104,0.016343799398162582,1.1416117960423335,0.08428843737554971,0.12448581367820725,0.7479112634056511,0.04138079981564721,0.6607229410644672,0.03500009906134131,-164.1395109776676,4.317482507646178,4.928411020962336,0.05724838398217829,0.06317892186454865,0.2910444316652798,0.3476364029893897,0.4647746121062655,0.432348959676542,-0.031977723983830156,0.05083670753672128,-0.9899977091128548,0.1391143625279451,-339.9970893929015,10.208176436159768,6.774968992906974,0.20944645389423588,0.18921415483938184,0.286363452725513,0.2924810368020778,0.5908858197734631,0.4986523462449616,-0.07330794124065229,-0.07741577694438966,-0.17796116156110298,-0.979452809225262
0.2,-37.70402669868885,83.71389345676464,24.828736545118776,0.08128825469064734,0.22014566555298168,0.08612704878474965,0.5095737016434992,0.10179997598291546,0.3760091233738395,-0.05865724994731126,0.6712386513895345,-0.10003172777137889,0.735558673729215,-6.394953472258396,82.04002087669173,180.44427072449602,0.12822704562855897,0.7911562147993766,0.017191515415005527,1.2250965230922841,0.09764128717112634,0.14089750594429015,0.7531420695949056,0.04044892567291508,0.6546848326382193,0.03291453249882411,-164.38343857761132,4.373762754914155,4.954404148551531,0.050144300713519475,0.06881418254177157,0.31520737907983387,0.3592285015949262,0.5165551790488841,0.43820312206800166,-0.03228314124519617,0.05087972108341813,-0.9899700042325542,0.13700665509390478,-339.957606688108,10.149030335803921,7.097391427739529,0.23624679769956666,0.20519855249194877,0.26443323005052116,0.3044551519364144,0.6852804348629205,0.5392459761850509,-0.07595479854541178,-0.07636487228533594,-0.1783805113371325,-0.9793896964581529
0.21,-37.955964987040026,83.93692362183567,24.97455267592175,0.09151842617728506,0.2702109967094506,0.089397641268676,0.5666396852564397,0.10508716073297206,0.3849635817363733,-0.06030206842521627,0.6722076364845998,-0.09952490134100973,0.7340957575999288,-6.594191002348193,81.03245969745336,180.92015851608969,0.13653654629564158,0.8730290250003094,0.018666875064168444,1.2922743106378105,0.11307390026016359,0.16722749166267772,0.7587642485594404,0.03941250790774846,0.648112444606484,0.030617623009489545,-164.68560328806012,4.403968689282958,4.9505650703390724,0.04707578804550913,0.07617629142815595,0.34634504936354077,0.3706616465946846,0.5846973021020029,0.45131273714120557,-0.03239070823247585,0.05054530699924717,-0.9899383226262154,0.13440814468849366,-340.02774541848476,10.136904219225803,7.484831270720801,0.26281210780841147,0.22099802451888198,0.25469293609654414,0.3170285439043179,0.7817541066843974,0.5888077882767758,-0.07917118816276471,-0.0756788236779978,-0.17791119351714482,-0.9793920463368018
0.22,-38.22834954380388,84.18117563183303,25.141920526648768,0.10216588877459248,0.32265508567717033,0.09039176366295457,0.6172502223036113,0.11152947782102046,0.38795861561313694,-0.06195806408178005,0.6732110103117234,-0.09899162536531524,0.7325501732784222,-6.804116122584161,79.95823708530729,181.418630239287,0.14539310904084984,0.9518041358321259,0.020962897398913632,1.3399879920118318,0.1302107603812611,0.20309242344625578,0.7647231554426475,0.03836018978846054,0.6410316336657413,0.02817724220676551,-165.03132829346097,4.399724022063294,4.904511320199771,0.049333893803819036,0.08552791868950017,0.38275971571409423,0.380835470537341,0.669168291372799,0.4718606923851738,-0.03226009814368942,0.049739508950966085,-0.9899051513498679,0.13144291038255762,-340.1844418904956,10.178371825775594,7.9291126943920105,0.28894329257251544,0.23618254327259317,0.2578970217336174,0.3303732542986528,0.8753576614171419,0.6452316842508073,-0.08291066073623357,-0.07542115313662123,-0.1767521675325859,-0.9794039224224012
0.23,-38.51769898453544,84.4367223508325,25.328165763717063,0.11299721559225642,0.37574758902428923,0.08905417742527812,0.6595239212639373,0.12125949002869316,0.3864894630335067,-0.06359148102382726,0.6742354389508987,-0.09848418655932846,0.7309841019550801,-7.025232999195701,78.82371039890617,181.92531380994274,0.1549733156734472,1.025753168750632,0.024252075875979783,1.3662914697513038,0.14854728137593,0.24719585666356897,0.7709628823642027,0.03739329308467556,0.6334712763777514,0.025668819660627135,-165.40342603660815,4.353119324222383,4.805868281494812,0.05827595427466615,0.09712748627388702,0.4221280348001751,0.3887126091878398,0.7686987985767542,0.4991056303553144,-0.031849709309598705,0.04838877144188585,-0.9898738171053426,0.12825385599986674,-340.3979916375168,10.277893670717223,8.42048998314565,0.31477049094408593,0.25036153568101555,0.27386956070690144,0.34471949634246063,0.9607064258986103,0.7063039745196386,-0.08711188576310357,-0.07563203766726667,-0.17516205636637847,-0.9793655489802757
0.24,-38.82059479938439,84.69063103392253,25.528376340877994,0.12377071518804575,0.4277535269346681,0.0855327113571498,0.6923717603590943,0.13422137801198625,0.3826642730005183,-0.06517553895888821,0.6752465378053578,-0.09807423003986297,0.729467190059013,-7.258256174476189,77.63495741531806,182.4260986257846,0.1653700659490618,1.0934778780880972,0.028658408775626826,1.3706122352902224,0.1674718998965244,0.29735425562324724,0.7774298670902383,0.03661694120752158,0.6254617944408923,0.02316841377095112,-165.78325278670087,4.257515585855282,4.647324052143737,0.07520876082610155,0.11123413100505382,0.461604209259538,0.3933903199471851,0.880734366559309,0.5314699914784934,-0.031121022002220108,0.0464484140584208,-0.9898483418744272,0.12499389466253928,-340.63391663849126,10.437803258395498,8.948513118939118,0.3408039885557696,0.2632653745226895,0.30168203089915907,0.36033616856235245,1.0325154194337212,0.7699669255736518,-0.09170568954457495,-0.07632681550093835,-0.17344281169722617,-0.9792168010395218
0.25,-39.13389926384705,84.927449936404,25.73501176859791,0.13422424317443177,0.47708525224235315,0.08016674344201685,0.7156326900835697,0.1501573596997013,0.37900743466007986,-0.06669383580197893,0.6761875335901997,-0.09785324404396498,0.7280731273208391,-7.503923860432831,76.39754528816698,182.90820814248752,0.17652887007495083,1.1539208609700986,0.03423044872588594,1.3538222761436738,0.18630459722704273,0.35062496314352964,0.7840753888192433,0.03613036062563635,0.6170345457347182,0.020745692168420586,-166.15181254184466,4.10839731449404,4.425595407722976,0.10123754632414235,0.12811708721003137,0.4980093742062311,0.3941763798977153,1.001461112471018,0.5667612526525975,-0.03004410007765408,0.04391033513891445,-0.989833181482242,0.12181716125952269,-340.8551765600252,10.65855843490746,9.503009509336472,0.36794011427660206,0.27483113317949054,0.3398770030264619,0.3775169875925928,1.0861994150402068,0.8344851232320578,-0.09662351780328099,-0.07749740291425998,-0.17192012145222205,-0.9789000161667473
0.26,-39.454892953944814,85.12995456958414,25.93765012452854,0.1440585821446456,0.5224399197456625,0.07345006627097736,0.73009173355269,0.16860193437002963,0.3782071057207463,-0.06814369062957508,0.6769806918895079,-0.0979311812528023,0.7268759501791207,-7.762737685845394,75.11650123288042,183.36106216108575,0.18819592367752166,1.206333268031805,0.040919633397644394,1.318213975546724,0.2043506546357905,0.40353976386000756,0.7908566926761016,0.036017405683234784,0.6082221085155579,0.018457706143989335,-166.49092306288753,3.904196604944208,4.142226243993759,0.1370937109719666,0.14806524751224723,0.528097792524077,0.39066967279645953,1.1258918683420538,0.6024801796353327,-0.028603723100052287,0.040809230485091566,-0.9898328439797476,0.11887017229318357,-341.02458996634493,10.939195910695389,10.075093376567606,0.3974090891214866,0.28526787530411774,0.3866898360829091,0.39656391155720017,1.118443336685332,0.898485667574944,-0.10180645742337424,-0.07911601571897019,-0.17092187552018853,-0.9783619396980056
0.27,-39.781317705953185,85.28011087051395,26.122933165651485,0.15292514327581408,0.5629041727754126,0.06597377440184951,0.7373740412752176,0.1888845336411327,0.3828342899319918,-0.0695390350214505,0.6775313546818122,-0.09843303104079681,0.7259461427384247,-8.034659556665845,73.79648120478763,183.77685676215998,0.19989116580920618,1.2502122577686832,0.04856737639220853,1.267371423847599,0.22096226412889072,0.452434488234673,0.7977367002820271,0.036338343670006754,0.59905929060394,0.0163441683089567,-166.78442666673712,3.647005475811409,3.8041438950936373,0.18296072361589874,0.17139105762523785,0.5488689479577539,0.3828336609083216,1.2480275999668378,0.6361516102846776,-0.026805479013226968,0.03722668794935208,-0.989851396917646,0.11628302880023307,-341.1072851005867,11.277898275845608,10.658090473429152,0.43066025796928364,0.2950782732267961,0.4402256820212353,0.41775341680937556,1.127645298413929,0.9608820689717498,-0.10721370576600397,-0.0811403386459521,-0.17075635755439172,-0.9775546905931491
0.28,-40.11133082119579,85.36018739888347,26.274769262874162,0.16042664004509433,0.5980095471514504,0.05835861811950613,0.7397292890493675,0.21014269722361453,0.39506242500084204,-0.07091231058180276,0.6777340547636833,-0.0994933323525465,0.7253466490357229,-8.318811501335368,72.4420991066619,184.15083301573685,0.21091646694741364,1.2852236399468882,0.05690330207784448,1.205923871353965,0.23559489104726833,0.49384637697695305,0.8046825020433473,0.037123827432928816,0.5895845483286747,0.01442472891902436,-167.0193650873196,3.343098715776541,3.423901068257939,0.23832328312966036,0.1984220778990533,0.5578799218415357,0.37104360773184863,1.3611325381508266,0.6656138375373539,-0.02468106852426621,0.033292569478343276,-0.9898918869116321,0.11416118215882655,-341.07296490724156,11.67257427343117,11.248263424263824,0.46919169820956813,0.3050241959597724,0.49856708538118,0.44127464515436626,1.114152033736247,1.0207236866586546,-0.11282931640504815,-0.08351924640591844,-0.1716920716095559,-0.9764357313490148
0.29,-40.443392936912,85.35392789697244,26.374844552160024,0.16613603098674046,0.6277268517229175,0.05118760415343705,0.7397367240523443,0.23135017901338648,0.4164160320935333,-0.0723148075896732,0.6774799306285644,-0.1012488036794345,0.7251290502481541,-8.613233497266043,71.05834954859243,184.48124357129836,0.22040341905989178,1.3111265548420015,0.06555586819374519,1.1391763434242463,0.2478439357564105,0.5249289033304289,0.8116630451647371,0.03837175203225959,0.5798414712995206,0.012698546805762392,-167.18697209094225,3.0032008610988687,3.019532389595608,0.3018676914046568,0.22947482555225546,0.5535101952052449,0.3560896394290822,1.4581570738106648,0.689220258647799,-0.02229209999269484,0.029183115411201315,-0.9899557103251303,0.11257876079228576,-340.89777144424744,12.121364331257825,11.845245679533045,0.514343665644919,0.31603976959930874,0.5598132113538513,0.46714078246361573,1.0802432605509293,1.0770264740471975,-0.11866625399095854,-0.08619827816312463,-0.1739410909925635,-0.9749669551969172
0.3,-40.776120953003534,85.24768500010191,26.403471863280735,0.16963377864270315,0.6523955208673659,0.044948352098398044,0.7399712841143329,0.2513656070358459,0.4475772304182447,-0.07381496186703697,0.6766646281488184,-0.10382943697259023,0.7253303038411455,-8.914752735542148,69.65103944052203,184.7690568742489,0.22739787964223157,1.3277158894402206,0.07407551903554105,1.0726338778036886,0.257452391260017,0.5438162723722515,0.8186465601062587,0.040047332080748475,0.569880058177721,0.011146225951322607,-167.28330981047364,2.6424461655639107,2.613960837176449,0.37145854913115606,0.2648097762716298,0.535141998966067,0.3391278182250713,1.5323065973838692,0.7059335451571823,-0.019731794825231408,0.025115281666960268,-0.9900419889655122,0.11157466544709838,-340.56557966965795,12.623008581302384,12.452134217271643,0.5670861651031766,0.3291099097429817,0.6220744860511512,0.4950902361348904,1.0298674175230869,1.128636096587565,-0.1247671979562017,-0.08912422686223642,-0.1776474541975169,-0.9731131613217506
0.31,-41.10813753731915,85.03141927524241,26.340773849420085,0.17055833298363354,0.672594661002197,0.03999170950429715,0.7426761741546694,0.26900643022150067,0.48827848871982776,-0.07549428609910312,0.675196010592862,-0.10734854013671492,0.7259704552423933,-9.219003884449892,68.22714335754539,185.0174607394676,0.23097139062579572,1.3347932080264857,0.0819693398986329,1.0114623624861323,0.264290274773914,0.5498669668344713,0.8255982651889263,0.042086309335603415,0.5597575997678704,0.009733894959702625,-167.3094109071514,2.2799983169692717,2.2339093134059773,0.4442071702302146,0.3045731187952215,0.503237227403268,0.3215857394973185,1.5777058156973989,0.7153186669329681,-0.01712423264795838,0.021337024627255292,-0.9901470175935269,0.11115233001441693,-340.06862635212406,13.177046838310552,13.075242198850443,0.6278368275285271,0.3451407680688158,0.6834573272723706,0.5245050235344779,0.9681746341455119,1.1741575710626795,-0.13120201284295832,-0.09224841775386061,-0.1828814872270609,-0.9708403216525081
0.32,-41.43794272467894,84.69948404348942,26.168153072006184,0.16866128199560412,0.6889756741469125,0.036509649857950834,0.7494852445939522,0.2831490821997738,0.5373040127381511,-0.07744088007873395,0.6730012030848338,-0.1118923404234442,0.7270515563581798,-9.520616619126308,66.79501435872479,185.23123945980686,0.2303444081704855,1.3321689597048945,0.0887446544828768,0.9599505592090639,0.26831743575346745,0.5437333142913026,0.8324787791425251,0.04440083222574886,0.5495390508736585,0.008418885733184313,-167.27088295894958,1.9383176316051376,1.9083121798649585,0.5166328237921468,0.3487373980771567,0.45930752222540355,0.3050396379551338,1.5900683565051155,0.7174593218275519,-0.014620962095494964,0.018113576469167805,-0.9902638587264153,0.11128325680286057,-339.4074629174517,13.783852601328169,13.723560467106935,0.6963427437158213,0.3648492025806835,0.7420700928098555,0.5543759772225894,0.9009260992884727,1.211963472587341,-0.13806224902809117,-0.09552851267526596,-0.18964017406933673,-0.9681140711795223
0.33,-41.763825715610835,84.25113896180437,25.869951531958556,0.16385736460144865,0.7020886066142056,0.03453252359148421,0.761227923560286,0.29284919710926427,0.5926071813651059,-0.07974086478345128,0.6700326590403434,-0.11750992367140332,0.7285577564966599,-9.813559458185985,65.364410489809,185.41610143724805,0.2250032468141065,1.319690712144874,0.09395700545462697,0.9210490891282931,0.26954795852210184,0.5272391307644942,0.8392435065635001,0.046887311449081294,0.5392968102915228,0.007156212646700725,-167.17704891408488,1.6420893444928784,1.6662802422105367,0.5849033532027338,0.39705560585849226,0.40578434078307085,0.2910809939426079,1.5672605814588292,0.71283042778707,-0.012394955187507665,0.015710163787633086,-0.9903821625352273,0.11191350263176918,-338.5902951518143,14.444529256819658,14.408010172722939,0.771648070995525,0.3886919281760734,0.7960663085327693,0.5833372890751634,0.8338751499850255,1.2402722324710498,-0.14545339849561423,-0.09892892597449465,-0.19785300606457612,-0.9648987535281414
0.34,-42.08382947880315,83.69075553212372,25.435151067672518,0.15626017141012455,0.7122393542685228,0.03394373235742368,0.777833971779374,0.29746649040049095,0.6515291916230553,-0.08246854729218973,0.666272971463298,-0.12420448313833321,0.7304563509988059,-10.09160239130542,63.94632991832896,185.57802881908952,0.21479166241281292,1.2972876576987156,0.09725600082819179,0.8960603964790709,0.26803252545896766,0.50308913489653,0.8458430692083947,0.049435404139080374,0.529109856514291,0.005904927409433667,-167.0397932739618,1.4168592384277938,1.5347428715309104,0.645130560277068,0.4490395952155196,0.34580531413929827,0.28118378308225916,1.5096508642064128,0.7021597809057485,-0.01063205677765757,0.014372087554782084,-0.9904882836007779,0.11297161929212858,-337.63183173522197,15.16071123067396,15.140583180873497,0.8521519391725335,0.41684394674402203,0.8437219542757937,0.6097781952285581,0.7722103978399453,1.2572756468188695,-0.15348587269340777,-0.10242011730131025,-0.20739222534578045,-0.9611571912874147
0.35,-42.395776667504535,83.02769261628578,24.858922063497396,0.14619634829912434,0.7194077405605165,0.034508744384913206,0.7983422885585675,0.2967704956275969,0.71108180440625,-0.08567651767305574,0.6617380661803961,-0.1319270179908579,0.7326995730296273,-10.348837913290255,62.55267651315466,185.72270951164802,0.19995985617480086,1.26502141734925,0.09842162874543987,0.8845357705167561,0.2638643812196581,0.4744682211953936,0.8522246642051537,0.051937155094500934,0.5190622207531971,0.004633442002596476,-166.87232615869758,1.287461439605078,1.5359597967187042,0.6936897263229214,0.503966355055119,0.2829448245021453,0.2765761656481821,1.420167603883495,0.6863073122959287,-0.009520360725714824,0.014303567859322167,-0.9905657503187858,0.11437638393254786,-336.5518026298205,15.93431578226641,15.933465223450064,0.9357447654500349,0.449223978519822,0.8835290954371978,0.6320191750735886,0.7201285270555293,1.2612924921244726,-0.16226576140725976,-0.1059771468196335,-0.21808608387571937,-0.9568512005317427
0.36,-42.69735944118473,82.2758355457447,24.14380151421852,0.1341942732465462,0.7232393766813905,0.035914621132447554,0.8210106963318622,0.2910001375169511,0.7682448190048863,-0.08938709907331313,0.6564783297017727,-0.14057365915328246,0.735227023906083,-10.580184453725726,61.1957975756789,185.85509749684027,0.18115982610787934,1.2231346091778519,0.09738469367710834,0.8844008751830094,0.2572010476989036,0.444605108604734,0.8583341017684126,0.05429526020991289,0.5092408277722007,0.003323066918518735,-166.68806070796452,1.2763627944133478,1.6851474703960498,0.7275317196436863,0.5609092781361216,0.22092522435350473,0.2781194096410438,1.3040491441064541,0.6661809631694644,-0.009238318608898717,0.01564719838537138,-0.9905961159702698,0.11604297384755616,-335.37332159694995,16.7672864817219,16.798225094431704,1.0199998400719033,0.48555532874254764,0.9142836812126317,0.6485176217401267,0.6805713255576411,1.2509290014921342,-0.17188635621843462,-0.10957795495591445,-0.2297336664612556,-0.9519427415127514
0.37,-42.98628561272599,81.45281709277927,23.300285717829933,0.12094722302290895,0.723105143100638,0.03781539598722461,0.843517463281559,0.28085644309858415,0.8202323051299436,-0.09358655597145683,0.6505772960750955,-0.14998761279042255,0.7379687126569933,-10.781793123257438,59.88794641497279,185.9791300064729,0.15938643001923675,1.17208918948023,0.0942281295903716,0.8922878276179802,0.24828660716620152,0.41637080622150197,0.8641182537245685,0.056429504706393734,0.49973280052298324,0.001969294762047076,-166.4997400642037,1.4020803378334739,1.9884859395868155,0.7444591639321172,0.6187884980410118,0.16334375350669253,0.2862026061808037,1.1683363297775342,0.6426949903175765,-0.009942738495821894,0.01846615235816654,-0.9905601830708223,0.11788683477437178,-334.12125452260096,17.661360701064616,17.74513523912588,1.1023916647850773,0.5254452481890571,0.9351497377450511,0.6580539732552618,0.6551268926764267,1.2252324604468565,-0.18242120832941616,-0.11320181712310054,-0.2421199188992595,-0.946395486904213
0.38,-43.260459999556375,80.57897448871783,22.346671446421656,0.10725512515599117,0.7182086720433074,0.039877617125815945,0.8632355260240772,0.2674235030757729,0.864695620171968,-0.09822317170005598,0.6441477940285674,-0.15996622290501186,0.7408486264660742,-10.951292382961425,58.64072716569805,186.09761006242576,0.1358751423422664,1.1125869715025742,0.08917031531073571,0.904013147113999,0.23746193972225405,0.3919646163820433,0.8695276877527325,0.05828071206584322,0.4906224005789047,0.0005807403532767957,-166.31887370240233,1.6778426030296776,2.441750261525154,0.7433436341560913,0.6764338603714999,0.11343950911517613,0.30066803538472414,1.0212064698810712,0.6167629147357259,-0.011758034224218982,0.022731286282160437,-0.9904395460892158,0.1198251297300858,-332.8207237988359,18.6178818766476,18.782666253882084,1.1805120820437094,0.5684639904985138,0.9456912639008955,0.6598565282135466,0.6440693052655349,1.1838300954226695,-0.19391921234251455,-0.116828286571528,-0.25502970647096695,-0.9401765249220805
0.39,-43.51816719782703,79.67613565992718,21.308079677710086,0.09395214057458794,0.707717154054863,0.04181967509586299,0.8775505240820001,0.25203155139371947,0.8998460473425525,-0.1032097248326194,0.637325842780774,-0.17027288038573082,0.7437886020029524,-11.087834452276757,57.46457858221708,186.21224245244247,0.11197559086657789,1.04556734301732,0.08253555401720163,0.9151175813185736,0.22515866933817602,0.37271963167304833,0.8745192860290615,0.059811966964380785,0.48198784849449094,-0.0008239505866152211,-166.15547077971908,2.110652766645305,3.0297449271792463,0.724267421081338,0.7326543916272348,0.0739115227510864,0.32078244748367135,0.871261400022269,0.5893073976305573,-0.014768054915093832,0.02831489746432814,-0.990218345073158,0.12177619502914018,-331.4958371042922,19.63766425844835,19.917172485967026,1.2522588362484401,0.6142062812529738,0.9458732272512456,0.6536503488222941,0.6464994483510136,1.127048745894881,-0.20640193298938433,-0.12043672804457797,-0.2682599724083935,-0.9332579226243584
0.4,-43.7582159268558,78.76635552767695,20.214735058434027,0.08182914592434981,0.6908926774416453,0.043439049716331606,0.8841893587522973,0.236089280358971,0.9244932648266968,-0.1084301120483939,0.6302629345447343,-0.18065261128255228,0.7467121201790726,-11.19194504860812,56.36834630195903,186.32379371199644,0.08902180544313698,0.9721822765686754,0.07471888629268862,0.9213809680710507,0.21188017356084712,0.3590422094011322,0.879058622959556,0.06100732526048862,0.47389831352113265,-0.0022205995670364705,-166.01800451104864,2.700869076598787,3.7266272586233358,0.6885799240418702,0.7863083850839409,0.04678911857994909,0.3452635200930969,0.7268652632312171,0.5612656204699747,-0.01901150984026516,0.03499219252242999,-0.989885068977208,0.12365781324897589,-330.1686836911038,20.7209067020729,21.152762366507073,1.3159778240454996,0.6623232640655823,0.9360406717875652,0.6396432002486253,0.6605483879646737,1.056006194531075,-0.21986314841497256,-0.12400636358876062,-0.281629386371461,-0.9256179324583854
0.41,-43.980009332858046,77.87072799677391,19.099711814570085,0.07156063529617315,0.6672068960877074,0.04462376244276293,0.8815246750580016,0.22091601316493512,0.9380113811516197,-0.11374911001610122,0.6231175537344866,-0.19084944123864092,0.749547617098403,-11.2652151128945,55.358978773130396,186.4323342788916,0.06821651940009106,0.8937542178731505,0.06615179798440501,0.9192436177708085,0.19817632222435844,0.35048523116944885,0.8831218612630295,0.06186857828278645,0.46641135307591436,-0.0035846078414670636,-165.91351324590465,3.4423527656163486,4.497113499371495,0.6388644588182506,0.8363684613821928,0.03335088338204262,0.37236240583280444,0.5955927186293377,0.5335715595380083,-0.024481439102227377,0.04245074465481205,-0.989434199188097,0.12538531752775345,-328.85860073024605,21.86714576492376,22.491329422519538,1.3705483979441702,0.7125213735914561,0.9168863810925569,0.6184718470842998,0.6836094064077295,0.9726546918332228,-0.23427038806930006,-0.12751665273899687,-0.2949852500325739,-0.9172416862028803
0.42,-44.183519635268304,77.00837927649576,17.996443435383494,0.06364460165228028,0.6364282095179101,0.04534769222265139,0.8688181795589371,0.20759952583589827,0.9402594293340893,-0.11902380472311377,0.6160468213577488,-0.20062333061969323,0.7522310335556457,-11.309900874701235,54.44136272901007,186.53751470091984,0.05054078836442713,0.8117261888364549,0.057273102863741196,0.9060998407578432,0.18461752604082488,0.3459397773993392,0.886696983898846,0.06241084064965804,0.4595710070048718,-0.004895837430226476,-165.8477416144646,4.323160411494427,5.298488914905826,0.5788159925107667,0.8819763627059956,0.03408724728058504,0.39999623349649266,0.48381106429187015,0.5071046071819831,-0.031128534449653716,0.05030752145225645,-0.988867449213352,0.12687055803338973,-327.58168476452516,23.075236382349843,23.93270992873376,1.4154093435890607,0.7645329850651422,0.8894123961073105,0.5911267019848266,0.7125757847755839,0.8797527413888897,-0.24956811940211568,-0.1309477843859071,-0.3082077548800642,-0.90812126929209
0.43,-44.3691655265706,76.1957110066451,16.936305737851505,0.05836183847921076,0.5986762765820246,0.04565293268580478,0.8463659725757569,0.19689672482148574,0.9314897602117009,-0.12411514945790511,0.6091990285728313,-0.2097647130935518,0.7547075526886625,-11.328511023561456,53.618294013334975,186.63882844653267,0.03669430827565733,0.7276138487688827,0.048506812922571904,0.8804657588941912,0.17176995927923933,0.34391345542836166,0.8897842972783004,0.0626577833006372,0.4534066418662804,-0.006142442964173924,-165.82524420072426,5.326691307798128,6.083293175003768,0.5130344131666825,0.9224828717297696,0.048701885580153884,0.4259199890664104,0.3963927453043395,0.4826062198544546,-0.03886758309084894,0.058132486745223776,-0.9881943455005253,0.12802258850563605,-326.3505126248337,24.34334728100841,25.474929464008206,1.4505309232358683,0.8180689767905678,0.8548843810137101,0.5588631795153588,0.7440763439540804,0.7807500377675252,-0.2656821714639176,-0.13428101728198513,-0.32121184857275825,-0.8982551437488563
0.44,-44.53761211168588,75.44591910486714,15.946535192302152,0.05575846228318279,0.5544430085034003,0.045624773386207074,0.8155196448926458,0.18918591428625792,0.9122727312246162,-0.12889833733982367,0.6027075833770421,-0.21810530729195787,0.7569326708291616,-11.323455901589309,52.8905635831922,186.73582139655537,0.027067244959650738,0.6429657569946478,0.04024696109258268,0.8420465988725365,0.16017031039064789,0.3428496553199556,0.8923962488129712,0.06263726466610882,0.4479325569257648,-0.007322979013106109,-165.84940667862355,6.433149428305198,6.802516214816716,0.44674231750421844,0.9574693668476384,0.07614798130441747,0.44792468579159456,0.33654208415529785,0.4605812074599591,-0.04758596406794283,0.06547731216796951,-0.9874319176562556,0.1287505796595664,-325.17403880058015,25.66895554471508,27.114499024125365,1.476344891786667,0.872764957816019,0.8147766428877261,0.5231014520522657,0.7747127504892797,0.6795882128604013,-0.28252491027423515,-0.1374985742636039,-0.3339469476555316,-0.8876470303699294
0.45,-44.68953100363956,74.76877696020252,15.048666364070758,0.05565277508817415,0.5045821561312498,0.04536538592463561,0.7785787219400598,0.18447181993306191,0.8834536865154986,-0.1332710192960185,0.596686606744705,-0.22552462278274688,0.7588728075272988,-11.296817668377074,52.25712960650281,186.82822039429507,0.02174108967148409,0.5593325571398017,0.03284806850373105,0.7917313240240936,0.15029766604581948,0.34143592686908814,0.8945566630713028,0.062377955481360915,0.4431483297191374,-0.008446394698722945,-165.9223764581377,7.621147275469952,7.409109730258176,0.3854417848476957,0.9867495842854817,0.11469680906290201,0.46404606879491456,0.3057169066416606,0.44121277840483425,-0.057152958377954165,0.07190736785441136,-0.9866033351498544,0.12896898058350784,-324.0576449088969,27.048821699844662,28.846718773651723,1.4936480884118082,0.9281325496677286,0.770709512122825,0.48531639426179146,0.8013065219294293,0.5804383301042719,-0.3000005662112591,-0.14058282928481025,-0.34639464519177016,-0.8763045334776305
0.46,-44.825368262323266,74.17064583389534,14.25758605171833,0.057664867528995994,0.4502718414011786,0.044971129171978305,0.7385761344237654,0.18243723028282527,0.8461430307472526,-0.13715876489172898,0.5912281517220955,-0.23195221457577125,0.7605055976971822,-11.250278140967131,51.71534451913439,186.91596727464503,0.02051382571785212,0.4782416644957749,0.02661906217890373,0.731530883406113,0.14254260460982232,0.3388547246434131,0.8962995163756917,0.06190733812013579,0.43903985852810873,-0.009529904485096748,-166.044928965928,8.869269255828131,7.861594326004498,0.33453104124247357,1.0103530438499135,0.16203801055063408,0.4727641574967149,0.3036264991574638,0.42432287820219605,-0.06742866735984716,0.0770348809617976,-0.9857354529041078,0.12860443302991006,-323.0033241198929,28.478928651924374,30.665948765674585,1.503495208609207,0.9835259810012226,0.7243844997382742,0.4469272901061129,0.8211577991565076,0.48740970001346895,-0.3180100316538536,-0.1435146619301754,-0.3585645426430727,-0.8642378752497485
0.47,-44.94516828526498,73.65466287277778,13.581219982606347,0.06126463266296744,0.3929564318523721,0.04451656481554292,0.6989979371471249,0.1825286074503834,0.8017253632177317,-0.14051753301022898,0.5864008430217926,-0.23736617231383997,0.7618199249492678,-11.18521599152987,51.26120933813607,186.99915863717132,0.022943509327380176,0.4011728687395089,0.021818107050967313,0.6644617606291202,0.1371773779067253,0.33494423759404884,0.8976673284196705,0.0612512189592997,0.4355810165792237,-0.01059508578340163,-166.21632058291388,10.157430394372135,8.127526239163457,0.29890815387335945,1.0284943296744773,0.21541239815900712,0.47317039853220433,0.32829317928225005,0.40939876231812417,-0.07827160747929851,0.08055096050366493,-0.9848554160968942,0.12760354125095508,-322.00998247919375,29.95438104868895,32.56582258376436,1.5070936140567202,1.0381319172248058,0.6775228987637228,0.4092057790268948,0.8323020482590162,0.4042708509406049,-0.33645453803345926,-0.14627104560994858,-0.3704884602937961,-0.8514589863562242
0.48,-45.048492993031644,73.22105750530967,13.020801242745547,0.06583164504249515,0.33427512822763544,0.044046571514419486,0.6634816095092891,0.18405860860481046,0.751864412165768,-0.1433332894379623,0.5822496707099813,-0.2417885782559277,0.7628157263144354,-11.102957889292249,50.88963608506322,187.07790489694395,0.028404140897983602,0.32953120407642295,0.0186462956446415,0.5943664284113417,0.13433351249013736,0.33025468710665606,0.8987091628332522,0.06043464917146625,0.4327357828660766,-0.011662826923982015,-166.43419067759285,11.467910998133792,8.186583338928639,0.2825936821389847,1.0415341708940273,0.2717776515879995,0.4650794019314822,0.3761775095765733,0.39568885830904954,-0.0895444898613553,0.08225411074630468,-0.983986705774014,0.12594040960113986,-321.0738275369806,31.46928680803019,34.53941602796931,1.5057088239998553,1.090986437596299,0.6318114388313547,0.3732206957804984,0.8337313800085653,0.33422071144889953,-0.35523794694304683,-0.14882208796224977,-0.382213518316009,-0.837980870989307
0.49,-45.134459052969305,72.86755833735617,12.571626093991974,0.07071933194658471,0.2759832731981957,0.04357635914105274,0.6355227474954264,0.18630691555016832,0.6984826133133918,-0.14561923467483234,0.5787966978962333,-0.2452787414076441,0.7635035970461658,-11.005139734624874,50.59471181869299,187.1521348399841,0.0361481216442878,0.2646158207001438,0.01723934907170632,0.5256608939294297,0.13399268363307734,0.3259995909572837,0.8994781730159699,0.05948392974875734,0.4304606995183026,-0.012747910435820358,-166.69457151623737,12.786007751885638,8.03303589943264,0.28840672827449493,1.0499390939250182,0.3280038426871995,0.4490688036922496,0.4423804155124085,0.3823554275646899,-0.10111813153275341,0.08207289805213144,-0.9831452086726994,0.12362287646943075,-320.18879898211975,33.01667011299662,36.57942434349244,1.5005842749488294,1.1410181646536128,0.5888562763322115,0.33982730581696585,0.8255389030993864,0.27973670036750364,-0.37426783473817316,-0.1511278093868128,-0.3937948229142689,-0.8238167767871264
0.5,-45.20189394859699,72.58986944049211,12.224183085231958,0.07531618045361513,0.2198699107136685,0.043097499806657585,0.618199915668714,0.1886028784644614,0.6437065004979007,-0.14741129930480407,0.5760425121405656,-0.24792491834502167,0.7639041731167606,-10.894107994461054,50.36997015867349,187.22138296986142,0.04537031133504457,0.20758737240050396,0.0176579028417044,0.463009352168121,0.13599373357275552,0.32390942926227795,0.9000286741921499,0.05842920202793509,0.42870754145379397,-0.013854066116985381,-166.99204736686394,14.10030130222599,7.67738111726003,0.31772839075053183,1.054246427505881,0.381089383912606,0.42644330445847395,0.5209387079796522,0.36866331676079744,-0.11287375923927055,0.08008060292207879,-0.9823359600700307,0.12069653845524451,-319.3469878368382,34.588480014682816,38.678423894925665,1.492874460248096,1.1871117801697288,0.5501452553338371,0.30969286501400534,0.808954915294169,0.24250911314606796,-0.39345589768897377,-0.15313497170169096,-0.40528862622934425,-0.808978485252952
0.51,-45.24958921503982,72.38220714101325,11.965537661212824,0.07909793232467954,0.16767450443693457,0.04258668277528883,0.6139177532956662,0.1903799932526828,0.5897822622013374,-0.14876256582054265,0.5739683257244141,-0.2498350588366386,0.7640471480926169,-10.773274114705544,50.20868247163691,187.28460364862482,0.055269555085802655,0.15943977370098156,0.019878057348048116,0.4109439187560188,0.1400548014381635,0.3260002734414862,0.9004128454950522,0.0573070143569737,0.427426137466263,-0.01497026802119964,-167.3200760828345,15.4025885723585,7.1469440561354975,0.37038214902534083,1.0550401194641645,0.4283799596099673,0.3991316266041529,0.6052193839823484,0.354180069988122,-0.12470412971899776,0.07650002587252555,-0.9815510836626694,0.11724592791565921,-318.53899628476546,36.17575109776002,40.82928270177155,1.4835890806741774,1.228181915302354,0.5170189515552994,0.2833406626419363,0.7862616374924621,0.22345161222969048,-0.41271830395426873,-0.1547742998609972,-0.4167467950544776,-0.7934731513285486
0.52,-45.27661139447461,72.2378878537175,11.780856988877826,0.0816662162699162,0.1210074394704664,0.04201357024609037,0.6241732575101854,0.19120169757930064,0.5389714865598657,-0.14973713329153607,0.5725387001819426,-0.25112702250193114,0.7639696729826987,-10.647334275924184,50.10417858016093,187.34005504917607,0.06510437464969086,0.12098201806354011,0.023784487467144903,0.3734631879971344,0.14580592996111166,0.3342781702876889,0.9006772887237671,0.05616222493352021,0.4265673152186239,-0.01606887956726096,-167.6714525503538,16.68755971642461,6.485288838304367,0.44465083090856256,1.0529400390078476,0.46776605268782195,0.3695298913464714,0.6883968531381865,0.33895721845334376,-0.13651391353245276,0.07169717874580075,-0.9807691924913602,0.11339253696313174,-317.7542058592987,37.768944126972954,43.02574215822489,1.473547937736211,1.2632444183829463,0.4906524736949402,0.26119589040203084,0.7605849375527451,0.22276079460141107,-0.4319764624618077,-0.1559584418949884,-0.42821321353914577,-0.7772985257624144
0.53,-45.28262078134175,72.1499447847187,11.654962883818403,0.08277069955802832,0.08128018504807885,0.04134526676678132,0.6493611229425693,0.19076609811602346,0.493435622212465,-0.15040378930707426,0.5717049263270501,-0.251918761381035,0.7637139255784716,-10.52228586455656,50.050198274234305,187.38528546322954,0.07423993045224833,0.0928318936522499,0.029168578949349624,0.3536486421325975,0.1528250745943038,0.35041276259725285,0.9008597415919567,0.05504866346809938,0.42608595395141513,-0.017105974775891437,-168.0388599095761,17.95231425894734,5.750349946082648,0.5374341308425878,1.0486043494583255,0.4978325891432098,0.34030050315413196,0.7639749467522552,0.32365607812632796,-0.14821969295502366,0.06616338854647644,-0.9799562289242116,0.10928971550194107,-316.9809430750504,39.35845347348103,45.263133637634425,1.4633492064342315,1.291472144241942,0.47204852337250275,0.24362453461598546,0.7355703220914448,0.2399906908800239,-0.4511583526712856,-0.15658092877179303,-0.439722373332223,-0.7604369308835662
0.54,-45.26814505782438,72.11173436373748,11.573803938470585,0.08231405297024798,0.04964971381908089,0.04054703602086563,0.688642562585198,0.18889993767717878,0.4551145942107779,-0.15082979204566901,0.5714090912589642,-0.2523190657360092,0.7633238756930624,-10.405208170306775,50.04126390282021,187.41723585093283,0.0821831175825019,0.07541916489242936,0.03573379279478229,0.35333477002808766,0.16067045121055862,0.37542508038248784,0.9009862574537131,0.054028140098724885,0.4259441049563049,-0.018023808164123842,-168.41542859859845,19.19581157134517,5.011288227716812,0.6445312646460742,1.0427423736635903,0.5179390039007445,0.3141316235356569,0.8263007012360728,0.30958138933023677,-0.15974977159774745,0.06048631601789972,-0.9790674868936602,0.10511478468612588,-316.2065597696053,40.935222659999496,47.53913315340051,1.453354063011544,1.3122269336832932,0.4620357675340433,0.23096269399361566,0.7149684579822181,0.27411597627861384,-0.47020016150790694,-0.15651625859811905,-0.45129991197337654,-0.7428489002220198
0.55,-45.23475997358344,72.11748024034972,11.525743668749207,0.08034196447781096,0.02697875933875992,0.039580967482432484,0.7399050404258123,0.18554896448267308,0.42560408296867874,-0.15107508225811753,0.5715887689324209,-0.2524195101860186,0.762841605309714,-10.303819876873163,50.07305316012084,187.43244973874354,0.08860238865538791,0.0689936381633551,0.0431096621931895,0.37286481001445315,0.16890544870952873,0.40943799364172645,0.9010691341104329,0.05316766099134623,0.42611402911729784,-0.01875505086644096,-168.7952107971038,20.4183415234547,4.344197456249361,0.761014793274126,1.0361338088026255,0.5282181068550319,0.2934690577220552,0.8710122287589266,0.2985990626743792,-0.1710438864507526,0.055311467133682804,-0.9780504025092022,0.1010590220607499,-315.4174786159404,42.49137096962785,49.85441056177297,1.4436881110611672,1.3250668683646116,0.46125974969647576,0.2235349900556782,0.7021822125378083,0.32357752003437795,-0.48904762311854183,-0.1556211567606378,-0.46296435804133085,-0.7244678255264407
0.56,-45.1851428284568,72.1626985754219,11.502573671371938,0.07702297688789113,0.013810606381686642,0.03840536824951651,0.799836254039295,0.1807665046594858,0.40603774207657656,-0.15118726723028228,0.5721820999741655,-0.2522881701167588,0.762303768069729,-10.225869435610118,50.14274121812048,187.42736023111297,0.09332989396760447,0.07363304597476678,0.0508744529442352,0.4109623047219519,0.17711751698421732,0.45153161811173415,0.9011058143924352,0.05253506002489167,0.4265808113144255,-0.01922817034096908,-169.1734810947047,21.621084654932734,3.8269258430295308,0.8816488072466032,1.029648113672365,0.529494259458049,0.28024828643877037,0.8953656911254048,0.2929378291109298,-0.182052908267713,0.05129687005576153,-0.9768476247394492,0.09731649663848851,-314.5992787929252,44.02072010823067,52.213015182625874,1.4342570613168464,1.3297348605239714,0.4701542208399796,0.2216600031367489,0.6998462853137318,0.38632340766201495,-0.5076563195967985,-0.15373712706188494,-0.4747290197373856,-0.7051970970997888
0.57,-45.122984710948465,72.24445540040419,11.500182508870743,0.07262345407493774,0.010355579131756753,0.03697738179380971,0.8641235741515795,0.17469894578663336,0.3969840944380234,-0.1511976985666472,0.5731328388218709,-0.25196552411168593,0.761738774033126,-10.17844629624487,50.24927454058487,187.39860964676933,0.09634644578156443,0.08924562597892083,0.05858471147904585,0.4647450264013477,0.18493604626573934,0.49973172755807654,0.9010789002384394,0.05219360177082017,0.4273440745096926,-0.019373268570406568,-169.5467928176189,22.805809399584767,3.533415720673844,1.0013006604139527,1.0242557575830185,0.5231335618779628,0.27566745215161753,0.898395735804724,0.29489948396006993,-0.1927386675478957,0.04906459731163486,-0.9753998902735975,0.09407300103915527,-313.73689715533925,45.51913114245125,54.62236648455118,1.4247725058986016,1.326138821834549,0.4888906922988038,0.22564177039586306,0.7095065670813234,0.4598663275065263,-0.5259903744405992,-0.15069453280634168,-0.4866029750648589,-0.6849109408955601
0.58,-45.05276937295454,72.3614247132995,11.51884165412378,0.06748132663666796,0.016486715647116502,0.03526004567213775,0.9277723452316042,0.16756754475045205,0.39837119610224947,-0.15111890029584893,0.5743947947849547,-0.2514627543308657,0.7611651047527462,-10.167313826490465,50.39353676081061,187.34335403612607,0.09775358979195851,0.1155627529385438,0.065808158199835,0.5298968775353433,0.19205308815782585,0.5511393724829341,0.9009573269937833,0.05219633185318869,0.42841836277784784,-0.019127766559309606,-169.9127525866076,23.974729573945723,3.5280788951269413,1.115300877600528,1.0210225648171047,0.510849949008375,0.28004274714388133,0.8808844496475201,0.3065204377574361,-0.20307405659669164,0.0491535755614986,-0.9736483304420525,0.09149643863705793,-312.81499603808294,46.984608419039866,57.09277813021719,1.4147833933620855,1.3143344431224075,0.5173158752788886,0.23575029257351646,0.7314404546861752,0.5413734044988544,-0.5440193576364656,-0.14631847683526805,-0.4985904803430026,-0.6634595564733028
0.59,-44.97944490535199,72.5137418687161,11.563104512470154,0.06197997807410883,0.03174402674394631,0.03323338492475737,0.9855177000620537,0.15964854603725612,0.4094533584277443,-0.15094350891390038,0.5759350369390215,-0.2507624360118888,0.7605909172086374,-10.196356557062122,50.578370501336366,187.2595127883823,0.0977395326752924,0.1521190415622693,0.07215538449556926,0.600994274221444,0.19824479376043008,0.6021877859785592,0.9006986415026372,0.05258097500463844,0.42983198329262207,-0.018441439604934474,-170.2695214036805,25.130521787494388,3.860784941799354,1.2197188648952104,1.021080514700871,0.4944989779022395,0.29277585630256603,0.8451467600716386,0.32923553562929614,-0.21304348080283544,0.05197844873128051,-0.9715360189814704,0.0897298848508149,-311.8185147130244,48.41717445313383,59.63651986246433,1.4037095214329118,1.2945189115839573,0.5548920720320433,0.25219861963138285,0.764626734934421,0.6277945786265798,-0.561713638709123,-0.14043660504255961,-0.5106886348962593,-0.640678497285541
0.6,-44.90802556601821,72.7026762085651,11.641346745389935,0.05652230671802523,0.055349204616111376,0.030907780464421115,1.0322886538362934,0.15125525014603583,0.42883170216901134,-0.15064477764076933,0.5777353432273112,-0.24982139579187634,0.7600148686825912,-10.26720955038438,50.80842840000115,187.14593876506197,0.09654543862759407,0.1982214438871407,0.0773060925772193,0.6719608538701232,0.2033849231337019,0.6489931508283877,0.9002522224247856,0.053366041528059585,0.4316243776522874,-0.017280415084369408,-170.61510256499332,26.27648145938239,4.563016894738612,1.3115387454055993,1.0255720763761575,0.47589239653700144,0.3124442725312084,0.7946745313771328,0.3635943671239652,-0.22264358818163882,0.057798959170394765,-0.9690087673093851,0.08888812626203645,-310.73339254865215,49.818547831505505,62.26650285943964,1.3908746907122567,1.2670382210034037,0.6006536362070792,0.27512619573103025,0.8068505151666269,0.7160261808194657,-0.579038788316819,-0.13288866500413316,-0.5228836236305233,-0.6164016731276926
0.61,-44.84316451158775,72.93017490424937,11.765000683513467,0.05150505174260725,0.0862344470274338,0.028337018644875804,1.0636727226569003,0.14272486954004443,0.4545335980960778,-0.15017858553873714,0.5797916699882012,-0.24857533862466172,0.75942791964507,-10.37910426644768,51.08984259413844,187.00250121868888,0.0944361957302667,0.2529141047461778,0.08102705988405617,0.7366045244055228,0.20744052027026583,0.6877535021254176,0.8995631818550005,0.054548581815045454,0.4338423261736684,-0.015629847171741578,-170.946524195442,27.416777899317644,5.645630222244274,1.38873540605266,1.0355691933786833,0.4566600814842024,0.3370043232640993,0.7337034491846123,0.40907259796910356,-0.2318840745566463,0.06670327672803354,-0.966015302767241,0.08905785116862558,-309.5474327410366,51.1916612943097,64.99474922631808,1.375538497099021,1.2324043532148825,0.6531886837414184,0.304595812581745,0.854921267663385,0.8030973006207123,-0.5959499198383118,-0.12353726853341451,-0.535146188398326,-0.5904769357864442
0.62,-44.788735416614166,73.19835181664193,11.947551839108709,0.04729438830321225,0.1230894167166201,0.025628222158918943,1.0763263345200877,0.1344098853589363,0.4841467572283227,-0.14948678922976197,0.5821118110872249,-0.24694471577199256,0.7588157540192837,-10.528930571789203,51.42972370183304,186.83008801583503,0.09167691511919486,0.31495024009510925,0.08318096643887367,0.789178400272164,0.21044584016469123,0.7151465072992019,0.8985766044782428,0.056103775837335605,0.43653541826917136,-0.01349511144004149,-171.25905624316695,28.5567533389542,7.0984522603450655,1.4502621230710395,1.05197228031067,0.4381736191353418,0.3640778677530403,0.6667709233610817,0.4640088064485494,-0.24078830851013439,0.07860701507670294,-0.9625069962292359,0.09030097304476915,-308.25126013361063,52.54005134760039,67.8308537119547,1.3569268702315493,1.1913145645802223,0.7106531863958204,0.34060492346158056,0.9049833552730865,0.8863570736029331,-0.6123869919660839,-0.11227892553531539,-0.547427115110447,-0.5627829494864399
0.63,-44.747455007470265,73.50900585400856,12.203373169847763,0.0442047799217517,0.16442899101465086,0.02294632362893485,1.0682818071390368,0.1266699546867914,0.5149954296813093,-0.1485016724547021,0.5847117653938012,-0.24484125425283484,0.7581613967590596,-10.711483921123733,51.83552424613297,186.6305435363819,0.08851475416025187,0.3827841954127009,0.0837269050900473,0.8249036737072322,0.2124600275640264,0.7286800407272996,0.8972417288596167,0.057986278726488025,0.4397512360214986,-0.010901532073580949,-171.54561076925137,29.70319832955045,8.891723776221049,1.4959667268028913,1.0753993243551914,0.42153108255435223,0.3912819316748873,0.5983228261538466,0.5256831245913031,-0.24939352584200628,0.09326765215972421,-0.9584373025958765,0.09266001201308624,-306.83930631711144,53.86715117633696,70.78064189702575,1.3342629769397176,1.1446647219605635,0.7708229661176861,0.38310289701069766,0.9528955679395699,0.9636348658905672,-0.6282719574095316,-0.09905418785571755,-0.5596534801502476,-0.5332459439271652
0.64,-44.72057256685553,73.8632481860867,12.54647558711448,0.042483401135137766,0.20868124898300286,0.020511668055824144,1.0391144072845548,0.11985895385624205,0.5443416415439385,-0.14715120085438252,0.5876115305707271,-0.24217461377863234,0.7574476084742086,-10.919845479481245,52.31432217254308,186.40656310676277,0.08516572157661766,0.45459500939799297,0.08271422879329997,0.8403977027592398,0.21352111364409102,0.7269559376448901,0.8955156744960963,0.0601330093646289,0.44353063667118037,-0.007892832468202675,-171.79645707218532,30.86452768409891,10.97916207593032,1.526454342254848,1.1060796001255417,0.40758861491257536,0.41655925599219124,0.5324077121898194,0.5905374868908494,-0.25775033298000866,0.11031215114936749,-0.953761110502824,0.09616417353723106,-305.3107284963257,55.1755330183501,73.84517618600948,1.3068019064209553,1.0935512667770064,0.8311848987088732,0.4319969705266044,0.9946456946793554,1.0333467999863162,-0.6435082798676263,-0.08385575724651648,-0.5717262477383763,-0.5018549239738678
0.65,-44.707648472778295,74.26129447067594,12.989252132223273,0.04230177936035906,0.2542901229121334,0.01859026312809009,0.9899508878708918,0.11430400709932659,0.5695932955419809,-0.14536479051788573,0.5908310391714029,-0.23885878530705207,0.7566586974918287,-11.145835443577555,52.87209308767298,186.16156344936562,0.08180725599114103,0.5283474907394107,0.08027134120563567,0.8339634271597134,0.21361041029263975,0.7098152586192817,0.8933663885887481,0.06246693906366053,0.4479034543592107,-0.0045286191189964475,-171.99934159308668,32.050779553989514,13.302250860413018,1.5429138113643963,1.1437688670821482,0.39701421734760345,0.43847354000254074,0.47247561463357474,0.6545156894214784,-0.2659212122288727,0.12927408183328187,-0.9484342536828602,0.1008347588906255,-303.67014457967247,56.46616779924749,77.02019463979448,1.2738728947582112,1.0392600600091073,0.8890625002256698,0.4871248487249263,1.0267580957722364,1.094530080257651,-0.6579829334947569,-0.06673359311134265,-0.583519655505133,-0.4686738571168398
0.66,-44.70644168047605,74.70243992030007,13.541287424406692,0.043754903862741626,0.2998212124975499,0.017476860526688228,0.9233224589143931,0.11027793342327312,0.5885009287726534,-0.14307934512776793,0.5943867500313124,-0.23481805261623134,0.7557815140884268,-11.380486370680304,53.513042948218526,185.89954229490536,0.07857815214657037,0.6018896735255369,0.07659063639592734,0.8057146697329821,0.21263757665516742,0.6783443324640431,0.8907746301683154,0.0649014355605695,0.4528849073132985,-0.0008812328375166778,-172.14004414458532,33.273369319297004,15.795252945551312,1.546924166844215,1.1877018312962604,0.39033508732086125,0.4564377370942041,0.42127964262611345,0.7134749011537995,-0.273977703321352,0.14963562489016585,-0.9424134569254342,0.1066887671112117,-301.9280575570775,57.73778662655618,80.29602289316207,1.234930185611569,0.9832431756996706,0.9417667322701988,0.5481744990712026,1.046654347605503,1.1467979571299867,-0.6715707028740359,-0.04779627945287949,-0.594882724588044,-0.433849258198596
0.67,-44.71292379298008,75.18519120236192,14.208294130566852,0.04686649359598499,0.3440547174287108,0.0174716367261607,0.8428880656038631,0.10797040854592649,0.5993247908964677,-0.14024535888818637,0.5982890820414738,-0.22999251428741968,0.7548055800312673,-11.614499062008164,54.23906663430193,185.62493147659987,0.07558675235159122,0.6730786379370473,0.07191063008148185,0.7575326255849018,0.21045006658632065,0.6347380705182005,0.8877349815620198,0.06734478456057895,0.4584729691254434,0.002967748570339695,-172.20333744575353,34.544554008815695,18.390406731489456,1.5402576076042302,1.2365929273474108,0.387953138400839,0.47084290498215836,0.3808634527038591,0.7635992365732047,-0.2819960219567432,0.17086960078460064,-0.9356569480835075,0.11373995471919017,-300.10085467170234,58.98643282943041,83.65797694962262,1.189608851864549,0.9270854235498251,0.9867617398220365,0.6145449869823815,1.0529322224344786,1.1902229946355538,-0.6841404391417408,-0.02720816070017906,-0.6056431357536314,-0.39761158953960524
0.68,-44.72143258269356,75.7074934587014,14.99122826836364,0.05159787512794798,0.38604907537967686,0.018852071407326202,0.7530724363394647,0.10746449693797226,0.6009550958997176,-0.13683284685005698,0.6025405882743045,-0.22434322625452596,0.7537225372056126,-11.838660992713029,55.049384390635566,185.34243964951142,0.07292623517057482,0.7399213674385365,0.06649651297854306,0.6928676319905027,0.20686458851250566,0.5820401634190153,0.884256001978419,0.06970458984326669,0.4646469135174676,0.006931159460716094,-172.1742570488394,35.87660299533723,21.02280844661538,1.5246956797845626,1.2886892880960954,0.3901141192065216,0.48305434863551305,0.3526051125715759,0.801747089690445,-0.2900510869512332,0.1924771775038438,-0.9281258739737449,0.12199714767351683,-298.21030395270157,60.205280704148905,87.08724986519894,1.137777688104194,0.8724611094552789,1.021834591205681,0.6851673635352498,1.045528013120283,1.2251739172307912,-0.6955628320760808,-0.005182088675318109,-0.6156135316642996,-0.36026924924120063
0.69,-44.72496892089418,76.26697413765079,15.885629530975208,0.057857200755577105,0.42516393412299275,0.021842656593772148,0.6586708982489989,0.10872429610180177,0.5929729139924761,-0.13283673477955393,0.607134654285742,-0.2178569562591864,0.7525253001660593,-12.044220115537152,55.94038995400879,185.05687607616184,0.07069332549362758,0.8007137558948355,0.06062059169137495,0.616413994910802,0.2017144999415497,0.5238016156437688,0.8803596736925581,0.07189185717840635,0.4713671717169065,0.010919944774936213,-172.03954328972623,37.28072057725953,23.63458849712653,1.501875079253112,1.341872264165172,0.39683311401258603,0.4952507399329501,0.3372799345278035,0.825691451248109,-0.2982092060271869,0.21401809877917774,-0.9197865187502978,0.13146015591450308,-296.28253315019856,61.384765105858115,90.56222670185169,1.0795796525663417,0.821079744425172,1.045255392846676,0.758334432867341,1.0257287360229126,1.2521443796575815,-0.7057191486491481,0.01803191150028222,-0.6245999930211681,-0.32219481236344655
0.7,-44.715628121591386,76.8611302017126,16.88123246576938,0.0655056973759856,0.46103993793408693,0.026585902993161655,0.5644681109117194,0.11159703897776319,0.5756471036314652,-0.12828119429316442,0.6120545594635431,-0.2105503853195574,0.7512073667563927,-12.223212595923217,56.905722973816324,184.77294725766026,0.06900507286371166,0.8541589314004191,0.05454408892410659,0.533693790456515,0.1949052643355436,0.4637109058325421,0.876080257662832,0.07382471502247137,0.4785765496712852,0.014846874273721819,-171.78909382579278,38.76581278610252,26.178134419017713,1.4731779388200583,1.3937978210982978,0.4077986552232203,0.5101050215820773,0.3351072819145677,0.8342488907035914,-0.3065199164351084,0.2351318098760952,-0.9106131491713995,0.14211411276195038,-294.3465582285925,62.51301662867246,94.06009860071421,1.01545169490302,0.7746188054064742,1.05591082916363,0.8316060506035946,0.9960174751023637,1.2716110711077582,-0.7145102175955744,0.04216113805466907,-0.6324120386111969,-0.2838045277656312
0.71,-44.685141673396764,77.48740582558443,17.961896483453845,0.07435857626559944,0.4935420420821576,0.03311837043622076,0.4749058845233541,0.11582977671579618,0.5498712615488132,-0.12322233093646247,0.6172728470071905,-0.2024734172124944,0.7497626328595809,-12.368743050835631,57.936555759076356,184.4950233795578,0.06800821614745614,0.8994464386663562,0.04850154436704667,0.4505895724544071,0.18646871241825677,0.4052475981696815,0.8714626124598623,0.07543185596559565,0.4862027306450295,0.018630263339920006,-171.41726797786012,40.337221797396815,28.618261736028817,1.439677497224558,1.4420618281542184,0.4222904068838723,0.5303392504659648,0.3457617465000622,0.8273153334827705,-0.31500763518253816,0.2555493138535984,-0.9005911486605046,0.1539233563525657,-292.4325103123493,63.576543972327556,97.55857266519816,0.9461195486314776,0.7346428674281557,1.0533934584510667,0.9018482283832697,0.9597655968602993,1.283943148431828,-0.7218647465975568,0.06692632389089673,-0.6388731500929854,-0.245533427009552
0.72,-44.62549104973387,78.14313625444511,19.105903376060866,0.0841802552761197,0.5226797823468023,0.04135508080879576,0.39382157379056176,0.12109794372836447,0.5170511873838638,-0.11774864373886541,0.6227510205458553,-0.19371112214675018,0.7481858380323927,-12.475213170799549,59.0220636199013,184.22687999719344,0.06787706620691614,0.9362781028335514,0.04268873531589496,0.3728671548372569,0.17660550606962078,0.3513991529789455,0.8665599773764099,0.07665579838865502,0.49416186289516195,0.022197662971870334,-170.92390796864834,41.995562090254346,30.933360171235616,1.4021430652649831,1.484373111829857,0.43914440227558094,0.558218802521295,0.3683510516160385,0.8058287401183142,-0.323663869537749,0.2750966823445534,-0.8897200014490112,0.1668260500785528,-290.56976237696296,64.56106881263241,101.03743758964615,0.8725678631361972,0.7025107047138319,1.038032083375934,0.9654304785895496,0.9208147099289898,1.2893665350865375,-0.7277459827177445,0.0920574482707344,-0.6438306855300663,-0.20780921526377943
0.73,-44.529543977147576,78.82536450942908,20.286665933207082,0.09467608628906725,0.5485209701947629,0.051084824278866896,0.32426494447122367,0.1270420706344524,0.47895723311866434,-0.11197877535364742,0.6284396214923534,-0.1843837716817554,0.7464735606285919,-12.538491784703547,60.15003327914503,183.97142979194643,0.0687984163801352,0.9648351858368311,0.037254745012214874,0.3057287377819016,0.1657053708209307,0.30446338325170036,0.8614312186014641,0.07745593307029408,0.5023629593457651,0.025489398348377056,-170.3149760724791,43.735786737692884,33.11562886480048,1.3610992005247302,1.5187155743728227,0.4567868938855717,0.5950722748933824,0.4013810232284398,0.7716709132386272,-0.33244079462257264,0.2936917912184119,-0.878015647336408,0.18073062545552665,-288.7851633836672,65.45241071109024,104.47976700748491,0.795989950080729,0.6792744076934457,1.0108546510876337,1.0185616882851867,0.8830088484376424,1.287976754661819,-0.7321558901628512,0.11730742172537673,-0.6471641928838674,-0.17102812095891584
0.74,-44.3916566581768,79.5305659338249,21.4738741298608,0.10548481906507051,0.5711147194379563,0.06197762912161089,0.2683891986642956,0.1333092986873356,0.43755818412291725,-0.10605629199109759,0.6342787605166796,-0.1746444389658595,0.7446255714344233,-12.556018322167409,61.30755742120706,183.7304670926679,0.07094518841818567,0.9856927980818136,0.032298597474445426,0.2534336342806281,0.1543378686168361,0.26594235947409683,0.856137600403259,0.0778111107627653,0.5107128277843476,0.028461726469746023,-169.60273952927213,45.54659673987767,35.17055367429626,1.31692490370937,1.543481986118758,0.4733412546665415,0.6409239237529881,0.4427372785761147,0.7275149713225846,-0.34124697668336756,0.31133607937524416,-0.8655117153036893,0.19551487166992765,-287.10155569746826,66.2373351944551,107.87261049373674,0.717723201940729,0.6655772229284987,0.9734847012348528,1.0577094322647849,0.8497428704993152,1.279791479732735,-0.7351363916504708,0.14246226181028798,-0.6487914855742778,-0.13553527355313363
0.75,-44.20818461571446,80.25433442857016,22.635068676629697,0.11617681744533001,0.5904361060676558,0.07360404077231518,0.2274045498280348,0.13959589616323068,0.39485469337448803,-0.10014158813564744,0.6401991736181943,-0.164673788417327,0.7426463565790878,-12.526833517789434,62.481763804083556,183.50445230085631,0.07444350631307872,0.9996977772740571,0.027870746591255404,0.21901807389200031,0.14321210242728508,0.23652188297262536,0.8507392454335173,0.07772138258265775,0.5191212372497143,0.031089317929987946,-168.80546229003536,47.41028613001018,37.11577630710994,1.2699713861461712,1.5575666304245912,0.48679848839329315,0.694306671529325,0.48971552624362485,0.6766247125642365,-0.349945865651634,0.32810301938394504,-0.8522591657924509,0.2110281430219891,-285.5367003424752,66.90430477047184,111.20710741576106,0.6391767368779412,0.6615599367005505,0.9279848278997248,1.0800328110604334,0.8235863273104606,1.2648289202271255,-0.7367676378788723,0.16734694797764288,-0.648672254192782,-0.10161131008757729
0.76,-43.977851737935595,80.99108849802052,23.737572489189095,0.12626242751105032,0.6063592503187305,0.08546407058702928,0.20158308923060886,0.1456842705893743,0.3527298532196605,-0.09440145449252808,0.6461238308485391,-0.15467200033006442,0.7405466714881948,-12.451536445809873,63.66052940317428,183.29236389512042,0.07933962711522402,1.0078321244782706,0.023979584263629755,0.20413612578660353,0.1331094854355698,0.21612463950050773,0.8452915584764812,0.07720851803402919,0.5275059482000439,0.03336679418965414,-167.94658723651523,49.30309170627979,38.979472216925664,1.2206733517702277,1.5604103088738666,0.49523181484857803,0.752294405464897,0.5391278682054788,0.6226142529821102,-0.3583574450999113,0.34412467625315535,-0.8383239796931953,0.22709676697679293,-284.1026771814678,67.444100901731,114.47804222722914,0.5617586136625442,0.666788667902038,0.8766711838333313,1.0837633905111188,0.8060235175196372,1.2431877302508907,-0.7371636022036355,0.19182670211040234,-0.6468093612760087,-0.06946596642749858
0.77,-43.70194177237153,81.73384682370208,24.75063817419711,0.1352130595382864,0.6186598547398272,0.09702229825477925,0.19030951692837764,0.1514648303312964,0.31283077836544687,-0.08899727170039042,0.6519700472533603,-0.14484823549620354,0.7383449904429874,-12.33217485266428,64.83312916529756,183.09164288761312,0.08557296712037378,1.0110841062568574,0.02060285321484351,0.2090307542775426,0.12479817291551805,0.20402241646872488,0.8398419813925205,0.07631508118024062,0.5357971258277046,0.03530914071270168,-167.05342147928386,51.19608600667546,40.7983101487021,1.1696300725517148,1.5519971635634797,0.4970280707604853,0.8107607031509139,0.5874987808854022,0.5691792397545072,-0.36626321066739975,0.3595773391442105,-0.8237827780263153,0.24353235554709182,-282.80577162033734,67.85030768422855,117.6829328609019,0.48681082048686575,0.680218809615476,0.8219253477695884,1.0684821895706542,0.7973288968644399,1.215098036624819,-0.7364655472633319,0.21580394814247622,-0.6432482388052096,-0.03923845989797967
0.78,-43.38429604510261,82.47411067047574,25.647604852700688,0.1424948018017299,0.6270437182204717,0.1077451772285924,0.1921775018137997,0.15693322719526856,0.2764885594582253,-0.08407307628366775,0.6576519721693039,-0.1354085393121852,0.7360686287307123,-12.172084569513462,65.99076627190775,182.8982490074178,0.09295960834955451,1.0103439059923058,0.017703232429447362,0.2326289696557205,0.11894105797229163,0.19899066892916117,0.8344274810761477,0.07510207207037674,0.5439406130286915,0.03695089163232109,-166.15537743789017,53.0566112508247,42.61502949803505,1.1176387580115161,1.532807355625203,0.4911027864885617,0.8648380194751594,0.631342040415934,0.5198151411709901,-0.3734145024429215,0.37466679778499073,-0.808716636161676,0.26014235196322544,-281.64681415048847,68.11965915968513,120.82079920391357,0.41555948294544487,0.7002092127915931,0.7660232523735052,1.0352546824256497,0.7965832114645937,1.1809224791263462,-0.7348341309818132,0.23921162594443646,-0.6380749238792275,-0.011003657435477788
0.79,-43.03112094501106,83.20188139618953,26.407821206408833,0.1476113419806004,0.6311950084824832,0.11713708395446094,0.2051312123714187,0.1621589465531485,0.24467746048907424,-0.07974482435493549,0.6630833126034247,-0.12654347713439293,0.7337542045346782,-11.97570057320346,67.12693355046282,182.7068400215656,0.1011883436066996,1.0063326168349294,0.015246401118428357,0.27274041439232977,0.11601112805393829,0.1994867759306094,0.8290731026049194,0.07364537404024908,0.5518996305591273,0.038344016787254784,-165.28187616303717,54.85019727695573,44.47565723341319,1.065672517604312,1.5037332741286917,0.47706324258888594,0.9095148026263532,0.6674845035075436,0.47754225094456254,-0.3795441023677003,0.38961345208250747,-0.7932038020923166,0.27674176679812756,-280.62190784930146,68.2522517501287,123.89079017511143,0.34908500719417895,0.7245962707830045,0.7109920979553005,0.986601698025557,0.8018271836415598,1.1411094302394469,-0.732441078219483,0.262003839312598,-0.6314132015650892,0.015217495842617682
0.8,-42.650625034435905,83.90583528406367,27.01809553247129,0.150150519755981,0.6308366403428832,0.1247725261735512,0.2266461882532166,0.16723009149110885,0.21801021424669506,-0.07609206724886396,0.6681801791639145,-0.1184169465762189,0.7314470939810589,-11.748363212137374,68.23756958472751,182.51107691009523,0.10982984461581442,0.9995655293143002,0.013218881628336556,0.32632726560331377,0.11622746250771614,0.20383308961678398,0.8237917521799182,0.07203142186676624,0.5596546980067336,0.03955449821779428,-164.46008171772135,56.54283880536562,46.42640254890346,1.014806851846167,1.4659699273359765,0.45528786144266925,0.9402760053166352,0.6933827403374285,0.4446580514885733,-0.38438082271715285,0.4046371966880724,-0.7773124376635496,0.2931647090992938,-279.7234575467991,68.25161846359876,126.89085527644562,0.28831365011090754,0.750829163782453,0.6585014608730974,0.926306119435447,0.8103342894544301,1.0961240780629549,-0.7294613381412404,0.28414501515675095,-0.6234211329241858,0.03944501793559171
0.81,-42.25251727542373,84.57366933376753,27.473483044877252,0.1498277170705612,0.6257941081922626,0.1303226433552839,0.25393698209685184,0.17218755058627402,0.196764408202013,-0.0731529786319597,0.6728639817272253,-0.11115745482768472,0.7291996760828605,-11.496135967381884,69.32099632930098,182.30404962283336,0.11835930809068954,0.9903454315353205,0.011642424431250829,0.3898077217585074,0.1195220750138772,0.21038822800980583,0.8185851656049976,0.07035254287328238,0.5672018630818723,0.04065772029134466,-163.71269151039218,58.10343532749924,48.51031629540322,0.9661101045984751,1.4208916011759674,0.4269040433372783,0.9536826174559776,0.707372848828255,0.4225359069072825,-0.38766647175000785,0.4199420221827633,-0.7610947457021845,0.30927412417422856,-278.94139744015547,68.1246597123133,129.81663154294557,0.23402908726607852,0.7761567840561729,0.6097928003570007,0.8590799231199095,0.8189613283092224,1.0463936075661824,-0.7260664464719042,0.30559886106739964,-0.6142870432828158,0.06172610370566342
0.82,-41.847405422767274,85.19261657141266,27.77731249230039,0.14651969945362014,0.6160531733246589,0.13357451696673278,0.2841743713924243,0.17696613678178358,0.1809332437257852,-0.07092324026373593,0.677064307971956,-0.10485272568210789,0.7270684198843118,-11.225637702878858,70.37765147043837,182.07881015574418,0.1261929693942733,0.978779524676434,0.010582024114444928,0.4593568188792314,0.12554306281979868,0.21769332011613618,0.8134458249285862,0.06870229843966909,0.5745495868259011,0.04173298489541967,-163.0560343088997,59.50614002846535,50.76388019528588,0.9205219294617156,1.3699263878144796,0.3936683693102953,0.9478055086482999,0.7088082649151782,0.4114889141342261,-0.38917408672992093,0.43570056835076226,-0.7445837643505202,0.32496827816425816,-278.2645032140173,67.8814283843561,132.66067917687272,0.18689918679146353,0.7978465498183975,0.5656477851723302,0.7901343322072969,0.8245207630450281,0.9922974743438052,-0.7224195097032101,0.32631840384767985,-0.6042249074400409,0.08212200318254911
0.83,-41.4461383889466,85.75010820761526,27.94046897709906,0.14028408967839673,0.6018015449173517,0.13444197991199613,0.31469404904607623,0.18135941413677337,0.17029158641565015,-0.06935875751736978,0.6807216924819728,-0.09954795017165757,0.7251101260452338,-10.943878239122366,71.40965334947859,181.82898897939734,0.13273768901949434,0.9648135661529064,0.010145773500908442,0.5311755410289396,0.13369372825710163,0.2245820593855243,0.8083594510908754,0.0671709460529284,0.5817147924932393,0.04285761353832762,-162.49870600914716,60.73234620543831,53.213786498519546,0.8787465544614087,1.3144395858853462,0.3577742523093864,0.9224644441784006,0.6980710396184087,0.4107201298859767,-0.3887257766207048,0.4520394117906172,-0.7277936062792901,0.34018306278853894,-277.6816749878279,67.53477255138546,135.41214157465024,0.14750926003474737,0.8134080685308404,0.5263910049935211,0.7247032245835562,0.8241248347128943,0.9342180686069135,-0.7186719295619504,0.34623822279213784,-0.5934690193590247,0.10069668907208422
0.84,-41.059139424722794,86.23453589771249,27.980055960121643,0.1313618286357134,0.583446218010945,0.1329668485462683,0.34318147898400586,0.1850194754577822,0.16446663279854673,-0.068381669575201,0.6837901527716252,-0.09524746690189594,0.7233778148447778,-10.658077399279694,72.42025478921752,181.5494562594423,0.1374499689383652,0.9482778933870416,0.010476167450768735,0.6017094548519202,0.1432008888604569,0.23024528527981153,0.8033076731151301,0.0658409782692919,0.5887186414791847,0.04410115012877873,-162.04090413926258,61.77207333970344,55.87425226255059,0.8411829826205954,1.2556376150894923,0.32162317023720666,0.8792561689940653,0.6764733051571811,0.41837998830562223,-0.38620811781831815,0.46902648151304477,-0.7107231139277443,0.3548900081313208,-277.1830881037214,67.09984771475385,138.05684138862955,0.11639013028738425,0.8207923680870342,0.49192129248132627,0.6675689675202369,0.8154717587827516,0.8726475681319967,-0.7149617187291176,0.3652696690768624,-0.5822678949108901,0.11750800606806099
0.85,-40.69577883446071,86.63604482360958,27.91763105007558,0.12016231918018594,0.5616016841977652,0.12931012783675333,0.3678213859139347,0.18749473208482487,0.1630032049696023,-0.06788876875440013,0.686239348604907,-0.09191925951807668,0.7219168219319477,-10.375447819021634,73.4132503406216,181.2369733259914,0.13989739335044338,0.9289414730359907,0.011733669144366965,0.6678089618852593,0.15320012652920154,0.23424477721352308,0.7982705795720543,0.06478266040124223,0.5955825666276867,0.04552011839680217,-161.67452808629696,62.62459352574932,58.74523763593024,0.8079035034186376,1.1945039035261207,0.28759498610527756,0.8213800101645659,0.6460824189911211,0.43174291323922864,-0.38158302960630924,0.48666234587655105,-0.6933621045997148,0.3690906907150003,-276.7611248027551,66.59352189998287,140.5777728825633,0.0940291767186038,0.8185413000527055,0.4617687721636037,0.6226355394364894,0.7970624914012467,0.8083284477163581,-0.7114130341115792,0.38329948103423706,-0.5708775099525257,0.13260163437041994
0.86,-40.36383509580577,86.94727230235632,27.77723943307349,0.1072331358765339,0.5370488697351543,0.12373390180517993,0.3874008734956651,0.1883001514502179,0.1654159842616034,-0.0677612876094598,0.688056204840027,-0.0895014391875451,0.7207616103097729,-10.102930266033665,74.39239807126005,180.89076681578032,0.1398132983644965,0.9065712205513492,0.014074222081394432,0.7268325491004661,0.16282395700369734,0.23647748459449214,0.7932290341508648,0.06404960458235535,0.6023249869734046,0.04715364316152908,-161.38401874611364,63.29824215788347,61.811871541903145,0.7786787858924032,1.1317743257180903,0.25784507566921055,0.7532902651407303,0.6095037155124682,0.447498190700498,-0.37489253757617497,0.5048769588464281,-0.6756988681811414,0.3828087418675572,-276.41101845236795,66.03370810901954,142.9559231670313,0.08085573724354025,0.8058712424576684,0.4351773196110856,0.5925893793891582,0.7683451761752831,0.7423927615057255,-0.7081364302703493,0.40019186824170827,-0.5595541164704797,0.14600798341284943
0.87,-40.06908936680084,87.16394301863683,27.58346156272265,0.0932179692086888,0.5106693563321215,0.1165760435428813,0.4013525322946694,0.18700744364680455,0.17122336330138266,-0.06787501887201579,0.6892458200198908,-0.08790982932739574,0.719933638612402,-9.846883775640462,75.3609057287367,180.51295142627123,0.1371354069159156,0.8809933959268881,0.017623074055958567,0.7767008175692872,0.17128183367894304,0.2370988243130643,0.7881667683573126,0.06367464907260151,0.6089589704749122,0.0490200899113626,-161.14783203579213,63.80946187947061,65.04523997999809,0.7530372600389456,1.0679526661335401,0.2341442719687385,0.6802262578630828,0.5696470778913164,0.4621301610122151,-0.3662567000360431,0.5235328311800653,-0.657727436672662,0.39608083179233905,-276.1311642585075,65.43866476661985,145.17134677079562,0.07719856433753822,0.7826875434825215,0.4112105238096205,0.5786826647635755,0.7297866399593788,0.6764637621776054,-0.7052293560980448,0.41579386915832656,-0.5485469053434061,0.1577420186212206
0.88,-39.815087354436436,87.28524554905343,27.359658293184417,0.07880776033190197,0.4833636554914609,0.10822101537828462,0.40972497350548825,0.18333820407442983,0.1799602661375939,-0.06810984885409248,0.6898314934653067,-0.08704582152311367,0.7194404027240663,-9.612747623374888,76.32101715497387,180.10872981477223,0.13202129848009664,0.8521520076039281,0.022447897630980543,0.8159130527930866,0.17792602606428262,0.23641988701062197,0.7830722918438235,0.06366655986681935,0.6154909228463288,0.051114812553576375,-160.94037876067435,64.18121796676175,68.40450327766969,0.7303419069874839,1.0033592239862863,0.21776444207292742,0.6076893775305509,0.5294952353926001,0.4723446410292117,-0.3558649555684624,0.5424347208549423,-0.6394533187373419,0.40894792778879513,-275.9230776035177,64.82630381425584,147.20441557335877,0.08322083228301624,0.749537334569904,0.3888742203558433,0.5806625914431889,0.6828695367091111,0.6126919307297395,-0.702776544460982,0.4299435413195448,-0.5380907161016182,0.16780589694562897
0.89,-39.603083604259865,87.31394459855997,27.126547288117553,0.06469072381752371,0.4559653461795617,0.0990704617332138,0.41307829576726973,0.1772405692862869,0.19117155063594107,-0.06835796213671867,0.6898537760470743,-0.08680375781219188,0.7192755785951032,-9.40470440095535,77.27372157459122,179.68631183161014,0.12483756103954373,0.8201576960377764,0.02853466362403497,0.8435400758919425,0.18230113156466504,0.23479693818742092,0.7779406147815897,0.06400820011426828,0.6219201954489536,0.05340916409485696,-160.73422181347388,64.44098542738948,71.84012049821878,0.7098689967616055,0.9382004190479228,0.20940352069853932,0.5409407656948431,0.49188611483867883,0.4754850267817626,-0.3439620116438835,0.561344999574825,-0.6208968305017059,0.42144790136227384,-275.79101294558245,64.21354024329864,149.03715695208354,0.0988447468378747,0.7075157687626578,0.36724335371600897,0.5968527746726701,0.6300125283760247,0.5537081968587066,-0.7008501068318486,0.44248028495214653,-0.5283989342200067,0.1761940443018169
0.9,-39.432159940948665,87.25622100031275,26.901188977176265,0.0515069209167736,0.42916389595099386,0.08951695844239563,0.41231758235732463,0.1689303780315269,0.20439308139068724,-0.0685301777194309,0.689368563249987,-0.08707720836379389,0.7194200882096231,-9.225380503702016,78.21859740358886,179.25652062606204,0.11612445890151435,0.7853210308644931,0.03576981248818591,0.8592055068561096,0.18417600970286443,0.23253195639688815,0.7727747086572333,0.06465673520665308,0.6282393916257002,0.05585104430199021,-160.50230694708085,64.61853667818289,75.2977991755685,0.6908782651939761,0.872645101020087,0.2091442135958253,0.48457837040529056,0.4593193172634727,0.46987594992278525,-0.3308300313458742,0.5800029667198668,-0.6020938028693998,0.4336102083760011,-275.74129041470036,63.61571011610365,150.6545746502826,0.12368093707694192,0.6581437725093564,0.3455777065474276,0.6243730678082643,0.5744140110265359,0.5024860623666304,-0.6995092968856321,0.4532563403195864,-0.5196567341337562,0.18289997195268487
0.91,-39.299488056994285,87.1212662462796,26.69640707609458,0.03981198359596162,0.4034477905278608,0.07992335617852799,0.40849147091368077,0.15888371146432784,0.21913197134696005,-0.06856007949829288,0.6884443505340729,-0.08776368763418717,0.7198438839719131,-9.075621045775154,79.15379364545076,178.83208863019544,0.10654257027801385,0.7481659160111275,0.04393180894275844,0.8630614994658711,0.1835563726927113,0.22980030192369083,0.7675865673015703,0.06554617916830502,0.6344351521638092,0.05836729985269391,-160.22001925280557,64.74375228760546,78.72268029599381,0.6726699286347041,0.806894248103626,0.21644828170486335,0.4422249792073188,0.4337969291820915,0.4550393252995884,-0.31676927227841456,0.5981457036006822,-0.5830941654969177,0.4454529059441299,-275.78140908730205,63.046079161586135,152.0458284582482,0.1569772675377263,0.6032346472688308,0.32341100091401487,0.6594664005791914,0.5198283711490196,0.46211753029546004,-0.6988000124520365,0.46214828067915703,-0.5120149184292364,0.18792384227929168
0.92,-39.20069131425176,86.92068287598248,26.520623888160046,0.030052678731156898,0.3790766094253964,0.07060888835423333,0.40259140449709224,0.14777947243700915,0.2348585031517633,-0.06840579351705932,0.6871588406579577,-0.08876759251213655,0.7205082706958973,-8.954371156712204,80.07614367283256,178.42668897941314,0.09681080510364344,0.7094202612629593,0.052694250314514045,0.8557575186844331,0.18067582694772027,0.22661632781456464,0.7623976793719097,0.06659222138493413,0.6404892683870279,0.060868160112193426,-159.866898488868,64.84464271926284,82.06323796365226,0.6546289308176494,0.7412340107968984,0.2301951235902543,0.41633141221625225,0.41670894530492086,0.43174862255978547,-0.3020794631465695,0.6155277942681875,-0.5639594543763905,0.4569818001370071,-275.9190496088653,62.51546023000496,153.20514443124944,0.19759850395687464,0.544763609540045,0.3006015116618702,0.6978892381267824,0.47029338882553373,0.435527635213715,-0.6987541431118213,0.46906722615903307,-0.505584720795425,0.19127967192771844
0.93,-39.130255265539,86.66775465891851,26.378057474876705,0.022554842906991612,0.3560861426125341,0.06184187690704473,0.3953890504010136,0.13640400464423866,0.25101864079334896,-0.06804943774492615,0.6855951544664652,-0.09000141759421498,0.7213686268759827,-8.858686307757845,80.98139452136499,178.05379336708796,0.08764588744323437,0.6699819053240963,0.06164159076064022,0.8383963536115463,0.17596416539638807,0.2228407389796016,0.757238713652193,0.06769887572162685,0.6463800098608374,0.06325357149180184,-159.42789935151347,64.9457197227911,85.27443561303507,0.6362593112415231,0.6760664167185484,0.2487725450575159,0.408080096618404,0.4087702821425604,0.4019167141888279,-0.28704400098896266,0.6319375165332121,-0.5447604452790674,0.46819118467481746,-276.16108064260845,62.031952113076635,154.13234693747947,0.24404355015874318,0.4847500690418201,0.2773393767114082,0.7353198616476634,0.42983557244023346,0.42516766905015274,-0.6993888722042161,0.47396661215765995,-0.5004340116274189,0.19300109767729978
0.94,-39.081940075403395,86.37665311952519,26.269207023013276,0.017522306882737787,0.33432486455860705,0.053837783531923346,0.387343035591679,0.12553876920509363,0.26706841113788654,-0.06749443264974903,0.6838379691744456,-0.09138555691177229,0.722377417720396,-8.783882750948347,81.8645175925461,177.7254880206067,0.07971175487746313,0.6308590830737498,0.07029735771806944,0.8124715864370898,0.16999467972527565,0.21822612200697328,0.7521483034654937,0.06876614873849812,0.6520835191537737,0.06542087542554126,-158.8941361321438,65.06680431867184,88.31982563696063,0.6172108030645743,0.6119166360367071,0.2702188206582188,0.41736812668822365,0.410008999760616,0.3683417295980039,-0.27191847200697694,0.647207870946454,-0.5255758433382648,0.479065519412442,-276.512681825599,61.6008030651729,154.8329477602846,0.2945018842337295,0.42515806375176063,0.2541145802847462,0.7677458423977679,0.40218506613980504,0.4327267895449604,-0.7007060639096115,0.4768466648228942,-0.49658530951491087,0.19314479943268598
0.95,-39.049158785827,86.06164285743965,26.191543245033863,0.015043953293965108,0.3135141989955524,0.046760776933380495,0.37859112606962203,0.11585420161300519,0.2825224462139428,-0.06676102458448172,0.6819699557862027,-0.09284719566360686,0.7234873840877406,-8.72382725466554,82.72004727845837,177.45140269319978,0.07358368936934463,0.5930876961089454,0.0781632749155798,0.7797829396127826,0.1634166889452259,0.2124900713556193,0.7471710252522392,0.06969774598309625,0.6575750592519646,0.06727294349693787,-158.2631011307953,65.22230981518749,91.17247137056866,0.5972969736519183,0.5494198101372957,0.2924030959386342,0.44285428607409527,0.41979800019852975,0.33435679923483225,-0.2569241354884546,0.6612218396648044,-0.5064924211058297,0.4895814867093851,-276.9766794239003,61.22439291871531,155.31778661182034,0.3469464792195486,0.3678162626515875,0.2316568953693856,0.7918015619841675,0.39052939202662873,0.45889041850900686,-0.7026919249864778,0.4777551722155104,-0.49401585855063757,0.19179100606665114
0.96,-39.025300097218825,85.73634032253972,26.140320123429163,0.015105250896920584,0.2933206677260565,0.04072695459057956,0.3690224501218613,0.10782919241406355,0.2970022862168937,-0.0658805513473197,0.6800688351740363,-0.09431889684310771,0.7246547241433571,-8.671353891114178,83.54238229085391,177.23789986277134,0.06972701085640455,0.557632625623982,0.08476576135426614,0.7423283206931205,0.1568837861202044,0.20539955498116105,0.7423549189320707,0.07040791741400847,0.6628298702276821,0.06872580703656976,-157.53839289152143,65.4209936527401,93.81476225628832,0.5765022310995379,0.48929315344057506,0.3132214361391271,0.48206439539747886,0.4369206714354097,0.30343945436393344,-0.2422461148529362,0.673912268866558,-0.4876064200638501,0.499710052035774,-277.5531608842492,60.902322595676885,155.60227683385148,0.3992572593347016,0.31435583855015176,0.2108615441935757,0.8050318454546295,0.39732578059240964,0.5031651853689487,-0.7053171886263679,0.476784583826973,-0.4926598559968056,0.18904100430976217
0.97,-39.003989567715806,85.41307113575445,26.10943010094744,0.017600868365132354,0.2734265869480519,0.03580770920842052,0.3584018470046261,0.10170855845736741,0.31026861832623304,-0.06488916088481256,0.6782051930915829,-0.09573747201025633,0.7258419663867068,-8.618784015502875,84.32599154197177,177.08762882795625,0.068485141834827,0.5252865643214264,0.0897041674816867,0.702174918159733,0.15098996354323596,0.19684792135936569,0.7377490278639318,0.0708268553894657,0.66782344116014,0.06971500954280375,-156.72903094060226,65.66613212199832,96.23734436994455,0.5549756955876832,0.4322995238221383,0.3307822217440295,0.5315560523129996,0.45966573654742454,0.2788344827312332,-0.22803537179128125,0.6852575132470334,-0.4690255818382889,0.5094183371595421,-278.23939548713076,60.631600664545225,155.70535576191926,0.4493659699258069,0.2661629090542417,0.19271101648519817,0.8060614717386891,0.4241806932301497,0.5637890646773118,-0.7085380652111222,0.4740658698935446,-0.49241278016293444,0.18501210683671282
0.98,-38.97929553270324,85.10236017555336,26.092234842118884,0.02234630531271819,0.25358803567814087,0.032032286336769064,0.34650406503440245,0.09750261788212045,0.3222267796287538,-0.06382181926056747,0.6764409632558303,-0.09704358089225228,0.7270201278205065,-8.558513323542599,85.06549618495241,176.99948415093078,0.07006893734018707,0.4965847271650289,0.09269377670744099,0.6613182792294398,0.14622280526612988,0.18690934227339584,0.7334013493909521,0.07090443866439436,0.672531146222657,0.07020022380008642,-155.84846175873275,65.95604080612178,98.43747830829638,0.5330124567129937,0.3792069655391427,0.3435581999267512,0.5871437103374092,0.4859522364835043,0.2632336117028247,-0.21441319443171886,0.695274350083617,-0.45087094004079425,0.5186712415835847,-279.03004592494375,60.40692115663754,155.6482640887036,0.49540885558082154,0.2243423079931401,0.17819684210149067,0.7946594990205099,0.4717946603992175,0.6377456576214822,-0.7122981016136829,0.4697599036950032,-0.49313765777279733,0.1798309381619769
0.99,-38.9458932099113,84.81257618620009,26.08231642190536,0.02908821562050169,0.23367352185016982,0.02938924749755856,0.33321787801984215,0.09502531071900383,0.33290534287954726,-0.06270741881044524,0.6748283271869784,-0.09818225031021464,0.7281697597229498,-8.483618859944462,85.7556428202153,176.96894155856506,0.07454051036581899,0.47175313266575675,0.09359698719417435,0.6215465886993238,0.14293619955245815,0.17586313951023472,0.729357358404628,0.07061238613530274,0.6769274240768334,0.07016795216924267,-154.91337230978127,66.28484503092254,100.41716169731666,0.5110248691956931,0.3307462525248505,0.3504912663475582,0.6441793790837175,0.5134850289140822,0.2585411861077422,-0.2014768432181878,0.7040096749964657,-0.4332775021997972,0.527432825790711,-279.9176159374686,60.221030693661845,155.45328319182164,0.5358683812635071,0.1896906965208558,0.1682393020258271,0.7717018475178511,0.5399584616308291,0.7208969215342038,-0.7165309039915649,0.4640473605269248,-0.49467295762990404,0.17362607017773823
1.0,-38.89920197966842,84.54973917465826,26.074107635680374,0.037514344561141055,0.21368172428444288,0.02782723532906254,0.3185986661636018,0.09396129963788419,0.34241870170265676,-0.06156558081830909,0.6734087690438225,-0.09910421684737832,0.7292806547556543,-8.388432708830683,86.39122135432544,176.9886946257448,0.08179037961135005,0.45069979637229707,0.09243834015422639,0.5843322433421396,0.14133833691345327,0.16418807258880017,0.7256590459534755,0.06994498238619173,0.6809849182868147,0.06963229983764452,-153.94242576999076,66.64339970249426,102.18132183486684,0.48950718045522756,0.28756722772008275,0.35104576377709484,0.6978776667015633,0.5399342967068644,0.26574021141085125,-0.1893050885556779,0.7115322298345756,-0.4163931585013749,0.5356675102607409,-280.8930502564375,60.0651814660758,155.1425478350949,0.5696826946849711,0.16267877871826858,0.16360130011634344,0.7390471007167905,0.6275757540449589,0.8082381188271439,-0.7211634839996619,0.4571182172530917,-0.49684159870805056,0.1665210043252744
1.01,-38.83550829824314,84.31748634663326,26.063373371409515,0.047264315979277834,0.1937396936514171,0.02725592209453261,0.30287075641370215,0.09394857714222671,0.3509296741712249,-0.060405405838863176,0.6722121602959175,-0.09976779554017041,0.7303502647144124,-8.269029963360614,86.96699887580132,177.04948871007943,0.09151361290149383,0.4330459546584124,0.08940225297828566,0.550769483085806,0.1414879678463843,0.15253096238878358,0.7223442843905253,0.06891851872913413,0.6846740996144165,0.06863388979373922,-152.95502566553003,67.02026410094261,103.73631029716967,0.4689965803449202,0.25019563551302315,0.3452133152350975,0.7436703429708426,0.5631259697315025,0.2848585667355296,-0.17796262557387338,0.7179252136503459,-0.4003755100807862,0.5433411385084198,-281.9463926403045,59.92965792492268,154.7370278411644,0.5963049616606997,0.14344421622303283,0.16479588978166393,0.6993425555839209,0.7326884172680651,0.8942638878148709,-0.7261198644689052,0.4491618704412555,-0.4994604007474874,0.15862832777818878
1.02,-38.75208226634581,84.1171826663358,26.047526506934517,0.05794204399820862,0.17408396426073527,0.0275481114781375,0.2863943824520329,0.0946614973219991,0.3586239695370986,-0.05922607810031467,0.6712559483953864,-0.10014092505687693,0.7313811472293477,-8.123585361432472,87.47773539368552,177.1410423265268,0.103194987572582,0.41818576575711636,0.08481505556442573,0.5215652192070366,0.14329378800661757,0.14165492686487896,0.7194462916821576,0.06756954232671455,0.6879637769735983,0.06723701941595336,-151.97020072290894,67.40265179136331,105.08883815660813,0.4500335642410242,0.21899386104787447,0.3334766586431501,0.7775732069514858,0.5812276076002182,0.31502155643224716,-0.16750273803635377,0.7232802181472147,-0.38538669458820823,0.5504219111698454,-283.0674165540156,59.80435216007086,154.2557412966553,0.6157039298274383,0.13179818846438807,0.17199401460298352,0.6557732604628708,0.8524999442819371,0.9734169710078474,-0.73132455734662,0.4403586854188565,-0.5023492780247351,0.15004562383585215
1.03,-38.64729081398974,83.94815533248627,26.025771384151174,0.06912979402916847,0.15502792241209995,0.02854370750801104,0.26961298455965976,0.09588004769799972,0.3656984388868222,-0.05801896307909309,0.6705446604835804,-0.10020309926470304,0.7323779449475194,-7.9525634339903455,87.91832586710217,177.2529547480763,0.11611342870872982,0.40536164046894385,0.0791144060683798,0.49707576732965114,0.14651604007391547,0.13237192457496905,0.7169929977619783,0.06595198112454191,0.690822635926792,0.06552519157379465,-151.00567763924496,67.77729861686102,106.245402068935,0.4331242999976139,0.1941292470501406,0.31674311295084784,0.7965403104756257,0.5929135188759539,0.35456800713503983,-0.15796800618522047,0.7276926092444167,-0.37158653565325506,0.556881194976619,-284.24616355130155,59.67935172599327,153.7152310224599,0.6283080534799729,0.12724837684702658,0.1849466580413685,0.6117654099707344,0.9834179018029652,1.0405734447622805,-0.7367055845247047,0.4308734976639408,-0.5053395887074438,0.14085343682812015
1.04,-38.52070492777883,83.80802617379695,25.999076009969702,0.08040343902111184,0.13692056082532394,0.03005592630537542,0.2529919402428059,0.09753438571440623,0.37235634018782215,-0.05677068085127442,0.6700699337490286,-0.0999469760870249,0.7333444776503794,-7.758720283273447,88.28408329134153,177.37551626714875,0.12937286890637353,0.3937454961298439,0.07280961888412962,0.4773719335709885,0.15077314179555826,0.12546393835470457,0.715006184537462,0.0641332495770536,0.6932216593901562,0.0635952324786322,-150.07717032304353,68.13122134086888,107.21218204354537,0.4187072132806359,0.17555186160931374,0.2962598424614425,0.798765762876594,0.5974917907143891,0.40120724982530875,-0.14938920841818315,0.7312582847726528,-0.35912438289652004,0.5626943025372465,-285.47334641588697,59.54549908163718,153.12931154716856,0.6349040437265808,0.129038733348131,0.2029396277174252,0.5706623478928806,1.1211493467929328,1.091504450729982,-0.7421968148322372,0.42085130343175525,-0.5082812157657656,0.13111534379853412
1.05,-38.37319207245786,83.6931114600741,25.96998136340238,0.0913485697059872,0.12010347211948148,0.03187988263773986,0.2369578162230891,0.09971831893457128,0.37879960486986397,-0.05546659895919482,0.6698111824294133,-0.09937950314045998,0.734281496095753,-7.5469114784661935,88.57114274716425,177.5003594749551,0.14196175509776363,0.3825186626661482,0.06643658005332254,0.4623117778801801,0.15555797893858428,0.1215979700542788,0.7135003597359801,0.06218954618799963,0.6951370775902481,0.06155035104713931,-149.19787301752942,68.45236746632611,107.99534002299455,0.407125425221147,0.16298177627053956,0.2735201621454222,0.7838811196557542,0.5949772234864862,0.45220203014352145,-0.14178283070528153,0.7340716458409843,-0.34812996982554434,0.5678414481964024,-286.74059147624126,59.39488549912528,152.50907594224208,0.6365056549259992,0.13620251888452792,0.2247970871232782,0.5354020558391115,1.260874391196611,1.1232524600745948,-0.747739505080972,0.410415175667104,-0.5110480931894679,0.12088002263269673
1.06,-38.20697813585659,83.59885585587527,25.94226305841141,0.10157757572047973,0.10487290167838531,0.03380349718575655,0.221848166573749,0.10267068407806913,0.3852099623747162,-0.054094266024400574,0.6697368954225892,-0.09852241638117,0.7351855098398132,-7.323719514144807,88.77692950153887,177.62091293084498,0.15283792023077422,0.37094341904704836,0.06051116908115611,0.45160268319812397,0.16026811286630818,0.12124251267409701,0.7124814469445344,0.06020068047892825,0.6965533760414102,0.05949265955144333,-148.37811975496942,68.73017029373919,108.6016081037845,0.3986062811378881,0.15590641907438613,0.25016214593516073,0.7530008078626942,0.5860991697028131,0.5045705884027574,-0.13514779312588607,0.7362245685297764,-0.33870372297537776,0.5723090696837657,-288.04050717762215,59.22125266986106,151.863136480579,0.6342109638371974,0.14762188447442148,0.24894255036574198,0.5082304553330093,1.3975000527245238,1.134375134469323,-0.753283034121665,0.39966632824803966,-0.5135420064435706,0.11018511757171515
1.07,-38.025657072036395,83.52026781750232,25.920467521866232,0.110747897580837,0.09145158166182521,0.035620453524334836,0.2078806549966291,0.10672911536556705,0.39171566902659594,-0.052646476750893616,0.669806483694386,-0.09741197912899284,0.7360488673634188,-7.096933573150949,88.90060509256018,177.73264119036307,0.1610301354487458,0.3584195255025101,0.055485466042660116,0.44483973842361935,0.16425176803322655,0.124596336566663,0.7119455211447372,0.05824482915452915,0.6974658493736128,0.05751578256342372,-147.62517294909395,68.95601721696497,109.03902692756029,0.3932488135571535,0.1535909769893172,0.2278536957493527,0.7085928411239036,0.5722393777569122,0.5553047890086426,-0.1294621204628402,0.7378061101251829,-0.33090727768827843,0.5760915481924984,-289.36657721698555,59.020288527988704,151.19805739167884,0.6290669006836874,0.16208651638577917,0.27351616997656103,0.49048218303439495,1.5259715812523489,1.1250340702841193,-0.7587848879568875,0.3886861787133562,-0.5156946082623314,0.09906263282860941
1.08,-37.83412318101209,83.4523281511645,25.90935208659696,0.1185808092564168,0.07997234033259958,0.037144671083951336,0.19514526267063503,0.11226574254078528,0.39834689350690466,-0.051123845396298294,0.6699725680981526,-0.09609786521976459,0.7368609665594686,-6.874930664125524,88.94339763212133,177.83307663395885,0.16574320529756634,0.34452143506745875,0.05171124069976677,0.44151506975721627,0.16686801782081245,0.1315418287560313,0.7118779125440023,0.05639358303328002,0.697882243597162,0.055698192741934376,-146.9431208140523,69.12362352899366,109.31768554950682,0.3910190783253799,0.1551061776962327,0.20816018186797938,0.6541869401260844,0.5553018633157537,0.601599301589941,-0.12468028343829503,0.7389026289481557,-0.3247552890565486,0.5791931853413502,-290.7128902781501,58.78981538489392,150.5189228933958,0.6219577102975955,0.17834572570695387,0.29653708761561937,0.482454206304917,1.6415989791536405,1.0969247691806006,-0.7642099831311809,0.3775401765049608,-0.5174676709136781,0.08754548317214861
1.09,-37.638403054407405,83.39035039884942,25.91326598300056,0.12487855608002076,0.07047356984404737,0.0382254525281012,0.18361868738779405,0.11961746210654815,0.4049892229389426,-0.04953686281040951,0.6701835990046401,-0.09464117779368328,0.7376101896107766,-6.666017440840431,88.90874433953297,177.92166767877987,0.1664513337785062,0.32901506437248346,0.049414770350431285,0.4410017623340698,0.16755625309325634,0.14163316330553602,0.7122529659419338,0.05470757154219579,0.6978232003298018,0.05409786733954658,-146.332879579804,69.22929537859258,109.45032893342415,0.3917518191959867,0.1593758684079854,0.19240248484785222,0.593963686002114,0.5375268751783054,0.6410790772106583,-0.12073180923766945,0.7395979837607859,-0.32020966654118377,0.5816302146026785,-292.07373903781206,58.5298741697554,149.8299700146389,0.6135292997640408,0.19515174928865506,0.3160909500266667,0.4833910260714463,1.7403471775522403,1.0530546708712456,-0.7695294226303772,0.3662830115493467,-0.5188516272427885,0.07567464536523454
1.1,-37.44537279298306,83.33027905854986,25.93551684569029,0.1295363742594328,0.06290558931412862,0.038762096354502104,0.1731986997666166,0.1290235242841845,0.4113497397924465,-0.04790737271530376,0.6703867114839743,-0.09311173455993123,0.7382860031091928,-6.477794446708566,88.80222008594666,177.999482612086,0.16296546476934431,0.31185522712433783,0.048685456346345045,0.44252426274414886,0.16590756506140283,0.15412486510673798,0.7130345892710789,0.05323292812988178,0.6973214700094751,0.05274879223181425,-145.7923022800393,69.27207158760086,109.45273479571438,0.39515566492496496,0.1652423455547311,0.1815259531078434,0.5322881758065653,0.5212713481153084,0.6720002725797272,-0.11752155062777049,0.7399735472581087,-0.31717701193445297,0.583432645894352,-293.44315063064084,58.242706453679915,149.13520257914044,0.6041555667267051,0.21129597052705712,0.33051716926075436,0.4915905191468349,1.8190470081276615,0.9973881634597997,-0.7747188139674063,0.354964547192512,-0.519862491516102,0.06350605020303793
1.11,-37.26236029453763,83.26891800710945,25.977774470101618,0.13254578488977395,0.05714608468807247,0.03871639831949008,0.16375565908982243,0.14058043872422157,0.41695192652218876,-0.04626928834611489,0.6705307297741527,-0.0915848864405429,0.7388807017710597,-6.316599703309532,88.63127835940888,178.06881628141048,0.15546367092747518,0.29316598146869205,0.04947821326733325,0.4451324961157877,0.1617295231998997,0.16804023286999206,0.7141775202563201,0.051998885131490716,0.6964201282290661,0.05165971241024194,-145.31639308877092,69.25374772948796,109.34380614245684,0.40081918177187437,0.17154295545462234,0.17600515955808055,0.47325623028909664,0.5087814875370981,0.6933900800583435,-0.1149317806912542,0.740107893308519,-0.31550950642894077,0.5846457989457715,-294.81444181457647,57.93262826794913,148.43889413390113,0.5939471294186213,0.22564344586197776,0.33856971851877726,0.5046233418306569,1.875511160278627,0.9343992559812827,-0.7797563781852768,0.34363550462706866,-0.5205373566684628,0.05111602234369347
1.12,-37.09664992453884,83.20408676804985,26.039569085259043,0.13398682160104916,0.0530220776061138,0.03812126321117194,0.15519517205882424,0.15421962988991042,0.4211723034810987,-0.04466829837672767,0.6705692330439718,-0.09013817792497039,0.7393904521438628,-6.1870785758488855,88.4048714861292,178.1327475381576,0.1444784066549936,0.2732076101668305,0.05162715606229569,0.4476984982865671,0.15509585703991746,0.18227272254890012,0.7156290448766917,0.05101676773620027,0.6951702521654984,0.050815297370048654,-144.8976213227098,69.17879484607693,109.14536564844273,0.4082170101986866,0.1771892072101703,0.1758036773507987,0.4203117315409464,0.5019781356535642,0.7050923965923301,-0.11282609441262444,0.7400761339792925,-0.3150090714725387,0.5853313831734419,-296.17990709157743,57.60578313009103,147.745896382727,0.5827973520461439,0.2371727305540746,0.3395296387854631,0.5196388998889333,1.9085671882467778,0.8685968972330167,-0.7846211928989446,0.33235179473021315,-0.5209288132376826,0.038603967208474546
1.13,-36.95492526769118,83.13470676175227,26.117943680137817,0.13400897428917136,0.05033573346675919,0.03708373864565488,0.1475209327651883,0.16970817858073478,0.42332233296260197,-0.043160361863004655,0.670463576583701,-0.08884806240806298,0.739815506669584,-6.091913547482316,88.13303356067918,178.19469026041082,0.13084049068883058,0.2523365777880996,0.054866839829897734,0.44895174155203443,0.14637296777560063,0.19570842221474463,0.7173307785647066,0.050280526957631445,0.6936286327208468,0.050179596388714345,-144.52632641520685,69.05418374924471,108.88166547859248,0.41671832785733054,0.18123991684205062,0.18039690362906113,0.3759761139249193,0.502269903775416,0.7077035194928978,-0.11105495413109114,0.7399489517070442,-0.3154344634213897,0.5855678802896431,-297.530732688667,57.269763150757335,147.061704412248,0.5704556341193787,0.24502543650977052,0.3332564422556455,0.5337148166239064,1.9180302142655907,0.8040970130496353,-0.7892919416069151,0.3211766297174874,-0.5210987530776106,0.02609132562663944
1.14,-36.842702526525144,83.06082325221328,26.207317045623434,0.13280286181926532,0.048891729929178236,0.03578113074575709,0.14088370033406372,0.18666863589141994,0.42276633603219754,-0.041808968871554414,0.6701857291634424,-0.08778671650029873,0.740159636351524,-6.031731854773439,87.82650122936697,178.25797297092228,0.11558686169105042,0.23096751130508728,0.05885770226272914,0.4475620271133162,0.13621585694857807,0.20735571460929325,0.7192201453789877,0.04976874656396127,0.691856041457757,0.04970139021025744,-144.1912043903726,68.88911751295916,108.57864314305915,0.4256026540063205,0.18296168361142487,0.18885454189286588,0.3417115000787135,0.5104083312386798,0.7024113578733677,-0.10946257228631223,0.7397913992421269,-0.31651097308488063,0.585449839558254,-298.85718772635875,56.93309868895952,146.39227938391517,0.5566154772060878,0.24856354644260337,0.32017758546369646,0.5442008056335098,1.9046343502954817,0.74429979459374,-0.7937464428037131,0.31018005046598873,-0.5211120643983363,0.013716484952281708
1.15,-36.76381896342327,82.98357075613778,26.29960438253754,0.13056666750446436,0.04852411867400147,0.034449377258606834,0.1356032432596159,0.20461100658171832,0.41905520333711044,-0.04068137100606562,0.6697207438976125,-0.08701886418482024,0.7404289522040146,-6.00519178466407,87.49642097333756,178.32547402080462,0.09984571794845785,0.20954677127929847,0.06321379860460928,0.44226795883337044,0.12552827641593306,0.21646812504264365,0.7212313813012908,0.04944786703535009,0.6899163239541214,0.0493208573218694,-143.87986528859847,68.69466640100553,108.26296677677156,0.4340890386479268,0.1818720304218956,0.19997067985809946,0.3179202366126219,0.5264003391444939,0.6907799713540133,-0.10789464857322567,0.7396615460672101,-0.31794240319659123,0.5850856457708106,-300.1490940233261,56.604635533465505,145.743670687608,0.5410053352559164,0.24742552352221564,0.30122594736466357,0.5490128111811098,1.8699353377154204,0.6917009788593464,-0.7979620528824888,0.29943599523629716,-0.521030698584704,0.0016260614491477067
1.16,-36.720043027235036,82.90508966876125,26.38462386195867,0.1274732200060448,0.04911996699177465,0.033363561560894595,0.13215494217620186,0.22296874746621212,0.41205019823337025,-0.03984414855843581,0.6690686364601198,-0.08659849593537125,0.7406303559149692,-6.009231269386486,87.15415698832064,178.3993319568343,0.08471620966933044,0.1885442451356373,0.06753210353728266,0.4320379842897777,0.11538673235465641,0.2226455723841231,0.7232961591990846,0.049276246149607725,0.6878762429978708,0.0489768697703386,-143.57944743917767,68.48329628724173,107.96092601895224,0.4413828906664516,0.1777624403603836,0.21242336655704647,0.3040665622067519,0.5494900669573013,0.6745327190105518,-0.1062063049593763,0.7396090521607349,-0.3194248795653573,0.5845934699487332,-301.3965301942681,56.292839734792835,145.1215023602381,0.5234715314929528,0.2415680080598089,0.27773967035034985,0.5468457483479442,1.8161857088417075,0.6478397351407948,-0.8019168454378626,0.28901736798262123,-0.5209085174243786,-0.010036454691877202
1.17,-36.71086293557004,82.82839985074612,26.450789335092207,0.12364491600630416,0.0506357879592084,0.032811444544278465,0.13112053756356953,0.24113125950090752,0.402011484984781,-0.039358512898877124,0.6682454144613081,-0.08656546178132048,0.7407698869719422,-6.039446995663159,86.81118071701809,178.48074390207515,0.07115935331375339,0.16846453153813967,0.07142275587496412,0.416243040443697,0.10693445166872072,0.22589808586366983,0.7253441490543123,0.04920862505920869,0.6858056861164784,0.0486141996154028,-143.277267277761,68.26828683977865,107.69723808969935,0.44674019572081614,0.1707005945282881,0.22494046618879168,0.29889215462174024,0.5782134324798294,0.6553757600158635,-0.1042694725305243,0.7396737584958497,-0.32066183945168214,0.5840954470390571,-302.59068552743736,56.00509039518814,144.53039894291604,0.5040431995589265,0.23127972317550335,0.2513365919500996,0.5372871164625578,1.7461686458697416,0.6133691239594316,-0.8055913098524468,0.2789897952013768,-0.5207872339735425,-0.021143318353779885
1.18,-36.73349031895137,82.7572338656527,26.486052734830672,0.1191434071594424,0.05310201681702816,0.033062148230039404,0.13311092479749756,0.2584680050226296,0.3896311708840511,-0.0392756831922446,0.6672830013771052,-0.08694210837751766,0.740851224873898,-6.090560375281846,86.47899810690177,178.56985845876352,0.05991317719574134,0.14987284103416906,0.07453889351619901,0.39481613915251557,0.10125725960995015,0.226658491060442,0.7273038938614786,0.049200573118299805,0.6837776845652577,0.04818993753776388,-142.96147251545645,68.06305091387533,107.49385146531597,0.4495429973957624,0.16101323318125585,0.23644463141021033,0.30068808781291045,0.6105177733405418,0.6348781287448825,-0.10197903577896733,0.739884402324293,-0.3213793082797485,0.5837105394658179,-303.72474793399306,55.74703484702143,143.97342970805025,0.48297070290209965,0.2171583673483818,0.22377269104601671,0.5208243222968093,1.6629800040192464,0.5882217006206901,-0.808970209877249,0.26940492238514835,-0.5206936574491249,-0.031594870430850394
