0.01,-113.88,78.49,175.72,0.18,0.08,0.0,0.92,-0.02,0.61,-101.85,83.81,174.98,0.17,0.44,0.23,0.55,-0.16,0.39,-170.58,2.83,13.56,-0.12,-0.07,0.07,-0.07,0.0,-0.17,-121.6,7.33,14.02,0.29,0.15,0.34,1.22,0.88,1.33
0.02,-113.81,78.18,175.78,0.12,0.13,0.02,0.76,0.14,0.85,-101.98,83.56,176.72,0.14,0.59,0.27,0.54,0.01,0.1,-170.61,2.57,13.52,0.12,0.15,0.03,0.13,0.16,0.03,-120.93,7.43,14.12,0.25,0.2,0.4,1.03,0.84,1.45
0.03,-113.85,77.99,176.1,0.02,0.11,0.02,0.79,0.09,1.09,-101.84,83.18,178.33,0.12,0.55,0.14,0.75,0.29,0.07,-170.69,2.67,13.29,-0.12,0.16,0.18,0.35,0.49,0.09,-120.79,7.58,14.02,-0.07,0.15,0.23,1.06,0.7,1.59
0.04,-113.68,77.63,175.94,-0.16,0.14,0.28,0.64,0.22,1.08,-101.74,83.0,180.15,0.02,0.57,-0.11,0.77,0.16,0.16,-170.74,2.54,13.19,0.07,-0.05,0.16,0.18,0.81,0.34,-120.17,7.74,14.27,0.16,0.05,0.13,0.81,0.64,1.82
0.05,-113.58,77.53,175.99,0.26,0.24,0.08,0.62,0.1,1.02,-101.57,82.21,182.2,0.16,0.76,0.08,1.08,0.23,0.15,-170.89,2.76,13.11,0.02,0.21,-0.03,0.37,0.98,0.57,-119.66,7.46,14.47,0.09,0.23,0.11,0.67,0.66,1.85
0.06,-113.28,77.16,176.2,0.13,0.24,-0.12,0.81,0.09,1.06,-101.51,81.67,184.61,-0.04,0.9,0.18,1.3,0.16,0.09,-170.59,2.64,13.07,-0.06,0.1,0.19,0.54,0.95,0.75,-119.18,7.66,14.59,0.26,0.27,0.15,0.71,0.53,2.1
0.07,-113.07,77.05,176.38,0.19,0.3,0.2,0.84,0.18,1.14,-101.45,80.85,186.73,0.05,1.14,-0.16,1.3,0.38,0.18,-170.56,2.63,12.6,0.26,0.04,0.38,0.51,0.99,1.04,-118.85,7.66,14.63,0.19,0.11,0.25,0.45,0.41,1.74
0.08,-112.93,76.35,176.4,0.14,0.41,0.14,0.68,0.09,1.05,-101.34,79.89,188.98,0.03,1.41,0.09,1.44,0.24,0.03,-170.21,2.73,12.56,0.22,0.04,0.19,0.56,1.15,1.29,-118.65,7.57,14.87,0.02,-0.1,0.18,0.44,0.57,2.04
0.09,-112.69,75.87,176.84,0.39,0.44,0.04,0.81,0.02,1.05,-101.55,78.38,191.47,-0.01,1.32,0.07,1.53,0.26,0.08,-170.05,2.81,12.82,0.33,0.05,0.32,0.43,0.88,1.58,-118.51,7.6,14.63,0.02,-0.05,0.06,0.44,0.52,2.36
0.1,-112.36,75.27,176.79,0.3,0.51,0.12,0.77,0.12,1.06,-101.52,76.85,194.16,0.11,1.38,0.06,1.72,0.27,0.24,-169.51,2.88,12.35,0.08,0.18,0.27,0.48,0.97,1.62,-118.15,7.77,14.86,0.04,0.06,-0.03,0.39,0.44,1.98
0.11,-112.22,74.76,176.86,0.21,0.58,-0.06,0.87,0.26,1.02,-101.74,75.06,197.09,0.29,1.6,-0.02,1.65,0.39,0.43,-169.21,2.89,12.37,0.21,0.24,0.5,0.41,0.75,1.89,-117.99,7.71,15.08,0.01,0.08,-0.0,0.53,0.78,1.97
0.12,-111.8,73.67,177.26,0.33,0.62,-0.06,0.83,0.1,1.12,-102.03,72.88,199.65,0.2,1.47,0.16,1.74,0.23,0.39,-168.82,3.05,12.52,0.06,0.11,0.3,0.22,0.98,2.1,-117.94,7.64,14.96,0.0,0.01,0.2,0.61,0.55,1.83
0.13,-111.73,73.21,177.28,0.29,0.95,0.04,0.94,0.16,1.03,-102.28,71.74,201.16,0.12,1.71,0.03,1.61,0.29,0.33,-168.28,3.05,12.27,0.22,0.23,0.23,0.4,0.75,2.15,-118.06,7.65,15.05,-0.03,-0.07,0.17,0.5,0.48,1.79
0.14,-111.57,72.8,177.44,0.22,0.93,0.14,0.89,0.15,0.98,-102.15,70.58,202.25,0.32,1.79,0.1,1.67,0.29,0.53,-168.15,3.15,12.43,0.08,0.16,0.44,0.36,0.74,2.21,-118.17,7.68,15.16,-0.03,0.09,0.21,0.55,0.59,1.59
0.15,-111.15,71.57,177.6,0.12,0.97,0.14,1.04,0.21,0.92,-102.82,68.06,204.89,0.34,2.16,0.01,1.75,0.48,0.41,-167.84,3.52,12.53,0.09,0.16,0.27,0.43,0.69,2.4,-118.36,7.52,15.21,0.04,0.07,0.28,0.63,0.53,1.48
0.16,-110.86,70.56,178.08,0.3,1.03,0.09,0.92,0.29,0.86,-103.37,65.1,207.08,0.36,2.12,0.16,1.46,0.24,0.74,-167.25,3.55,12.42,0.17,0.23,0.32,0.47,0.59,2.42,-118.75,7.53,15.29,-0.02,0.13,0.13,0.88,0.68,1.18
0.17,-110.34,69.28,178.26,0.35,0.91,0.15,1.06,0.25,1.0,-103.96,62.01,209.29,0.23,2.23,-0.06,1.58,0.1,0.75,-166.73,3.58,12.54,0.06,0.25,0.27,0.39,0.56,2.33,-118.98,7.58,15.31,-0.03,0.22,0.37,0.82,0.64,1.17
0.18,-110.37,67.81,178.29,0.14,1.18,0.07,1.14,0.16,0.87,-104.59,59.0,211.19,0.24,2.1,0.18,1.37,0.12,0.62,-166.25,3.93,12.96,0.05,0.08,0.13,0.29,0.29,2.15,-119.57,7.45,15.47,0.14,0.13,0.42,1.15,0.71,1.22
0.19,-110.06,66.3,178.45,0.24,1.22,0.1,1.27,0.4,0.79,-105.32,55.77,212.75,0.23,2.23,0.19,1.27,0.08,0.89,-165.64,3.98,12.82,0.26,0.39,0.06,0.48,0.41,2.19,-119.91,7.39,15.61,0.11,0.1,0.42,1.02,0.6,1.26
0.2,-109.76,64.71,178.93,0.04,1.32,0.21,1.17,0.17,0.8,-106.43,52.53,214.04,0.33,2.3,0.06,1.29,0.29,1.13,-165.4,4.48,12.98,0.08,0.17,0.05,0.19,0.51,2.05,-120.5,7.55,15.68,0.17,0.14,0.51,1.04,0.53,1.39
0.21,-109.74,63.36,179.12,0.15,1.31,0.26,1.3,0.2,0.78,-107.07,49.2,215.16,0.46,2.36,0.29,1.2,0.25,1.06,-164.98,4.47,13.5,0.12,0.15,0.18,0.37,0.69,1.91,-121.27,7.29,15.83,0.08,0.25,0.52,1.25,0.58,1.16
0.22,-109.4,61.55,179.17,0.12,1.4,0.03,1.19,0.52,0.66,-107.75,46.25,216.02,0.35,2.1,0.21,0.92,0.1,0.99,-165.07,4.71,13.55,-0.14,0.16,0.16,0.63,0.62,1.63,-122.03,7.55,16.14,0.25,0.08,0.45,1.0,0.6,1.21
0.23,-109.5,59.91,179.64,0.27,1.17,0.05,1.4,0.36,0.89,-108.47,43.3,216.41,0.11,2.25,0.09,1.05,0.11,0.82,-164.82,4.63,13.66,0.01,0.13,0.18,0.51,0.94,1.61,-122.52,7.47,16.5,0.1,0.2,0.33,0.93,0.59,1.55
0.24,-109.4,58.3,179.82,0.16,1.32,-0.0,1.33,0.1,0.75,-108.86,40.38,216.86,0.24,2.16,0.08,0.79,0.3,1.07,-164.73,5.12,13.93,0.22,-0.01,0.24,0.62,1.03,1.27,-123.27,7.85,16.91,0.15,0.25,0.63,0.86,0.71,1.72
0.25,-109.43,56.57,179.79,0.11,1.37,-0.01,1.19,0.34,0.43,-109.39,37.63,217.23,0.12,1.93,0.2,1.05,0.26,1.0,-164.92,4.97,14.22,0.09,0.01,0.27,0.61,1.14,1.31,-124.27,8.09,17.21,0.26,0.37,0.51,0.98,0.62,1.72
0.26,-109.61,55.47,179.92,0.09,1.34,0.1,1.28,0.33,0.61,-109.65,36.44,217.47,0.29,1.98,0.29,1.05,0.31,1.18,-164.87,5.18,14.13,0.22,0.18,0.39,0.7,1.12,1.35,-124.42,8.18,17.55,0.25,0.38,0.48,0.81,0.68,1.9
0.27,-109.59,55.03,179.77,0.06,1.17,0.14,1.22,0.21,0.68,-109.83,34.89,217.48,0.01,1.88,0.0,0.91,0.39,1.01,-164.89,5.19,14.27,0.27,0.01,0.42,0.8,1.38,1.11,-124.72,8.38,17.81,0.36,0.35,0.46,0.88,0.6,2.01
0.28,-109.7,53.38,179.84,0.14,1.15,-0.12,1.24,0.31,0.75,-110.21,32.67,217.58,0.01,1.53,0.21,1.0,0.27,1.18,-165.47,5.42,14.59,0.26,0.11,0.23,0.51,1.3,1.05,-125.45,8.87,18.36,0.38,0.55,0.37,0.85,0.9,2.2
0.29,-109.91,51.56,179.8,0.19,1.18,-0.16,1.19,0.4,0.52,-110.31,30.61,217.53,0.2,1.56,0.07,1.22,0.31,1.08,-165.74,5.35,14.85,0.08,0.16,0.53,0.77,1.41,1.15,-126.01,9.46,18.94,0.36,0.54,0.19,0.86,0.88,2.09
0.3,-110.02,50.28,179.82,0.2,1.3,0.01,1.41,0.36,0.5,-110.35,28.52,217.46,0.18,1.37,-0.02,0.97,0.35,1.07,-166.25,5.69,14.51,0.18,-0.02,0.37,0.5,1.5,1.27,-126.58,10.1,19.55,0.5,0.72,0.46,0.84,0.77,2.18
0.31,-109.97,48.77,179.84,0.08,1.03,0.11,1.14,0.27,0.52,-110.26,26.78,217.52,0.02,1.09,0.02,1.17,0.3,0.97,-166.84,5.86,14.54,0.31,0.16,0.43,0.63,1.52,1.25,-126.85,10.51,20.17,0.57,0.73,0.35,0.63,0.94,2.36
0.32,-110.33,47.58,179.63,0.1,1.02,0.03,1.14,0.11,0.42,-110.24,25.21,217.4,0.22,1.09,-0.05,1.0,0.5,0.89,-167.59,5.87,14.24,0.36,-0.11,0.52,0.63,1.64,1.41,-127.39,11.3,20.66,0.49,0.84,0.26,0.48,0.91,2.35
0.33,-110.2,46.59,179.39,0.2,0.77,-0.11,0.88,0.27,0.47,-109.89,23.87,217.26,0.06,1.05,0.06,0.92,0.49,1.01,-168.06,5.83,14.09,0.38,0.2,0.45,0.58,1.49,1.64,-127.69,12.27,21.48,0.44,0.87,0.4,0.64,1.14,2.2
0.34,-110.41,45.49,179.38,0.09,0.89,0.06,0.84,-0.04,0.57,-109.97,22.92,217.04,0.05,0.64,0.03,0.86,0.6,0.86,-168.87,5.92,13.63,0.36,0.1,0.41,0.69,1.39,1.81,-128.13,12.88,22.17,0.34,0.75,0.23,0.58,0.97,2.18
0.35,-110.3,44.46,179.15,0.07,0.75,0.17,0.86,0.21,0.2,-109.57,21.71,216.91,0.25,0.57,0.17,1.01,0.32,0.85,-169.79,5.88,13.13,0.33,0.18,0.67,0.6,1.52,1.85,-128.51,13.61,22.73,0.4,0.99,0.44,0.67,1.2,2.31
0.36,-110.21,43.88,179.24,0.13,0.52,0.01,0.63,0.31,0.6,-109.5,21.18,217.04,-0.0,0.5,0.13,0.98,0.47,0.76,-170.5,5.99,12.84,0.46,0.13,0.55,0.6,1.58,1.84,-128.56,14.43,23.35,0.21,0.75,0.13,0.58,1.25,1.91
0.37,-110.28,43.06,179.01,0.27,0.57,0.16,0.51,0.34,0.28,-109.26,19.98,216.93,0.17,0.55,0.16,0.76,0.48,0.76,-171.2,5.88,12.23,0.41,0.11,0.63,0.4,1.58,2.15,-128.56,15.26,23.78,0.28,0.69,0.33,0.66,1.25,2.11
0.38,-110.27,42.32,179.21,0.2,0.53,0.07,0.7,0.33,0.33,-109.21,19.39,216.76,0.08,0.48,0.1,0.64,0.49,0.67,-172.07,5.75,11.42,0.72,0.31,0.58,0.58,1.5,1.87,-128.69,16.08,24.41,0.32,0.58,0.15,0.78,1.39,2.21
0.39,-110.39,42.14,178.77,0.05,0.58,0.04,0.6,0.51,0.26,-109.1,19.26,216.57,0.17,0.39,0.08,0.51,0.44,0.72,-172.41,5.91,11.35,0.43,0.17,0.61,0.48,1.61,2.0,-128.79,16.44,24.52,0.17,0.7,0.3,0.67,1.12,2.32
0.4,-110.29,41.75,178.88,0.25,0.35,0.13,0.73,0.38,0.45,-109.15,18.99,216.62,0.12,0.53,0.17,0.6,0.29,0.81,-172.97,5.84,10.87,0.26,0.15,0.46,0.58,1.52,2.06,-128.48,16.81,24.74,0.28,0.44,0.46,0.77,1.27,2.03
0.41,-110.35,41.21,178.72,0.13,0.13,0.03,0.5,0.21,0.29,-108.99,18.4,216.55,0.45,0.63,-0.03,0.48,0.52,0.72,-173.72,5.89,10.34,0.74,0.17,0.62,0.4,1.73,1.92,-128.45,17.3,25.14,0.19,0.57,0.33,0.76,1.29,2.42
0.42,-110.26,41.03,178.87,0.14,0.36,0.1,0.59,0.67,0.37,-108.73,18.05,216.5,0.02,0.39,0.05,0.35,0.23,0.43,-174.6,5.58,9.84,0.5,0.09,0.78,0.4,1.85,1.7,-128.36,17.68,25.6,0.11,0.51,0.3,0.84,1.37,2.43
0.43,-110.21,40.66,178.89,-0.02,0.2,0.22,0.51,0.43,0.3,-108.69,17.89,216.65,0.11,0.27,0.12,0.27,0.23,0.71,-175.08,5.62,9.15,0.5,0.27,0.45,0.43,1.92,1.75,-128.01,18.1,25.78,0.33,0.29,0.3,0.94,1.11,2.39
0.44,-110.25,40.33,178.93,0.16,0.16,-0.02,0.54,0.57,0.37,-108.64,17.57,216.51,0.0,0.28,-0.19,0.52,0.41,0.5,-175.41,5.55,8.65,0.34,0.04,0.44,0.35,1.83,1.64,-127.99,18.66,26.23,0.21,0.27,0.34,0.82,1.02,2.62
0.45,-110.37,40.17,178.96,-0.0,0.17,0.31,0.4,0.7,0.35,-108.64,17.61,216.78,0.04,0.13,-0.04,0.23,0.35,0.45,-176.11,5.53,8.28,0.23,0.16,0.56,0.32,2.23,1.52,-127.57,18.75,26.63,0.21,0.22,0.19,0.91,1.02,2.64
0.46,-110.52,39.96,179.14,0.12,0.13,0.22,0.31,0.74,0.3,-108.62,17.43,216.72,0.27,0.19,0.2,0.46,0.26,0.51,-176.51,5.41,8.2,0.3,0.14,0.41,0.28,2.26,1.35,-127.48,19.15,26.93,0.41,0.16,0.24,0.72,1.13,2.78
0.47,-110.71,40.05,179.19,0.11,0.35,0.08,0.6,0.78,0.32,-108.41,17.55,216.63,0.04,0.28,0.06,0.41,0.16,0.65,-176.69,5.22,8.02,0.25,0.34,0.46,0.52,2.46,1.39,-126.89,19.28,27.17,0.2,0.07,0.44,0.89,1.02,3.09
0.48,-110.83,40.06,179.36,0.07,0.38,0.16,0.45,0.81,0.26,-108.28,17.55,216.97,0.24,0.21,0.19,0.28,0.15,0.7,-176.75,5.17,7.69,0.41,0.25,0.29,0.17,2.44,1.05,-127.11,19.31,27.4,0.42,0.24,0.35,0.89,1.16,2.93
0.49,-110.93,39.98,179.55,0.11,0.25,-0.03,0.4,0.81,0.48,-108.55,17.67,217.2,0.21,0.29,0.14,0.38,0.23,0.74,-176.73,5.25,7.79,0.21,0.22,0.42,0.43,2.66,0.96,-126.6,19.31,27.65,0.23,0.19,0.44,0.79,1.15,3.11
0.5,-111.32,40.22,179.52,-0.07,0.12,0.28,0.64,0.79,0.49,-108.43,17.73,217.01,0.05,0.22,-0.11,0.43,0.19,0.81,-176.76,5.3,7.83,0.07,0.2,0.26,0.56,2.76,1.24,-126.61,18.95,28.01,0.36,0.35,0.14,0.76,1.15,3.09
0.51,-111.52,40.66,179.49,0.09,0.17,0.03,0.49,0.74,0.6,-108.46,18.22,217.09,0.16,0.32,0.08,0.43,0.24,0.97,-176.64,5.04,7.96,0.24,0.2,0.38,0.63,3.04,1.19,-126.58,19.22,28.45,0.46,0.16,0.33,0.93,1.05,3.22
0.52,-111.63,40.44,179.49,-0.06,0.29,0.15,0.68,0.55,0.42,-108.37,18.3,217.07,0.26,0.32,-0.03,0.59,0.47,0.99,-176.43,5.26,8.1,0.11,0.35,0.3,0.62,2.9,1.2,-126.79,19.27,28.64,0.35,0.3,0.25,0.77,1.3,3.06
0.53,-111.78,40.88,179.62,0.13,0.45,0.02,0.8,0.61,0.51,-108.34,18.6,217.15,0.16,0.25,0.19,0.58,0.44,1.02,-176.13,5.33,7.87,0.14,0.15,0.51,0.78,2.8,1.3,-126.57,19.22,28.88,0.44,0.25,0.16,0.74,1.05,2.91
0.54,-112.08,41.19,179.46,0.1,0.4,0.23,0.74,0.63,0.7,-108.39,18.76,217.16,0.14,0.32,0.02,0.63,0.32,1.1,-175.78,5.29,7.91,0.04,0.31,0.28,0.86,2.89,1.5,-126.75,19.19,29.49,0.32,0.17,0.19,0.72,1.23,2.91
0.55,-112.05,41.66,179.48,0.16,0.48,0.13,0.74,0.59,0.59,-108.25,19.42,217.15,0.01,0.38,0.11,0.78,0.41,1.18,-175.34,5.27,8.0,0.29,0.26,0.25,0.71,2.85,1.36,-126.52,19.19,29.98,0.39,0.54,0.14,0.99,1.31,3.03
0.56,-112.39,42.31,179.58,0.1,0.37,0.25,1.09,0.67,0.49,-108.38,19.8,217.26,-0.04,0.41,0.04,0.84,0.37,1.38,-174.94,5.69,8.07,0.19,0.23,0.23,0.89,2.58,1.62,-126.61,19.44,30.57,0.47,0.24,0.1,0.92,1.55,2.86
0.57,-112.31,42.88,179.48,0.02,0.59,0.07,0.86,0.32,0.64,-108.25,20.22,216.97,0.11,0.49,0.09,0.92,0.42,1.5,-174.62,5.84,8.09,0.55,0.25,0.5,0.78,2.43,1.96,-126.79,19.85,31.46,0.56,0.32,0.19,0.8,1.64,2.61
0.58,-112.17,43.58,179.37,0.12,0.6,0.09,0.91,0.33,0.64,-108.3,20.7,217.03,0.23,0.4,-0.01,0.84,0.56,1.36,-174.27,5.93,7.74,0.17,0.33,0.26,0.9,2.16,1.98,-126.75,20.26,32.24,0.72,0.37,0.23,1.04,1.52,2.69
0.59,-112.18,44.23,179.35,0.18,0.55,0.24,1.03,0.32,0.69,-108.41,21.3,216.95,0.16,0.46,0.11,0.85,0.55,1.33,-174.05,6.1,7.44,0.26,0.27,0.3,0.96,2.2,2.15,-126.8,20.46,33.04,0.73,0.69,0.19,1.0,1.64,2.25
0.6,-112.09,44.93,179.34,-0.16,0.36,0.06,1.08,0.21,0.75,-108.42,21.79,216.9,-0.03,0.53,-0.02,0.88,0.57,1.45,-173.83,6.13,7.23,0.3,0.25,0.53,1.18,1.7,2.4,-126.74,21.06,33.99,0.69,0.53,0.22,1.03,1.56,2.02
0.61,-111.96,45.79,179.03,0.09,0.64,0.31,0.78,0.42,0.67,-108.44,22.52,216.62,-0.06,0.55,0.03,0.89,0.43,1.38,-173.58,6.36,6.94,0.37,0.2,0.42,0.8,1.32,2.62,-126.44,21.75,34.88,0.76,0.68,0.36,1.12,1.76,1.93
0.62,-111.81,46.63,179.16,0.15,0.62,0.01,0.92,0.35,0.49,-108.36,23.05,216.56,-0.06,0.52,0.06,1.1,0.37,1.24,-173.54,6.51,6.43,0.25,0.16,0.75,1.14,1.04,2.73,-126.44,22.44,35.82,0.75,0.49,0.23,1.16,1.62,1.53
0.63,-111.89,47.64,178.93,0.05,0.75,0.12,0.97,0.13,0.51,-108.72,23.89,216.39,0.19,0.64,0.13,0.79,0.48,1.13,-173.54,6.65,5.93,0.43,0.25,0.49,0.8,1.07,2.58,-126.09,23.02,36.88,0.72,0.78,0.47,1.3,1.27,1.15
0.64,-111.63,48.68,178.69,0.15,0.7,-0.04,0.86,0.2,0.44,-108.78,24.72,216.46,0.06,0.85,-0.01,0.96,0.28,1.29,-173.73,6.84,5.53,0.37,0.28,0.45,0.73,0.74,2.69,-125.7,23.95,37.84,0.81,0.79,0.16,1.12,1.5,1.06
0.65,-111.67,48.71,178.52,0.16,0.6,-0.07,0.84,0.08,0.55,-108.79,24.85,216.28,-0.06,0.71,0.06,1.09,0.3,1.17,-173.78,6.85,5.3,0.41,0.21,0.68,0.78,0.89,2.71,-125.43,24.31,38.34,0.8,0.66,0.35,1.03,1.44,0.86
0.66,-111.62,49.4,178.61,0.06,0.77,-0.01,0.94,0.22,0.48,-108.68,25.36,216.29,0.14,0.77,0.2,1.17,0.25,1.37,-173.87,6.99,4.9,0.36,0.14,0.28,0.69,0.68,2.54,-125.26,24.98,39.1,1.06,0.81,0.4,1.0,1.23,0.84
0.67,-111.54,50.49,178.55,0.22,0.81,0.13,0.93,0.18,0.4,-109.02,26.15,216.52,0.17,0.85,-0.19,0.81,0.29,1.07,-174.0,7.13,4.6,0.23,0.12,0.33,0.61,0.47,2.36,-124.75,26.0,40.16,0.85,0.79,0.29,1.07,1.13,0.7
0.68,-111.59,51.61,178.28,0.09,0.97,0.01,0.67,0.31,0.3,-109.21,27.03,216.26,0.21,0.88,0.14,0.93,0.42,1.19,-174.28,7.24,3.98,0.48,0.08,0.44,0.62,0.53,2.33,-124.25,27.17,41.51,1.09,0.98,0.47,0.84,1.3,0.61
0.69,-111.45,52.89,178.21,0.16,0.91,0.04,0.83,0.32,0.1,-109.49,28.42,216.32,0.12,0.97,0.06,0.92,0.23,0.99,-174.39,7.29,3.53,0.43,0.09,0.36,0.64,0.36,2.17,-123.48,28.07,42.6,0.87,0.93,0.6,1.08,1.12,0.49
0.7,-111.37,53.86,178.29,0.14,0.75,0.15,0.75,0.19,0.16,-109.44,29.53,216.07,0.1,0.98,0.14,0.87,0.27,0.85,-174.79,7.34,3.2,0.12,0.06,0.55,0.62,0.51,1.82,-122.83,29.27,43.87,1.1,0.76,0.56,0.94,1.15,0.5
0.71,-111.45,55.06,178.06,0.16,1.14,0.1,0.69,0.3,0.31,-109.51,30.91,216.0,-0.04,1.14,0.03,0.84,0.34,0.94,-174.65,7.38,3.01,0.21,0.04,0.15,0.5,0.46,1.75,-122.18,30.57,45.27,0.97,0.77,0.53,0.87,1.26,0.26
0.72,-111.53,56.47,177.99,-0.04,1.02,0.28,0.83,0.28,0.39,-109.56,32.51,215.76,0.12,1.17,-0.02,0.67,0.43,0.77,-175.05,7.07,2.74,0.32,0.03,0.23,0.33,0.58,1.58,-121.46,31.75,46.55,1.23,1.16,0.69,1.14,0.89,0.31
0.73,-111.56,57.44,177.61,0.17,1.1,0.13,0.67,0.27,0.15,-109.53,33.91,215.78,0.07,1.18,-0.11,0.59,0.33,0.77,-175.19,7.1,2.78,0.1,0.25,0.19,0.42,0.56,1.3,-120.77,33.19,48.16,1.22,1.05,0.77,0.84,1.07,0.41
0.74,-111.7,58.85,177.87,0.05,1.29,0.04,0.7,0.09,0.37,-109.52,35.58,215.69,0.13,1.2,0.12,0.45,0.32,0.7,-175.28,6.76,2.83,0.42,0.1,0.19,0.45,0.66,1.07,-119.79,34.92,49.72,1.24,1.09,0.75,0.83,0.96,0.59
0.75,-112.05,60.15,177.82,0.05,1.15,0.06,0.58,0.09,0.59,-109.36,37.42,215.55,0.09,1.6,-0.12,0.64,0.23,0.78,-175.35,6.34,3.07,0.35,0.25,0.12,0.18,0.55,0.86,-118.99,36.59,51.34,1.18,1.41,1.01,0.67,1.05,0.46
0.76,-111.93,61.37,177.67,0.16,1.28,0.02,0.59,0.28,0.62,-108.98,39.02,215.36,0.04,1.58,0.05,0.56,0.28,0.47,-175.2,5.84,3.3,0.41,0.16,0.26,0.19,0.66,0.68,-118.11,38.55,53.05,1.37,1.46,0.99,0.87,0.96,0.53
0.77,-112.08,62.69,177.54,-0.11,1.04,-0.01,0.57,0.3,0.57,-108.59,40.84,215.29,0.15,1.54,0.13,0.39,0.57,0.67,-175.42,5.49,3.98,0.56,0.18,0.11,0.28,0.84,0.44,-117.07,40.32,54.94,1.07,1.46,0.81,0.8,1.05,0.61
0.78,-112.15,63.3,177.58,0.06,1.2,-0.08,0.53,0.12,0.54,-108.33,41.63,215.21,0.09,1.54,-0.01,0.36,0.43,0.55,-175.14,5.22,4.21,0.45,0.3,0.2,0.07,0.94,0.21,-116.29,41.26,55.84,1.09,1.54,1.09,0.77,1.04,0.76
0.79,-112.44,64.09,177.4,0.26,1.3,0.18,0.73,0.1,0.51,-108.22,42.55,215.18,0.16,1.56,-0.05,0.2,0.44,0.48,-175.24,4.84,4.66,0.71,0.22,0.05,0.16,0.87,0.19,-116.13,42.28,57.02,1.24,1.59,1.13,0.75,1.11,0.97
0.8,-112.63,65.3,177.34,0.1,1.04,0.02,0.62,0.22,0.78,-107.85,44.75,215.14,0.09,1.75,0.21,0.21,0.32,0.59,-174.98,4.43,5.47,0.7,0.27,0.03,0.32,0.89,0.54,-114.93,44.44,58.75,1.35,1.79,1.34,0.57,1.13,0.84
0.81,-112.82,66.39,177.14,0.02,0.93,0.13,0.54,0.24,0.82,-107.43,46.71,214.87,0.16,1.69,0.21,0.25,0.39,0.54,-175.02,3.8,6.47,0.92,0.4,0.16,0.07,1.09,0.38,-113.62,46.77,61.0,1.18,1.69,1.09,0.86,1.02,0.81
0.82,-113.03,67.51,177.31,-0.03,1.05,0.03,0.7,0.33,0.79,-106.79,48.76,214.86,-0.07,1.68,0.1,0.26,0.4,0.6,-174.93,3.33,7.71,1.07,0.6,0.14,0.1,1.04,0.06,-112.22,48.94,63.32,1.3,1.88,1.41,0.71,1.07,0.86
0.83,-112.98,68.74,177.35,0.05,1.03,0.19,0.56,0.06,0.78,-106.54,50.59,214.73,0.2,1.79,-0.08,0.18,0.3,0.68,-174.99,3.01,8.75,0.94,0.46,0.17,0.2,0.79,0.39,-110.69,51.27,65.83,1.21,1.67,1.29,0.45,0.79,0.79
0.84,-113.36,69.7,177.18,-0.17,0.93,0.02,0.54,0.3,0.56,-105.94,52.81,214.37,0.18,1.71,-0.16,0.33,0.42,0.64,-174.77,2.71,10.3,1.15,0.57,0.15,0.02,0.77,0.42,-109.18,53.71,68.38,1.16,1.87,1.33,0.58,0.95,0.77
0.85,-113.29,70.75,176.99,0.06,0.83,0.03,0.48,0.21,0.68,-105.55,54.75,214.29,0.08,1.92,-0.06,0.35,0.36,0.69,-174.63,2.53,11.8,1.31,0.71,-0.05,0.18,0.91,0.25,-107.56,55.76,71.22,1.13,2.05,1.43,0.55,1.02,0.87
0.86,-113.34,71.6,177.32,0.32,0.79,-0.07,0.5,0.2,0.55,-105.01,56.75,213.89,0.05,1.97,0.02,0.34,0.4,0.68,-174.67,2.51,13.49,1.66,0.85,0.23,0.24,0.76,0.27,-106.05,57.9,73.91,1.13,1.84,1.3,0.88,0.88,0.87
0.87,-113.45,72.73,177.04,0.19,0.79,0.04,0.43,0.27,0.68,-104.98,58.69,213.77,0.21,1.88,0.13,0.35,0.28,0.74,-174.71,2.8,15.6,1.55,0.88,0.31,0.17,0.69,0.48,-104.11,60.08,77.2,1.13,2.05,1.28,0.78,0.92,0.94
0.88,-113.71,73.58,177.13,0.25,0.62,0.19,0.43,0.44,0.63,-104.88,60.55,213.7,0.24,1.72,0.19,0.49,0.3,0.54,-174.49,2.85,17.32,1.84,0.96,0.3,0.11,0.63,0.55,-102.15,61.85,80.62,1.05,1.95,1.53,0.75,0.86,0.72
0.89,-113.52,74.49,177.23,0.19,0.82,-0.02,0.38,0.51,0.61,-104.48,62.34,213.19,0.19,1.93,0.16,0.57,0.2,0.56,-174.5,3.61,19.66,1.81,1.11,0.31,0.31,0.83,0.49,-100.5,63.17,84.11,0.85,1.86,1.35,0.84,1.05,0.85
0.9,-113.58,75.3,176.92,0.08,0.56,0.0,0.49,0.24,0.48,-104.34,64.21,213.02,0.09,1.71,0.06,0.76,0.19,0.5,-174.27,4.23,21.7,1.99,1.02,0.19,0.12,0.74,0.39,-98.5,64.64,88.16,0.92,1.94,1.28,0.97,0.79,0.99
0.91,-113.42,75.53,176.89,0.24,0.72,0.03,0.57,0.24,0.52,-104.27,65.12,212.74,0.28,1.84,0.15,0.89,0.43,0.43,-174.53,4.76,22.94,1.88,1.02,0.24,0.35,0.77,0.58,-97.57,65.23,90.07,1.06,1.7,1.44,0.88,0.89,0.92
0.92,-113.4,75.92,177.08,0.1,0.67,0.05,0.35,0.33,0.43,-104.17,66.11,212.37,0.33,1.6,0.09,0.9,0.24,0.61,-174.42,4.96,24.19,1.9,1.17,0.06,0.4,0.75,0.4,-96.72,65.38,92.06,0.66,1.98,1.27,1.19,0.97,0.82
0.93,-113.35,76.47,177.09,0.05,0.73,-0.13,0.56,0.33,0.47,-104.05,68.04,211.87,0.24,1.59,0.04,0.88,0.17,0.34,-174.64,6.06,26.68,2.16,1.11,0.13,0.24,0.62,0.44,-95.14,66.31,96.12,0.69,1.83,1.38,1.17,0.86,1.05
0.94,-113.1,77.3,177.31,0.15,0.69,-0.12,0.55,0.42,0.34,-103.84,69.59,211.25,0.11,1.52,0.05,0.79,0.26,0.27,-174.3,7.22,28.92,2.12,1.38,0.32,0.39,0.69,0.39,-93.22,66.6,100.52,0.76,1.7,0.98,1.44,0.96,1.04
0.95,-113.03,77.84,177.61,0.19,0.46,0.12,0.59,0.37,0.47,-104.09,71.33,210.73,0.32,1.64,0.09,0.98,0.25,0.38,-174.46,8.47,31.86,2.44,1.19,0.08,0.36,0.71,0.35,-91.7,66.78,104.74,0.7,1.76,1.21,1.37,0.93,1.22
0.96,-112.97,78.27,177.75,0.2,0.37,0.16,0.58,0.37,0.39,-103.95,73.01,209.76,0.25,1.61,0.23,1.17,0.24,0.44,-174.86,9.71,34.63,2.35,1.19,0.18,0.45,0.6,0.51,-90.37,66.53,108.92,0.71,1.53,0.96,1.54,0.93,1.37
0.97,-112.74,78.61,177.93,0.13,0.28,-0.08,0.74,0.49,0.4,-103.77,74.51,209.08,0.15,1.49,0.08,0.96,0.39,0.37,-174.74,11.01,37.56,2.48,1.23,-0.04,0.4,0.4,0.28,-88.84,66.35,113.17,0.36,1.46,0.91,1.58,1.07,1.43
0.98,-112.96,79.06,178.08,0.26,0.32,0.1,0.72,0.29,0.3,-103.73,76.0,208.34,0.05,1.52,0.1,1.33,0.45,0.35,-174.7,12.29,40.64,2.54,1.27,0.17,0.68,0.73,0.2,-87.89,65.78,117.24,0.47,1.27,1.08,1.65,1.38,1.5
0.99,-112.79,79.52,178.06,0.14,0.5,-0.0,0.69,0.53,0.49,-103.61,77.52,207.38,0.16,1.48,0.1,1.15,0.29,0.44,-174.74,13.46,43.54,2.38,1.32,0.32,0.68,0.51,0.26,-86.85,65.34,120.76,0.44,1.2,0.93,1.83,1.11,1.5
1.0,-112.77,79.78,178.3,0.17,0.32,0.17,0.78,0.49,0.49,-103.73,78.72,206.64,0.17,1.22,0.01,1.07,0.48,0.34,-174.51,14.94,46.74,2.61,1.39,0.13,0.86,0.58,0.26,-86.1,64.43,124.11,0.25,0.99,0.95,1.79,1.42,1.82
1.01,-112.86,80.3,178.28,0.23,0.44,0.14,0.69,0.44,0.42,-103.72,80.07,205.8,0.11,0.89,-0.12,0.97,0.48,0.57,-174.73,16.09,49.97,2.64,1.41,0.45,1.05,0.75,0.57,-85.46,63.92,127.2,0.28,0.84,0.69,1.95,1.37,1.58
1.02,-112.73,80.56,178.08,0.06,0.46,0.05,0.82,0.63,0.69,-103.63,81.15,204.98,0.16,0.99,0.15,1.05,0.51,0.58,-174.49,17.4,53.03,2.86,1.18,0.37,0.95,0.81,0.45,-85.09,62.94,129.84,0.3,0.83,0.69,2.11,1.45,1.82
1.03,-113.16,80.88,178.08,0.09,0.29,0.12,0.75,0.49,0.46,-103.84,82.0,204.55,0.02,0.95,-0.09,0.95,0.61,0.66,-174.39,18.47,56.21,2.76,0.98,0.42,1.05,0.64,0.36,-84.74,62.6,131.84,0.13,0.54,0.73,2.15,1.52,1.92
1.04,-113.2,80.91,177.85,0.29,0.07,0.32,0.72,0.66,0.62,-103.83,82.49,204.2,0.25,0.81,0.15,0.79,0.6,0.64,-174.15,19.28,57.67,2.56,1.0,0.36,0.92,0.83,0.6,-84.69,61.99,132.86,0.29,0.62,0.46,2.27,1.51,1.57
1.05,-113.34,81.0,177.53,0.2,0.05,0.17,0.58,0.62,0.36,-103.97,83.06,203.93,0.11,0.71,0.02,0.79,0.51,0.51,-173.98,19.8,59.3,2.62,1.02,0.38,1.27,0.82,0.62,-84.41,62.12,133.59,0.21,0.51,0.3,2.17,1.84,1.49
1.06,-113.6,81.17,177.06,0.09,0.36,0.28,0.61,0.83,0.73,-104.18,83.83,203.57,0.2,0.69,-0.05,0.72,0.56,0.43,-173.63,20.97,62.53,2.55,1.02,0.47,1.07,1.0,0.65,-84.51,61.47,134.72,0.22,0.5,0.37,2.39,1.71,1.38
1.07,-113.71,81.17,176.6,0.13,0.2,0.13,0.64,0.65,0.42,-104.33,84.7,203.33,0.14,0.63,0.21,0.58,0.54,0.59,-172.88,22.09,65.7,2.55,1.02,0.51,1.23,1.06,0.98,-84.58,61.24,135.84,0.22,0.39,0.34,2.48,1.58,1.53
1.08,-114.11,81.4,175.85,0.13,0.15,0.07,0.47,0.7,0.39,-104.49,85.16,203.1,0.14,0.42,0.12,0.59,0.62,0.54,-172.13,22.95,68.57,2.4,0.97,0.57,1.25,1.05,0.64,-84.83,61.07,136.25,0.21,0.37,0.58,2.42,1.74,1.22
1.09,-114.2,81.34,175.37,0.08,-0.07,0.22,0.53,0.78,0.49,-104.92,85.52,203.14,0.2,0.52,0.01,0.54,0.73,0.55,-171.38,24.02,71.64,2.33,0.94,0.65,1.49,1.24,0.89,-84.9,60.81,136.58,0.26,0.27,0.29,2.85,1.49,1.06
1.1,-114.27,81.53,174.72,0.21,0.15,0.07,0.37,0.76,0.41,-105.05,86.14,202.99,0.09,0.19,-0.02,0.58,0.65,0.44,-170.44,25.19,74.41,2.35,1.08,0.66,1.4,1.29,0.82,-85.38,61.08,136.57,0.23,0.09,0.29,2.54,1.54,1.09
1.11,-114.26,81.37,174.21,0.37,0.25,0.03,0.4,0.87,0.39,-105.22,86.39,203.1,0.29,0.28,0.26,0.56,0.69,0.55,-169.79,26.09,77.18,2.24,1.0,0.62,1.38,1.6,0.99,-85.65,61.19,136.27,0.14,0.03,0.36,2.39,1.38,0.82
1.12,-114.12,81.29,173.85,0.33,0.02,0.15,0.47,0.79,0.52,-105.27,86.6,203.08,0.03,0.14,0.17,0.47,0.56,0.51,-168.65,27.35,79.68,2.01,0.65,0.64,1.41,1.56,1.07,-85.96,61.45,135.98,0.28,-0.08,0.26,2.63,1.35,0.67
1.13,-113.87,80.97,173.71,0.44,-0.06,0.13,0.49,0.81,0.51,-105.66,86.9,203.32,0.1,0.13,0.08,0.47,0.62,0.78,-167.24,28.14,82.42,2.17,0.61,0.89,1.17,1.66,1.08,-86.41,61.98,135.33,0.15,0.02,0.11,2.76,1.08,0.62
1.14,-113.82,81.01,173.44,0.35,0.06,0.06,0.6,0.63,0.42,-105.7,87.04,203.43,0.31,0.09,0.04,0.77,0.63,0.62,-166.1,29.15,84.65,1.86,0.65,0.88,1.09,1.57,0.99,-86.71,62.25,134.86,0.01,0.09,0.26,2.55,1.04,0.49
1.15,-113.4,80.72,173.61,0.42,0.3,0.19,0.65,0.88,0.37,-105.93,87.11,203.49,0.1,0.2,0.19,0.42,0.68,0.67,-164.83,30.05,86.99,1.74,0.49,0.72,1.09,1.83,1.01,-87.11,62.87,133.96,0.06,0.25,0.13,2.44,0.71,0.6
1.16,-113.09,80.45,173.88,0.35,0.32,0.23,0.56,0.77,0.42,-106.07,87.15,203.42,0.22,0.25,0.05,0.58,0.8,0.55,-163.87,30.77,89.03,1.41,0.33,0.64,1.26,2.04,0.68,-87.48,63.24,133.5,0.04,0.2,0.06,2.21,0.71,0.56
1.17,-112.63,80.17,174.15,0.38,0.34,0.12,0.62,0.8,0.33,-106.01,87.07,203.64,0.39,0.24,0.17,0.53,0.62,0.65,-163.12,31.24,90.08,1.44,0.33,0.7,1.06,2.07,0.82,-87.66,63.43,132.99,0.22,0.17,0.22,1.99,0.59,0.73
1.18,-112.34,80.14,174.39,0.52,0.28,0.04,0.46,0.69,0.43,-106.09,86.85,203.71,0.15,0.27,0.14,0.34,0.72,0.57,-162.46,31.47,90.89,1.42,0.48,0.6,0.93,1.99,0.78,-87.71,63.92,132.88,0.23,0.29,0.3,2.44,0.74,0.5
1.19,-111.7,79.69,175.09,0.52,0.39,0.06,0.66,0.63,0.42,-106.12,86.93,203.95,0.11,0.2,0.1,0.59,0.6,0.64,-161.14,32.3,92.62,1.48,0.17,0.48,0.74,2.09,0.92,-87.93,64.34,132.14,0.01,0.1,0.17,2.18,0.74,0.78
1.2,-111.09,79.58,175.67,0.42,0.34,0.02,0.56,0.59,0.4,-106.21,86.43,203.9,0.3,0.06,0.24,0.51,0.64,0.33,-160.08,32.93,94.37,1.04,0.11,0.65,1.04,1.91,0.77,-88.05,64.69,131.54,-0.01,0.31,0.04,1.95,0.34,0.77
1.21,-110.25,79.05,176.11,0.29,0.22,0.01,0.51,0.77,0.27,-106.09,86.21,203.9,0.27,0.04,0.32,0.64,0.67,0.4,-158.8,33.6,95.94,1.01,0.17,0.63,0.74,1.81,0.59,-88.0,65.08,131.31,0.26,0.41,0.21,1.77,0.43,1.1
1.22,-109.73,78.73,177.19,0.55,0.14,0.15,0.64,0.65,0.31,-105.91,85.73,204.04,0.26,0.31,0.18,0.6,0.74,0.44,-157.9,33.96,97.26,0.89,-0.04,0.54,0.63,1.82,0.54,-88.23,65.42,130.84,0.23,0.41,0.11,1.91,0.66,1.35
1.23,-109.13,78.45,177.91,0.36,0.35,-0.14,0.67,0.82,0.47,-105.94,85.2,204.22,0.14,0.16,0.03,0.61,0.6,0.53,-156.97,34.47,98.13,0.73,0.03,0.3,0.58,1.71,0.63,-87.59,66.04,130.65,0.02,0.2,0.22,1.5,0.6,1.52
1.24,-108.32,78.04,178.5,0.3,0.39,-0.05,0.68,0.78,0.24,-105.97,85.0,204.24,0.15,0.34,0.07,0.56,0.51,0.54,-156.0,34.82,99.18,0.71,0.15,0.6,0.44,1.56,0.34,-87.44,66.25,131.12,0.47,0.24,0.21,1.8,0.86,1.8
1.25,-107.82,77.76,179.05,0.29,0.46,0.07,0.4,0.65,0.33,-105.6,84.49,204.42,0.34,0.38,0.05,0.48,0.4,0.65,-155.04,35.29,100.04,0.69,0.07,0.42,0.57,1.45,0.49,-86.91,66.13,131.06,0.34,0.42,0.36,1.88,0.98,1.97
1.26,-107.08,77.3,179.59,0.37,0.36,0.08,0.35,0.59,0.37,-105.48,84.06,204.59,0.32,0.18,-0.05,0.63,0.69,0.5,-154.18,35.52,100.51,0.63,0.18,0.45,0.51,1.3,0.71,-86.45,66.31,131.41,0.33,0.23,0.18,1.66,1.28,2.06
1.27,-106.59,77.19,179.57,0.65,0.23,0.09,0.42,0.78,0.5,-105.36,83.65,204.94,0.18,0.28,-0.1,0.62,0.44,0.86,-153.33,35.95,101.21,0.31,0.12,0.47,0.33,1.13,0.89,-85.6,66.42,132.37,0.38,0.48,0.36,1.59,1.6,2.18
1.28,-106.2,76.91,179.61,0.43,0.32,0.23,0.59,0.61,0.29,-105.25,83.33,205.13,0.01,0.37,0.15,0.52,0.61,0.92,-152.78,36.34,101.46,0.35,0.41,0.46,0.55,0.94,0.91,-84.82,66.33,133.07,0.5,0.4,0.35,1.62,2.04,2.27
1.29,-105.52,76.53,179.83,0.28,0.17,-0.25,0.4,0.53,0.54,-104.98,82.94,205.82,0.28,0.32,0.09,0.67,0.53,0.78,-151.8,36.57,101.82,0.38,0.07,0.28,0.5,1.07,1.06,-84.13,66.32,133.93,0.52,0.3,0.35,2.0,2.17,2.28
1.3,-105.16,76.41,179.73,0.41,0.3,-0.08,0.14,0.41,0.5,-104.69,82.64,205.89,0.24,0.36,0.09,0.72,0.56,0.9,-151.42,36.92,102.14,0.53,0.2,0.34,0.48,0.97,1.03,-83.76,66.38,134.45,0.42,0.48,0.69,2.01,2.65,2.46
1.31,-104.94,76.4,179.7,0.36,0.13,0.12,0.28,0.33,0.48,-104.79,82.46,206.22,0.44,0.27,0.01,0.71,0.33,0.85,-151.05,36.96,102.02,0.32,0.23,0.37,0.58,0.96,1.19,-83.25,66.28,134.9,0.52,0.24,0.45,1.86,2.69,2.24
1.32,-104.49,76.1,179.25,0.33,0.11,0.17,0.36,0.56,0.6,-104.41,81.98,206.51,0.08,0.45,0.16,0.56,0.33,1.14,-149.98,37.33,102.33,0.29,0.37,0.47,0.67,1.19,0.94,-82.68,66.27,135.74,0.64,0.45,0.45,1.94,3.03,2.51
1.33,-104.05,76.07,179.19,0.39,0.13,0.11,0.29,0.52,0.65,-104.34,81.85,207.02,0.27,0.24,-0.15,0.59,0.49,1.0,-149.45,37.76,102.57,0.28,0.3,0.37,0.83,1.15,1.28,-81.97,66.37,136.81,0.59,0.44,0.49,2.27,3.15,2.6
1.34,-103.39,75.93,178.55,0.16,0.09,-0.08,0.21,0.49,0.67,-103.77,81.68,207.3,0.12,0.05,-0.01,0.53,0.55,1.21,-148.54,38.5,102.7,0.19,0.09,0.22,0.96,1.18,1.23,-81.36,66.55,137.62,0.63,0.45,0.53,2.27,3.33,2.31
1.35,-103.02,75.72,177.97,0.33,0.42,0.03,0.25,0.35,0.74,-103.51,81.43,207.96,0.19,0.15,0.07,0.62,0.36,1.12,-147.78,38.92,102.89,0.33,0.43,0.29,1.1,1.19,1.47,-80.97,66.24,138.4,0.41,0.21,0.49,2.23,3.63,2.21
1.36,-102.57,75.75,177.4,0.22,0.06,0.22,0.34,0.44,0.75,-103.17,81.44,208.19,0.15,0.22,0.1,0.28,0.57,0.93,-146.8,39.28,103.06,0.16,0.34,0.35,1.34,1.22,1.62,-80.63,66.59,138.94,0.54,0.43,0.52,2.32,3.63,2.16
1.37,-102.38,75.43,176.92,0.24,0.02,0.23,0.31,0.19,0.86,-103.0,81.39,208.39,0.17,0.29,0.13,0.4,0.57,1.18,-145.97,40.06,103.16,0.28,0.35,0.19,1.25,1.14,1.59,-80.45,66.7,139.36,0.4,0.35,0.59,2.33,3.59,2.15
1.38,-102.13,75.53,176.49,0.26,0.07,0.12,0.26,0.17,1.06,-102.45,81.25,208.3,0.12,0.04,0.16,0.32,0.4,0.87,-145.36,40.21,103.38,0.41,0.34,0.35,1.42,1.29,1.38,-80.31,66.86,139.48,0.5,0.26,0.32,2.49,3.54,2.02
1.39,-101.62,75.31,175.83,0.18,0.15,0.09,0.28,0.37,0.91,-102.2,81.29,208.33,0.16,0.33,0.13,0.29,0.74,0.95,-144.64,40.75,103.6,0.13,0.35,0.4,1.74,1.54,1.35,-80.68,66.79,139.33,0.41,0.46,0.53,2.3,3.32,2.06
1.4,-101.27,75.22,175.25,-0.01,-0.1,-0.12,0.18,0.37,1.01,-101.84,81.14,208.3,0.26,0.32,0.23,0.24,0.43,0.77,-144.08,40.97,103.88,0.16,0.26,0.36,1.59,1.83,1.37,-80.92,67.31,139.19,0.39,0.37,0.28,2.24,3.31,1.75
1.41,-100.93,75.0,174.9,0.22,0.05,0.01,0.09,0.33,0.96,-101.85,81.04,208.14,0.14,0.14,0.06,0.22,0.44,0.63,-143.85,41.18,104.06,0.29,0.23,0.21,1.63,1.65,1.45,-81.45,67.82,138.59,0.26,0.25,0.34,1.96,2.85,1.72
1.42,-100.62,75.05,174.42,0.22,0.07,0.06,0.15,0.36,0.83,-101.65,81.15,207.84,0.3,0.32,-0.06,0.37,0.47,0.72,-143.27,41.45,104.29,0.22,0.3,0.34,1.67,1.88,1.22,-81.9,68.0,138.0,0.53,0.26,0.38,2.16,2.49,1.59
1.43,-100.86,74.94,174.43,0.16,0.17,0.18,0.32,0.27,1.02,-101.24,81.06,207.76,0.12,0.07,0.01,0.16,0.53,0.51,-143.23,41.59,104.3,0.29,0.22,0.32,1.66,1.81,1.3,-82.32,68.13,137.68,0.08,0.21,0.42,1.9,2.34,1.62
1.44,-100.66,74.8,174.32,0.06,0.13,0.2,0.45,0.35,0.86,-101.39,81.03,207.62,0.25,0.17,0.16,0.14,0.33,0.76,-142.99,41.66,104.53,0.3,0.35,0.39,1.44,1.9,1.23,-82.68,67.98,137.15,0.35,0.18,0.38,1.76,2.08,1.51
1.45,-100.52,74.68,174.12,0.1,0.12,0.11,0.11,0.36,1.03,-101.15,80.86,207.22,0.25,0.06,-0.02,0.02,0.37,0.37,-143.05,41.68,104.76,0.3,-0.03,0.32,1.39,1.76,1.22,-83.31,68.63,136.44,0.08,0.39,0.38,1.44,1.89,1.69
1.46,-100.46,74.58,173.97,-0.1,-0.0,0.15,0.22,0.37,0.75,-101.19,80.82,206.87,0.28,0.1,-0.01,0.1,0.42,0.66,-142.98,41.64,104.88,0.24,0.13,0.25,1.55,1.74,1.07,-84.09,68.74,135.75,0.31,0.16,0.34,1.21,1.41,1.31
1.47,-100.43,74.52,173.96,0.05,0.26,0.14,0.35,0.3,0.73,-100.96,80.5,206.73,0.24,0.16,0.18,0.19,0.19,0.24,-143.31,41.52,105.13,0.17,0.16,0.14,1.14,1.58,0.81,-84.59,68.94,134.82,0.24,0.21,0.31,0.98,1.27,1.42
1.48,-100.54,74.11,174.03,0.04,0.29,0.05,0.31,0.29,0.67,-101.19,80.43,206.51,0.09,0.3,0.05,0.08,0.24,0.4,-143.21,41.48,105.13,0.04,-0.04,0.14,0.96,1.32,0.9,-85.24,69.08,133.83,0.05,0.07,0.21,0.87,0.99,1.37
1.49,-100.53,73.9,174.29,0.03,0.32,-0.0,0.19,0.21,0.83,-101.08,80.32,206.37,0.13,0.19,0.16,0.13,0.24,0.45,-143.41,41.14,105.28,0.08,0.24,0.26,0.84,1.44,1.07,-85.77,69.16,133.04,0.05,0.08,0.16,0.48,0.96,1.33
1.5,-100.48,73.81,174.1,-0.05,0.18,0.01,0.02,0.38,0.49,-101.18,80.07,206.15,0.05,0.16,0.15,0.14,0.19,0.46,-144.03,40.92,105.13,-0.03,0.14,0.31,0.63,1.22,1.11,-86.17,69.27,132.47,0.1,0.09,0.16,0.43,0.78,1.1
1.51,-100.98,73.58,174.58,0.15,0.19,-0.03,0.19,0.16,0.53,-101.2,80.01,205.96,0.12,0.22,-0.08,0.28,0.2,0.55,-144.07,40.85,104.99,-0.0,0.08,0.29,0.78,0.91,1.07,-86.46,69.36,132.17,0.22,0.08,0.28,0.36,0.63,1.32
1.52,-100.8,73.57,174.75,0.08,0.13,-0.17,0.15,0.17,0.26,-101.44,79.81,206.0,0.08,0.09,-0.01,0.49,0.26,0.55,-144.36,40.6,104.83,0.19,0.08,0.16,0.34,0.81,0.89,-86.7,69.55,132.1,0.17,0.09,0.23,0.4,0.47,1.26
1.53,-101.09,73.45,174.8,0.08,-0.01,-0.06,0.17,0.26,0.41,-101.64,79.38,205.89,0.12,0.05,0.01,0.1,0.11,0.46,-144.76,40.55,104.83,-0.07,0.03,0.35,0.6,0.89,1.05,-86.57,69.77,132.27,-0.08,0.08,0.44,0.45,0.64,1.4
1.54,-101.29,73.25,175.16,0.01,0.07,0.13,0.12,0.15,0.45,-101.81,79.35,205.71,0.05,0.22,-0.09,0.33,0.0,0.44,-145.11,40.38,104.65,0.09,0.13,0.31,0.27,0.6,1.2,-86.47,69.47,132.75,0.36,-0.21,0.35,0.71,0.42,1.64
1.55,-101.28,73.2,175.43,0.42,0.29,-0.07,0.17,0.16,0.42,-101.89,79.36,205.75,0.17,0.11,-0.08,0.22,0.23,0.66,-145.4,40.37,104.29,0.05,0.01,0.24,0.41,0.57,1.28,-86.48,69.46,133.21,0.13,0.13,0.21,0.87,0.47,1.85
1.56,-101.55,72.99,175.59,0.2,0.12,-0.14,0.29,0.12,0.24,-101.92,79.4,205.67,0.12,0.01,0.15,0.13,-0.04,0.53,-145.55,40.52,104.0,0.15,-0.1,0.35,0.37,0.64,1.22,-86.12,69.37,133.87,0.2,0.18,0.56,0.94,0.39,1.58
1.57,-101.42,73.27,175.65,0.11,0.1,-0.01,0.15,0.16,0.46,-102.15,79.33,205.49,0.13,0.1,0.14,0.3,0.06,0.68,-145.97,40.64,103.92,0.12,-0.0,0.32,0.31,0.57,1.23,-85.7,69.56,134.5,0.16,0.12,0.44,1.22,0.43,1.81
1.58,-101.84,73.04,175.85,0.1,-0.01,0.14,0.03,0.27,0.25,-101.98,79.23,205.5,0.09,0.04,0.13,0.14,-0.06,0.51,-146.27,40.79,103.4,0.17,-0.12,0.23,0.57,0.61,1.45,-85.28,69.32,135.58,0.29,-0.07,0.41,1.4,0.39,2.17
1.59,-102.0,73.18,176.31,-0.05,-0.04,0.26,0.26,0.1,0.3,-102.19,79.21,205.24,0.16,0.02,0.18,0.2,-0.05,0.55,-146.43,40.83,103.2,0.26,0.16,0.14,0.46,0.77,1.61,-84.37,69.1,136.89,0.25,0.17,0.43,1.68,0.28,2.44
1.6,-102.19,73.28,176.49,0.05,-0.03,-0.05,0.13,0.39,0.51,-102.29,79.2,204.76,0.19,0.04,0.15,0.21,0.29,0.6,-146.92,40.88,102.79,0.32,0.04,0.46,0.78,0.93,1.66,-83.92,69.2,138.63,0.23,0.13,0.2,1.92,0.54,2.59
1.61,-102.41,72.85,176.74,0.21,0.2,-0.0,0.23,0.25,0.2,-102.34,79.38,204.41,0.01,0.19,0.12,-0.05,0.32,0.64,-147.43,41.15,102.38,0.38,0.09,0.2,0.93,1.16,1.71,-82.8,68.78,140.39,0.24,0.46,0.24,2.06,0.48,3.14
1.62,-102.69,73.22,177.09,0.11,0.17,0.1,0.11,0.16,0.44,-102.43,79.43,204.07,0.08,0.29,0.1,0.28,0.2,0.68,-147.92,41.39,101.79,0.54,0.3,0.06,1.08,1.44,1.81,-81.95,68.76,142.21,0.45,0.33,0.52,2.49,0.49,3.39
1.63,-102.89,73.3,177.23,0.21,0.03,0.11,0.31,0.03,0.51,-102.3,79.49,203.97,0.19,0.08,-0.02,0.21,0.24,0.59,-148.27,41.96,101.25,0.61,0.21,0.14,1.33,1.84,1.92,-81.05,68.71,144.12,0.27,0.24,0.24,2.78,0.41,3.68
1.64,-102.81,73.33,177.44,0.22,0.12,-0.05,0.04,0.36,0.52,-102.54,79.55,203.53,0.1,-0.04,-0.15,0.13,0.38,0.7,-148.81,42.27,101.03,0.92,-0.01,0.33,1.63,1.96,1.8,-79.92,68.54,145.95,0.28,0.5,0.18,3.22,0.28,4.21
1.65,-103.11,73.69,177.74,0.17,0.22,0.16,0.35,0.02,0.55,-102.47,79.62,202.98,-0.16,-0.02,0.11,0.16,0.63,0.61,-149.22,42.49,100.43,0.87,0.28,0.2,1.96,2.41,1.82,-78.83,68.05,147.8,0.37,0.56,0.09,3.41,0.11,4.58
