0.01,128.81,45.69,150.00,6.63,3.58,5.90,0.23,0.38,0.02,24.37,18.19,45.00,0.40,0.17,0.00,0.19,0.56,0.70,0.40
0.02,100.56,82.44,101.00,9.83,1.10,0.42,0.01,0.02,0.02,50.50,2.37,18.50,0.11,0.15,0.17,0.45,0.61,0.38,0.54
0.03,100.56,82.44,101.38,9.61,1.02,0.61,0.03,0.00,0.04,50.50,2.37,18.50,0.10,0.23,0.35,0.45,0.61,0.38,0.54
0.04,100.56,82.50,101.75,9.63,1.09,0.50,0.03,0.03,0.06,50.06,1.69,17.69,0.03,0.10,0.19,0.45,0.60,0.38,0.54
0.05,100.62,82.56,102.25,9.84,1.14,0.46,0.00,0.04,0.03,50.06,1.69,17.69,0.10,0.05,0.27,0.45,0.60,0.38,0.54
0.06,100.69,82.62,102.81,9.74,1.16,0.55,0.01,0.04,0.02,51.19,1.25,17.69,0.00,0.06,0.23,0.44,0.61,0.38,0.54
0.07,100.69,82.62,103.44,9.68,1.13,0.55,0.02,0.05,0.02,51.19,1.25,17.69,0.02,0.07,0.27,0.44,0.61,0.39,0.54
0.08,100.75,82.62,104.06,9.72,1.16,0.57,0.03,0.03,0.03,51.19,1.25,17.69,0.04,0.04,0.25,0.44,0.61,0.39,0.54
0.09,100.81,82.62,104.56,9.68,1.19,0.55,0.01,0.04,0.03,51.19,0.88,19.25,0.04,0.01,0.23,0.44,0.61,0.39,0.54
0.10,100.81,82.69,105.25,9.63,1.20,0.58,0.00,0.06,0.03,51.19,0.88,19.25,0.09,0.00,0.25,0.44,0.61,0.39,0.54
0.11,100.87,82.69,105.94,9.65,1.18,0.56,0.01,0.05,0.03,51.19,0.88,19.25,0.07,0.01,0.22,0.44,0.61,0.39,0.54
0.12,100.87,82.69,106.56,9.74,1.13,0.69,0.02,0.03,0.02,50.88,1.25,17.69,0.01,0.06,0.34,0.44,0.61,0.39,0.54
0.13,100.94,82.69,106.69,9.76,1.15,0.65,0.02,0.00,0.04,50.88,1.25,17.69,0.03,0.02,0.29,0.44,0.61,0.39,0.54
0.14,100.94,82.75,106.81,9.76,1.25,0.43,0.03,0.03,0.04,50.88,0.50,19.25,0.03,0.07,0.08,0.44,0.61,0.39,0.54
0.15,100.94,82.75,106.75,9.83,1.19,0.46,0.03,0.00,0.03,50.88,0.50,19.25,0.10,0.02,0.11,0.44,0.61,0.39,0.54
0.16,100.94,82.81,106.87,9.78,1.11,0.52,0.04,0.02,0.03,50.88,0.50,19.25,0.05,0.05,0.16,0.44,0.61,0.39,0.54
0.17,100.94,82.81,107.12,9.79,1.13,0.46,0.02,0.01,0.03,51.56,0.88,19.25,0.02,0.01,0.09,0.44,0.61,0.39,0.54
0.18,100.94,82.88,107.19,9.73,1.12,0.44,0.01,0.01,0.02,51.56,0.88,19.25,0.00,0.03,0.08,0.44,0.61,0.39,0.54
0.19,101.00,82.88,107.44,9.68,1.10,0.47,0.03,0.02,0.01,51.56,0.88,19.25,0.05,0.05,0.11,0.44,0.61,0.39,0.54
0.20,101.06,82.88,107.94,9.70,1.04,0.64,0.05,0.05,0.01,50.06,0.50,17.25,0.02,0.07,0.27,0.44,0.61,0.39,0.54
0.21,101.12,82.88,108.44,9.71,1.12,0.58,0.04,0.03,0.00,50.06,0.50,17.25,0.02,0.05,0.11,0.44,0.61,0.39,0.54
0.22,101.12,82.81,108.69,9.72,1.23,0.51,0.03,0.02,0.00,51.19,0.88,17.25,0.00,0.07,0.12,0.44,0.61,0.39,0.54
0.23,101.19,82.81,109.06,9.78,1.15,0.50,0.03,0.05,0.01,51.19,0.88,17.25,0.10,0.06,0.05,0.44,0.61,0.39,0.54
0.24,101.19,82.81,109.56,9.86,1.08,0.46,0.01,0.06,0.00,51.19,0.88,17.25,0.13,0.06,0.05,0.44,0.61,0.39,0.53
0.25,101.12,82.75,110.00,9.87,1.15,0.54,0.02,0.03,0.00,50.06,1.25,18.50,0.14,0.00,0.12,0.44,0.61,0.39,0.53
0.26,101.12,82.75,110.00,9.76,1.14,0.50,0.02,0.01,0.01,50.06,1.25,18.50,0.03,0.00,0.08,0.44,0.61,0.39,0.53
0.27,101.19,82.81,110.00,9.77,1.16,0.49,0.02,0.01,0.00,50.50,1.25,18.50,0.04,0.01,0.07,0.44,0.61,0.39,0.53
0.28,101.12,82.81,110.06,9.87,1.16,0.58,0.03,0.00,0.01,50.50,1.25,18.50,0.14,0.01,0.16,0.44,0.61,0.39,0.53
0.29,101.19,82.75,110.12,9.75,1.20,0.52,0.02,0.01,0.00,50.50,1.25,18.50,0.02,0.05,0.10,0.44,0.61,0.39,0.53
0.30,101.31,82.75,110.06,9.68,1.20,0.46,0.01,0.00,0.00,50.75,0.19,18.06,0.03,0.05,0.04,0.44,0.61,0.39,0.54
0.31,101.31,82.75,110.19,9.72,1.21,0.50,0.01,0.03,0.00,50.75,0.19,18.06,0.00,0.05,0.07,0.44,0.61,0.39,0.54
0.32,101.31,82.75,110.50,9.81,1.21,0.55,0.01,0.04,0.00,50.88,0.88,18.06,0.09,0.06,0.14,0.44,0.61,0.39,0.53
0.33,101.31,82.75,110.81,9.79,1.20,0.57,0.01,0.02,0.01,50.88,0.88,18.06,0.01,0.06,0.14,0.44,0.61,0.39,0.53
0.34,101.31,82.75,110.88,9.73,1.17,0.61,0.02,0.01,0.01,50.88,0.88,18.06,0.01,0.01,0.14,0.44,0.61,0.39,0.53
0.35,101.38,82.69,110.94,9.73,1.11,0.56,0.01,0.00,0.01,50.50,0.50,18.50,0.00,0.05,0.13,0.44,0.61,0.39,0.53
0.36,101.38,82.69,111.00,9.68,1.15,0.64,0.01,0.00,0.00,50.50,0.50,18.50,0.03,0.00,0.19,0.44,0.61,0.39,0.53
0.37,101.38,82.69,111.06,9.69,1.13,0.55,0.00,0.00,0.00,50.50,0.50,18.50,0.01,0.03,0.03,0.44,0.61,0.39,0.53
0.38,101.31,82.69,111.37,9.84,1.19,0.32,0.04,0.08,0.01,50.50,0.88,19.25,0.15,0.00,0.14,0.44,0.61,0.39,0.53
0.40,101.44,82.62,112.37,9.64,1.15,0.75,0.03,0.01,0.02,50.50,0.56,20.06,0.14,0.03,0.06,0.44,0.61,0.39,0.53
0.41,101.44,82.62,111.88,9.56,1.13,0.44,0.01,0.00,0.00,50.50,0.56,20.06,0.07,0.01,0.16,0.44,0.61,0.39,0.53
0.43,101.44,82.62,112.56,9.68,1.13,0.70,0.03,0.02,0.02,50.88,1.25,19.25,0.06,0.09,0.11,0.44,0.61,0.39,0.53
0.44,101.44,82.56,112.75,9.57,1.12,0.57,0.02,0.03,0.01,50.88,1.25,19.25,0.15,0.00,0.09,0.44,0.61,0.39,0.53
0.45,101.38,82.56,113.06,9.63,1.20,0.49,0.02,0.05,0.01,50.06,0.50,18.87,0.06,0.04,0.13,0.44,0.61,0.39,0.53
0.46,101.38,82.50,113.88,9.76,1.16,0.70,0.00,0.10,0.01,50.06,0.50,18.87,0.00,0.03,0.13,0.44,0.61,0.39,0.53
0.47,101.38,82.44,114.69,9.64,1.09,0.60,0.02,0.12,0.02,50.06,0.50,18.87,0.07,0.07,0.06,0.44,0.61,0.39,0.53
0.48,101.31,82.37,115.69,9.75,1.24,0.59,0.02,0.13,0.01,50.88,1.25,17.69,0.03,0.06,0.03,0.43,0.61,0.39,0.53
0.49,101.31,82.31,116.75,9.89,1.30,0.71,0.00,0.13,0.01,50.88,1.25,17.69,0.17,0.13,0.12,0.43,0.61,0.39,0.53
0.50,101.31,82.25,117.62,9.70,1.18,0.70,0.01,0.12,0.01,50.06,0.88,18.87,0.01,0.01,0.09,0.43,0.61,0.39,0.53
0.51,101.31,82.19,118.00,9.64,1.05,0.59,0.00,0.10,0.00,50.06,0.88,18.87,0.07,0.11,0.03,0.43,0.62,0.39,0.53
0.52,101.31,82.12,118.81,9.45,1.40,1.12,0.05,0.09,0.00,50.06,0.88,18.87,0.26,0.23,0.47,0.43,0.62,0.39,0.53
0.53,101.38,82.12,119.37,9.11,1.48,1.05,0.08,0.02,0.01,50.06,0.50,19.69,0.97,0.40,0.49,0.43,0.62,0.39,0.53
0.54,101.44,82.00,120.00,9.81,1.36,0.23,0.15,0.32,0.06,50.06,0.50,19.69,0.10,0.19,0.47,0.43,0.62,0.39,0.53
0.56,101.62,81.31,125.75,10.14,0.79,0.70,0.22,0.54,0.07,50.50,0.19,19.69,0.31,0.39,0.25,0.43,0.62,0.39,0.52
0.57,101.81,81.00,127.75,8.53,0.81,1.70,0.33,0.30,0.10,50.50,0.19,19.69,1.69,0.34,1.05,0.42,0.63,0.39,0.52
0.58,102.12,80.62,130.31,7.81,1.01,1.48,0.30,0.59,0.07,49.38,0.19,20.50,1.85,0.20,0.45,0.42,0.63,0.39,0.52
0.59,102.25,79.94,134.81,7.99,1.01,1.84,0.23,0.98,0.00,49.38,0.19,20.50,1.57,0.21,0.70,0.42,0.64,0.39,0.52
0.60,102.31,79.00,140.00,7.91,0.99,1.80,0.07,1.26,0.07,49.38,0.19,20.50,1.71,0.20,0.37,0.41,0.64,0.40,0.51
0.61,102.12,77.81,145.19,7.55,1.04,1.47,0.03,1.40,0.14,48.25,0.50,22.87,2.03,0.12,0.21,0.40,0.65,0.40,0.50
0.62,102.00,76.50,149.75,7.30,0.86,1.69,0.04,1.58,0.14,48.25,0.50,22.87,2.23,0.28,0.28,0.40,0.66,0.41,0.49
0.63,101.81,74.87,153.81,6.93,0.93,1.79,0.01,1.79,0.14,48.25,0.56,26.06,2.53,0.19,0.49,0.39,0.66,0.42,0.48
0.64,101.75,74.00,155.56,6.34,0.86,1.97,0.03,1.88,0.12,48.25,0.56,26.06,3.03,0.23,0.65,0.38,0.67,0.43,0.47
0.65,101.50,72.06,158.69,5.75,0.55,2.19,0.11,2.16,0.10,48.25,0.56,26.06,3.51,0.53,0.80,0.37,0.68,0.44,0.46
0.66,101.06,69.75,161.31,5.50,0.63,2.46,0.11,2.29,0.09,45.75,0.19,29.25,3.54,0.04,0.91,0.37,0.69,0.44,0.45
0.67,100.56,67.12,163.56,5.62,1.20,2.83,0.01,2.54,0.08,45.75,0.19,29.25,3.49,0.13,0.55,0.36,0.70,0.45,0.43
0.68,100.19,64.44,165.44,5.09,1.05,3.42,0.07,2.57,0.06,41.37,1.25,32.88,4.15,0.40,0.83,0.35,0.71,0.46,0.41
0.69,100.00,61.56,167.06,4.37,0.60,3.64,0.26,2.70,0.01,41.37,1.25,32.88,4.30,0.43,0.89,0.33,0.72,0.47,0.40
0.70,99.94,58.50,168.44,4.22,0.48,4.18,0.38,2.98,0.11,41.37,1.25,32.88,3.18,0.45,0.71,0.32,0.73,0.47,0.38
0.72,99.75,51.81,170.75,6.11,0.85,6.74,0.43,2.97,0.13,37.00,0.19,37.75,2.44,0.31,0.77,0.28,0.75,0.49,0.34
0.73,99.94,48.50,171.81,4.87,0.79,6.20,0.55,3.09,0.08,37.00,0.19,37.75,2.47,0.13,0.22,0.27,0.76,0.49,0.32
0.75,114.06,41.63,173.56,6.39,0.86,7.52,0.06,2.79,0.19,30.88,0.56,44.25,0.12,0.27,1.60,0.23,0.78,0.51,0.27
0.76,113.69,38.63,174.06,5.49,0.34,8.61,0.07,2.66,0.16,23.69,2.37,48.19,0.22,0.26,0.38,0.22,0.79,0.52,0.25
0.77,113.56,35.50,174.50,6.43,0.56,6.21,0.17,3.05,0.01,23.69,2.37,48.19,1.66,0.13,1.81,0.20,0.80,0.52,0.23
0.78,113.44,32.19,174.87,7.01,0.77,8.22,0.09,2.94,0.01,23.69,2.37,48.19,1.79,0.04,0.03,0.18,0.80,0.53,0.21
0.79,113.25,29.31,175.12,5.62,0.52,10.47,0.04,2.42,0.08,17.06,2.75,50.69,0.23,0.03,2.78,0.17,0.81,0.53,0.19
0.80,113.06,27.19,175.38,3.97,1.56,11.64,0.18,1.96,0.13,17.06,2.75,50.69,0.26,0.62,2.21,0.16,0.81,0.54,0.18
0.81,112.81,24.87,175.75,4.71,0.96,9.96,0.17,2.22,0.16,10.06,3.06,53.50,1.46,0.22,0.27,0.15,0.81,0.54,0.16
0.82,112.62,22.13,176.00,5.88,1.01,10.15,0.06,2.47,0.10,10.06,3.06,53.50,2.09,0.43,1.28,0.13,0.82,0.54,0.14
0.83,112.50,19.81,176.06,5.15,1.31,10.91,0.05,1.93,0.02,10.06,3.06,53.50,1.81,0.67,1.71,0.12,0.82,0.55,0.13
0.84,112.31,18.12,176.06,4.54,1.94,11.99,0.02,1.42,0.04,5.00,2.75,52.69,1.48,1.31,2.70,0.12,0.82,0.55,0.11
0.85,112.19,16.56,176.12,4.15,0.91,12.47,0.04,1.54,0.07,5.00,2.75,52.69,1.40,0.37,3.19,0.11,0.82,0.55,0.10
0.87,112.00,13.13,176.44,3.78,0.53,11.90,0.18,1.32,0.12,0.56,2.37,53.06,1.50,0.32,2.48,0.09,0.82,0.55,0.08
0.88,112.12,11.94,176.69,3.52,1.42,11.87,0.20,1.06,0.08,0.56,2.37,53.06,1.49,0.87,2.30,0.08,0.82,0.55,0.07
0.89,112.12,10.81,176.94,2.86,1.30,11.95,0.21,0.96,0.02,3.87,3.50,51.88,1.01,0.79,2.33,0.07,0.83,0.56,0.06
0.90,112.00,9.94,177.12,2.78,0.59,11.95,0.13,0.76,0.10,3.87,3.50,51.88,1.13,0.02,1.96,0.07,0.83,0.56,0.06
0.91,111.88,9.25,177.25,2.80,0.63,11.49,0.07,0.57,0.12,6.19,3.50,52.38,1.22,0.17,1.82,0.06,0.83,0.56,0.05
0.92,111.69,8.75,177.31,2.56,0.87,11.59,0.02,0.45,0.13,6.19,3.50,52.38,1.06,0.42,1.91,0.06,0.83,0.56,0.05
0.93,111.50,8.44,177.38,1.61,1.06,12.66,0.05,0.23,0.17,6.19,3.50,52.38,0.17,0.62,2.97,0.06,0.82,0.56,0.05
0.94,111.37,8.25,177.44,1.87,0.75,11.32,0.03,0.12,0.18,8.06,4.56,51.88,0.46,0.32,1.63,0.06,0.82,0.56,0.05
0.95,111.25,8.19,177.44,1.93,0.72,10.61,0.01,0.10,0.10,8.06,4.56,51.88,0.53,0.30,0.91,0.06,0.82,0.56,0.05
0.96,111.19,8.06,177.44,1.97,0.27,11.27,0.10,0.09,0.06,9.50,5.00,51.88,0.59,0.16,1.57,0.06,0.82,0.56,0.05
0.97,111.12,8.06,177.31,1.43,0.18,11.97,0.01,0.13,0.11,9.50,5.00,51.88,0.04,0.25,2.27,0.06,0.82,0.56,0.05
0.98,111.00,8.25,177.38,0.98,0.08,13.19,0.13,0.28,0.08,9.50,5.00,51.88,0.45,0.33,3.50,0.06,0.82,0.56,0.05
0.99,110.94,8.56,177.56,0.89,0.06,12.51,0.16,0.24,0.06,9.50,3.50,51.88,0.55,0.55,2.44,0.06,0.82,0.57,0.05
1.00,111.00,8.81,177.75,1.38,0.06,12.08,0.23,0.20,0.09,9.50,3.50,51.88,1.21,0.08,1.97,0.06,0.82,0.56,0.05
1.01,111.12,9.06,178.00,3.29,0.73,11.71,0.29,0.26,0.06,9.19,3.87,52.25,1.68,0.65,3.04,0.06,0.82,0.56,0.06
1.02,111.19,9.63,178.31,2.85,1.05,13.38,0.28,0.66,0.00,9.19,3.87,52.25,0.31,0.58,3.60,0.06,0.82,0.56,0.06
1.03,111.12,10.69,178.44,1.96,0.40,12.94,0.00,0.96,0.06,9.19,3.87,52.25,0.28,0.32,2.66,0.06,0.82,0.56,0.07
1.05,111.12,12.63,178.44,3.76,0.22,11.57,0.02,0.95,0.00,8.06,5.00,51.88,1.47,0.13,2.57,0.07,0.82,0.56,0.08
1.06,111.12,13.75,178.44,3.44,0.49,12.40,0.03,1.11,0.04,8.06,5.00,51.88,1.10,0.24,2.88,0.08,0.82,0.56,0.09
1.08,110.88,16.56,178.19,3.69,0.35,10.85,0.13,1.28,0.16,5.87,5.69,51.88,0.80,0.29,1.46,0.09,0.81,0.56,0.11
1.09,110.69,18.06,178.06,3.79,0.80,10.58,0.15,1.33,0.15,2.87,4.56,52.25,0.72,0.58,1.04,0.10,0.81,0.56,0.12
1.10,110.56,19.69,177.87,4.03,0.76,10.11,0.20,1.50,0.09,2.87,4.56,52.25,0.80,0.06,1.16,0.11,0.81,0.56,0.13
1.11,110.50,21.31,177.62,4.44,0.20,10.44,0.24,1.50,0.06,2.87,4.56,52.25,0.86,0.16,1.32,0.12,0.81,0.56,0.14
1.12,110.37,23.00,177.38,4.75,0.42,10.10,0.21,1.51,0.07,0.25,4.25,53.50,0.91,0.01,1.08,0.13,0.80,0.56,0.15
1.13,110.31,24.75,177.19,5.26,0.70,9.92,0.19,1.64,0.08,0.25,4.25,53.50,1.12,0.25,1.16,0.14,0.80,0.56,0.16
1.14,110.25,26.75,176.87,5.65,0.76,9.71,0.25,1.86,0.04,4.00,4.56,52.69,1.23,0.29,0.97,0.15,0.80,0.56,0.18
1.15,110.25,28.94,176.50,5.64,1.05,9.18,0.29,2.00,0.01,4.00,4.56,52.69,0.89,0.53,0.62,0.17,0.79,0.55,0.19
1.16,110.25,31.25,176.12,5.67,0.95,8.93,0.22,2.15,0.00,4.00,4.56,52.69,0.58,0.40,0.57,0.18,0.79,0.55,0.20
1.17,110.19,33.69,175.75,5.63,1.12,8.71,0.32,2.24,0.03,8.00,3.06,52.69,0.19,0.52,0.58,0.19,0.78,0.55,0.22
1.18,110.12,34.94,175.50,6.25,0.69,7.70,0.39,2.23,0.04,8.00,3.06,52.69,0.45,0.04,0.17,0.21,0.78,0.54,0.23
1.19,110.00,37.44,174.94,6.53,0.46,7.71,0.35,2.29,0.06,13.56,2.75,51.06,0.55,0.39,0.33,0.21,0.78,0.54,0.24
1.20,109.94,40.00,174.44,6.75,0.03,8.10,0.19,2.49,0.06,13.56,2.75,51.06,0.27,0.76,0.78,0.23,0.77,0.54,0.26
1.21,109.94,42.81,174.12,6.88,0.15,6.90,0.07,2.52,0.05,13.56,2.75,51.06,0.04,0.57,0.08,0.24,0.76,0.53,0.28
1.22,98.00,45.56,173.81,6.99,0.38,6.29,0.02,2.48,0.02,19.50,1.56,48.69,0.10,0.23,0.32,0.26,0.75,0.53,0.29
1.23,98.87,48.31,173.56,7.41,1.26,6.64,0.04,2.67,0.02,19.50,1.56,48.69,0.14,0.92,0.71,0.27,0.75,0.52,0.31
1.24,99.50,51.37,173.13,7.01,1.95,7.32,0.05,2.85,0.01,25.75,2.00,46.69,1.37,1.04,0.50,0.28,0.74,0.51,0.33
1.25,99.75,54.63,172.44,6.34,1.54,5.67,0.20,2.92,0.03,25.75,2.00,46.69,1.88,0.49,0.21,0.30,0.73,0.51,0.35
1.26,99.94,57.75,171.69,6.19,1.04,5.03,0.18,2.81,0.05,25.75,2.00,46.69,1.92,0.20,0.79,0.31,0.72,0.50,0.37
1.27,100.31,60.69,170.94,6.52,0.58,4.33,0.08,2.68,0.07,31.25,1.56,41.50,2.03,0.16,0.39,0.33,0.71,0.49,0.39
1.29,100.87,66.81,168.75,5.65,1.38,3.28,0.14,2.78,0.05,31.25,1.56,41.50,3.36,0.63,0.49,0.35,0.68,0.47,0.43
1.30,101.00,69.62,167.13,5.48,1.09,2.80,0.19,2.51,0.01,37.25,1.25,38.38,3.70,0.33,0.51,0.37,0.67,0.47,0.44
1.31,100.94,72.12,165.12,6.06,1.07,2.48,0.20,2.26,0.00,37.25,1.25,38.38,3.27,0.30,0.41,0.38,0.66,0.46,0.46
1.32,100.87,74.37,162.69,6.53,1.26,2.45,0.23,2.08,0.01,42.38,1.00,33.19,2.90,0.48,0.05,0.39,0.65,0.45,0.47
1.33,100.81,76.44,159.81,7.34,1.09,2.03,0.18,1.92,0.02,42.38,1.00,33.19,2.19,0.30,0.11,0.40,0.64,0.45,0.48
1.34,100.87,78.37,156.44,7.65,1.46,1.94,0.15,1.79,0.05,42.38,1.00,33.19,1.95,0.67,0.13,0.41,0.63,0.44,0.49
1.35,100.87,79.25,154.44,7.91,1.36,1.26,0.14,1.68,0.02,44.56,1.00,28.75,1.74,0.57,0.22,0.41,0.62,0.43,0.50
1.36,100.94,80.81,149.44,8.50,1.22,0.92,0.10,1.45,0.07,44.56,1.00,28.75,1.19,0.42,0.27,0.42,0.62,0.43,0.51
1.37,100.81,82.06,142.94,8.84,1.27,0.77,0.09,1.38,0.10,47.50,0.19,24.75,0.70,0.45,0.21,0.42,0.61,0.43,0.51
1.39,100.50,83.94,175.00,8.76,1.16,0.57,0.27,1.32,0.04,47.50,0.19,24.75,1.09,0.39,0.07,0.44,0.60,0.41,0.53
1.40,100.25,84.56,174.94,8.59,1.25,0.26,0.26,1.25,0.01,49.69,0.19,21.19,0.89,0.10,0.10,0.45,0.59,0.41,0.53
1.41,100.06,84.94,174.94,8.94,0.77,0.29,0.32,1.02,0.06,49.69,0.19,21.19,0.92,0.26,0.02,0.45,0.58,0.41,0.54
1.42,99.87,85.00,4.94,8.78,0.55,0.25,0.30,1.00,0.05,49.69,0.19,21.19,0.98,0.29,0.17,0.46,0.58,0.40,0.54
1.43,99.69,84.81,4.87,9.11,1.01,0.79,0.23,0.90,0.02,50.00,0.50,18.75,0.55,0.33,0.20,0.46,0.57,0.40,0.55
1.44,99.56,84.50,4.87,9.17,1.24,0.33,0.25,0.82,0.04,50.00,0.50,18.75,0.56,0.45,0.06,0.47,0.56,0.40,0.55
1.45,99.31,84.19,4.75,9.12,1.11,0.70,0.28,0.63,0.05,51.06,0.50,16.00,0.63,0.29,0.14,0.47,0.56,0.40,0.55
1.46,99.13,83.81,4.75,9.23,0.66,1.01,0.19,0.47,0.04,51.06,0.50,16.00,0.40,0.03,0.03,0.47,0.56,0.40,0.56
1.47,98.94,83.44,4.81,9.49,1.01,0.72,0.19,0.48,0.04,51.06,0.50,16.00,0.24,0.18,0.02,0.48,0.55,0.40,0.56
1.48,98.69,83.06,44.88,10.08,0.62,1.09,0.12,0.43,0.02,52.19,0.88,14.75,0.34,0.20,0.26,0.48,0.55,0.40,0.56
1.49,98.62,82.69,41.88,9.58,0.76,0.81,0.05,0.50,0.03,52.19,0.88,14.75,0.13,0.07,0.11,0.48,0.55,0.39,0.56
1.50,98.50,82.25,39.69,9.38,1.11,0.52,0.04,0.46,0.06,52.19,1.25,12.75,0.33,0.27,0.48,0.48,0.54,0.39,0.56
1.51,98.44,81.81,37.94,9.09,1.29,1.04,0.06,0.41,0.07,52.19,1.25,12.75,0.61,0.43,0.04,0.49,0.54,0.39,0.56
1.52,98.25,81.50,36.75,9.04,1.46,1.20,0.13,0.30,0.07,52.19,1.25,12.75,0.65,0.59,0.04,0.49,0.54,0.39,0.57
1.53,98.00,81.31,36.38,9.03,1.60,0.94,0.13,0.22,0.13,52.56,1.25,12.75,0.65,0.72,0.25,0.49,0.54,0.39,0.57
1.54,97.75,81.06,36.31,9.39,1.31,1.41,0.04,0.05,0.20,52.56,1.25,12.75,0.29,0.40,0.19,0.49,0.54,0.39,0.57
1.55,97.56,80.94,37.38,9.44,1.29,1.20,0.01,0.03,0.20,52.06,0.88,12.75,0.32,0.35,0.37,0.49,0.54,0.39,0.56
1.56,97.31,80.81,38.63,9.48,1.39,0.31,0.10,0.08,0.20,52.06,0.88,12.75,0.19,0.40,0.90,0.50,0.54,0.38,0.56
1.57,97.19,80.56,39.31,9.34,1.28,1.23,0.11,0.16,0.15,52.06,0.88,12.75,0.33,0.26,0.01,0.50,0.54,0.38,0.56
1.58,97.12,80.38,39.50,9.15,1.16,1.09,0.14,0.14,0.12,52.88,2.00,11.19,0.76,0.07,0.40,0.50,0.54,0.38,0.56
1.59,97.12,80.19,39.81,8.35,0.69,0.80,0.21,0.04,0.15,52.88,2.00,11.19,1.40,0.72,0.49,0.50,0.54,0.38,0.56
1.60,97.19,80.06,40.88,8.47,0.11,0.88,0.26,0.02,0.19,52.88,2.00,11.19,1.18,1.22,0.38,0.50,0.54,0.38,0.56
1.61,97.19,80.06,42.88,10.36,1.17,2.04,0.27,0.28,0.18,52.06,1.69,10.75,1.24,2.01,0.15,0.50,0.54,0.38,0.56
1.62,97.31,80.25,45.31,11.13,0.18,0.96,0.31,0.30,0.10,52.06,1.69,10.75,1.53,0.87,0.17,0.49,0.55,0.37,0.56
1.63,97.19,80.38,46.75,11.01,1.14,1.91,0.10,0.21,0.03,52.06,3.06,11.56,1.34,0.04,0.79,0.49,0.55,0.38,0.56
1.64,97.06,80.56,47.50,10.66,1.38,2.45,0.21,0.26,0.07,52.06,3.06,11.56,0.82,0.21,0.89,0.49,0.55,0.38,0.56
1.65,96.87,80.94,47.94,9.80,1.10,1.01,0.31,0.28,0.17,52.06,3.06,11.56,0.11,0.03,0.02,0.49,0.55,0.38,0.56
1.66,96.81,81.31,48.50,8.92,0.60,1.79,0.21,0.35,0.21,52.50,2.00,13.19,0.76,0.49,0.81,0.49,0.55,0.39,0.55
1.67,96.94,81.81,49.25,8.50,0.18,0.68,0.10,0.38,0.27,52.50,2.00,13.19,1.20,0.86,0.22,0.49,0.55,0.39,0.55
1.68,96.94,82.31,50.44,8.83,0.27,1.32,0.15,0.42,0.19,52.50,2.37,13.19,0.88,0.73,0.49,0.49,0.55,0.39,0.55
1.69,96.81,82.81,52.94,9.58,0.01,1.95,0.21,0.54,0.14,52.50,2.37,13.19,0.14,0.96,1.21,0.49,0.55,0.40,0.55
1.70,96.75,83.25,5.56,9.99,0.46,1.47,0.09,0.56,0.09,52.50,2.37,13.19,0.25,1.42,0.83,0.48,0.55,0.40,0.55
1.71,96.69,83.44,5.50,10.20,0.55,0.51,0.03,0.38,0.06,52.06,1.69,14.75,0.62,1.12,0.30,0.48,0.55,0.40,0.54
1.72,96.75,83.69,5.44,10.25,0.46,1.14,0.11,0.28,0.09,52.06,1.69,14.75,0.50,0.45,0.63,0.48,0.56,0.41,0.54
1.74,96.69,84.13,5.19,9.80,0.15,1.30,0.09,0.15,0.12,51.37,0.50,16.00,0.06,0.70,0.45,0.48,0.56,0.41,0.54
1.75,96.75,84.31,5.06,9.59,0.36,0.73,0.01,0.23,0.11,51.37,0.50,16.00,0.11,0.38,0.63,0.48,0.56,0.41,0.54
1.76,96.81,84.56,4.94,10.17,0.52,1.01,0.06,0.30,0.09,51.37,0.88,16.37,0.41,0.32,0.64,0.48,0.56,0.41,0.54
1.77,96.69,84.69,4.87,10.32,0.85,0.09,0.22,0.30,0.03,51.37,0.88,16.37,0.62,0.06,0.07,0.48,0.56,0.42,0.54
1.78,96.37,84.87,4.81,10.53,0.62,0.52,0.31,0.33,0.07,51.37,0.88,16.37,0.76,0.20,0.25,0.48,0.56,0.42,0.53
1.79,96.25,85.06,4.69,9.99,0.89,0.62,0.13,0.29,0.09,50.69,0.50,16.37,0.22,0.08,0.82,0.48,0.56,0.42,0.53
1.80,96.19,85.19,4.62,9.90,1.23,0.35,0.08,0.28,0.03,50.69,0.50,16.37,0.13,0.43,0.51,0.48,0.56,0.42,0.53
1.81,96.06,85.19,4.69,10.04,0.91,0.18,0.09,0.27,0.04,51.37,0.19,18.37,0.27,0.11,0.29,0.48,0.56,0.43,0.53
1.82,95.94,85.19,4.75,10.18,0.71,0.50,0.06,0.21,0.05,51.37,0.19,18.37,0.41,0.10,0.56,0.47,0.56,0.43,0.53
1.83,95.75,85.12,4.81,10.21,0.93,1.11,0.08,0.16,0.06,51.37,0.19,18.37,0.44,0.11,1.14,0.47,0.56,0.43,0.53
1.84,95.69,85.12,4.81,10.10,0.62,0.86,0.15,0.12,0.03,50.25,0.88,17.56,0.33,0.20,0.87,0.48,0.56,0.43,0.52
1.85,95.44,85.12,4.81,9.78,0.45,1.08,0.08,0.16,0.01,50.25,0.88,17.56,0.00,0.37,1.07,0.48,0.56,0.43,0.52
1.86,95.38,85.12,175.12,9.81,0.48,1.06,0.04,0.17,0.01,50.25,0.88,17.56,0.06,0.05,0.94,0.48,0.56,0.43,0.52
1.87,95.31,85.12,175.12,9.86,0.93,0.82,0.06,0.20,0.02,50.69,1.25,19.19,0.16,0.08,0.91,0.47,0.56,0.43,0.52
1.88,95.25,85.12,175.12,9.58,0.87,1.25,0.04,0.17,0.01,50.69,1.25,19.19,0.00,0.23,0.75,0.47,0.56,0.43,0.52
1.89,95.31,85.06,175.12,9.77,1.24,1.04,0.03,0.19,0.02,50.69,0.50,19.56,0.10,0.13,1.16,0.47,0.56,0.43,0.52
1.90,95.31,85.00,175.12,9.69,1.04,1.11,0.00,0.17,0.04,50.69,0.50,19.56,0.33,0.40,1.66,0.47,0.57,0.43,0.52
1.91,95.31,85.00,175.19,9.25,1.11,1.46,0.06,0.12,0.06,50.69,0.50,19.56,0.51,0.29,1.26,0.47,0.57,0.43,0.52
1.92,95.38,85.06,175.25,9.66,1.27,2.10,0.04,0.12,0.05,50.25,0.50,18.00,0.00,0.40,1.13,0.47,0.57,0.44,0.52
1.93,95.25,85.06,175.25,9.73,1.10,0.80,0.14,0.15,0.03,50.25,0.50,18.00,0.38,0.16,0.60,0.47,0.57,0.44,0.52
1.94,95.19,85.06,175.31,9.64,1.05,1.18,0.07,0.19,0.02,50.25,0.50,19.19,0.12,0.25,0.91,0.47,0.57,0.44,0.52
1.95,95.12,85.00,175.31,10.09,0.98,1.33,0.12,0.09,0.02,50.25,0.50,19.19,0.47,0.43,0.37,0.47,0.57,0.44,0.51
1.96,95.00,85.06,175.38,9.90,0.50,1.62,0.13,0.04,0.07,50.25,0.50,19.19,0.13,0.28,1.32,0.47,0.57,0.44,0.51
1.97,95.12,85.19,175.44,9.62,0.90,1.77,0.11,0.12,0.09,50.25,1.25,20.00,0.14,0.13,1.48,0.47,0.57,0.44,0.51
1.98,95.31,85.31,175.50,8.86,1.34,1.35,0.02,0.20,0.03,50.25,1.25,20.00,0.75,0.20,0.84,0.47,0.56,0.44,0.52
1.99,95.19,85.31,175.50,9.22,0.55,0.89,0.01,0.03,0.03,50.56,1.69,19.56,0.54,0.21,0.66,0.47,0.56,0.44,0.52
2.00,95.19,85.25,175.44,9.19,0.81,0.74,0.10,0.03,0.06,50.56,1.69,19.56,0.57,0.04,0.50,0.47,0.56,0.44,0.52
2.01,95.25,85.19,175.38,9.33,1.47,1.35,0.11,0.01,0.07,50.56,1.69,19.56,0.44,0.68,1.10,0.47,0.57,0.44,0.52
2.02,95.25,85.12,175.38,9.50,0.93,1.30,0.04,0.05,0.01,50.56,0.88,19.56,0.26,0.14,1.07,0.47,0.57,0.44,0.52
2.03,95.25,85.19,175.38,9.68,0.96,1.29,0.02,0.06,0.01,50.56,0.88,19.56,0.08,0.17,1.07,0.47,0.57,0.44,0.52
2.05,95.19,85.06,175.25,9.71,0.85,1.59,0.06,0.02,0.09,50.56,1.25,19.19,0.05,0.04,1.38,0.47,0.57,0.44,0.52
2.06,95.19,85.00,175.19,9.57,0.93,1.43,0.04,0.10,0.08,50.56,1.25,19.19,0.18,0.10,1.23,0.47,0.57,0.44,0.52
2.08,95.12,84.87,175.00,9.91,1.13,0.70,0.08,0.01,0.08,49.88,0.88,19.56,0.14,0.27,0.51,0.47,0.57,0.43,0.52
2.09,95.12,84.75,174.87,10.04,1.10,1.49,0.04,0.13,0.07,50.69,0.50,19.56,0.28,0.22,1.31,0.47,0.57,0.43,0.52
2.10,95.12,84.75,174.81,10.27,0.86,0.65,0.13,0.20,0.01,50.69,0.50,19.56,0.50,0.01,0.50,0.47,0.57,0.43,0.52
2.11,95.00,84.75,174.81,9.78,0.56,1.46,0.03,0.26,0.05,50.69,0.50,19.56,0.01,0.31,1.36,0.47,0.57,0.43,0.52
2.12,95.12,84.87,174.87,9.56,0.69,1.03,0.01,0.32,0.05,50.25,0.88,18.37,0.30,0.08,0.51,0.48,0.56,0.43,0.52
2.13,95.25,84.81,174.81,9.26,1.14,0.70,0.24,0.35,0.15,50.25,0.88,18.37,0.52,0.30,1.23,0.48,0.56,0.43,0.52
2.14,95.31,84.62,5.31,9.45,0.26,0.24,0.16,0.35,0.20,50.25,0.88,18.37,0.12,0.39,0.26,0.48,0.56,0.42,0.52
2.15,95.44,84.31,5.62,9.63,1.05,0.74,0.29,0.22,0.28,51.00,0.50,19.19,0.05,0.50,2.23,0.48,0.56,0.42,0.53
2.16,95.38,84.00,5.87,9.78,1.37,1.50,0.16,0.67,0.15,51.00,0.50,19.19,0.07,0.08,1.15,0.48,0.56,0.42,0.53
2.17,95.19,83.62,6.06,9.49,0.36,0.55,0.07,0.74,0.20,51.69,1.69,16.75,0.33,0.73,0.23,0.48,0.56,0.41,0.53
2.18,95.19,83.12,6.31,9.41,0.94,0.44,0.23,0.51,0.26,51.69,1.69,16.75,0.35,0.33,0.46,0.49,0.56,0.41,0.53
2.19,95.31,82.75,66.50,9.44,1.47,0.10,0.21,0.42,0.20,51.69,1.69,16.75,0.28,0.34,0.39,0.49,0.56,0.40,0.54
2.20,95.25,82.37,62.62,9.54,0.10,0.24,0.05,0.63,0.08,51.37,2.37,15.56,0.17,1.25,0.34,0.49,0.56,0.40,0.54
2.21,95.31,81.94,59.00,9.92,0.03,1.07,0.19,0.48,0.10,51.37,2.37,15.56,0.26,0.62,0.97,0.49,0.55,0.40,0.54
2.22,95.56,81.69,58.38,10.03,2.18,1.29,0.33,0.16,0.13,51.37,2.00,14.75,0.33,0.98,0.55,0.49,0.56,0.39,0.54
2.23,95.44,81.44,58.06,9.87,1.44,1.12,0.03,0.18,0.16,51.37,2.00,14.75,0.17,0.21,0.35,0.49,0.56,0.39,0.54
2.24,95.44,81.25,56.94,9.81,0.64,1.28,0.15,0.28,0.03,51.37,2.00,14.75,0.12,0.59,0.47,0.49,0.56,0.39,0.54
2.26,96.00,81.19,56.81,9.51,1.72,1.43,0.40,0.15,0.21,52.50,3.06,14.75,0.17,0.44,0.63,0.49,0.56,0.38,0.55
2.27,96.06,81.06,59.38,9.48,1.52,1.20,0.22,0.27,0.22,52.88,2.69,14.00,0.28,0.04,0.25,0.49,0.56,0.38,0.55
2.29,96.19,81.06,62.56,9.33,1.32,0.00,0.09,0.07,0.05,52.88,2.69,14.00,0.35,0.02,0.68,0.49,0.57,0.38,0.54
2.30,96.19,81.06,63.69,9.37,1.37,0.12,0.11,0.17,0.10,52.88,2.69,13.19,0.37,0.24,0.58,0.49,0.57,0.38,0.54
2.31,96.19,81.12,66.25,9.42,2.02,0.26,0.07,0.36,0.07,52.88,2.69,13.19,0.02,1.29,0.45,0.49,0.57,0.38,0.54
2.32,96.06,81.19,68.69,9.65,2.57,0.12,0.03,0.32,0.08,52.88,2.69,13.19,0.09,0.87,0.31,0.49,0.57,0.38,0.54
2.33,95.62,81.19,70.87,10.01,1.93,0.38,0.28,0.33,0.11,51.37,2.69,13.56,0.34,0.02,0.43,0.49,0.57,0.38,0.54
2.34,95.06,81.19,73.19,9.76,1.38,0.29,0.47,0.38,0.18,51.37,2.69,13.56,0.03,0.00,0.25,0.49,0.57,0.39,0.53
2.35,94.25,81.12,75.50,9.71,1.48,0.30,0.44,0.34,0.15,51.37,3.50,15.56,0.24,0.52,0.04,0.49,0.57,0.39,0.53
2.36,93.62,81.06,77.56,10.02,0.74,0.63,0.37,0.34,0.12,51.37,3.50,15.56,0.39,0.76,0.48,0.49,0.57,0.39,0.52
2.37,93.12,81.00,79.44,9.82,0.72,0.12,0.31,0.26,0.13,51.37,3.50,15.56,0.14,0.77,0.40,0.49,0.57,0.40,0.52
2.38,92.62,80.94,81.37,9.28,1.08,0.29,0.28,0.35,0.09,50.69,3.87,15.56,0.23,0.56,0.05,0.49,0.57,0.40,0.52
2.39,92.37,81.00,83.87,9.46,1.34,0.05,0.11,0.37,0.03,50.69,3.87,15.56,0.28,0.44,0.04,0.49,0.58,0.40,0.51
2.40,92.37,81.06,86.44,9.51,2.29,0.14,0.07,0.38,0.01,50.25,4.19,16.75,0.17,0.77,0.05,0.49,0.58,0.40,0.51
2.41,92.31,80.94,89.06,9.68,2.22,0.02,0.03,0.34,0.11,50.25,4.19,16.75,0.02,0.18,0.29,0.49,0.58,0.40,0.51
2.42,92.00,80.75,91.37,9.75,1.48,0.45,0.05,0.33,0.19,50.25,4.19,16.75,0.07,0.07,0.42,0.49,0.58,0.40,0.51
2.43,91.63,80.56,93.19,9.70,1.28,0.25,0.13,0.28,0.15,50.25,4.19,17.19,0.34,0.32,0.08,0.49,0.58,0.41,0.50
2.44,91.31,80.44,94.69,9.92,1.41,0.04,0.27,0.24,0.02,50.25,4.19,17.19,0.08,0.08,0.24,0.49,0.58,0.41,0.50
2.45,90.94,80.50,95.94,9.74,1.76,0.02,0.31,0.23,0.08,50.56,5.00,18.75,0.24,0.55,0.08,0.49,0.58,0.41,0.50
2.46,90.75,80.62,97.06,10.06,2.08,0.47,0.26,0.20,0.14,50.56,5.00,18.75,0.57,0.43,0.38,0.49,0.58,0.41,0.50
2.47,90.56,80.75,98.06,10.29,1.81,0.58,0.21,0.14,0.11,50.56,5.00,18.75,0.61,0.25,0.36,0.49,0.58,0.42,0.50
2.48,90.50,80.75,99.00,9.91,1.43,0.64,0.08,0.13,0.05,50.25,5.00,19.56,0.08,0.16,0.28,0.49,0.58,0.42,0.50
2.49,90.50,80.75,99.81,9.41,1.41,0.53,0.01,0.13,0.02,50.25,5.00,19.56,0.53,0.09,0.44,0.49,0.58,0.42,0.50
2.50,90.44,80.75,101.19,9.08,1.42,0.78,0.02,0.23,0.01,49.88,5.00,18.37,0.59,0.12,0.48,0.49,0.58,0.42,0.49
2.51,90.31,80.69,103.12,9.15,1.63,0.68,0.09,0.31,0.04,49.88,5.00,18.37,0.57,0.43,0.16,0.49,0.58,0.42,0.49
2.52,90.19,80.69,105.44,9.12,2.28,0.43,0.12,0.36,0.08,49.88,5.00,18.37,0.55,0.76,0.01,0.49,0.58,0.42,0.49
2.53,90.06,80.62,107.94,9.25,2.57,0.72,0.16,0.40,0.07,50.25,5.00,19.56,0.41,1.06,0.23,0.49,0.59,0.43,0.49
2.54,89.75,80.56,110.50,9.00,2.59,0.72,0.25,0.44,0.06,50.25,5.00,19.56,0.67,1.09,0.15,0.49,0.59,0.43,0.48
2.55,89.50,80.38,113.12,8.75,2.64,0.74,0.31,0.47,0.06,49.56,4.19,19.56,0.91,1.14,0.10,0.49,0.59,0.43,0.48
2.56,89.13,80.19,116.12,8.69,2.25,0.87,0.26,0.57,0.04,49.56,4.19,19.56,0.97,0.75,0.14,0.48,0.59,0.44,0.48
2.57,88.75,79.87,119.50,8.82,1.92,0.75,0.18,0.64,0.02,49.56,4.19,19.56,0.82,0.43,0.09,0.48,0.59,0.44,0.47
2.59,88.44,79.44,124.44,8.14,2.08,0.95,0.18,0.60,0.13,49.19,4.56,22.00,1.49,0.61,0.11,0.48,0.59,0.45,0.47
2.60,88.25,79.19,127.56,7.63,1.99,0.90,0.20,0.58,0.18,48.06,4.56,23.56,2.52,0.31,0.27,0.48,0.59,0.45,0.46
2.61,88.19,78.94,130.94,6.71,1.48,0.76,0.17,0.64,0.24,48.06,4.56,23.56,2.92,0.14,0.19,0.47,0.59,0.46,0.46
2.62,88.12,78.62,134.81,6.92,1.35,0.96,0.23,0.84,0.27,48.06,4.56,23.56,2.12,0.40,0.45,0.47,0.60,0.46,0.46
2.63,88.00,78.12,138.69,8.10,2.35,1.70,0.35,0.77,0.32,47.69,4.56,24.75,0.68,1.18,0.09,0.47,0.60,0.47,0.45
2.64,87.69,77.75,142.06,8.91,2.24,1.41,0.42,0.65,0.37,47.69,4.56,24.75,1.13,0.75,0.05,0.47,0.60,0.48,0.45
2.65,87.50,77.44,145.00,7.74,1.64,1.51,0.33,0.57,0.38,47.69,4.56,24.75,2.92,0.28,0.85,0.46,0.60,0.48,0.44
2.66,87.62,77.06,148.19,6.43,0.80,0.72,0.06,0.73,0.36,47.38,5.25,25.56,3.02,0.30,1.13,0.46,0.60,0.49,0.44
2.67,87.94,76.37,151.81,6.96,0.95,0.94,0.10,0.94,0.36,47.38,5.25,25.56,1.08,0.30,0.74,0.45,0.60,0.49,0.44
2.68,88.50,75.62,155.37,8.68,1.66,1.61,0.03,0.90,0.44,45.88,3.06,27.19,0.81,0.65,0.58,0.45,0.60,0.50,0.43
2.69,88.87,75.12,158.56,8.58,2.07,1.50,0.10,0.69,0.53,45.88,3.06,27.19,1.41,1.06,0.46,0.44,0.60,0.51,0.43
2.70,89.31,74.75,161.37,7.53,1.74,1.83,0.03,0.49,0.54,45.88,3.06,27.19,1.93,0.92,0.60,0.44,0.60,0.51,0.43
2.71,90.00,74.31,164.06,7.59,1.39,1.88,0.11,0.63,0.48,44.38,2.37,29.56,1.84,0.66,0.65,0.43,0.60,0.52,0.43
2.72,90.69,73.81,166.50,7.86,1.13,2.70,0.18,0.54,0.44,44.38,2.37,29.56,1.55,0.49,0.05,0.42,0.60,0.52,0.43
2.73,91.56,73.25,168.62,8.90,0.56,2.47,0.36,0.63,0.32,43.25,1.25,30.75,0.48,0.01,0.29,0.42,0.61,0.52,0.43
2.74,92.00,72.94,169.56,10.23,0.13,2.46,0.52,0.67,0.16,43.25,1.25,30.75,0.87,0.63,0.42,0.41,0.61,0.53,0.43
2.75,92.94,72.19,171.06,11.12,0.32,2.29,0.67,0.68,0.15,43.25,1.25,30.75,1.80,0.75,0.72,0.40,0.61,0.53,0.43
2.76,94.06,71.56,172.69,11.38,0.42,3.49,0.60,0.50,0.24,43.25,1.25,31.56,1.97,0.30,0.71,0.40,0.62,0.53,0.43
2.77,95.31,71.44,174.69,11.21,0.30,4.23,0.59,0.03,0.44,43.25,1.25,31.56,1.83,0.57,1.48,0.39,0.62,0.53,0.43
2.78,96.69,71.50,176.69,11.33,1.40,5.13,0.68,0.02,0.36,41.75,1.00,33.56,2.56,2.14,2.21,0.39,0.62,0.53,0.44
2.79,98.12,71.37,178.12,11.78,1.70,5.29,0.80,0.23,0.10,41.75,1.00,33.56,2.79,1.33,1.83,0.38,0.62,0.53,0.44
2.81,99.87,70.75,179.87,12.79,0.39,4.22,0.16,0.11,0.34,41.75,2.37,33.56,3.16,0.35,1.30,0.37,0.62,0.53,0.44
2.82,100.50,70.94,178.62,11.41,0.24,4.89,0.20,0.16,0.22,41.75,2.37,33.56,1.81,0.12,1.71,0.37,0.62,0.53,0.45
2.83,101.00,71.06,177.81,10.87,0.32,4.80,0.21,0.08,0.15,42.19,3.50,32.38,1.47,0.41,1.66,0.37,0.62,0.53,0.45
2.84,101.50,71.00,177.31,10.63,0.91,4.84,0.27,0.07,0.01,42.19,3.50,32.38,1.36,0.83,1.50,0.37,0.62,0.52,0.45
2.85,101.94,70.94,177.12,10.62,1.04,4.49,0.25,0.02,0.00,42.19,3.50,32.38,1.35,0.87,1.29,0.37,0.62,0.52,0.45
2.86,102.31,70.94,176.75,10.30,0.77,4.30,0.21,0.05,0.04,41.75,4.25,33.19,0.94,0.45,0.86,0.36,0.62,0.52,0.45
2.87,102.69,71.00,176.31,10.08,0.56,4.00,0.16,0.08,0.10,41.75,4.25,33.19,0.66,0.38,0.79,0.36,0.62,0.52,0.45
2.88,102.94,71.12,175.81,9.65,0.73,3.59,0.04,0.08,0.13,41.75,4.25,33.19,0.37,0.50,0.43,0.36,0.62,0.52,0.46
2.89,103.25,71.25,175.31,9.42,0.74,3.49,0.09,0.13,0.11,41.75,5.00,33.19,0.16,0.44,0.65,0.36,0.62,0.52,0.46
2.90,103.50,71.37,174.87,9.45,0.47,4.28,0.13,0.16,0.05,41.75,5.00,33.19,0.21,0.11,0.82,0.36,0.62,0.52,0.46
2.91,103.75,71.50,174.56,9.57,0.50,3.69,0.12,0.09,0.04,41.06,5.00,33.56,0.11,0.28,0.91,0.36,0.62,0.52,0.46
2.92,103.94,71.56,174.25,9.26,0.74,3.45,0.10,0.13,0.04,41.06,5.00,33.56,0.11,0.51,0.35,0.36,0.62,0.52,0.46
2.93,104.19,71.62,173.94,9.25,0.97,3.33,0.14,0.06,0.04,41.06,5.00,33.56,0.04,0.65,0.26,0.36,0.62,0.52,0.46
2.94,104.44,71.69,173.69,9.69,0.93,3.97,0.15,0.04,0.03,41.75,5.25,32.38,0.38,0.59,0.91,0.36,0.62,0.52,0.46
2.95,104.69,71.75,173.38,9.68,0.66,3.84,0.14,0.10,0.03,41.75,5.25,32.38,0.48,0.19,0.33,0.36,0.62,0.52,0.46
2.96,104.94,71.81,173.06,9.95,0.67,3.31,0.12,0.09,0.04,41.75,5.69,32.38,0.63,0.30,0.28,0.36,0.62,0.52,0.47
2.97,105.12,71.94,172.75,10.08,0.79,3.43,0.06,0.12,0.06,41.75,5.69,32.38,0.81,0.41,0.65,0.36,0.62,0.52,0.47
2.98,105.25,72.06,172.50,10.27,0.71,3.66,0.03,0.09,0.05,41.75,5.69,32.38,0.94,0.32,0.67,0.36,0.62,0.52,0.47
2.99,105.50,72.19,172.19,10.24,0.89,3.92,0.09,0.13,0.03,42.56,6.50,31.56,0.90,0.49,0.95,0.36,0.62,0.52,0.47
3.00,105.69,72.31,172.00,10.02,0.96,3.51,0.09,0.14,0.02,42.56,6.50,31.56,0.67,0.54,0.57,0.36,0.62,0.51,0.47
3.01,105.75,72.37,171.75,9.85,0.75,3.45,0.06,0.14,0.01,41.75,6.50,31.56,0.50,0.32,0.52,0.36,0.62,0.51,0.47
3.02,105.94,72.50,171.56,9.62,0.49,3.19,0.05,0.20,0.03,41.75,6.50,31.56,0.26,0.05,0.30,0.36,0.62,0.51,0.47
