0.01,-108.09951438822485,29.144402125067096,179.00073164681464,0.07042543826474944,0.026491768554984044,0.041977172042487854,2.0282575169006307,0.9566361270848488,3.269749004049274,0.5695181044369123,0.780028436240345,0.14045633630221702,0.2106699943219032,-96.61625070814453,19.676133885016533,227.47757556004706,0.37394953750959065,0.30672255000444204,0.030730369484866737,1.4637069840928694,1.0919713048697985,1.5777865858023936,0.6502226439343669,0.6296078521336776,0.4003539525253766,-0.14909999634210214,-134.27311031506073,2.6316388975798937,4.760226406657117,0.10170087706105675,0.3641963546993661,0.7116998916394427,0.2651384317076305,2.8086353952944867,3.929796859735752,-0.00990885313771504,0.05069750855506446,-0.9198903324060075,0.38981349472185806,-110.16407577087526,16.07639076331951,5.488590763757915,0.033308061195961594,0.1741382215561247,0.07173982145311274,0.5671788471018392,2.1035157845011985,4.715376184996884,-0.08980520394152612,0.12089202413548628,-0.8092513174026301,0.5701913149226399
0.02,-108.26317757583593,29.229653651687876,178.83775403496585,0.09194771476486378,0.04713999853189171,0.05660939720259616,1.9235595286901843,0.9338069571795845,2.96203592397866,0.567775534817279,0.7820746758253164,0.13922797765921485,0.2118036302014966,-96.71567795777125,20.05681214686075,227.60854724930869,0.3169717589855982,0.29778090669145646,0.03318101005223127,1.379734971405358,0.9768127920271622,1.7192025058341576,0.6501922067798458,0.6280112399415608,0.40325084906662095,-0.146705250802397,-134.79698444608778,2.9422469258271096,4.81400973678876,0.16315603568616532,0.3406221069098546,0.6689286662793038,0.3727928765901456,2.6181186309759745,3.666178750732677,-0.0117509813436747,0.05107829233176313,-0.9217266411177226,0.3856669505197902,-110.86193851194649,16.22096419245682,5.976750664053159,0.08915341743353589,0.17413135785366235,0.123320738424302,0.6632789321917677,2.1921395255436114,4.438769238404288,-0.08889206050016296,0.1239104657676227,-0.8113892368591034,0.5659234041210577
0.03,-108.41738053857902,29.307401090318702,178.6755455253805,0.11264399616370446,0.06558609953707532,0.07052270843644833,1.8242190248646828,0.9077923211677469,2.662560686740606,0.5661152017588486,0.7840415279947978,0.13799561173890626,0.21288628059881975,-96.81064507941103,20.42719588994226,227.73773715222632,0.26112625727374106,0.29034656823238014,0.035493858390297055,1.3021242700412785,0.8627202935025298,1.8493139719178266,0.6501896257930344,0.6264554764791836,0.40606553359685477,-0.14440486802788063,-135.30190626481263,3.2414416743595647,4.834625641311822,0.22586729091675045,0.31667585223508815,0.628824846108813,0.47456140282621995,2.432344639000175,3.417557423632931,-0.013607447440904585,0.05118619800642425,-0.9234854616535951,0.3816475590186832,-111.5233804833121,16.36130515632976,6.447777148203805,0.1429810265073995,0.17337231290302973,0.1745937751362133,0.7533768955433492,2.269924640496911,4.1773937539272525,-0.0880361924914465,0.12684175722302093,-0.8134256541015082,0.561863381935441
0.04,-108.55548818804823,29.37859138479698,178.51237831541974,0.13161284990862754,0.08171775394411292,0.08321236966045609,1.7341647504475628,0.8754497326115481,2.3784739944972366,0.5645795947187181,0.7858542881099558,0.1367770653762537,0.21393004654722972,-96.89789234173442,20.793149438929174,227.8598916297057,0.2080952121439681,0.28683694026948875,0.03756363617561195,1.2340852300609024,0.7514037291024448,1.9562199738049297,0.6502489126249245,0.6249415718559256,0.40877927915128226,-0.14215486123563853,-135.77498927597367,3.5188968491087045,4.801831335415165,0.2899067264290073,0.2922984927834901,0.5927592203192704,0.5645661728072943,2.255435061692879,3.193751165394926,-0.01546992407126858,0.05085614686410955,-0.9251126838750711,0.3778442959221117,-112.11138455921164,16.503636907618063,6.895427385481253,0.1937060284160433,0.1724307881930186,0.22481611933981258,0.8320166288315219,2.326524822530416,3.941137008220105,-0.08729579400779294,0.1297230221554526,-0.8152008037561734,0.5582539371099784
0.05,-108.67194898785553,29.445083343186482,178.34663860842707,0.14814644633279056,0.09585092518346795,0.09420190143367901,1.6563845859604756,0.8345514501900194,2.115085656924927,0.563199864120691,0.7874511869754223,0.13559322673273644,0.21495238424390498,-96.97513389597248,21.161863093243486,227.97034497241495,0.1593943962826063,0.2894931850861269,0.03930594621807005,1.1776147752573485,0.6446248526418064,2.0301582658041633,0.6503979575151452,0.6234635540746847,0.41138558483610754,-0.13990126826929436,-136.20606993617983,3.7657790481208453,4.701089826319245,0.3549276675929949,0.2675405652937602,0.5616877218487533,0.6378731689562547,2.0898334634804545,3.0020332984622877,-0.017324780675014036,0.049969565165570745,-0.9265687204255175,0.3743277637899228,-112.59399215064968,16.654453652773043,7.31481869780596,0.2405472475751505,0.1719903881046429,0.27325447022791394,0.8951626711979548,2.3534944712962176,3.7365890831100663,-0.08672242444458408,0.13259922525561868,-0.8165740347940728,0.5553095945181716
0.06,-108.76280412332521,29.50992866928619,178.17705735667317,0.16178943700887388,0.10877679628241417,0.10306635633600918,1.5927164887705179,0.7841104341392918,1.875500598241454,0.5619917116386188,0.7887877090013651,0.13446974479702234,0.21597800253724822,-97.04125415545795,21.541840892450388,228.06525580234094,0.11629467435265442,0.3002632051752308,0.04066490299022965,1.1332634150853202,0.5441650324968751,2.0643284120244463,0.6506567019002343,0.6220069262297342,0.41389226499288745,-0.13758058917059712,-136.58850735066977,3.975365346872521,4.525440297086048,0.4200524970398893,0.24258969223764645,0.5360780489636658,0.6909077922279009,1.9360277654626799,2.8462893887863423,-0.01915206452441527,0.04847041962724131,-0.9278317034639898,0.3711446107325325,-112.9463379605629,16.820319925787857,7.702978533162337,0.2830945033796952,0.1728308619262853,0.3191690797635337,0.9406299410787313,2.3449896450635013,3.5662618568068876,-0.08635665635707272,0.13552289712574528,-0.8174313858358915,0.5532031862409605
0.07,-108.8260952459089,29.577570700203506,178.00290675185343,0.1723534199159381,0.12174260089521144,0.10946572601395149,1.5438123770806653,0.7245126177331581,1.660643661965081,0.5609530432704203,0.7898386915200938,0.13343773200693912,0.217040387885562,-97.09633780094109,21.94272153623251,228.141697656021,0.07977268115622144,0.32069794864219764,0.041617463765123784,1.1000967420144188,0.4517696705003747,2.055357978620595,0.6510361016913401,0.6205485213536197,0.4163218711595722,-0.13512088922859347,-136.91963846561683,4.143474340825358,4.276646571516131,0.4838359556538054,0.2177736909863949,0.5158907385206284,0.7217215164496462,1.7927300293877741,2.7265720846557318,-0.020925184034463896,0.046375427946525355,-0.9288984716581548,0.36831450445477787,-113.1520497987231,17.007669988661828,8.05933741542704,0.32132821137621725,0.17580519710852796,0.36176466958749737,0.9682432134040581,2.2982408196986004,3.4284750016362286,-0.086224292171872,0.13855342923294425,-0.8176901436379507,0.5520558637485548
0.08,-108.86212812756084,29.653925107285495,177.8241434777709,0.17989402823014913,0.13636384920236355,0.11318471650270757,1.5092423902035343,0.6574513484170809,1.4696219258152698,0.5600635477703138,0.7905982469576484,0.13253342303175436,0.21818252316406853,-97.14152940466398,22.374937260188258,228.19761091745107,0.05049098408220669,0.35186781538091566,0.04217566625098419,1.0758459648984762,0.36906934096201843,2.003385425662436,0.6515380117736309,0.619057712336973,0.41871036279954016,-0.13244365923651094,-137.20086855686864,4.268686459760799,3.9654521519051253,0.544316332887661,0.19354720824208926,0.5006243404496599,0.7300735524441201,1.6574360579883947,2.639153842089589,-0.022611545575007597,0.04377680933048266,-0.9297833217416491,0.3658297830714914,-113.20392207542274,17.222614496612863,8.386107361149845,0.35558769312760885,0.18180900047360074,0.4001400232367188,0.9797184076873354,2.213742175748551,3.3178914109669466,-0.08633368050327025,0.1417557424801257,-0.8173001798325477,0.5519313193291253
0.09,-108.87356321706457,29.746328922067356,177.64149013211707,0.18466458961826865,0.154478815629487,0.11417242375408931,1.48768331114993,0.5856899452332422,1.3003149941815342,0.5592860575244453,0.7910778296663945,0.1317970366582337,0.21945650946484838,-97.17874408580471,22.849246065213087,228.23164989004633,0.02880387655258876,0.39430656088857885,0.042387009468615615,1.0572269877796932,0.29748366064781123,1.9117814517769254,0.6521560711506512,0.6174986170129757,0.42110417617792284,-0.12946643093126042,-137.43741461174537,4.352357495712223,3.61085402256678,0.5991564779714584,0.17047118277325615,0.4894183394259188,0.7173241466501673,1.5271978875045409,2.577077524306602,-0.024174411853514873,0.04083664397991767,-0.9305148300281815,0.3636575791141195,-113.10385037857023,17.470762149049367,8.68849071412551,0.38649455354475915,0.1917384024784042,0.43327076931537956,0.9782956602842843,2.095117807261423,3.2265440488281314,-0.08667461028026428,0.14519820096588607,-0.8162422238012271,0.5528344457888321
0.1,-108.86532230014454,29.863366933240222,177.45645844826365,0.18706151352879896,0.17796699337564714,0.11257379950683695,1.4771416211279307,0.5127017385175379,1.1500696149852336,0.5585693345006194,0.7913029203493644,0.1312712706186469,0.22092205716974056,-97.21027216637583,23.376193652178358,228.24297596422625,0.01478227789588826,0.44799040906896764,0.04233194759502225,1.0403857619970411,0.238119757673484,1.7865773423882967,0.6528775896902728,0.615832739459319,0.42355609897897606,-0.12610604087803906,-137.63773493437662,4.398448137240579,3.238420643865879,0.6458604177297095,0.14919013510546167,0.48119097980797104,0.6861741138843066,1.3994005252848682,2.531094374419245,-0.025576088167576144,0.037772950782412384,-0.9311312843705128,0.36174405838276874,-112.86208323274741,17.75705965921871,8.97467518890861,0.41484743143070923,0.20643495116321595,0.4600500551150854,0.9681881755403132,1.9486512258286681,3.1451114548712304,-0.0872189973868959,0.1489497487382517,-0.8145235415024011,0.5547142832452613
0.11,-108.844319067349,30.014600379243916,177.2713264637018,0.1875723951041968,0.2085588437221333,0.10874397683817731,1.475180433956549,0.44225071688420686,1.0163837351286356,0.5578518127951426,0.7913088462535809,0.1309998658802091,0.222644068548486,-97.23833609336309,23.965573840775964,228.23105236473333,0.008249695990432463,0.5123581980520974,0.042117285731562794,1.0214021994423312,0.19168015170791958,1.6357057092167755,0.6536863202781475,0.6140214364450496,0.42612058839206984,-0.12228230344452236,-137.81268453274467,4.41320016296221,2.8778092157058954,0.6820334548215922,0.1304073283476069,0.47478331920385236,0.6403084248839748,1.2723647359856387,2.4908144554775604,-0.026782212455464794,0.034838800378011035,-0.9316753966304857,0.36002037785753116,-112.49589640385612,18.085649811489354,9.25558830722636,0.44150903480591325,0.22662031786538853,0.47939537185062947,0.9539335882057327,1.7825204527979932,3.0641968820319114,-0.08792321674697615,0.15307637645567285,-0.8121717532097594,0.5574707998608032
0.12,-108.8190371617771,30.210231738835027,177.08908599925522,0.18673134668928887,0.2476642523010057,0.10323726739928778,1.479130071300414,0.3779766860397243,0.8974750956065612,0.5570658120315761,0.7911362225161302,0.13102654948775322,0.22468970077470446,-97.26466503891015,24.62595852471453,228.1954888229112,0.008820974237022387,0.5863733101922072,0.04186546594405192,0.9967775950533557,0.15839394816021532,1.4681697707320918,0.6545658366855438,0.6120276965391889,0.42884926867578055,-0.11792174709603385,-137.97445643782015,4.404693468970183,2.559760338873204,0.7056424542690435,0.11485570963675577,0.4690882895590829,0.5840028834153542,1.145689082796811,2.445894674036311,-0.027766597630310218,0.03229689959789925,-0.9321890028731996,0.3584098795863062,-112.02782477804737,18.459747899511772,9.544403560722143,0.4673030029624223,0.2528269146420839,0.49041073046803285,0.9397427953424862,1.605851092340614,2.9754293515948356,-0.08873167181451941,0.1576371591172169,-0.809227717018369,0.560964791128044
0.13,-108.7989897554499,30.460743505072823,176.91337744453833,0.1850815473816393,0.29624238883908643,0.09676652087834745,1.4862628219170173,0.32303781107304325,0.7926447994306316,0.5561418024728603,0.790826416207227,0.1313944971192976,0.22712533769581245,-97.29015039392421,25.36435802568587,228.1359688581302,0.015936996784044484,0.6686211002880603,0.04170127422501021,0.963851245931259,0.1379814291175887,1.2932389780399471,0.6555030441655706,0.6098169481758328,0.4317872579961551,-0.11296104622373769,-138.13541287117587,4.382324234931315,2.312935645559894,0.7152343563501102,0.10326309382965712,0.4631560362305957,0.5217413056707536,1.0203374265291896,2.3871260258121776,-0.028515925107221625,0.03039283732798412,-0.9327084178021783,0.3568357914913761,-111.48360521458477,18.881540226482482,9.8558081385336,0.49292986660698346,0.28533189991775093,0.4925743967655222,0.9289366375414861,1.427739358091176,2.872289574753172,-0.08958114618267463,0.16268022499315113,-0.8057384798984134,0.5650299482826068
0.14,-108.79409826947045,30.776547506655728,176.7484241065417,0.18314407065673077,0.3547267813565904,0.09013559151640045,1.4939175001543294,0.279846342058542,0.7023832513832523,0.5550124440980544,0.7904173245453349,0.13214630580729728,0.2300138147731967,-97.31463433510683,26.186051418098774,228.05227157209487,0.028891447903501746,0.757429807645906,0.041738196953884005,0.921121567817451,0.12965675700618157,1.1197405650295669,0.6564911957563339,0.6073569036005962,0.4349707490405478,-0.1073498222313444,-138.30695606172372,4.356252879339403,2.1609899112064492,0.7100836227482338,0.09631189843656164,0.45627534521173774,0.4578767544284643,0.8985215111952691,2.3073209646113795,-0.02903365646637761,0.029330362450222337,-0.9332610026290157,0.3552284112767408,-110.8900001105939,19.352112425400996,10.205058631315625,0.5189039862177643,0.32410312031317506,0.48590852331516704,0.9235443455661709,1.2563878977161305,2.7506321845587247,-0.0904056016791697,0.1682390885574088,-0.8017512358153739,0.5694859850231523
0.15,-108.81402518488764,31.16767276680432,176.5989672615685,0.1813927932386282,0.4230082333698776,0.08415504041221375,1.499576418219598,0.24991486791825748,0.6282221538671036,0.5536163110455021,0.7899396441426279,0.13332433967329033,0.23341208730258223,-97.33686593943263,27.09460022193278,227.94437754247733,0.046849196875974726,0.8510016040614304,0.042066385066172565,0.8684599812719422,0.13216832754565636,0.9554953157071142,0.6575317745455255,0.604616697876962,0.4384260032591432,-0.10105252807431227,-138.4986022652023,4.336874513097453,2.120222233551773,0.6902570287085599,0.09459618179108417,0.4480331381146994,0.39635767384552106,0.7834253915634862,2.2019360792409044,-0.029342727918461327,0.029251606124478875,-0.9338633390189425,0.3535306608450702,-110.27268604703814,19.87141987638036,10.606869115587282,0.5455103736714846,0.3687670644281927,0.47108530953386024,0.9241105222533624,1.0984595418023118,2.608914266469315,-0.091141251933916,0.1743297930337871,-0.7973090661080701,0.5741516765795193
0.16,-108.86749058392705,31.64350576340562,176.47018931171044,0.1802350243777629,0.5004689510841676,0.07955528895266081,1.5009149504035728,0.23381191365816292,0.572387657234054,0.5519013776718087,0.7894137069880934,0.1349712085186944,0.2373693894348381,-97.35463761896237,28.092034936894528,227.81262836338726,0.06885894903006665,0.9475427762763546,0.042743566798160174,0.8072016187353099,0.14387293202606707,0.8069262044843076,0.6586347786839936,0.6015657311300611,0.4421696817116622,-0.09404914408450737,-138.71738689839322,4.334358891627097,2.1980417772080543,0.6566001592210583,0.09858102449753416,0.4383511559865679,0.34052877431570033,0.6788059037926906,2.06940191587155,-0.029486806213569732,0.030224187550292863,-0.934521179580305,0.3517011667665567,-109.65439443997876,20.438318160856024,11.074195627601283,0.5727813400317274,0.4186094956892379,0.44943811396009115,0.9297238562689885,0.9587096019408567,2.44815534115495,-0.09173186097093254,0.18094927760123286,-0.7924490025777714,0.5788567673938495
0.17,-108.96159832052668,32.2125831140832,176.3676032567819,0.17999576701317996,0.5860572151406244,0.07691089149622646,1.4958458434137116,0.23120857666830924,0.5373356642544096,0.5498283859192435,0.7888468854313044,0.13713010139926968,0.24192584461158467,-97.36509145882911,29.179184931650177,227.65789481957006,0.09386480655166284,1.0453840236728928,0.04378969751978526,0.7400951429798988,0.16283816490604924,0.6788414143365402,0.659817249835307,0.5981726659833912,0.44621023375056734,-0.08633443156559488,-138.9676556767853,4.358291452856762,2.3923437658457103,0.6106604175315042,0.10857004458153496,0.4274939818338529,0.29300880354541387,0.5885067768266478,1.9111695985306307,-0.029530053873210456,0.03223595029267697,-0.9352310717902966,0.34971455591337236,-109.05346929736669,21.050677494220622,11.616999683106275,0.600495313267218,0.47261713974526476,0.42287078035639886,0.9382469001034441,0.8399108683907364,2.2716619282919757,-0.09213426128824861,0.1880753223193253,-0.7872026443816497,0.5834519145028507
0.18,-109.10119754394141,32.882428141290724,176.29688720922584,0.18090182097612745,0.6783914998665466,0.07658584381380779,1.4825681665111752,0.2409864666961562,0.5252511728198646,0.5473741005093513,0.7882315334664785,0.1398447731102724,0.2471114391985876,-97.36516286868772,30.356106488667542,227.4817015959353,0.12072197435406533,1.1430814236437041,0.04518574055398601,0.6711065553190165,0.1869656518809315,0.5743661744144333,0.6611002001928661,0.5944049918806384,0.4505499019436489,-0.07791557087963256,-139.2512156080035,4.417426834545289,2.6917601380884744,0.5545660753907968,0.12468552842019623,0.4160409995420947,0.2556437679771371,0.5159411231256973,1.731511574491821,-0.029555469964797312,0.035197001748332395,-0.9359832526560607,0.3475592189661706,-108.48295741397656,21.705608344351663,12.241087901550852,0.6282013112002736,0.5295630412667007,0.39368431174711427,0.9466993297933886,0.7430364469509326,2.0845628650231,-0.09232405348510694,0.19566832738852577,-0.7815991712186428,0.5878161176027152
0.19,-109.28830866850177,33.659419838718854,176.26365108260862,0.18306275392742416,0.775881933635974,0.07870515409046197,1.4596211451518475,0.2613759812874241,0.5375825843405501,0.5445342662653408,0.7875434431165593,0.14315913155427173,0.25294524110770006,-97.3521102523741,31.622550298003777,227.28625767387067,0.14822108172196294,1.239488011899101,0.04687677298704246,0.6050929835901527,0.21412468330942766,0.49498569452722024,0.662504332871513,0.5902294680894629,0.455186810512344,-0.06880819287513174,-139.56775806032684,4.519547746267359,3.076655546664902,0.4908817609422357,0.14686342183939435,0.4048209733700656,0.2295327447512231,0.4636107543083146,1.5371241029031681,-0.029661955226779085,0.03894798383574733,-0.9367651609927826,0.34523320174268235,-107.9502772364341,22.39982209570791,12.947132830447414,0.6552711623074511,0.5881302880626745,0.364357397491003,0.9517334816589891,0.6676194983299176,1.8932182348088302,-0.09230134800485848,0.20367505981243328,-0.7756701542828328,0.5918614174882428
0.2,-109.52164973483087,34.54868382505333,176.2731316811918,0.18644996105927428,0.8768548953945591,0.08315367914074316,1.4259445785586167,0.29010272931216097,0.5746681496448699,0.5413259248013306,0.7867408588661653,0.1471164675174645,0.25943476144314903,-97.32406616787713,32.978400939908205,227.0743508797671,0.17512378208932625,1.3337878594797683,0.048779470633421404,0.5473806041396724,0.24228334130794482,0.44066763680968063,0.6640450806833474,0.5856136292147506,0.46011661214814253,-0.05903108351348572,-139.91543744238368,4.671409554268201,3.5206926633939215,0.4224600710563167,0.17486343519383948,0.39481885927659327,0.21511983682327165,0.43272946062981243,1.336576207890715,-0.029960311892542408,0.04327312834899855,-0.9375648190994442,0.34273909157973,-107.45744019653335,23.13013813395935,13.729981431686028,0.6809779539089015,0.6470611692595379,0.3373216608758519,0.9501393754459884,0.6121782714870257,1.7045739565637164,-0.09209625235717327,0.2120343575489579,-0.7694551356662326,0.5955349883433156
0.21,-109.79630935442015,35.553999865410304,176.32981788789388,0.1908802298399439,0.979666567082595,0.08959992168171609,1.3809506788371657,0.3245331510035971,0.6354956787400171,0.5377886605896586,0.7857642115775978,0.15175832577250736,0.2665754668892718,-97.2805393208219,34.42402101765276,226.84908110879542,0.20020962926852948,1.425488932051825,0.050793659474031534,0.5032904248273823,0.2696255255506268,0.4100466066921729,0.6657275006239595,0.5805283920124389,0.4653332686580419,-0.04860012978536608,-140.2914917459964,4.878744976500056,3.99278516704555,0.3523074183036591,0.20829278386156594,0.38707277565535425,0.2123370209668168,0.42300178998823124,1.1396446278707375,-0.030568437412947774,0.04791658355803791,-0.938373446609144,0.3400788156417992,-107.00173823225143,23.89412726039253,14.578353453393115,0.7045946418786398,0.7053137163423524,0.3147650096877942,0.9393180971389842,0.5745947421834215,1.525528465565247,-0.09177361144138234,0.22068459687873374,-0.7630066211011353,0.5988190353943218
0.22,-110.10362397895695,36.67772848418953,176.43701234811107,0.19601257877208764,1.0827944218120438,0.09754019992841875,1.32460729414258,0.36182168068813114,0.7176173394093256,0.5339842826225193,0.7845368850022778,0.15712289615274097,0.2743506464354169,-97.22279911659908,35.960444425786626,226.6134275013952,0.222330962774196,1.5143762247095347,0.052816955438965654,0.4776583175841532,0.2946486788612048,0.4006619218158821,0.6675414734167241,0.5749516227623193,0.47082870855139286,-0.03752228868610726,-140.6928149256644,5.1463023038929165,4.45927903228908,0.28347822558586216,0.24664038879631064,0.3825802684822456,0.22077113693279457,0.4325848207248055,0.9565750752345652,-0.03160600767662545,0.0526006501924094,-0.9391869269445192,0.3372491959959313,-106.57677272804786,24.690853983529024,15.47502295077618,0.7255026979433907,0.762205988277878,0.2984825949644158,0.9176642233984947,0.5523726805724373,1.362361955614308,-0.09143629339369143,0.22957248467229777,-0.7563930015162017,0.6017290470003016
0.23,-110.43132506213821,37.920764779008806,176.59634446301072,0.20136493602033317,1.184899342249232,0.10635718531670543,1.2575238883637776,0.3990673812034582,0.8172215293918728,0.5299943930085187,0.7829674427947425,0.1632427148685201,0.28273200604034826,-97.15408580115337,37.58938631240189,226.36966770937914,0.24046974948448827,1.6004316907807776,0.05476076870112485,0.4743954917185682,0.316244469560112,0.4092385057019731,0.6694575366452454,0.5688723199761437,0.4765913095636903,-0.025790431045254043,-141.11642446010256,5.477893193279965,4.886237146026577,0.21900366999715246,0.2893172478105345,0.3822282850302758,0.2398215789803795,0.45823423339020575,0.7973161471764157,-0.03318895987929153,0.05704483666293592,-0.9400060371933437,0.3342389294305923,-106.17368329438233,25.52165254266884,16.3975615128788,0.7432981755639151,0.8175302261530333,0.2897819459164882,0.884807939322452,0.5427621498285424,1.2202636744081492,-0.09122610121585262,0.23866247545932603,-0.7496980180579902,0.604310908793163
0.24,-110.76401900313405,39.282525261795136,176.80726170217648,0.20635234364965557,1.2848537736167165,0.11538589633520274,1.1810283716847172,0.43348673307790203,0.9293468271422819,0.5259153345016082,0.780953724339434,0.1701414715951911,0.29168136054386085,-97.07960789458738,39.313065856551454,226.11868960085636,0.2537897294933561,1.6837321993562566,0.056565391906247174,0.49613311590777703,0.3337668238368791,0.4319933703154878,0.6714236244201078,0.5622949097659952,0.482603366738061,-0.013379819447375966,-141.55980224161598,5.876431661954566,5.24173456575996,0.16185081729807863,0.33569903132367973,0.3867542698784089,0.2688188131716375,0.4956142901795332,0.6707767769920603,-0.03542406170704178,0.060984925598646884,-0.9408355940521786,0.3310273993454429,-105.78243336881894,26.390850252792887,17.31969881661145,0.7578822523854896,0.8716234308490965,0.2894412638754253,0.8416909776947844,0.5427920385899596,1.102984744824723,-0.09132122405719974,0.24794591279084272,-0.7430156853179808,0.606637232874926
0.25,-111.0840431094979,40.76096423614277,177.06653991455815,0.21034406394792268,1.3817341540303285,0.12397992785686254,1.0972257991490142,0.4626022969741109,1.048208627632043,0.5218502594824204,0.7783890236300971,0.17782983484643503,0.30115357644936463,-97.00631152455195,41.133862416442184,225.8592551108858,0.2616794604928623,1.7643406555615444,0.05821179006388546,0.5439867340826234,0.3470867956741787,0.46494320944613476,0.6733630387688596,0.5552431153568552,0.48883789822132423,-0.00024676377613378354,-142.0211175341678,6.34395412480179,5.498092666342096,0.11489929697455885,0.38516883551666486,0.3967392813124938,0.30708495127271007,0.5397370666287153,0.5841570461397184,-0.03840378811814657,0.06419144701592588,-0.941682832710096,0.32758540387004964,-105.39301782704833,27.3063425989141,18.213323703369664,0.7695252305699506,0.9253871397256086,0.2977160089274013,0.7904806286674355,0.5492776720954735,1.012637443782388,-0.09192910876964148,0.2574489041778387,-0.7364400512939144,0.6088030789261033
0.26,-111.37269991296986,42.35260599530089,177.36786756759236,0.2127342691132821,1.4747797286069886,0.13157151106723972,1.0090324932561712,0.4844367046906971,1.1675967828323717,0.5178985445109551,0.7751702514637211,0.1863004275568516,0.31110059922254174,-96.9424300374398,43.05383951002597,225.58729102537848,0.26378542124212,1.842206948397938,0.059728306399278376,0.6174605867121215,0.35662592618211036,0.504185481030847,0.6751740711567389,0.5477629412535038,0.49525528351361486,0.01367027399175434,-142.4993623673389,6.88162076965804,5.633987345015839,0.08091919911942487,0.43716006333942553,0.41262863791098287,0.353928970440695,0.5854861099816661,0.5423958174832811,-0.04220165577445561,0.06648704613752975,-0.9425554172520385,0.3238775403664958,-104.99647422636525,28.279929475455965,19.051107614944815,0.7788964846279477,0.9802558134196478,0.31438534393230155,0.7343512913118305,0.5588667316608478,0.9496480646731842,-0.09327384079005907,0.26723796072718636,-0.7300497679343683,0.610921101048223
0.27,-111.61180910174765,44.05257339930498,177.70157131664342,0.2130184604389732,1.5633241493361798,0.1377206253474071,0.9201743546373616,0.4976903549334423,1.2812975585584492,0.5141433937822932,0.771207614698646,0.19552235872197488,0.32147610406433597,-96.89684448776791,45.074175723258485,225.29529155481688,0.2600364976294079,1.917092850982349,0.06119169164798203,0.7144919143014956,0.36335364372101625,0.54612739792847,0.6767317077532505,0.539924441021129,0.5018002960955609,0.028447118175280114,-142.99443841778518,7.489709862699042,5.636361394341927,0.06253594115147637,0.49119975848334835,0.4347703720580412,0.4085782328679579,0.6281707133983447,0.5477681017863251,-0.04686814855747473,0.06776221497099973,-0.9434594794006919,0.3198657200213957,-104.58560406482029,29.32733788879689,19.80968099583175,0.787056522436555,1.0381183024387477,0.33882685841669563,0.6771756513591918,0.5681668385958449,0.9128500292562408,-0.09557761256358847,0.27742254727162063,-0.7238881209657322,0.6131160748356016
0.28,-111.78543524254412,45.85459418224076,178.0545533976173,0.2108649975181903,1.6467101036320315,0.1421495695477806,0.8351254368933932,0.501872880874987,1.3835000001888773,0.5106390975283066,0.7664349449865648,0.20543598756673168,0.3322400936860658,-96.87830553202548,47.194541385870366,224.97192244132466,0.250660206742207,1.9885282557213246,0.06272295538896829,0.8316160133891732,0.3687328104709897,0.587645904445839,0.6778917113784566,0.5318220809236583,0.5084000637622026,0.044168046886544604,-143.50722814141244,8.167625750214846,5.5020573671971835,0.06217285208989879,0.5469511554618198,0.4634561462974033,0.470058727636064,0.6640519573865948,0.5996525424820621,-0.052427424085027555,0.06798871842194974,-0.9443979958966162,0.315513205670525,-104.15534206496127,30.467876400173704,20.473228697482934,0.795409854549605,1.1011987673502988,0.37010734251550764,0.6231669214990537,0.5739744290354012,0.8996867128729296,-0.09903654241153721,0.2881538732538017,-0.7179398615876147,0.615518747398911
0.29,-111.8815665276051,47.75097308384578,178.4104972142727,0.20617021995601528,1.7241997168246055,0.14475980232422014,0.7589513607054567,0.4973586162946195,1.4691582262568688,0.507399898046767,0.7608194246958581,0.21594881751157552,0.34336263710862536,-96.89458526515683,49.412456689164266,224.6019153623366,0.23618771711865566,2.0557976042850936,0.06447869897467659,0.9642176163316,0.37460283228004143,0.6261749642568004,0.6784970816540026,0.5235736641814955,0.5149633680911502,0.06091797005397053,-144.0396627679679,8.913945261503994,5.239067809365887,0.08196739365754137,0.604252213997673,0.49894467995241226,0.5370512157054352,0.6907834204042407,0.6944795967078672,-0.05887507485368639,0.06722982146413028,-0.9453696456623321,0.31078869131418907,-103.70274741996512,31.723685045081616,21.037291986510454,0.8056187672509683,1.1719025531999419,0.4070794181758161,0.5765072564032138,0.5736025570926161,0.9064870800249262,-0.10379185035962617,0.29961948263761023,-0.7121068587381041,0.6182589679139837
0.3,-111.89347155577524,49.73252830109521,178.75036654879733,0.19908793014304543,1.7948938294153627,0.14562861427585022,0.6970250638824619,0.4853487946519448,1.5342850193513644,0.5043925746002554,0.7543692615578439,0.22693349541234584,0.35482593478039237,-96.9516424940565,51.72266179614978,224.16633169813076,0.21744209835728653,2.1179492182524338,0.06663784076381635,1.1068256174534554,0.3830013424869923,0.6597269412469167,0.6783865432773848,0.5153179002424438,0.521381517714907,0.07877295463890756,-144.59477098036467,9.72652441003469,4.867279323704894,0.12366164269774256,0.6631455118250578,0.5414468551600043,0.6077640283558812,0.7077164263124945,0.8258673297909365,-0.06617727565413282,0.06564623095300358,-0.946368061401419,0.305670185336867,-103.22662822830526,33.118561850842326,21.512480083533674,0.819479686806781,1.2526314125398839,0.4484773186515139,0.5409939228592656,0.5652832713946374,0.9287809210436049,-0.10989812567837678,0.31203344342937805,-0.7061852061662615,0.6214580657483689
0.31,-111.82049007254513,51.78850188817851,179.05318445219712,0.19002793790415906,1.857671839028483,0.14498521306084328,0.6546060632690133,0.46774439057548006,1.5761482817487313,0.5015344778106923,0.7471380398093519,0.23822869446726933,0.366624074193786,-97.05289208542584,54.11652568464709,223.64325168610088,0.19550516877480267,2.1738195950688968,0.06938305202218485,1.2534110376203729,0.39593946977469247,0.6868581683273856,0.6774044389641668,0.5072107369902944,0.5275308466550883,0.0977895350182082,-145.17666398819014,10.602677816445683,4.41857399983444,0.1884729917821888,0.7238937683413899,0.5910572025723003,0.6798671059038992,0.716031274912755,0.9849515638637762,-0.07427165521165359,0.06349662710502513,-0.9473811827612724,0.3001486935129684,-102.72684580987864,34.6763687216478,21.92771740164005,0.8387669626470105,1.34557395607207,0.4930085050830039,0.5197329976387566,0.5485947163269889,0.9616295436351414,-0.11729112645927578,0.3256221775465653,-0.6998468731413005,0.6252204745865168
0.32,-111.668126070887,53.90646380815337,179.29703950327112,0.1796221991444668,1.9111622156775092,0.14316883160452118,0.6363117708569055,0.4469531665338843,1.5933438751967222,0.49869780287122467,0.7392250159682188,0.24964317538277198,0.3787602217775553,-97.19866248438255,56.581522210749256,223.0089054882499,0.17166296599446002,2.222068862585324,0.07287676968868104,1.3976650390391876,0.4151579526633167,0.7065902103492601,0.6754113014717255,0.49942054567968097,0.5332767189200003,0.11799340507569679,-145.79039636815048,11.539428404824658,3.9361575072536135,0.276957622980828,0.7869743387082792,0.6476297407163328,0.7505216380051132,0.7186746030417338,1.1609125365559347,-0.08307015632811723,0.0611318132680718,-0.9483903374483224,0.2942318178541602,-102.20337691127757,36.419050701981305,22.33259988282649,0.8650538938676909,1.4524820658298379,0.5394394947088674,0.5149035639926557,0.5248386544083685,0.9999571211529742,-0.12575820222364548,0.3406062339877831,-0.6926291531464301,0.6296246887363047
0.33,-111.44745938379606,56.072238307938626,179.46023702087268,0.16866127333758432,1.9537528704508176,0.14057475753732035,0.6455441335030885,0.4256642683426727,1.585737496440718,0.4957196953249356,0.730771308349179,0.26096274599350205,0.39124148821660254,-97.38590387376009,59.100810234717386,222.23920867800572,0.14733535213329849,2.2612281894335484,0.07723326390555374,1.5332578128345264,0.4418988426795908,0.7183049808466927,0.6722944216764991,0.49212225447885105,0.5384787692739182,0.13936825644692277,-146.44164599235046,12.533807649357282,3.4730178761811197,0.3888859430384493,0.8530462924403818,0.7106152132762867,0.8165184816642693,0.7201065088834337,1.34168493552182,-0.09246395948185916,0.05898183772164921,-0.9493687753171235,0.2879473468466255,-101.65523786565427,38.36434524937651,22.798419852349053,0.8995264226159445,1.574450229906504,0.5866735930679021,0.5276036939183298,0.4972818434887875,1.0388725398051417,-0.1349149274691667,0.3571786541731626,-0.6839349610144563,0.6347137723873492
0.34,-111.1740100360096,58.269888979431215,179.52249710811938,0.15800921785693656,1.983648818133126,0.1375968692191284,0.683953307607814,0.4066226656443398,1.554300428546458,0.4924167858389435,0.7219525024859795,0.2719594309968554,0.404072158966841,-97.60817816308277,61.65296598272961,221.31160351702832,0.12399809369652479,2.2897612512463104,0.08249014009585408,1.6540973471013871,0.4767276076266301,0.721642441444633,0.6679777988236757,0.4854906213054157,0.5429969937335573,0.1618456816898009,-147.1361822972761,13.583171296118172,3.0894878730198023,0.5231532660263869,0.9228861337542926,0.7788954574407501,0.8745145049578715,0.72588057312022,1.514813338147166,-0.10233024318659045,0.057535932581127464,-0.950279600892576,0.2813467463063133,-101.07939486275204,40.52330898930291,23.417454692598326,0.9428087050959485,1.7117187817510444,0.6338155147298369,0.5577802743114668,0.4711807798341575,1.073970760692267,-0.14419175614851165,0.37548104929790327,-0.6730464492169185,0.6404858069431991
0.35,-110.86624563320561,60.48180267955069,179.46610397241707,0.14851026934942474,1.9989795711536176,0.13457631262023187,0.7510190904976204,0.3924273644437914,1.5008900020978937,0.48860223361030547,0.7129685443931127,0.28240204667514024,0.4172462856082668,-97.85592976228217,64.21192462158547,220.20704917093903,0.10310466953264291,2.3061397916615967,0.08858412492498044,1.7546118928565806,0.5194324188928849,0.7164348653146646,0.6624308474768965,0.47969297614883794,0.5466982264925209,0.1852972021107146,-147.87913367005297,14.685485580917314,2.8499844427837875,0.6777481644363756,0.9972923667903262,0.8506609229851895,0.9213370235247766,0.742091289842415,1.668388430408322,-0.11254020123989489,0.057315793023675614,-0.9510732803453029,0.2745082625597714,-100.46979817202644,42.89784013665899,24.30020597260155,0.9948199652699761,1.8635212154835579,0.6802138103467623,0.604241691556282,0.45353250178328813,1.1016013395535313,-0.15283434266878912,0.39557907036213485,-0.6591535059848712,0.6468848606045102
0.36,-110.54392333604449,62.68890840027351,179.2769301163984,0.14090295201638725,1.997950275106268,0.1317645823246595,0.8438155340559805,0.38536539970563466,1.4280277459087005,0.4841033229931588,0.7040319256860254,0.292067493069964,0.4307407284489025,-98.11700931606515,66.74719077105473,218.91195775207566,0.08601172710707908,2.308930253423386,0.0953365161161195,1.8300718556626887,0.5690140049797294,0.7027030567167273,0.6556751322911987,0.474881882840456,0.5494624846675596,0.2095295745749971,-148.6741099437484,15.83953561500152,2.819120702485445,0.8497940510272161,1.0769635432765579,0.9233738923657786,0.9543157693611243,0.7747315843881036,1.7919801610942292,-0.12296740552307617,0.05884359113721936,-0.9516850616654713,0.26753921441959205,-99.81668465066649,45.47841449773988,25.57042229091171,1.054678838245576,2.027990604789169,0.7254689958739062,0.6647513540737341,0.45253164142896035,1.11909219234622,-0.15992053224700187,0.4174394913456167,-0.6413975322090684,0.6537932921077673
0.37,-110.22642972039395,64.8710538009112,178.94528723202632,0.13575504907181438,1.979022032754981,0.12930558151765267,0.9570035528758954,0.3872824320969441,1.3387088687403401,0.47877793879536623,0.695355126443027,0.30075225288629825,0.4445096155387706,-98.37740321237783,69.22437389263213,217.4198452859343,0.07390926035810963,2.2968859224255076,0.10245290677825346,1.8769476155798925,0.6237648949501704,0.6807174292071245,0.6477882850829878,0.4711882560668781,0.551188624180747,0.23428452180259549,-149.522272358998,17.045010010938555,3.0575120593658305,1.0356678368731584,1.1623583838651539,0.993843296968455,0.9715971398639794,0.8290119898004837,1.877477933938952,-0.13349534515207387,0.06260712350537509,-0.9520327181074347,0.2605770321480666,-99.10628867723565,48.242273659393774,27.35793480189746,1.1206662000524952,2.2021338721431496,0.7693974904225653,0.7361956871842115,0.47676031587372786,1.1249141976236126,-0.16439587445256204,0.4409114969161604,-0.6189295211237292,0.6610264157931761
0.38,-109.93124720016844,67.00754204321589,178.46658342734528,0.13342723623276945,1.9411014765354986,0.1272364538398854,1.0830788830068927,0.39948471936277574,1.2362543709571558,0.47252865395173704,0.6871381356638673,0.3082836614259356,0.4584808867370057,-98.62210945767978,71.60609482671721,215.73246255954376,0.067755568662134,2.2690368944670953,0.10953959275582154,1.8932700670260232,0.6814246966368038,0.6510992704905754,0.6389042181541501,0.4687155138979393,0.551798750355004,0.2592438897845384,-150.42146251572683,18.302423474252006,3.6177024844361556,1.231186023442976,1.253550893504577,1.0584135093907823,0.9723932442788075,0.9086990503448777,1.9197540952728167,-0.14402285210159438,0.06902544482586974,-0.9520150090848702,0.2537887058944001,-98.32108032516108,51.152302988786275,29.789566811768008,1.1902517037101585,2.3818781144839622,0.8119505852733429,0.8148125832266734,0.534182409216169,1.118764295590484,-0.1651279198859866,0.46571483203342223,-0.5909798940939391,0.6683306981340417
0.39,-109.67264651220552,69.07780824151878,177.8417856319421,0.13406702735584697,1.8837172397539352,0.12550308926145687,1.2128876832210593,0.4226676622212867,1.124203785509643,0.46531355933453716,0.6795567099599225,0.3145304533028344,0.4725552291703969,-98.83609519603777,73.85329278167904,213.86019667672403,0.06821748736864697,2.224768471217785,0.1161358538759548,1.8789268822778191,0.7393911764921494,0.6149165892127295,0.6292088435905306,0.46753531366868345,0.551240887520109,0.2840409588219271,-151.36550227732062,19.61285362258371,4.540685800748173,1.4318368646527628,1.3500993346156003,1.1132474378124233,0.9571196762123383,1.015529864530461,1.9170804462586926,-0.15446624348330126,0.07841890732514768,-0.9515111629901091,0.24736847496451886,-97.44060584678017,54.15681472673007,32.97863082925902,1.260184361329293,2.562190887808882,0.8531001200800689,0.8964595859185132,0.6310481339086109,1.1015391471472065,-0.1609776295190692,0.49143717054433145,-0.5569358052012838,0.675386669108163
0.4,-109.46068111269426,71.06219018065146,177.0776907047111,0.13763045246525726,1.8071596082090375,0.12398479555422406,1.3363965349988045,0.4568708724373047,1.0062383487101596,0.45715327311326276,0.6727519647804341,0.3194119763871808,0.48660739068442393,-99.00527179244604,75.92693207654858,211.82159864927138,0.07561768543494762,2.163878752341235,0.12175821903430141,1.8358069261114875,0.7949669243038484,0.5737248709945781,0.6189307978945189,0.46768529501870765,0.5494895628666326,0.3082781564345245,-152.3437624277561,20.977492255556662,5.853458366518565,1.6330299269092687,1.4509541307062777,1.1546690830190203,0.9273883014203709,1.1487570808085692,1.8712461577017414,-0.16475745542546064,0.09098735157764382,-0.9503815430772624,0.24153372209991944,-96.44294014042774,57.19040758766005,37.01377742976141,1.3266445024283822,2.7372749712591533,0.8927128333208315,0.9768988568524154,0.7708362251166481,1.0751788031687817,-0.15088407034838217,0.5175424441601709,-0.516419853527302,0.6818175703526815
0.41,-109.30053668553593,72.94272435819788,176.18699720556938,0.1439264430058843,1.7125598926626282,0.12252356807596712,1.443656806444797,0.5014652789066386,0.8861149968682087,0.4481337785806332,0.6668219493777985,0.32290535996022235,0.5004896386227453,-99.11742763941092,77.790058507303,209.64200227349863,0.08989279549951745,2.08660966742163,0.12595098597753276,1.7677170409953724,0.8456253316865748,0.5295212469211484,0.608327208521149,0.4691690504556352,0.5465442484552846,0.33155063843212285,-153.3410747542663,22.397044261898557,7.567907188053613,1.8303330094606374,1.554431507931803,1.1795229976599437,0.8858497864171454,1.3048817089731701,1.7873507260669173,-0.17483817360986909,0.10679916563592441,-0.9484694892523525,0.2365190746358517,-95.30668164167278,60.176007437831906,41.948185072253324,1.3854529047339266,2.9008356961531128,0.9304403534304225,1.0520783021052758,0.953371400302028,1.0423826653725994,-0.13395632700000024,0.5433910448988509,-0.46936258267515374,0.6872043998024329
0.42,-109.19226656300994,74.7038815160673,175.18814949288034,0.15267633737886369,1.6018913882747594,0.12095483117664522,1.5258449138619992,0.555180434202035,0.7675847702920693,0.4384049112181427,0.6618159411534921,0.3250498541348496,0.5140370183950512,-99.16306496983147,79.4100889352231,207.3513500550752,0.11056806387659779,1.993651809888591,0.1283367421317018,1.680042912985804,0.8892796590390224,0.484614386049226,0.5976653087958576,0.4719582472686671,0.5424260353558438,0.35347415027069157,-154.3380332825386,23.87104297049933,9.681143651544575,2.0196711909731944,1.6582723430176118,1.1855059381632431,0.8359174569927871,1.4776371136135813,1.6732780965977223,-0.18465078534910806,0.12579231734134486,-0.9456041743307649,0.23256869606058755,-94.01333900748384,63.02810259005894,47.790248215353216,1.4323315514257717,3.046413546069643,0.9656508584394191,1.1183933697403132,1.1742529124472392,1.0062314840519022,-0.10956445990901796,0.5682718214622967,-0.41606008452137355,0.6911074487229882
0.43,-109.13092531225132,76.33315375343511,174.1049131678957,0.16357750399083046,1.477886276024475,0.11913670262389506,1.5762196833276656,0.6161779028250891,0.6542738120959994,0.4281745119916587,0.65773216284805,0.3259475632245202,0.5270740321057357,-99.1360950424919,80.7611499214492,204.98151231893743,0.13675504626355642,1.8861294988076103,0.12866095195480715,1.579190432235864,0.924529394799684,0.4414430237903445,0.5872015903980439,0.4759964181859739,0.5371733991902268,0.3737144757538096,-155.31169527794287,25.397177549761064,12.177190283142332,2.197472365960439,1.759789335603601,1.171428673818677,0.7814317844399581,1.6582822641691692,1.5388966200922796,-0.1941276254412011,0.14778673192523367,-0.9416042202448408,0.2299267721537055,-92.54988860770558,65.65707336330256,54.4969983094459,1.4632080830442882,3.1677658613648045,0.9974214186209748,1.1729213305127109,1.4247110049984124,0.9697779524923872,-0.07741974277923168,0.5914446272725419,-0.357207747741486,0.6930936884943809
0.44,-109.10709843966661,77.82142376017985,172.96564864252343,0.17635732500037135,1.3438792024220674,0.11697408238809057,1.5908417194121285,0.6821722847721384,0.5495233205343402,0.4176984906429778,0.6545194067287462,0.3257599541416344,0.5394223510358042,-99.0343555822565,81.82623102099586,202.56354571470348,0.167178423911381,1.7655758237706833,0.12682574093064647,1.471898601783264,0.9508431836268638,0.4023871532314769,0.5771610007887048,0.4812034764905746,0.5308383378107345,0.39201486764972343,-156.23665054286192,26.970734770460897,15.029755198677638,2.3607552402829177,1.856085992412464,1.1373742753536733,0.7263306815024234,1.8362316959699037,1.395070504941238,-0.20318028343333835,0.17250588586673182,-0.9362818252189582,0.22882632915007767,-90.91123329006385,67.97438503413117,61.971435901380886,1.4745513737338853,3.2592708656684444,1.0245971444735111,1.2136296345584057,1.691967783744398,0.9356836429459888,-0.03763375796660257,0.6121908796064903,-0.293902041630735,0.692768494827921
0.45,-109.10780837940685,79.16308352112841,171.8022729750192,0.19080351430053824,1.203601174292616,0.11443425893129157,1.5689456786311922,0.7506000038882361,0.4562078409856196,0.40726726602991814,0.6520826744665599,0.32469985575868043,0.5509091565144761,-98.85992283267562,82.59889843697499,200.12544329625678,0.2002367906630976,1.6339067441326196,0.12290953391530038,1.3645404686411844,0.9686302891345421,0.3696064222392836,0.5677192371466251,0.4874796593483877,0.5234843769776704,0.408217345374997,-157.08638239929533,28.584240725479376,18.205702101924,2.5071655229448,1.9443158713685664,1.0847336506913303,0.6743745737488472,1.999990123118332,1.2526020412917849,-0.21169067697228028,0.1996044014071293,-0.9294472546432824,0.2294767703396598,-89.10227527845164,69.89827914469419,70.0647035571423,1.4637176653115445,3.316318095494478,1.0459066731529378,1.2395688874129447,1.9601197079592274,0.9059748971684864,0.009253281312432256,0.6298682556498021,-0.22760458756488688,0.6898092525532251
0.46,-109.11774655807945,80.35591443443376,170.64892228695678,0.2067595555522719,1.060951877461639,0.11155317941191244,1.5129212877559692,0.8188353219016534,0.3765658605768827,0.3971892573523761,0.6502924834978744,0.3230191090022414,0.5613756789423967,-98.61919618580492,83.08433166084293,197.69090954242378,0.2341002852718877,1.4933988130155813,0.11717021485839503,1.2625210710446158,0.9791634684487777,0.34492056595273546,0.5589911725078206,0.49470763130871237,0.5151877173537032,0.4222739762312964,-157.8348055828113,30.22735553379444,21.668749778813922,2.634970313116537,2.021944711192407,1.0161178248879863,0.6289453971288009,2.138284667504212,1.1212366276711736,-0.21950530577450778,0.228697870925047,-0.9209137013973463,0.23205080601867312,-87.13933596664802,71.35948114166212,78.5835324515877,1.429275365949622,3.3356446651984135,1.0601082507483794,1.251059980316172,2.2114875574435064,0.8819638305611479,0.06228192089416625,0.643964434574122,-0.16006688947595704,0.683997486560582
0.47,-109.12073984495143,81.40077940026183,169.54034232052615,0.22408032195623337,0.9197760784552358,0.10843412537358108,1.4279234886875518,0.8844426142949471,0.31207607404644744,0.38777230877171115,0.6489970280263119,0.32099250281518854,0.5706854987176262,-98.32273728533701,83.29950408837598,195.27948815607036,0.26684422766469357,1.3466682773350394,0.11002968042653528,1.1698503526485053,0.9843438086939231,0.32972883160343197,0.5510276073836167,0.5027521007138442,0.5060419603864664,0.4342455897892143,-158.4578452137467,31.88703787850313,25.38291954887303,2.743018829690075,2.086979919547997,0.9351646397578969,0.5929093471070422,2.2412302650484075,1.0088475843102935,-0.22643372641266882,0.2593911663696192,-0.9105026750417834,0.23667167996653898,-85.05071427981501,72.30636969068198,87.3026558152432,1.3712646428712265,3.315578176276931,1.066132615873385,1.249865591115451,2.428304109568263,0.8643380508550832,0.1201228234360007,0.6541439726635673,-0.09321974983942019,0.6752455834873695
0.48,-109.10132145135348,82.30119968957251,168.5100591198515,0.2425531806049155,0.7836646543389884,0.1052407670419613,1.3211883900336225,0.9454290459298137,0.2634016745817511,0.3793041580386098,0.6480359977591854,0.31889910835642765,0.5787321716595112,-97.98485105245656,83.27242774139135,192.9080061656931,0.29661131211702607,1.1966426536109847,0.10203856627853398,1.0889279926050301,0.986331865225219,0.3249573907222062,0.5438209161943061,0.5114573788629212,0.4961655893571654,0.4442877157536432,-158.93491944440083,33.54796418627427,29.315292870974336,2.8306735466514863,2.1381361132897636,0.8462689792854595,0.5685193879993349,2.3013582328291715,0.9208794885277805,-0.23225187943828848,0.291302020841167,-0.8980501975751818,0.2434017206617589,-82.8762662736813,72.70905223967307,95.98101658681034,1.2913416803347544,3.256154073430965,1.0631917025015383,1.2393001723221082,2.594539490307361,0.8533760937137842,0.18116230119537938,0.6602823915454556,-0.029037678179896276,0.6636142818641365
0.49,-109.04625765156995,83.06289212603149,167.58843321612446,0.26180222661796904,0.655794760722652,0.10218461539548614,1.2011720251057771,1.0004367003971941,0.23041241151334818,0.37203329704111854,0.6472546212316245,0.3170025687428023,0.5854457163054495,-97.62290648509925,83.04050693757515,190.59290702554082,0.32178578316289214,1.0465120618976163,0.093823103250289,1.0205365383021032,0.9871000404697985,0.3310267031843921,0.537318228196281,0.5206443506156117,0.4857102166760692,0.45262616331599864,-159.25020039560883,35.19316059653303,33.43774121813459,2.8977146068588335,2.1749093596571663,0.7542677497011666,0.557339929806665,2.3143848796333097,0.8600804815699269,-0.23671042862900632,0.3240775610798722,-0.8834141213233484,0.2522332914791765,-80.66599597534967,72.56188033597658,104.37982227050978,1.1927649834692533,3.159087196622517,1.0508357160034805,1.22419679622421,2.697616326840721,0.8492099213044667,0.24361417362908266,0.6624827094728628,0.03060604140845643,0.6493181565257531
0.5,-108.94588770396416,83.69332836506415,166.80076853725564,0.28120262883205277,0.53881598640279,0.0995055675710025,1.0766423890687133,1.0488132405840234,0.21228330512716378,0.36615175919468396,0.6465164567277178,0.31553220864159676,0.5907974692039456,-97.25641199782521,82.6481661093299,188.3527771716025,0.3411542209553716,0.8996485400147378,0.08602074189941945,0.9640073185439584,0.9879846731445643,0.3478389571901237,0.5314391977855611,0.530108846972041,0.47486698951628026,0.45952667673029163,-159.39354666221107,36.804784877037065,37.72744362360016,2.9442237751691134,2.1975405803089227,0.6641067762314116,0.5601916918616566,2.2796595599337444,0.8265116016646421,-0.2395477322592425,0.3574026230520081,-0.8664827678315014,0.2630832088887707,-78.47775215777489,71.88411386042043,112.28007718221724,1.080205857372659,3.0275956481922033,1.0289607423133282,1.2106460943460289,2.7297662191848002,0.8520429245604475,0.30564378347850063,0.6610718979973119,0.08407534675144353,0.6327181151191187
0.51,-108.79515619730299,84.20135297399293,166.16568972288903,0.2998337740168521,0.43478018346605946,0.09744585108278352,0.9558370315614166,1.0905357576001558,0.20765856313690004,0.3617813928051596,0.6457136322619418,0.31466684563835556,0.5948028358714176,-96.9058829365617,82.14400308868454,186.2103101279664,0.3540233164304603,0.7594875287487656,0.0792146421944726,0.917508326498432,0.9893299908669103,0.37479191864427236,0.5260946695998141,0.5396232432581103,0.46386861998717316,0.465263933627768,-159.36102515886932,38.3649835567813,42.166203549147646,2.9704598936170767,2.2068664885621865,0.5805110439859846,0.5771244032625547,2.2002751657235122,0.8177948351207621,-0.24050652358786434,0.39100004170265873,-0.8471847547029611,0.2757916061058302,-76.37421347819655,70.71867459137162,119.49734870314705,0.9594002114394372,2.8661004695385466,0.9977856441119116,1.2054767222335767,2.688839932875299,0.8622473331542925,0.36548891048485815,0.6565775430123322,0.13008164116254806,0.6143018173193366
0.52,-108.59424254946704,84.59686663487734,165.69397996704416,0.3164934222973487,0.34510504333027114,0.09622138313923848,0.8457588469289142,1.126013258841742,0.21486000831050114,0.358964944702638,0.6447736380579971,0.314522834716061,0.5975215767186078,-96.59156499717727,81.57775652340503,184.1931101448588,0.36026871343700606,0.6293746483885309,0.07387730115799887,0.8784061501466469,0.9903139094365746,0.4108260956295273,0.5212028068844307,0.5489423485736593,0.45298523711575467,0.4700946752662314,-159.15497599938118,39.85674926211719,46.73878014821198,2.9767426269975505,2.2040829187273707,0.5076748038176373,0.6074257298447995,2.082843544685984,0.8295505104506286,-0.23935291550033563,0.4246244768441152,-0.8254993883443932,0.2901259338655016,-74.41940653384634,69.12916359584852,125.89219053598492,0.8366884714118459,2.6798500725761265,0.9578223758391777,1.2155392888547494,2.5784859684154933,0.88030477566207,0.4215647476351103,0.6496875373093477,0.16775677880392956,0.5946542552020674
0.53,-108.34871897772103,84.89055409637494,165.38798869460578,0.32978294390091334,0.27056015674773276,0.09599722804179472,0.7516454655672871,1.1558253608445557,0.23211381850973276,0.3576628073849397,0.6436623210787533,0.3151472526913468,0.5990554574628884,-96.33210212468062,80.99736782090514,182.33305872221925,0.3603015405540658,0.5123892588930765,0.07033079175863446,0.8436660690408793,0.9890202167724468,0.45450719137763734,0.5167003595147274,0.5578135497573337,0.44251351465718425,0.4742382352297763,-158.7836265555129,41.264710368636116,51.430602445376536,2.9633629362017384,2.1904691697658025,0.44898503741934065,0.6496761014530036,1.93694660094212,0.8559718764264169,-0.2358960142571482,0.4580523239611884,-0.8014665648534678,0.3057902192970348,-72.67503221324837,67.19550238056019,131.3755810616013,0.7185015732283374,2.474531194647833,0.9098569240385782,1.246928206387049,2.4077129931087837,0.9066028910992435,0.4725447484541244,0.6411973860422263,0.19668443948030626,0.5744213321144258
0.54,-108.06920309238218,85.09362314102692,165.24161639287976,0.3382583641421987,0.21127091311754032,0.09687334479754584,0.6766318579770971,1.1804548384333613,0.2577681088369776,0.3577556991171786,0.6423832756693413,0.3165164423025399,0.5995433296828528,-96.14325549522356,80.44637696869705,180.664339600482,0.35495801208166167,0.4111614532027369,0.06872726649145826,0.8102634305090061,0.9827720150050198,0.5041385724775074,0.5125482307493416,0.5659900844978057,0.43275999012364463,0.4778657414177502,-158.2603242888656,42.57579321524918,56.22529887750629,2.9305359851577455,2.1671316250031065,0.40679091991407573,0.701865223079554,1.7742882401624205,0.8904832757428965,-0.23000625481094525,0.4910705486740576,-0.7751949396843555,0.322438928425705,-71.19687835272096,65.00866598665174,135.90957018050912,0.6108451127685343,2.2559212500345986,0.8549432288093208,1.304285102621055,2.1899260778770997,0.9411419553844962,0.5174139406694689,0.6319506172236246,0.2168919389630237,0.5542694951465177
0.55,-107.77051985823587,85.21752421664338,165.2408060694782,0.34062547574125007,0.1667452893823987,0.09888382516776194,0.621626125835654,1.2000563267200548,0.29047591757361824,0.3590529540000294,0.6409742357451492,0.3185395524037242,0.5991539550144032,-96.03678620903489,79.96183154023741,179.22051137531108,0.3453362861236807,0.3277003982553719,0.06905012359991317,0.7755788096382443,0.9686785492770693,0.5578935860208107,0.508731789670886,0.5732456240676457,0.42402067357928264,0.48109749521185957,-157.6025122539827,43.77970732323832,61.1024549340432,2.8784058719109553,2.1348177197306555,0.38223342360432283,0.7615862477534087,1.6076065472123007,0.9264256407486244,-0.22163057688575125,0.5234669370969451,-0.7468672083335929,0.3396940836845361,-70.03158523857574,62.665005258628725,139.5038499278894,0.5188244126994254,2.0296156948313255,0.7943969544649682,1.3902811848508387,1.9415772056052991,0.983228919752862,0.5554948242018676,0.622778082108653,0.22880862716355502,0.5348446656568019
0.56,-107.47044602227335,85.27363539288707,165.36443378542646,0.33594356555747823,0.13593359269193825,0.10200924933814196,0.5854131428675716,1.2142948196763927,0.3293240268855348,0.3613055623817902,0.639501283138441,0.321066295764707,0.5980771059833953,-96.01960566995066,79.57282025218109,178.03115586600458,0.332616684110685,0.26325019680111933,0.07113370142099491,0.7377405237594139,0.9442898430115614,0.6139565716618799,0.5052571128999499,0.5793882371914213,0.41655959895965555,0.4840069411850998,-156.83059265636183,44.86922326070782,66.0359397570535,2.8071042300499394,2.093832091734854,0.3751530527089039,0.8263053948511465,1.4494549224025124,0.957713138304695,-0.21080278256018078,0.555023575351009,-0.7167415527653506,0.3571639599253902,-69.21401220929025,60.26062083270911,142.20919290810656,0.44625068154873776,1.8008407804660993,0.7297704731591952,1.5053153035824973,1.6806025855772933,1.0312402062051362,0.5864481037142792,0.6144417224330797,0.23319889227556367,0.5167338494812032
0.57,-107.18816658159253,85.27291535550758,165.58548841950784,0.3237969898144344,0.11732793413874239,0.10619883582911903,0.5649785001134472,1.2222885260914544,0.3738973632669453,0.36422270518140404,0.6380517034056618,0.323897919472149,0.5965136375396389,-96.09327533763587,79.2996753999819,177.11862555294056,0.3179027360971076,0.21818685069706611,0.07469718190314935,0.6958701326784348,0.9082167302041819,0.6706606087903826,0.5021445382568718,0.584272161226694,0.4105889127422987,0.4866292494224968,-155.96680429043505,45.84024210158663,70.99304283941431,2.716857722971409,2.0440625586843733,0.3840966973336141,0.8936709769340395,1.3110027820166132,0.9794100927817969,-0.1976478818628152,0.5855146085233227,-0.6851485580337388,0.3744617611370161,-68.76541657675838,57.88617679741806,144.10876634518564,0.39536865513564146,1.574345743338043,0.662799711760149,1.6474253487807533,1.4248306627861753,1.0825208540026077,0.6102518250100293,0.6075876085950969,0.23107830894084497,0.5004326260200798
0.58,-106.94261376545758,85.22554180954457,165.8724496285381,0.3044005070046831,0.10909912972566364,0.11139693374401075,0.5560144052302918,1.2226861475154684,0.4242771556278483,0.36749033630811573,0.6367262334588107,0.32680033938311115,0.5946653181930454,-96.25390545747918,79.1538286588882,176.49532425378194,0.3021121595834314,0.19196839250531422,0.07938681092141232,0.6501921318480597,0.8605698427820176,0.726605577579936,0.49942080999427435,0.587806337104624,0.4062526817032621,0.4889725689985244,-155.03419350735942,46.6916856084595,75.93454640531554,2.6081316620178,1.985101094248798,0.4064402981991895,0.9617938984383098,1.201019294810087,0.9881803084939965,-0.1823799007695682,0.6147086029367685,-0.6524831883995245,0.39122298171581255,-68.69258785606253,55.62245292797229,145.30832036471656,0.3667381481040693,1.3543593415990567,0.5953271958678813,1.8123998266370205,1.1905316589018824,1.1334597849996841,0.6271634142761723,0.6027117334248634,0.22362139571573028,0.48632107642718575
0.59,-106.750872829865,85.14056151292561,166.1907996508382,0.27862114946092903,0.10925868040111861,0.11756700488699585,0.5535425512304353,1.2138860146475343,0.48097499273026745,0.37079037205776083,0.6356313522961036,0.32951848891012436,0.592725218175082,-96.49246501093378,79.13825507627752,176.1618318011522,0.2859321417344002,0.18314882438727312,0.08482014833494039,0.6019907570005317,0.8031079929068706,0.7807343367296384,0.49711089556733296,0.5899591593433223,0.40361603457438805,0.4910302230911051,-154.0557106243714,47.42525559874223,80.81573789895288,2.4817881352818882,1.916428784232132,0.43862894427275717,1.0294218715593968,1.1251781706052386,0.982557617441748,-0.16529335133925555,0.6423751972876947,-0.6191917588975162,0.40712049388472704,-68.98798813838707,53.53685107827676,145.92618744511554,0.35928144629572256,1.1445895774977524,0.5292106825069195,1.994074491841262,0.9912421608482219,1.1797435620915708,0.6376696687432626,0.6001404366935765,0.21206902646926978,0.4746497456741513
0.6,-106.62681993244023,85.02558222604404,166.50462809289516,0.24791985640990288,0.11582575960670333,0.12470578538872402,0.552573346614878,1.1943675009291705,0.5448072821698868,0.3738191841258114,0.634872171222938,0.33179112739013106,0.5908693279959082,-96.79547662162875,79.24840221187775,176.10605072737172,0.26983639636551615,0.18946214407870668,0.09062674498272452,0.5534237380315374,0.7390592365557328,0.8323456040381069,0.49523035625157125,0.5907592938547859,0.4026605972877274,0.4927923816574777,-153.05343250098827,48.04511386284719,85.58825206813965,2.3392300951087033,1.8376252319078519,0.47651388849075926,1.0959520978643253,1.0857632616044415,0.9629906045725011,-0.1467491703162053,0.6682951806239038,-0.5857542753812452,0.4218767030166917,-69.63084990104156,51.68100117405036,146.08390993089844,0.37048193676507657,0.9482415432142601,0.4662244044812057,2.1847863494091393,0.8369457109037924,1.2167530835736327,0.6424298316596949,0.6000257307606953,0.19764273748836594,0.46553614971934876
0.61,-106.58010890076956,84.8865388606916,166.77830145952083,0.21423201965444857,0.12697514616194297,0.1328414344932088,0.5487203376521255,1.1630690525362695,0.6167209394516302,0.3763043065854848,0.6345463003388834,0.33336559327451326,0.5892498179180927,-97.14603447141208,79.47347775635025,176.3034282236391,0.25414715692230305,0.20797469707601612,0.09648069799204394,0.5072246726538961,0.6726618601708318,0.8810346805909224,0.4937790080360186,0.5902927276118406,0.4032864957308712,0.4942560072829561,-152.04790174838956,48.557522306479534,90.20253382098717,2.1825013860487608,1.7485619128674814,0.5157447522814316,1.1612741373303184,1.0817830745406731,0.9316417412693658,-0.12715633861244693,0.6922726718676373,-0.5526630711277091,0.4352723587802146,-70.58908548280651,50.08954757559026,145.89814280596295,0.3966972965881672,0.7680300273619243,0.4079592129606286,2.3759364868293815,0.7336390471137778,1.2400429880219361,0.6422165946074173,0.6023543314296613,0.1814719498265222,0.4589712622575798
0.62,-106.61555915362473,84.72756729402398,166.9781679918911,0.17981207722838927,0.14114327298228138,0.1420127929621445,0.5387037690782257,1.1197260187947191,0.6975915265235172,0.3780185177783624,0.6347387667741096,0.3340121841440292,0.5879900323763121,-97.52505410365939,79.79796095420993,176.71820616909588,0.23911742529934116,0.23529470078409795,0.10212153194921159,0.46634077601560525,0.6085355880152967,0.9265728569599924,0.4927365154531219,0.588696423917286,0.4053205830141667,0.4954321139435616,-151.05757919289357,48.97046332306846,94.61063978358894,2.014317497419759,1.64954581508411,0.5521627816216523,1.225483532785347,1.1094388786195186,0.8919677320615671,-0.10695065940145268,0.7141477447297625,-0.5203993062063401,0.44715179350320344,-71.82177911288606,48.78012351906549,145.47428054780704,0.43353929562670646,0.6061724321668668,0.35573126977154024,2.558600641002685,0.6832743933776754,1.245837051431164,0.6378593511864945,0.6069679595156642,0.16453849212661517,0.45483444520532385
0.63,-106.73293486476454,84.55101677677624,167.07425493574578,0.14706355922737463,0.15707787234971762,0.15223226006032323,0.5206996125701446,1.0650832948655198,0.7880228017679963,0.37879073691079534,0.6355177485578613,0.33353790356713237,0.5871810650956938,-97.91264308588616,80.20320797945746,177.30557958263867,0.22500834649148094,0.2678193170557313,0.10736111134954844,0.43355987856461575,0.5510174626841768,0.9687537160863767,0.49206044662939535,0.586149060491295,0.40853005785083507,0.49634966802173663,-150.09842130028358,49.293242112272885,98.76905685108458,1.8380114011020379,1.5413935404834438,0.5821426338834611,1.2885360754423227,1.1628466300687803,0.8481546135919175,-0.08657238777939205,0.7338077376469402,-0.4894094554300175,0.4574245032108438,-73.28198281480412,47.75443445444606,144.90204764071476,0.4762719415909967,0.4643596557988107,0.3105121042226746,2.724130892159908,0.6840378212844843,1.2314741187972473,0.6301933079964566,0.6135916513161789,0.14764083095553027,0.4529145611599267
0.64,-106.92706149555602,84.3576202389877,167.04189359556358,0.11836800525526696,0.1738311650160692,0.16344084481752344,0.49450871772514643,1.0009259971551685,0.8881747178127144,0.37851347895634674,0.6369307545448194,0.3317991991906918,0.586879653613859,-98.28947225041154,80.66903335174547,178.01458734194648,0.2121416180431566,0.3019934988395827,0.11207639307007713,0.4111759654412798,0.5035848467567046,1.0072451926060944,0.49168711312676283,0.5828593731530668,0.41264025296794005,0.4970558530693327,-149.18360872657234,49.53606471393263,102.64121764808564,1.6573914287914073,1.4254328482617653,0.602845813062229,1.3499171935357082,1.2348873952971207,0.8045093715257431,-0.0664445467631367,0.7511956706468629,-0.4600841599236753,0.46606314987596537,-74.91953396604968,47.0002802047124,144.25308854289466,0.5201870274213836,0.34371216864929394,0.2728915599008925,2.864706467279841,0.7308944891248491,1.1957398092944742,0.6200171462964581,0.621866535692185,0.13137830653155086,0.4529346381403591
0.65,-107.1882076376389,84.14681923084697,166.8631816426733,0.09592034759381159,0.19071117776226912,0.1754682241545317,0.4615342949501529,0.9299214443729243,0.9976350598659367,0.37714688000153124,0.6390010174716945,0.32871306793426375,0.5871071727128736,-98.63802862437728,81.17516439899131,178.79150443871336,0.20091506395992034,0.33455292943490167,0.11619077735829264,0.40072789633492395,0.4684536849101723,1.0414884420523849,0.4915352369749732,0.5790527071956677,0.4173550492556729,0.49761288408824,-148.32345443459144,49.70959194264073,106.19943793196717,1.4765224205921859,1.303442744991535,0.6123720806481806,1.4083912842889343,1.318053253508699,0.764908994282461,-0.04695371070711729,0.7663146274133361,-0.43274161131343386,0.47309828606596516,-76.6836478679808,46.49427019468177,143.58041477589518,0.5609276207061032,0.24473360753947396,0.24307837706482333,2.973805336071607,0.8163055668267973,1.1390278800452283,0.6080609110732703,0.6313837269180104,0.1161537573244145,0.4545774729165162
0.66,-107.50266623455316,83.91721237168979,166.52816664257617,0.08157729775532525,0.20721317794969307,0.18801091892429606,0.42457313565285754,0.8553208354232464,1.1153355664569597,0.3747194209475845,0.6417241953885972,0.32426560917679614,0.587849665628512,-98.9436430089606,81.70248336939015,179.58345054402542,0.1917795078071112,0.3627269439556639,0.11964979518584373,0.402829953544063,0.44639698270273204,1.0706747873622324,0.49151217747868536,0.5749565663896761,0.4223781222791217,0.49809201007834836,-147.52550202536864,49.82448639148117,109.42608437857913,1.2994559615142174,1.1775511019113467,0.6098157024640022,1.461883234816587,1.4051693295995202,0.7323796368052788,-0.02843471504374796,0.7792275508523813,-0.40761701064178324,0.4786103662958237,-78.52510083107072,46.20494177838831,142.91943154262134,0.5947429303783109,0.16727609808145918,0.22093362625676288,3.0465769853270803,0.9310107731356565,1.063304794102773,0.5949647898420644,0.6417164575296169,0.1021914548823252,0.457509896294021
0.67,-107.85349129075544,83.66707309878655,166.03561596382866,0.07672686279854982,0.22295101745447926,0.20063732929857203,0.38744906845896276,0.7806052782153485,1.2395055739268668,0.3713253673120654,0.6450658321124366,0.31851687406014084,0.5890590836029139,-99.195208598061,82.23399409576352,180.34188637657013,0.18518520679202502,0.3843849016136341,0.12239867773723119,0.41710281462378,0.4367854621454053,1.0938127263084243,0.49152210850160793,0.5707862284559019,0.42743310413101193,0.49856572661690296,-146.79479117547075,49.89098704034791,112.31389139500209,1.129947517259844,1.0501102765224084,0.5952430930120364,1.5075295906656943,1.4899113336375378,0.7088375489169009,-0.011160211416939663,0.7900525305722566,-0.38485875386143936,0.48271984784412053,-80.39789983488025,46.09598451031463,142.29017945284036,0.6186695568071638,0.11053085592828824,0.2060246924778393,3.0801010730210217,1.0647837712740544,0.9718969955471886,0.5812684810236651,0.6524482061020185,0.08956633169863501,0.46140395481318325
0.68,-108.2213711977611,83.39487188853137,165.39323544075785,0.08218783473795566,0.23760042017871058,0.21282083967461685,0.35453748939504043,0.7091617187108554,1.3676583314493673,0.36711870246466377,0.6489602689534599,0.3116008106308196,0.5906561327520976,-99.38554284726624,82.75547860877761,181.02565609291653,0.18151353262230271,0.39811848516417814,0.12436889052546185,0.44220823183524566,0.43781573093992127,1.1098773754503057,0.49147515774229195,0.5667317216248603,0.43228081858907347,0.49909949785074487,-146.13423332274402,49.91855308340698,114.86546450656303,0.9712028596966549,0.9235685305383969,0.5696069610029917,1.5419132776598117,1.5670951789675525,0.6949881068284237,0.004664653451974193,0.7989542226568258,-0.36453103692759814,0.48557633172520565,-82.26042139565746,46.12929953474084,141.70038468973868,0.6306418050825054,0.07305411482314306,0.1976852576397522,3.0735178691882497,1.20710117792797,0.8691587684984433,0.567409980439848,0.663195309837714,0.07824002492973932,0.46595385134313017
0.69,-108.58563377010645,83.0997413816498,164.6172251800816,0.0981464783535374,0.25085866113050737,0.22399447725735,0.33023886890081955,0.644042994855256,1.496612310088838,0.3623032269754338,0.6533117361850134,0.30371936627403917,0.5925352230439724,-99.51138892335536,83.25584207286381,181.6032708140214,0.18101168404872073,0.40326128096885216,0.12547762690956274,0.4759839228210856,0.4468662630687109,1.118017428631318,0.49129622025279884,0.5629474362151682,0.43673209456802764,0.4997443906137373,-145.5450238574965,49.91561095688981,117.09211062627615,0.8256902461144833,0.800350726111667,0.5346066557022864,1.5614605145645608,1.6327699625855012,0.6903606888714361,0.018902771842465672,0.8061324472113622,-0.3466217650984878,0.4873477154657221,-84.07607480095547,46.267675244776825,141.1489076179663,0.6295371037445779,0.052832929527139735,0.19506967405686873,3.0280171201885957,1.347702982888677,0.7600891488068234,0.5537319126352495,0.67362334230929,0.06809924916488234,0.4708880523876818
0.7,-108.92537124190956,82.78183644359507,163.73112937104645,0.12413449057374877,0.26242065490500016,0.23361552637062427,0.31845707885579677,0.587823334943583,1.6225540690596483,0.35711878330434665,0.657998124327577,0.29513047185676267,0.5945718256522239,-99.57309560057836,83.72717578595909,182.05422362477398,0.1837444739374626,0.39985416146995284,0.1256396314724557,0.5156639344699615,0.46091247024668386,1.1177768830768038,0.4909321441440823,0.5595452976673491,0.4406552804377786,0.50053185329412,-145.02702332961613,49.889419834628384,119.01219858190495,0.6950407804430839,0.682756952650627,0.4925026630392886,1.5629388217570839,1.6841752632796005,0.6934548017381204,0.03148161868215754,0.8118092221449974,-0.3310541965439321,0.4882102073696875,-85.8135885015197,46.47692842696487,140.6292101509688,0.6151636769221751,0.04738977262168723,0.197195832579518,2.9466746452527914,1.4770461191585875,0.649950818525821,0.5404930950822601,0.6834572991596016,0.058992450026836715,0.47597649630366634
0.71,-109.22064489869241,82.4425602055523,162.764049734633,0.15904903292142192,0.27197010551895795,0.24122729429871573,0.32213116846032264,0.5425287210153786,1.7411479050532626,0.35182427549837075,0.6628774420859811,0.2861306545139966,0.5966320278200407,-99.57404580185413,84.1645898550723,182.36926300452362,0.1895696411265882,0.38856833246555067,0.1247866949480898,0.5581562446347028,0.47693936140618604,1.1092762556989288,0.4903563362958478,0.556591874028529,0.4439783244736792,0.5014714020779167,-144.57906290862093,49.84604928515002,120.64926855442776,0.5800427157138525,0.5728822216141725,0.44589727494742337,1.5439654254390003,1.719623032451856,0.7019772700072522,0.04238682380556957,0.8162155255373825,-0.31770070331828876,0.48833978770902386,-87.44703304407052,46.727434294647736,140.13251978782384,0.5881982638438695,0.053920232863397845,0.2029766970573256,2.834132859640136,1.5866630311067482,0.5439192077622568,0.5278829108053368,0.692486250231161,0.05076150842527432,0.4810333076724457
0.72,-109.45368790847301,82.08464735806763,161.7484220916911,0.2012132999784835,0.27918463503928,0.24650735262975956,0.342861844330789,0.5096102439058569,1.8476949183619569,0.34667903667530625,0.6677963427480431,0.2770341395930918,0.5985834057580686,-99.51992088761679,84.5658751875937,182.54969332505303,0.1981352442393784,0.3705973031471024,0.12288840500435393,0.6003381682127882,0.492305662143262,1.0933027059708182,0.48957038795117347,0.5541092647981813,0.44668592512858596,0.5025513372191586,-144.19915576314094,49.7904466195552,122.03008819185438,0.48071996279646606,0.4725548927677424,0.3975004308288246,1.5034278864693773,1.7383462261771425,0.7131509272692277,0.05165380608446072,0.8195789549085869,-0.3063972414899323,0.4879053575244477,-88.95568749905941,46.995039679396484,139.6504461497096,0.5500817172439494,0.06945459626956588,0.21124591221647412,2.6961385236515993,1.669445366328852,0.44677157485408847,0.5160362767659744,0.7005634682747209,0.043266307097088945,0.48591579274446206
0.73,-109.60998914632351,81.71211370196217,160.717651749308,0.24847496900403768,0.28375402437665787,0.2492956715042139,0.38066709717080166,0.48993227873630574,1.937343974184755,0.3419247477191292,0.6725996051866416,0.2681510963785043,0.6003058258650341,-99.41789256509952,84.93105078669805,182.60588346350553,0.20889303859326386,0.34752745041911276,0.11996845333613028,0.63932634339692,0.5050251316101619,1.0712830059175242,0.4886028123337829,0.5520792861619771,0.4488126334488957,0.5037420183752476,-143.88461621254595,49.72656534434425,123.18281532926412,0.396472714273418,0.3832882639307584,0.3499048846925941,1.441736389875478,1.7403372679471025,0.7240698163222363,0.059358407693299205,0.8221131996901712,-0.29695737971169395,0.4870635272942649,-90.32383575644911,47.26141296045657,139.17689666471128,0.5028793232001609,0.09103147455059893,0.2207860911341435,2.5389812694894904,1.7198819014940054,0.3626196813266703,0.5050474423745104,0.7076031031655667,0.03640106904484734,0.49052072015918097
0.74,-109.67913034063233,81.33009291071436,159.7039276183675,0.2983389455760754,0.2854096327394278,0.24960077117148097,0.4338932694710659,0.4837561941293702,2.0053572954042065,0.3377702118769918,0.6771393067749721,0.2597678683851192,0.601700635435872,-99.27582957906345,85.26184344529187,182.5552307270901,0.2211219787629933,0.32119694187765396,0.1161130300259337,0.6726855914259168,0.5139357544141578,1.0451460756743782,0.4875052766633488,0.550450327355873,0.45043292479673713,0.5050008308167261,-143.63209951305168,49.657529358107716,124.13538614394238,0.3262508831295537,0.30624029225022986,0.30539496286903134,1.3608649392325853,1.7261901880156225,0.7320691586435829,0.065607333872019,0.8240099273325597,-0.2891849560219439,0.4859548814877363,-91.54054959357016,47.513926185420935,138.70923200047835,0.4491118053579925,0.11586988671133969,0.23036819834552477,2.3689085675248545,1.734277229069047,0.2946931980804904,0.49498138634244304,0.713574341816869,0.03010240397401571,0.4947789640127038
0.75,-109.65527351556901,80.9445863350405,158.73648595215,0.3481282986165673,0.2839609761102705,0.24758623567078042,0.4992971417791686,0.4907119908608172,2.047429207206362,0.33438079352551525,0.6812826288438394,0.2521315956466961,0.6026969095111354,-99.1015929601095,85.56113862523632,182.41984704190023,0.2339598374509812,0.2935535225067577,0.11147042090896714,0.6985595987179397,0.5187338455243737,1.0171068617072039,0.4863468416373042,0.549146183909194,0.4516492825293379,0.506277811593587,-143.4375800814316,49.58581549766629,124.9142094948228,0.268730515600397,0.2421799743746178,0.265807771593587,1.2641860354835894,1.696962243514904,0.7350736358363695,0.07052905484092178,0.8254333774112058,-0.28288464887765885,0.48470159880085867,-92.5994832934727,47.74518675337107,138.24868744637592,0.39156398490468525,0.1415252574089739,0.238807330309732,2.191608699484395,1.7109569656998205,0.24518649776619544,0.4858820871520965,0.7184938361161352,0.02434985956100984,0.49864950173447553
0.76,-109.53724792711262,80.56215094671832,157.8404961808477,0.39516282188937213,0.279334087519716,0.2435428544343834,0.5723011564842045,0.5097668852835542,2.0600445289457143,0.3318734435776784,0.6849176246062075,0.24544075604044294,0.603253883548057,-98.90247274725903,85.83243557307019,182.22421650777656,0.24644506664673313,0.2665200339550199,0.10624302893931267,0.7157294768256374,0.5198677008095497,0.98941413595529,0.48520681422605333,0.5480760805859809,0.45257936135789517,0.5075209679986548,-143.29629041699545,49.513444117562415,125.54321532529381,0.22246916652460139,0.1914630623996049,0.2324558467230334,1.1561452422036165,1.6540741890455064,0.7318858925416059,0.07426566163621623,0.8265176856943667,-0.27787000035563986,0.4834063839209551,-93.49867705158202,47.95233888823124,137.80015365814754,0.33308136308260516,0.16601497214555327,0.24503602366336996,2.011843044489283,1.6504342471390685,0.21518204398949414,0.4777774049442043,0.7224170806722512,0.019160395558731443,0.502113554638083
0.77,-109.32824740033051,80.18954676667266,157.03662126056034,0.43694017684233705,0.2716067362523753,0.23785287784167358,0.6474067713866325,0.5392164460415046,2.0408441466127116,0.33031727084323625,0.687956679658498,0.23984204745466262,0.6033593363790986,-98.6847943578924,86.07933532453524,181.99302977491726,0.2575724052150575,0.24187220972212595,0.10067403124464508,0.7236220320871342,0.5183137118169764,0.9641058866073219,0.4841669421134983,0.5471449928466466,0.4533433222386166,0.5086805762149356,-143.20265008538345,49.44216947805142,126.0432763180139,0.1860259114579551,0.15402185461794224,0.2061082335212541,1.0418439676030982,1.5992598454028337,0.7223800096170246,0.07696597549173474,0.8273666967190342,-0.27396871933588346,0.48215265153426257,-94.24034950113851,48.13624293613583,137.37145319456437,0.2763690385653278,0.18790133479338444,0.2481913878675034,1.833273327031028,1.5554831062709948,0.20465763359589356,0.4706807576115746,0.7254293637797421,0.014578540204489676,0.5051694145760544
0.78,-109.03520358392124,79.83336076466436,156.3411875027634,0.4713023717051129,0.2610364340125687,0.2309524505895596,0.7187290843581235,0.5767292069371233,1.9889459756480161,0.3297388264547231,0.6903377206218532,0.23543293281337516,0.6030243864088675,-98.45369872727787,86.30508605334524,181.7493438441904,0.2663634308047495,0.22112988865317149,0.09503040101545825,0.7222898098248761,0.5152852371810105,0.9428102118207354,0.48330379028948156,0.5462633332626852,0.4540523914913219,0.5097121065553257,-143.15022096141638,49.373658691998216,126.43199423938603,0.15804138384828734,0.1293725713405527,0.18701716674989782,0.9265948151993821,1.5345513510469602,0.7075705359497169,0.07877999376192044,0.828055776896115,-0.2710253977933403,0.4810057941625382,-94.8306541953807,48.300619616331545,136.97226906427292,0.2238102150428935,0.2063245426261437,0.24770563741174587,1.6584803933801295,1.4310518018819716,0.2125759009458027,0.4645901892456533,0.7276368439213186,0.01066407173638616,0.5078282798280201
0.79,-108.66793798257862,79.49962191339989,155.76680261753725,0.49657156631804167,0.24807604534968186,0.22329661107501517,0.7805917579967819,0.6194654120015128,1.9051615240616722,0.33013074464636993,0.6920234807229061,0.23226828971789676,0.6022757656770737,-98.2130802198241,86.51220711313262,181.51315751308113,0.2719485456806662,0.2054635447401288,0.08958261732991363,0.7123726049728579,0.5119384356951684,0.9266141840998614,0.48268214040329666,0.5453551362738835,0.45479955460054516,0.5105777667588479,-143.13172467491748,49.30964384097305,126.7238139082636,0.13728044598616426,0.11664069223015157,0.17497384971632612,0.8154926349951829,1.4622589364563232,0.6895337560307697,0.07985456026338779,0.8286349891899474,-0.26890203511589356,0.48001526204167544,-95.27937555571617,48.45122317215602,136.612885348379,0.1773213492697555,0.2209846682845039,0.24338178220850631,1.4891306753997435,1.283970258744419,0.23704736676014704,0.4594857502391173,0.7291581844397186,0.007478972656634229,0.5101112325300815
0.8,-108.23821109915757,79.19342444375633,155.3231973434359,0.5116436042839253,0.23336919300031206,0.21532894394005722,0.828102743752118,0.6642716465992865,1.7920618579895702,0.3314621023780407,0.6929993335621388,0.2303691004675664,0.6011469929755263,-97.96565214874127,86.70221187995081,181.30044093268174,0.2736519102573092,0.19562146239436656,0.08458060866058084,0.6950352802458885,0.5091355195863368,0.9160017204290897,0.4823500839567657,0.5443640554286956,0.45565305083257335,0.5112469104458076,-143.139147009476,49.25203117638134,126.93040097159329,0.12264477816039651,0.11460224230909234,0.16937923758732115,0.7130260438752615,1.384896538051776,0.6711697099734362,0.08033003827820913,0.8291330000879366,-0.2674769074021068,0.47921714724400727,-95.59954180973617,48.59508600724869,136.30289512819655,0.13825693802765035,0.23207773734936155,0.2354321834712673,1.3262310460423923,1.1224587242033843,0.27555444625694675,0.45532626771177653,0.7301170215668492,0.005075209521818514,0.5120473126106576
0.81,-107.75878133119569,78.91858362495508,155.01804265180144,0.5160334739843023,0.2177177747496364,0.20745590881642284,0.8576290092290297,0.7079332345235786,1.6538772262785177,0.33368876593191454,0.6932703327157891,0.22973105088339008,0.5996699350315031,-97.71310349782054,86.87544814152086,181.1226157450699,0.27106734498393836,0.19188459080202105,0.0802266504681449,0.6718690696097744,0.5073078816897522,0.9108472182942358,0.48233618702627273,0.5432567672058877,0.4566530060660124,0.5116957043288569,-143.16393522986547,49.202955856312805,127.06119925723522,0.11316491994517662,0.12173862291853704,0.16932072889533742,0.6227528457777639,1.305029463804695,0.6558212976280074,0.08033775808191146,0.829561227181796,-0.2666423333941853,0.4786369615070452,-95.80693676865859,48.7398591103926,136.05001893068794,0.10736970359270834,0.2401952911245494,0.2244623631926623,1.1704185412012535,0.9554992468639867,0.3252212403014862,0.452046565090015,0.7306354043365945,0.003484620497005296,0.5136724916448948
0.82,-107.24256521568789,78.6773565006721,154.85751564573116,0.509872095616939,0.20202026771678544,0.2000247755660779,0.8671089629695963,0.7474471933536397,1.4962400980094117,0.3367620720914006,0.6928580945696348,0.23033124844271677,0.5978680907237737,-97.4563130459016,87.03107034489929,180.98644970207965,0.2641121532940979,0.1940544443444955,0.07664868718174987,0.6447489747205869,0.5064344893034004,0.9104528946845553,0.48264878105342535,0.5420237206485249,0.45781116311315556,0.5119064935112292,-143.19727591379802,49.164779292410145,127.12407233038245,0.1079804736035952,0.13630344842200962,0.1736502615276424,0.547071849618212,1.2250620013188351,0.6468063875305089,0.07999805926316941,0.8299179090911945,-0.2663018514945281,0.47829229080691366,-95.91950195948633,48.89325701458799,135.85915566830323,0.08482389592812158,0.2461986566375856,0.2113952231079348,1.0222438326965588,0.792158035245394,0.3831101168072988,0.4495560330473852,0.7308282815971552,0.0027118342126096003,0.5150292397191009
0.83,-106.70196150198825,78.470262490243,154.8464528762638,0.4938583337793851,0.18718926733645805,0.19330392579490926,0.856177606101668,0.7802649583804484,1.325789360836713,0.340634487456789,0.6917980239094856,0.23213192673704927,0.5957526302963814,-97.19559626294053,87.16715019574649,180.8943057570935,0.2530474218990495,0.20147674884133732,0.07387990006198492,0.6156557306611042,0.5061212981757973,0.9136295800329226,0.4832771416271297,0.5406775039467141,0.4591133190354586,0.5118672652962637,-143.23042932956542,49.140035586619604,127.12593293954546,0.10631431883937713,0.15640067731590926,0.18106287190607895,0.4871240862618154,1.14701416951885,0.6469476852964535,0.07941878827954367,0.8301919227696073,-0.26636729102681034,0.4781950207441576,-95.95663422880197,49.062602908983315,135.73175760616652,0.07025353806906563,0.2510789928218604,0.19734584379679176,0.8824175013927389,0.6409438972321477,0.4465202591450484,0.44773922513210396,0.7307991072366855,0.002730710727135473,0.5161662911366899
0.84,-106.14836882437748,78.29603235836723,154.98803166181196,0.4691745646138481,0.17406284651725137,0.18746443771340515,0.8261120084018445,0.8044588808793397,1.1496610477493274,0.34526144266492825,0.690137148553643,0.23508084853249656,0.5933217765412873,-96.93097051644708,87.28092248693177,180.8446706549056,0.23845775522479284,0.21310166558877758,0.07185051213002235,0.5864849176262966,0.5057457008101275,0.918831110425459,0.4841940830787284,0.539249313069384,0.4605238603647809,0.5115715076270833,-143.25509340210513,49.13133906731363,127.07327401784251,0.10744482004765088,0.18007313029086525,0.19017763690724104,0.44283929984705456,1.07234677986026,0.6581849976619776,0.07869412211016173,0.8303662687032229,-0.2667561946294547,0.4783528883440076,-95.93839626720151,49.25445961713218,135.66558410207992,0.06285496956128045,0.2558136172045612,0.18346861883610058,0.7519953546168092,0.5092707415320626,0.5132559281146212,0.4464588954541336,0.7306366321471198,0.0034843499453297917,0.5171381493976441
0.85,-105.59189294919706,78.15170130626527,155.28303980110434,0.4373771451155065,0.16332381546924596,0.18256253104778042,0.7796205460311276,0.8187941192893523,0.9749175644069141,0.35059931400842265,0.6879325665122871,0.23910900016482284,0.5905635362683538,-96.66242925341155,87.3691517545244,180.83288233195503,0.22119057769217346,0.22757919510584984,0.07039566004355224,0.5588691468984763,0.5046254255243083,0.9243496619867333,0.4853593700542746,0.537784057587156,0.46199174310162266,0.5110186102809144,-143.26377387628767,49.141263713498546,126.97253581226573,0.11068059021019423,0.2053987681118202,0.19962438153826026,0.41311728935913,1.0018863872248513,0.681329787840784,0.07790359031847331,0.8304211966063142,-0.2673900258094162,0.47877023039922817,-95.88466611737108,49.47432683049454,135.65484870786176,0.06150275305978525,0.2612294812866167,0.17080385132549064,0.632484514016368,0.4030692442932119,0.5818250940769246,0.44556161717467635,0.7304129165038713,0.00488831742159585,0.5180038908771587
0.86,-105.04121007685404,78.03284648438654,155.72890503785018,0.40027308426536495,0.15543731074674094,0.17852467470567385,0.7205055872538151,0.8227200576364693,0.807998466072418,0.35660038194864374,0.6852502846430251,0.24412688649560363,0.5874611715229359,-96.39021303397125,87.42859171973898,180.85197755711957,0.20226372248597546,0.24338472513923368,0.06927976524685334,0.5340357794070518,0.5021809932930673,0.9285593387453688,0.48672338391505876,0.5363345909651107,0.463457325944548,0.5102147888012271,-143.25014308894916,49.17220002477614,126.83027334643879,0.1153435481291183,0.23058939579882326,0.20813784581704084,0.39611126093220966,0.9358801065649083,0.7159904220790361,0.07711119284050061,0.8303369611449724,-0.26819356093446267,0.4794479466883453,-95.81425947282679,49.72638506746134,135.69073322509038,0.06487799929856712,0.267885906988673,0.1601494671740207,0.5258563823855736,0.3265666896181071,0.6515279842548198,0.44488579709788145,0.7301825350324633,0.0068364230535489625,0.51882498432375
0.87,-104.50353585065682,77.93395111753176,156.3187292783086,0.3597923330865236,0.15061405630194868,0.17514076336189408,0.6532382548292278,0.816309821738389,0.6542797884951168,0.36320631847393564,0.6821641020558509,0.25002108489592606,0.5840002848113829,-96.11505680685116,87.45649534357173,180.89358782319934,0.18275709315426972,0.258965515341283,0.06823427518751732,0.5127194618532411,0.49807166011941195,0.9301687087303196,0.48823065543519983,0.5349555233957187,0.4648595130072003,0.5091743476314434,-143.20937088821913,49.22619297689675,126.65312330498595,0.120765381809459,0.2540841598970903,0.21465561508356668,0.38956733222355183,0.8741787287391264,0.7606703378992182,0.07636458503154736,0.8300961879754736,-0.26909572506205437,0.48038285365474753,-95.74406822281614,50.01327258695572,135.7622040190985,0.07159790816325805,0.2759897559306964,0.15197646093252828,0.4344580794051195,0.28222823483694964,0.7224073717660159,0.4442715464229201,0.7299828810625774,0.009208184403100925,0.5196621020050247
0.88,-103.98465026745366,77.84885638542495,157.04058897672067,0.3178637715997939,0.14880398184962387,0.17207309819359043,0.5824949607924446,0.8001703167489238,0.5177986824907282,0.3703421320497015,0.6787541967571004,0.2566526117757979,0.5801760931623396,-95.83838438987,87.45112272896921,180.94881897406924,0.16370704913526452,0.2728947815549751,0.06700250339986528,0.4951447696160371,0.4922890417261608,0.9284290120428188,0.48982307074917525,0.533697123122478,0.4661426353639829,0.5079209654055046,-143.1384019667847,49.3047714103013,126.44760592827913,0.12630008495376055,0.2746292454322171,0.21840971434359047,0.3911698497473761,0.8165137623231619,0.8130203046398473,0.07569443719763563,0.8296858053608193,-0.2700317933583712,0.48156674494133284,-95.68826876066926,50.33589266239653,135.85703479467387,0.08033539876582618,0.28535558257209914,0.14639717960045354,0.3608251720528208,0.27083115309201516,0.7950600713854631,0.4435715466405565,0.7298354174962348,0.011877056321163575,0.5205711634883117
0.89,-103.48894313592382,77.77124320392277,157.87731904943172,0.2763022610502434,0.14972144763154757,0.1688872262145748,0.5127115336132264,0.7753343171360073,0.40115669494525535,0.3779124069581712,0.6751051852242884,0.2638581867010981,0.5759994395581898,-95.5624182249151,87.41218968569437,181.00905678102941,0.14602000574379795,0.284015960760114,0.0653832004081248,0.4810838677213334,0.4851942776593555,0.9232535758085285,0.4914426951905233,0.5325998886610634,0.46726244566003294,0.506488607217125,-143.0361368327608,49.40879261995767,126.21983021860031,0.13135232258853008,0.2913354804558254,0.21899858167083003,0.3988440474821265,0.7628083367534906,0.8702046914149844,0.07511425353489883,0.8290984679498927,-0.2709464063543195,0.48298557360696087,-95.65766139327094,50.693263055771666,135.96292003213438,0.08991868008909944,0.29541934270674114,0.1431866358162878,0.30741652443310113,0.291628525298824,0.8703439171936255,0.4426618116995871,0.7297476822794905,0.014718607811014318,0.521599056004523
0.9,-103.01946444443635,77.69507772124123,158.80690718817866,0.2367128405639076,0.15289914222520248,0.1651052048987659,0.4477094697530825,0.7431424528998999,0.3055805306601117,0.38580113011915856,0.6713035745791808,0.2714548263618601,0.571500347998097,-95.29017778060611,87.34120192259996,181.0666476957306,0.13041570514520776,0.2915575118379379,0.06326434691500554,0.4699767697262411,0.4774890259073082,0.9152287147749734,0.4930342516942619,0.5316903706532934,0.4681906240376234,0.5049216705487105,-142.90346071337558,49.53833859628092,125.97519129315401,0.13541821594017844,0.3037069199787413,0.21642790569740164,0.41097435221656037,0.7134485978221216,0.9293201155945359,0.07462107773825216,0.8283333808525162,-0.2717964459653449,0.48461920093347544,-95.65920619412616,51.082432360133616,136.06855707121832,0.09940293038261047,0.3053062126783082,0.14185005239804938,0.2763088447708565,0.34255354135891164,0.9490413685915654,0.4414511177856599,0.7297158349479076,0.017617994180265554,0.5227795930215393
0.91,-102.57798120215118,77.61496196330442,159.80351270361183,0.20041625230471966,0.15776312780971083,0.16027531359736422,0.39043899807942767,0.7051235673291701,0.23110085657016544,0.3938755611071046,0.6674346729328683,0.27924752274591097,0.5667284224585658,-95.02535362562863,87.24162870568108,181.11541390703812,0.11740297168269821,0.295200853506652,0.06064082868612899,0.4610848841486768,0.47011851411571703,0.9055220900103426,0.49454735028913777,0.5309786761272025,0.4689173581204729,0.5032740724842725,-142.7430691005786,49.69270457817842,125.71814871226648,0.13813103015447728,0.3116360729496158,0.21111384978728617,0.4265094611453863,0.6694448794363759,0.9877924542144781,0.07419750570017784,0.8273964393730515,-0.2725526892800103,0.48644209289659796,-95.69581676370773,51.49849359896244,136.16458416552604,0.10810990068051086,0.3139428375876613,0.14172476408861656,0.2688944746248154,0.4204228974714792,1.0315473877658063,0.4398879220375766,0.7297275277865916,0.020476233488453132,0.5241302999569539
0.92,-102.16505351380881,77.52635267291875,160.8390133341362,0.1683982220160605,0.16371716116736434,0.154047209329368,0.34286324055002043,0.6628805011931574,0.17680383507037342,0.40199369941930907,0.6635791699839582,0.2870391784651408,0.5617500130746426,-94.7720646130174,87.11888565838915,181.15097671938318,0.10728366435593871,0.29509085268619584,0.05761327925101702,0.45364182372475836,0.46411641237718626,0.8957099259961343,0.49593855256425323,0.5304578438355222,0.46945182028711996,0.5016071787109713,-142.55906642882834,49.870511375375735,125.45215120655982,0.13930006737291895,0.31536509519233363,0.20384812908434918,0.44494599415501973,0.6324326252593021,1.0436862736867316,0.07381520821608702,0.8262996493118089,-0.27319937737905525,0.48842516691027343,-95.76645467671864,51.93472138125768,136.2442866023722,0.11563514116533714,0.32019565800065564,0.14210125662913056,0.2856210620421147,0.5211161795715213,1.1176339965658717,0.43796389101288474,0.7297648962058825,0.02321495246808648,0.5256505465021352
0.93,-101.78014791113083,77.42563951653408,161.88489325872837,0.14128367389436403,0.1702222496956287,0.1462391108310488,0.30598019194722764,0.6179879501320529,0.14111053836952936,0.41001414448388196,0.6598097434068714,0.29464157748806674,0.556642692556079,-94.53452882334258,86.98011765008245,181.17088191610958,0.10017535376719669,0.29178735128056416,0.054369193953477786,0.4469718694510098,0.4604161403988809,0.8875481740089332,0.4971732430793986,0.5301050329991788,0.4698206260862997,0.499986697555788,-142.35636137074556,50.069949374046786,125.17973243365857,0.13892959583121675,0.31541634652692363,0.19572979878423039,0.46620657374501623,0.6044996211669392,1.09588774584039,0.07343979034520429,0.8250598979481705,-0.2737313524205768,0.49053870284776985,-95.86653219166172,52.38284659148397,136.30401891372597,0.12182547996787704,0.32301316958662735,0.14234636910265067,0.32580297991064056,0.6397303062883548,1.2063159367335399,0.4357136435790252,0.7298074831699517,0.025779431728811,0.5273213720179535
0.94,-101.42180587090363,77.31009963265704,162.91422906192443,0.11933640941801678,0.17685934147102325,0.13688409043558475,0.27995420986705355,0.5719146771286795,0.12204408484096856,0.4178066838260926,0.6561881431742158,0.3018860062035162,0.5514880706380517,-94.3166981313309,86.83379540816395,181.1745417903494,0.09604098559062005,0.28616514754947103,0.05115063984618412,0.44056010868486867,0.4596661550220456,0.8827120062464145,0.4982271262971412,0.5298842809601827,0.4700645568294257,0.49847881674675887,-142.13993535127878,50.289128983927206,124.90275759527977,0.13720809196988862,0.31249970011283773,0.1880722992712597,0.49044483277077905,0.5878676398329188,1.1441518896906449,0.07303641023582971,0.8236972963298936,-0.27414907076988665,0.4927558954842973,-95.9885886239806,52.833466315874475,136.34332964008183,0.1267316950844948,0.32155200850611193,0.14201149966834833,0.3875263193982267,0.7707257701379205,1.2958148889734586,0.433210805799748,0.7298349371195544,0.028139914052663726,0.5291070877439575
0.95,-101.08787939122503,77.17776257822277,163.9035166735903,0.10248444012487694,0.18336848489671317,0.12624598735103754,0.26431472589596894,0.5259872415389099,0.11745418517275179,0.42526188010391236,0.6527632075630727,0.30863221183425693,0.5463642117044719,-94.12191442112588,86.6891590922661,181.1630256659376,0.09471527039048408,0.2792768893662886,0.048214993164527195,0.4340711974806405,0.4620895792254235,0.8825312314476972,0.49908708692597337,0.5297504672776053,0.4702339579902258,0.49714589875208526,-141.91410136992323,50.52647966478551,124.62276701067032,0.13446601458073754,0.30740740555983276,0.18229559290294195,0.5178135532638631,0.5844872064015425,1.1890246512448028,0.07257530121597373,0.8222334469350344,-0.27445238349427964,0.49505636013095294,-96.12317151234079,53.276570604678845,136.36480719166426,0.13054414069850923,0.31527319569142914,0.14091072706337243,0.46766208513863156,0.9080903828163152,1.3836077384541394,0.43056085040315817,0.7298293479497102,0.030291213418837778,0.5309584508646734
0.96,-100.77583313032812,77.02722649240816,164.83411301826482,0.09037016601313894,0.18966347858263963,0.11480111807507641,0.258178442950442,0.48140414565177486,0.12518215702796473,0.4322982340583933,0.6495701508352951,0.3147746681939614,0.5413388710695889,-93.95263975861053,86.55555636571833,181.13874026727296,0.095922402334875,0.27219746090000335,0.045795635597619705,0.427322455038332,0.4674181915278298,0.8877578055872719,0.4997512104960107,0.5296540588431294,0.4703832968780804,0.4960420294202976,-141.68188118192504,50.78111912082847,124.34134981905348,0.1311097692185529,0.3009094062708426,0.17981253928762622,0.5482298662371624,0.5956165184543973,1.2316621702830823,0.07203631781973387,0.8206900119906766,-0.2746343041499969,0.49742882778302644,-96.25983633633116,53.70215398504612,136.3736868278004,0.133522249240392,0.3040027377491467,0.13915893542240654,0.5619943789787828,1.0455465501716112,1.4665521780219684,0.4278914314409366,0.729777108906471,0.03225071752348389,0.5328169862853812
0.97,-100.48309616514369,76.85746535902749,165.69313258632423,0.08242200944769061,0.19582408705466028,0.103188282762634,0.26045787732090986,0.43928759878964824,0.1431615794430926,0.4388660163260074,0.6466312495637908,0.3202455467457121,0.5364644968758694,-93.81029658650063,86.44173222998893,181.10504341396071,0.09928584988540987,0.26586958049374687,0.04406843710084887,0.4202230184367337,0.47491249844819394,0.8984095506965616,0.5002279189455867,0.5295461869001731,0.47056539353722304,0.4952087364048155,-141.44460601077864,51.05311327307301,124.06048831994673,0.1275464934125205,0.29366239769701413,0.18191687192714134,0.5811729428268151,0.6214543145080648,1.273580178705932,0.07141189019843106,0.8190878254544571,-0.27467598540507987,0.4998724225086263,-96.38817693627504,54.10086886775545,136.37727081029468,0.13593058011285652,0.28795679962532617,0.1371674840446617,0.6654603341100951,1.1768211858589441,1.5410980615307859,0.42534105105511966,0.7296702132280601,0.03405495986179241,0.5346199280580661
0.98,-100.20743079793806,76.6676623778481,166.47372508077547,0.07794030194573622,0.20206823862805037,0.09213493469705188,0.2700291991496946,0.40073973015896186,0.16945840793774866,0.4449474135732451,0.6439578077768485,0.32501425877818674,0.5317755731695126,-93.69523344656153,86.35513440888676,181.06583191631717,0.10433576318684418,0.2609695092400242,0.043127934441592124,0.41269676241860526,0.48346121782975077,0.9137322576932804,0.5005343393246146,0.5293836099339416,0.4708258396803466,0.49467129896541073,-141.20180129320295,51.343565890114405,123.7828311385876,0.12411629257882303,0.286144324797521,0.18967797796768404,0.615553138224952,0.6608878797451647,1.31637479423909,0.07070818976763271,0.8174465736237512,-0.27454386379300033,0.5023962354861045,-96.49880515330672,54.46467023149022,136.38422064614448,0.13799281877512615,0.2677340566476792,0.1356020850560282,0.7724859574739951,1.2959844859809921,1.603596430751641,0.4230469521323111,0.7295069142790707,0.03575503548577813,0.5363052257297966
0.99,-99.94727610743116,76.45709803800645,167.17474791414713,0.07618706167393327,0.20870614929913187,0.08237082222054004,0.2858446736216918,0.3668668306120905,0.20226170549350833,0.45055314810718716,0.6415530927843595,0.3290838507754116,0.5272884864720209,-93.60681117964103,86.3013005911754,181.0251395120166,0.11052144536038058,0.25781065160365685,0.0429753802331744,0.4046120412856842,0.49174046647550684,0.9323049313652324,0.5006941317743326,0.5291331378801001,0.471198098842459,0.4944361908113895,-140.9513679195508,51.6545067459316,123.51187015082682,0.12104582162612545,0.2786217734259235,0.2038463563779456,0.6496871147860844,0.7114034449202745,1.3614561229171238,0.06994466513920615,0.8157848866534153,-0.27418952890611925,0.5050172570653082,-96.58420422406522,54.787397162852706,136.40378644846888,0.13987087026432643,0.24427738646709032,0.13531219928549706,0.8773892093631954,1.3978458614398876,1.6507031367828646,0.42113318621468393,0.729291699746987,0.037411230673107886,0.5378160740376254
1.0,-99.70202244863687,76.22511413316924,167.7999224444546,0.07646869001718508,0.2160787907547052,0.07454153539078925,0.30698793717144696,0.33875142838912914,0.23984346948289426,0.45571618496591876,0.6394158408908764,0.33248487010897865,0.5230037260353371,-93.54358567705167,86.2833897802098,180.98677430449877,0.11723513133870447,0.2563015701604852,0.043519608308766076,0.3957417232730448,0.49840790094644755,0.9522830084125814,0.5007350468367073,0.528775129121895,0.4716997390328938,0.49449020379517855,-140.69003174755883,51.98858048299516,123.25200761360033,0.11843145428072706,0.2711512220603391,0.2247745545378308,0.6813983509328532,0.7691882439450676,1.4098255226303595,0.06915227342554088,0.8141206193086589,-0.2735524222449638,0.5077569813065279,-96.63938329071559,55.06523862139628,136.44504503893376,0.14167033341289878,0.21880612352097392,0.13724313484598039,0.9748116932799731,1.4783713223832307,1.6798464865150475,0.4196998929354318,0.7290345583736447,0.03908735640610695,0.5391045087319126
1.01,-99.47217911035534,75.9711660594818,168.35661688814926,0.07820242783209291,0.22448515172007485,0.06913318195677057,0.3326786035299172,0.3173753836987181,0.28051077086354753,0.4604834937766615,0.6375438827810527,0.33526758101214016,0.5189099227728627,-93.5035476398743,86.30190805083181,180.95401845419732,0.12384976915427288,0.25597078474382284,0.044590420144456536,0.38577009611611607,0.5023074414573429,0.9717402966236464,0.5006864760576619,0.5283057229214067,0.4723301843564688,0.49480161121367533,-140.41399944285837,52.34857181415307,123.00850920784667,0.11625346472504097,0.2636090620490163,0.2523608984475825,0.7082429380110183,0.8294324157970042,1.4619119977153046,0.06837074293129798,0.8124711601121208,-0.27256501506755587,0.510637144521827,-96.66226505772174,55.29703895521909,136.51622153957865,0.14346758944309557,0.19272071234822533,0.14234157698652117,1.0601323935002647,1.5350547002737138,1.689695425963411,0.4188148741054675,0.7287495566125459,0.04084540533835859,0.540133800175012
1.02,-99.25940940841775,75.69496420413138,168.85442786527676,0.08095985328329165,0.23410575425376823,0.06641648733482702,0.3622325091917127,0.3035133189869021,0.322572410222044,0.4649070200300824,0.6359373783446642,0.3374935821505424,0.5149890359472917,-93.48437050716133,86.35466064440719,180.92940695608095,0.12976894634127703,0.2560608079071127,0.04596247291937085,0.37435240804622066,0.5026576722054051,0.9890414597494003,0.5005772203877814,0.5277375408219585,0.47307027761293,0.49532337647962044,-140.11972826725193,52.73683631188843,122.7873497712087,0.11441603530568126,0.25574204251939053,0.2860240723010043,0.7278398034569642,0.8868135593359046,1.5174739522027854,0.06764517272763228,0.8108537224825633,-0.2711596808727463,0.5136751746835903,-96.65375448927341,55.48441245636894,136.62416207194192,0.14534837119658373,0.1674846816992965,0.15146275928978759,1.129807883204897,1.5671437798488024,1.680533296039729,0.4185084207868387,0.7284527976488497,0.0427411866165921,0.5408796217628874
1.03,-99.06642463872427,75.39669070057018,169.3037360623784,0.08448299005132447,0.2449326020878802,0.06641522851954369,0.3949792776050792,0.2976206115278617,0.3643349510015761,0.4690350086946983,0.6346011127042358,0.33922789049151114,0.5112219149102009,-93.48361839518292,86.43694003064212,180.91459718012973,0.13448278093165258,0.2556791029982154,0.04738583108958675,0.3612224680216002,0.4991880259088142,1.0031638787503088,0.5004336425027501,0.5270986887502113,0.473883811986038,0.4959980058586102,-139.80469143369933,53.154736004069996,122.594971272509,0.11280273076161436,0.24722895913386245,0.32471274922477295,0.7382599045217595,0.936116436507528,1.5755732419029047,0.06702228281073556,0.8092856307740015,-0.26927611799039847,0.5168800533760629,-96.61747089184166,55.63165457838736,136.77400299193596,0.1474440620731908,0.1444939277460534,0.16528393071955538,1.1815790833871647,1.5756197873734032,1.6544300631692508,0.4187719715066306,0.7281599111236031,0.04482142968529668,0.5413301781052473
1.04,-98.89674804253079,75.07726161716332,169.71439355858035,0.08867175794264104,0.25671715203349615,0.06890113900007276,0.4301390391544076,0.2997391787583362,0.40413080897142095,0.47290465181538166,0.6335453730917233,0.3405323665133214,0.5075934761755312,-93.49887872720032,86.54193504497192,180.9103348281664,0.13762015133762828,0.2539787541308852,0.04861823428784103,0.3463342740301803,0.4921823462889513,1.0138993949938084,0.5002783037406898,0.5264300263976639,0.4747210052550478,0.4967633137228386,-139.46800743629043,53.60219509273911,122.43798185843337,0.11133450416399392,0.23774467352881642,0.36694683555272,0.7384034859568553,0.9729098133188148,1.6346303886280222,0.06654667754318619,0.807784563177129,-0.26686799965125174,0.5202493587586765,-96.55917821872217,55.74545877217523,136.96904543821745,0.14995177262152748,0.12494795051957504,0.18422617664199661,1.2145016868526526,1.562882643547735,1.6151377409232377,0.4195605818020943,0.7278833225274106,0.04712248911844179,0.5414855905283277
1.05,-98.75437748448903,74.73858948002793,170.09466872070644,0.09354612017816265,0.26894770889938374,0.07341526199414994,0.4666709131918068,0.3094417161889602,0.44036781164046124,0.4765367919862747,0.6327851481370057,0.3414610206444823,0.5040968291328334,-93.52780748389773,86.6613210423543,180.9165134578664,0.1389858907566253,0.2503323337087073,0.04945394430594129,0.33001407676005157,0.4824046328988493,1.0219004654964023,0.5001291230022912,0.5257808516581286,0.4755236472140865,0.49755822934950833,-139.11081433263465,54.077480646535015,122.32282380055538,0.11001807745970975,0.22701866927488945,0.41087917468393526,0.7282832612236774,0.994183074063313,1.6925630150652895,0.06625750194960456,0.8063686061972278,-0.26390767529413495,0.5237681460472668,-96.48600628206937,55.834467861719205,137.21080061983508,0.15312879154352083,0.10973874999269852,0.20838604910230854,1.2288008788626295,1.5321922105960015,1.567709798287137,0.42079853542415635,0.7276296752463465,0.0496703347062435,0.5413568521658447
1.06,-98.64338683003773,74.38379025913234,170.4505361963903,0.09919112219677699,0.28086545159706555,0.07931351406404587,0.5031239526313438,0.3258294519911199,0.4715824004596415,0.4799331722192932,0.6323377397528227,0.34205739938386925,0.5007358393632335,-93.56810170064428,86.78596832797042,180.93231402021783,0.1385731971883782,0.24446295407247803,0.04974443379828351,0.31309114915923925,0.47091620772718146,1.0285762005973424,0.4999990400633892,0.5252033799887855,0.4762313684296916,0.4983278647915818,-138.73631750501386,54.57726840361024,122.25542559179056,0.10897622182976342,0.21488172666581543,0.4543630211034385,0.7091497015556821,0.9988472873188081,1.746995638207213,0.06618576618856395,0.8050559195004253,-0.2603882791922103,0.5274099685883399,-96.40559726755895,55.9087014133626,137.49913557764472,0.1572604744081932,0.09936950347489566,0.23747909000647852,1.2255967717059608,1.4870004461528215,1.517927950090989,0.4223869481100499,0.7273978991816878,0.05248114353662695,0.5409646052129635
1.07,-98.56751000989807,74.0172763799187,170.78535744470935,0.10569634352476885,0.2915232437937717,0.08583168783799473,0.5375357503664964,0.34758770804069544,0.49648339929478796,0.4830764790691366,0.6322192499951891,0.34235400340314776,0.4975258168897823,-93.61743422370057,86.90669100650663,180.95640028873703,0.13654742625611221,0.2365075080040031,0.04940726627228299,0.2969724601118852,0.45882814140397865,1.0358741663472089,0.49989612315378534,0.5247466597575091,0.47678822917356506,0.4990273133071137,-138.34951520287288,55.09698131543421,122.24083816507584,0.10845636458430176,0.2012949175823549,0.4950145793664175,0.6834380042217968,0.9880258726592199,1.7955173940114448,0.06635240170162389,0.8038638755330799,-0.2563233738364056,0.5311398150370634,-96.32531963399204,55.97890312292035,137.83243652693537,0.1626093468478756,0.09390918086885994,0.2707988108384859,1.2065663195703176,1.4303316760011362,1.4716660023748327,0.4242120694555889,0.7271784584498221,0.055561699998059245,0.540337887577169
1.08,-98.52974941315448,73.6446866816966,171.09995241105233,0.11310221026262202,0.29988354526018973,0.09216269883476692,0.5674239312242255,0.3730905918635511,0.5139865789449549,0.4859331522362307,0.6324406613064751,0.34237352792621056,0.49449224690259064,-93.67339281589912,87.01495578882216,180.9871388193525,0.1332055660335157,0.22700483869182445,0.048421869190228874,0.28363174805591224,0.4470489945792268,1.0459978053086736,0.4998240320046809,0.5244507779482187,0.4771487206325334,0.4996239370903651,-137.95668275135927,55.63131329744262,122.28285185188149,0.10881828901370384,0.18635607042578042,0.5302720584761218,0.6545601649675037,0.9650872451414199,1.8359585515665313,0.06676694506766088,0.8028077186455502,-0.2517449133569654,0.5349182348163938,-96.25166152211017,56.055848506344795,138.2077253795243,0.1693581049531005,0.09298439927028315,0.307198291714219,1.173602684575805,1.3643306600183869,1.4343157124371264,0.4261532100501947,0.726954158887379,0.05890904501885139,0.5395128739948121
1.09,-98.53204317315267,73.27262705302454,171.39301745907693,0.12136394633064987,0.3049431534660518,0.09753712815583525,0.5898987447993795,0.4005373766493263,0.523250252601021,0.48845863239922527,0.6330042828178539,0.34213156601940575,0.4916677281666552,-93.73345902727098,87.10348173575339,181.0228107606218,0.12892196529403702,0.21681918036657355,0.04681437624487575,0.2754977095389884,0.43608359286948867,1.061111999369578,0.4997827327238373,0.5243422628865537,0.4772823654714916,0.5000981488204629,-137.56473925453483,56.174805899918915,122.38360817982894,0.11050432840997468,0.17028241609464329,0.557468271909085,0.6265891163824396,0.9354027674321969,1.8666516271591718,0.06742676672638044,0.8018989996339362,-0.24670050267214938,0.5387056763977033,-96.1898591953919,56.14964961160415,138.62071005879022,0.17755929336567933,0.09580795675209626,0.3451071780864794,1.1285260291813286,1.2900398098922343,1.410354597248206,0.42808971101021187,0.7267025246313488,0.06250931798734434,0.5385315255229476
1.1,-98.57501681150059,72.90822898970313,171.66180282248428,0.13033986724235028,0.3058656181606936,0.10129734103828072,0.6018974050101095,0.4281017690671769,0.5237204269157673,0.49060441545783695,0.6339012117636116,0.3416402376069224,0.4890875306466028,-93.79504678199912,87.16668382810283,181.06178813451447,0.12409265507225474,0.20702041930661885,0.04463686324064162,0.27524577436005687,0.4259226057160451,1.0830848276070595,0.4997693583668792,0.5244314195202419,0.47717635526261165,0.5004428677180713,-137.18061396987997,56.72234945674203,122.54325258706372,0.11399611598795278,0.1533739704862784,0.5739427216601819,0.6038836718578859,0.9058498662037592,1.8866371900968442,0.06831694647329262,0.8011441623978546,-0.24125059085405162,0.5424661702353778,-96.14375247857542,56.26909406406874,139.0658039140757,0.18710193378282802,0.1012437610316999,0.3826001462065367,1.0728942640023869,1.2074181241940853,1.4030749494551926,0.4299069349862377,0.7263992951401919,0.06633628790463092,0.5374399870264199
1.11,-98.65783662716879,72.55857091081783,171.90293109409942,0.13980494601960347,0.30209803928651924,0.10295582221497313,0.6005110648864157,0.454078506110586,0.515182925694214,0.4923260029071046,0.6351102355841611,0.34091203237768064,0.4867844125981418,-93.85560272172532,87.20093871438368,181.10265734860357,0.11908823665710104,0.19874525127203746,0.04194750716931225,0.2855174230519616,0.41604231248914614,1.1133002688574165,0.49977911661836144,0.5247119823053591,0.4768359716020964,0.5006619393450535,-136.810688610011,57.2695232028948,122.75970020125564,0.11976176699685326,0.13596735051430944,0.5772124583959501,0.5906925356913281,0.8841132671429317,1.8957764000253756,0.06941106453569001,0.8005436223514212,-0.23546569514483523,0.5461698350055832,-96.11580950075694,56.42105978409936,139.53619109520298,0.19770265439587706,0.10790774488737516,0.4175285194968116,1.0079423813860207,1.1155775843725302,1.4144487884505133,0.43150165452525147,0.7260222709012643,0.07035045403321427,0.5362865579103738
1.12,-98.77817588740614,72.23004041034879,172.11322439391768,0.14948437374552007,0.29344832458285414,0.10223008402642761,0.5833495876624365,0.4770147491236312,0.4978082650491328,0.49359063858200897,0.636598326512328,0.3399630833296508,0.48478350616220367,-93.9127545309603,87.20467359755969,181.14428432387976,0.11422084151166342,0.19305953440271376,0.03879708955512604,0.30860525261221977,0.4055120261678842,1.1525542736396244,0.4998061608211581,0.5251630407504737,0.4762828451695671,0.5007678584471594,-136.46034846879954,57.81274414879015,123.02858665749973,0.12819814545141842,0.11839161969688913,0.56519950774111,0.5907630403637707,0.8778569341415478,1.8947474205275137,0.07067314378908766,0.8000915233520197,-0.22942343578856464,0.549794049449097,-96.10724099679686,56.61005022161645,140.02402470565926,0.2089261889701575,0.11430172253849814,0.4477140236331098,0.9346415002167485,1.013180185486525,1.4450949001478701,0.43278726728634814,0.7255546833612128,0.07449967776838817,0.5351191264242271
1.13,-98.93229770601515,71.92773637334598,172.29041763244942,0.15909687756546392,0.28010429249682994,0.09904999510705598,0.5488751150917504,0.49581478898809755,0.4721706182976337,0.4943836908899979,0.6383225781804901,0.3388152295187731,0.48309811247723805,-93.96448191140159,87.17829574177303,181.18582565897768,0.10972617313132421,0.19083669108599793,0.03522471913623701,0.3461488942202638,0.39318607025416225,1.2010234617110518,0.4998443598611434,0.5257527726412042,0.4755514021525844,0.5007791369063781,-136.13365181616643,58.34923861814535,123.34344441224071,0.13957484001226478,0.10093578642210638,0.5364871124013871,0.6069752885727304,0.8938504844773397,1.8849248642592547,0.0720607176519143,0.7997761876615239,-0.223205247981134,0.553323372762944,-96.11813161149956,56.83789323234668,140.5208163591443,0.22023608987424304,0.11897154871467903,0.4711870199086117,0.8538345360302781,0.8989124615034061,1.4943321032030217,0.4336989739622838,0.7249874575381492,0.07872203454464623,0.5339821138650331
1.14,-99.11524713971649,71.65501102046704,172.43366725170398,0.16839542939088956,0.2625894366419898,0.09353872617343235,0.49664114885243354,0.5098072292961223,0.43922681718502016,0.49471274270340165,0.6402331536149471,0.3374965831456175,0.4817270902608432,-94.00927865644874,87.12399020395222,181.2266971270132,0.10575867576151986,0.19266309156990102,0.03126279556299006,0.39888612095102427,0.3779417444397112,1.258283550324558,0.49988792349152206,0.526443198385915,0.474684121221409,0.5007176263841412,-135.83312488775672,58.87687411862088,123.69609387467649,0.15398774539136822,0.08383278410109836,0.4905600915256528,0.6410298493512062,0.9371449653325797,1.8681626946636207,0.073528653495453,0.7995811460146331,-0.21689297183590048,0.5567484202494956,-96.14754431774136,57.10363609636256,141.018014741894,0.2310702801720204,0.1206735914073395,0.48643589171957846,0.7663945517260912,0.7719448897695209,1.5603198981193824,0.43419859111334624,0.7243200684846839,0.08295095728431531,0.5329132051875183
1.15,-99.32112942778024,71.41323062327282,172.5438086357326,0.17719445000296727,0.24166849800524767,0.08597427673277101,0.42739921599533376,0.5187665786749236,0.4002518251363577,0.49460886681684874,0.6422766402451751,0.33604074083006225,0.48065420775452644,-94.04627436967584,87.04541812935746,181.26651436467947,0.10239696228877161,0.19877874890717892,0.0269488124221922,0.46649527765089105,0.35891739221479874,1.3233578773397556,0.4999318603330143,0.5271950436441504,0.4737264195659048,0.5006060493736755,-135.55969663678962,59.39389623105045,124.0771870424354,0.17132904450765252,0.06725935269612122,0.42798203389342987,0.6932296753507083,1.0104002779714851,1.8465209199971797,0.07503310732185053,0.7994865649272344,-0.2105658207618412,0.5600639643671923,-96.19359279347458,57.40364881068539,141.50769186640187,0.2409287984578751,0.1185268409336748,0.4926235418151127,0.6733632554462721,0.6322977570386424,1.6402854423338087,0.4342782523932076,0.7235600653186186,0.08712190202467539,0.5319403740171754
1.16,-99.54343675256284,71.20179431730979,172.62335794746323,0.18537756570753033,0.21823028193010816,0.07674194787679468,0.34306779717041175,0.5228874098410723,0.35673960043935915,0.49412507549637,0.6443991960834139,0.3344850996045245,0.4798494620198463,-94.07529077234692,86.94734879097389,181.30502139761617,0.0996568124871694,0.2090582560116472,0.0223398936917537,0.5475511946970132,0.3357066899257738,1.394788605707851,0.49997226429421365,0.5279719056474106,0.4727220128303131,0.5004659240026427,-135.3127895826688,59.89861433957805,124.47680685023688,0.19127754527308286,0.05134735479569325,0.3504710301957512,0.7623991909762194,1.1134619324305775,1.8219922241739976,0.07653490855992691,0.7994708654143026,-0.20429830095874998,0.5632665616001882,-96.2535122363381,57.73192137997021,141.98318468699233,0.24945551637450114,0.1121249960945815,0.48972579376711844,0.5760464493793835,0.48106680115751954,1.7308174499916278,0.43396201390212086,0.7227216504542897,0.09117899010490281,0.5310798297980218
1.17,-99.77538061247078,71.0184041050729,172.67628732008683,0.19288739422345344,0.19317812227812067,0.06628743540339982,0.24658324823170044,0.5227174680160217,0.3102888662035684,0.4933323699740473,0.6465490185704589,0.332868871416473,0.47927205982803683,-94.0968183428639,86.83525727164181,181.34202115753558,0.09750883591193918,0.22303187498868848,0.017525023819088846,0.6396003512823328,0.30847498963011416,1.470732743588789,0.5000064403616554,0.5287431925174861,0.4717094129366911,0.5003159962840908,-135.09057358149911,60.389078463705125,124.88501903480704,0.21331068485819338,0.036200469580438176,0.2608501926613574,0.8459666426298653,1.2432650988364458,1.7962855089554177,0.0780017893703155,0.79951233790792,-0.1981594819890077,0.5663520156701211,-96.32377745645826,58.08051628529269,142.43951069197695,0.2564944506287546,0.10158605559347136,0.47855841797302495,0.47605847581579297,0.3204944783164282,1.8281875025603205,0.43330440937269743,0.7218238513938913,0.09507974678314352,0.5303354411742897
1.18,-100.01019535938012,70.85953776644693,172.70762414680203,0.19970592191254297,0.16735052142774395,0.05507658986701073,0.1416635235540581,0.5190626961546156,0.2624970505923741,0.4923140542553057,0.6486779314568455,0.33123132484243617,0.47887455354629843,-94.1119115434107,86.71491747213268,181.377318793644,0.09589699347751018,0.23994167732316088,0.012629996958953314,0.7393453728764803,0.2779771398121085,1.5490832114642803,0.5000328919930473,0.5294856234975183,0.47071990867080876,0.5001712258810187,-134.8903685711601,60.86279004379992,125.2922963603455,0.23673769646992693,0.021910452539816067,0.16286586244206044,0.940205432944353,1.3941073131852864,1.7707029575233382,0.0794091527813627,0.7995905905101789,-0.19221369351834022,0.5693129916796354,-96.40030927227463,58.44012333292643,142.8734150245876,0.26210572751157224,0.08752670370849429,0.4606822156597266,0.37531473579195734,0.15389330088994044,1.9286494199426192,0.43238536904037284,0.7208887619046764,0.09879640804184875,0.5296999207112038
1.19,-100.2413965829913,70.72104742038965,172.7229375520624,0.20583663239788086,0.14148167033169712,0.04356407729321447,0.03251564894217098,0.5128795446052551,0.2148798581237986,0.49115902737944683,0.6507421768474672,0.329610552613835,0.47860753232220626,-94.12201365764983,86.59201682830823,181.41068426915317,0.09475380409913488,0.25882452059293765,0.007811712215438744,0.8429161216492012,0.2454716227084089,1.6276046458634643,0.5000511995679076,0.5301833556613684,0.4697770366942981,0.5000423130063519,-134.7091543801794,61.31649198951979,125.68978025708743,0.2607514106128434,0.008568580352157589,0.06088481361821349,1.0406010903878096,1.558275980771278,1.74611591164712,0.08073943100058978,0.7996877117755345,-0.18652233142550328,0.5721371007706509,-96.4787801778369,58.8006653343079,143.28301060696307,0.26653557377165266,0.07096288777734984,0.43820079827157626,0.27597322373563965,-0.014562670553436007,2.0286739798548057,0.4313016063852493,0.7199401227856871,0.10231325129485681,0.5291576623031206
