0.02,-18.945838783106865,89.37053042296655,179.50133542976053,-0.0022469452019312,0.0371979776764783,0.0085974597957869,-94.62252720315264,84.1808515379972,0.1983631758350389,0.0103695439132415,0.058966603040118,0.0054036386019813,-170.64033438136144,2.356226382966932,5.622281883140237,0.0213732314316415,-0.0073827207823978,0.0285397831266127,-129.32262733061668,15.936538454602596,10.379990641057043,0.0023413404003027,0.0078107520031133,0.0074979914418927
0.03,-18.942982728152483,89.3711288537687,179.49627188428255,0.003567143060204,0.0277505766608971,0.0199361779074621,-94.55669060566132,84.0777292402165,0.181528787324719,0.0081181797556695,0.071108208097498,-0.0093881083913094,-170.60371799081037,2.3397188136710847,5.642720435179085,0.0378681561474057,-0.000141239354666,0.0264321681548623,-129.31321368078414,15.933160008728484,10.37935459398417,0.0141739331441432,0.0151290548156211,0.0154232131356762
0.04,-19.000811692553174,89.36936748731588,179.5303662228816,0.0108844514603143,0.0138565946429104,-0.0017120222550536,-94.54040809595094,83.9910740394672,0.1829910946895764,0.009675128378956,0.0542550976052161,0.0013940409120283,-170.55376293626048,2.310090456252791,5.699259991215139,0.0394380099560388,0.0118603148138787,-0.0034993065884239,-129.38042355829424,15.94734641254553,10.361879171422435,0.0034876783469901,0.0140122213574786,0.0272774935115223
0.05,-18.963504827015907,89.45568919945411,179.50539789677956,0.0287573699025445,0.0141789111164855,-0.0014572454343203,-94.59922314136548,83.92098071714527,0.177196617806575,0.0029482684473672,0.0728117809337593,-0.0138923405268567,-170.55734450219617,2.2956444590481957,5.740512483237312,0.0276667314472384,0.0208725115854477,0.0079425898178887,-129.37997816959216,15.930599550148251,10.375750607743832,-0.0075592548227251,0.0203558384432154,0.0120801696311849
0.06,-19.00443754697574,89.42218072731112,179.5172155278934,0.0244929235190922,0.0238082722447933,-0.0221113668562859,-94.60761004517111,83.86823923256672,0.1920824888307263,-0.0017761594269554,0.0736365185867962,-0.0143545886565611,-170.62658100531473,2.322492709507817,5.755586147498425,0.0237718792953254,-0.009561862582922,0.0252556139981688,-129.44150998928328,15.893635319530995,10.38647572900994,-0.000647862260098,0.0142284432223437,0.0513060454806546
0.07,-18.98928617300892,89.45172915920777,179.50168720172837,0.0079914596853543,0.0223203714912224,-0.0043626316588314,-94.60168742519642,83.80913318511693,0.1893619730917344,-0.0075589388846756,0.0820187543846577,-0.004108325686647,-170.6079808620141,2.3035487404268755,5.805267346991879,0.0278545333123032,0.015164977886336,0.0437087350155394,-129.44049821503657,15.88617563645149,10.421038313829902,0.015736341595283,0.0350609440039905,0.0486605058361596
0.08,-18.930004668391184,89.43810417646831,179.5060999319431,0.0198102632214279,0.0112791620986201,0.0081922250663242,-94.61232213208112,83.73356352154255,0.1891914954449176,0.0209057388906782,0.040329183800667,-0.0026208307714109,-170.70187652629554,2.3010215847744826,5.857809748463593,0.0233795101562461,0.0142118796492769,0.0159319218550969,-129.48908731849207,15.791379030534982,10.43453984159888,0.0165752913155864,0.041608697603682,0.0401682904975663
0.09,-18.93739350485695,89.43171546027114,179.50273396646398,0.0060781911077229,0.0146836021106339,-0.004627454472658,-94.56952865577576,83.69896225891597,0.1682945402540893,0.0146611593972462,0.0571328408714352,-0.0043097353114082,-170.74780288424472,2.3693803107114717,5.878319741799512,0.0494719255829933,-0.0022903511211941,0.041734179348973,-129.55160076920382,15.74852218513341,10.489258786143427,0.0262020784259869,0.05583700848021,0.0449810445678733
0.1,-18.94145580924565,89.45337423513222,179.50110536786104,0.0115382889589458,0.0029399108025542,0.0077851934682521,-94.59492079928197,83.63581414878425,0.1804472172521054,0.014898787643352,0.0434703488982816,0.0095599127641314,-170.73772094946307,2.389153792999962,5.933315799058383,0.0326915685498169,-0.0075262793406532,0.019165003279579,-129.62266555500847,15.683458649596066,10.501815887866846,0.037293618041046,0.0719236536287424,0.0643559531670026
0.11,-18.93180324122648,89.44967912258441,179.50752506608038,-0.017961707157794,-0.0123380094840197,0.0029768813730568,-94.61387698999972,83.56612416793291,0.2072938604799974,0.0121481956665232,0.0488328814002163,-0.0077893969728107,-170.7602675299239,2.3568281976704464,5.958529701454183,0.0431726788497916,0.00304685633692,0.030827073921135,-129.69078083550437,15.560716004665872,10.544509736800071,0.0381437547406349,0.0594946483715753,0.0751126077082345
0.12,-18.928826924226264,89.4421988972167,179.49191524791902,-0.0092278137650444,0.0173028191514168,0.0097284219831552,-94.61297336113336,83.5066400376611,0.1975277118009404,0.0116168578687858,0.0223830229134373,0.0033302214786205,-170.80870685196194,2.3607120628199354,5.996383241442826,0.0291742661312303,0.0089700127588296,0.0432981315541506,-129.75144722080566,15.504617073798483,10.615342069360514,0.0132655509750386,0.079105571209327,0.0447375390453355
0.13,-18.953711651480784,89.43876849061073,179.49900679546457,-0.0062795812732637,0.0127160810268077,-0.0008607752219414,-94.62287971669022,83.51260230866743,0.182266878218846,0.0325748919373648,0.0161735214759555,-0.0034029647017704,-170.86286698784926,2.359335199767943,6.032597718328011,0.0475186075201693,0.010444506258263,0.0575681168046483,-129.7386825750288,15.441694371918302,10.636030821072206,0.0047916970046401,0.0425965305397346,0.0068939291075604
0.14,-19.0031267223572,89.45371423818186,179.49515003916662,0.0032705853489008,0.0362218809388531,0.0117270440856079,-94.63158742180369,83.44108446655453,0.1942469175089728,-0.0143706456813886,0.0441933194320969,0.0175044585556799,-170.94693248297523,2.3215741471940223,6.044320997083852,0.0278839170519532,0.0123975921464355,0.0710960808499144,-129.6904899637749,15.433274023346137,10.617245468007104,-0.003766585160736,0.0412565058589144,0.0123557490086727
0.15,-18.997459996398675,89.48935312523925,179.4968648580771,0.0335544033460693,0.0158104955408386,-0.011251451333071,-94.63418984809807,83.35925420068618,0.1977372958185674,0.0229543681768585,0.0291030826827422,-0.001499205660549,-170.9925607789857,2.374799901872008,6.122157955776318,0.0302812646339457,-0.0033519808716217,0.0333372429674273,-129.67810141568003,15.38252286993836,10.556604192865764,0.0331494454502516,0.0579904982252642,-0.0020907661683256
0.16,-19.028994363442767,89.49577840571627,179.49480419322387,0.015449680305614,0.0101087853852883,0.0084941203284477,-94.6268264587636,83.36933850124119,0.192856481464582,0.0305207414257711,0.0235499725665227,0.0006411940606839,-171.0191945148807,2.369543152013858,6.140747934357427,0.0446165752127367,0.0204864020304655,0.059558119395921,-129.66855471360668,15.346787149135984,10.517801130806031,0.0303078454052196,0.0584562015540393,-0.013166429028546
0.17,-19.04607355024825,89.51134415038635,179.48693355436967,0.018342994612851,0.0160873577699943,0.0015977066755153,-94.60881087177746,83.36402864383791,0.1864444574795123,0.0371755608687211,0.043370863678052,-0.0257854690713134,-171.06949088557528,2.3765125283695245,6.182036461202257,0.0455870913257322,0.0289283370817667,0.036968693486396,-129.7037207200714,15.293710811380564,10.48821258862847,0.0519749627497162,0.0562077304876016,-0.0042186206415455
0.18,-19.073136327008303,89.49474710256771,179.500021124381,0.0007906072616103,0.0358643707480657,0.007529906478304,-94.68637653139722,83.30616783830013,0.1852722159551929,0.0216826114252817,0.0132593033692385,0.0037456897359624,-171.04868488826924,2.373939810687788,6.204386685424642,0.0300702621694359,0.0418804237804865,-0.0089255418194621,-129.69651077800128,15.305735118400912,10.429199475651078,0.0148399600326956,0.0273143064353558,0.0091970880411222
0.19,-19.07875776108571,89.5149382073145,179.4875093845067,0.0158379905461757,0.0220458497237137,-0.0209325293487192,-94.6819195754398,83.29744165406046,0.1946033348010241,0.009761722645719,0.0348624358863989,0.0143544701138888,-171.06167143185505,2.43311695501007,6.240516279982463,0.002974097706097,0.0269069487486276,0.0087013073534992,-129.6900304153093,15.320227998075731,10.41819307781502,0.0222580078588436,0.0493022027120833,0.0121214883091919
0.2,-19.08183909398878,89.5013534694129,179.49453543239164,0.0156865662215947,0.0175920802516132,0.0145224133831728,-94.66825661003404,83.30877174829503,0.2440565313539215,0.024626864427707,0.0254407196622077,0.0079637903077985,-171.03991752627064,2.4435321209512217,6.254383980053645,-0.000926781382058,0.0277921040718639,0.0275476359403671,-129.71026619317777,15.25251987784538,10.430730175856027,-0.0123535380475131,0.0121376106615117,0.0358369525175134
0.21,-19.10690323227232,89.5089153076153,179.49653360955762,0.0194890981236399,0.0187334686845059,-0.0047905603369869,-94.76208131027172,83.24975851685896,0.2638697653595737,0.0154901722289316,0.0421076897322263,0.0040270241187422,-171.05078225347003,2.4470034990131184,6.25264759684968,0.0233951566359139,0.0147736647793255,-0.0074573713374729,-129.63502926429967,15.236977035610025,10.430641361667664,0.0300569503227969,0.0232118328121298,-0.0024119654206214
0.22,-19.205505387221088,89.49119404967755,179.49669630265126,0.0368287960394761,0.0206640852184207,0.0051911239703153,-94.80552299722024,83.21536773168582,0.2491320725463028,0.01525321045772,0.0226145161936549,0.0146757974472725,-171.0630685362597,2.467101361806504,6.278309047899904,0.0096810827016722,0.0207300215118482,0.0212628415763884,-129.64265864811222,15.183924451203202,10.43053868423106,0.0117081468056545,0.041036543636385,-0.0008032519735518
0.23,-19.1966211670586,89.50264913995235,179.49450684778768,0.0160567499222315,0.0078720492843323,0.0063393849106883,-94.8768994598768,83.18619729440482,0.2497917008552039,0.0110166687899002,0.0104421191658574,0.0049358326072611,-171.0735128266017,2.4977579661185927,6.303061075601901,0.0210439108527536,0.0148856328317744,0.0204476449603978,-129.6666983389476,15.162990832080633,10.43925143930083,-0.0055704325912485,0.0493859464536398,0.0164612174509288
0.24,-19.246689802655432,89.49853761352743,179.49978347114788,0.0324722944198718,-0.0062419328784834,0.0090712036743673,-94.9436652924552,83.18108576654596,0.2587900374066951,0.0326864736250472,-0.0008885494468439,0.0097132815084651,-171.13149957937466,2.494362950222154,6.306484992812672,0.0415114724231408,0.0350558031209232,0.0453230030638234,-129.67782663994396,15.124022576265055,10.444221881538663,0.0079627185138569,0.0403038091351799,0.0208815764602198
0.25,-19.261800309594985,89.50741095753799,179.49775350714674,0.0391216011892736,-0.0170561526017466,0.0106104806685767,-94.9424423640517,83.17344126570839,0.2620334587407273,0.0271990230279715,0.0123827874509481,-0.0030723010087571,-171.15493299779618,2.466242499992675,6.32986406375378,-0.0007159472051891,0.0084121892584327,0.0294886092683342,-129.69023295121477,15.13993861963947,10.4454539028511,-0.0083587399384337,0.0079877081610545,0.0106636126931048
0.26,-19.32228831403849,89.50006367395737,179.4921069873302,0.0139065339182897,0.0084177824012639,-0.0001514465656322,-94.9976909117828,83.1881283127446,0.2622040576054177,0.0298013240581144,-0.006415944044673,0.0048542063754133,-171.19447427012855,2.433227425818677,6.367431215608262,0.0135315762154616,0.0396418053685966,0.0359283632592772,-129.6890406057062,15.052340057035176,10.45335556672939,0.0068623861126138,0.0481517911035166,0.0167768799339594
0.27,-19.30093526519681,89.51276615773767,179.51032453624077,0.0086566870378357,0.0150037852548397,0.0028255758173763,-95.00866031823692,83.1788187229701,0.253142591069099,0.0243923444802242,0.0119420970417246,0.0066890012160695,-171.19573327416418,2.3862595743056643,6.3535774572817685,0.005842859100021,0.0444442895101315,0.0195305901362784,-129.62324155347275,14.993439215323864,10.484239620581068,0.0134958316011305,0.0427104504206689,0.0115253161403974
0.28,-19.31993728296327,89.50473325368151,179.48823897177397,0.0196097720031967,0.0145214711479235,0.0139500293285187,-95.0611557466348,83.17547064770433,0.2992496269679565,0.0157654760513187,0.0156954028709332,-0.0050403411066626,-171.19941868680883,2.3718653730070978,6.363985831618805,0.0229538203557374,0.0191210404037801,-0.0151489802828707,-129.6588089662295,15.006669568016852,10.502342419537404,-0.0010983384254502,0.0399600891165143,0.0373040626683895
0.29,-19.30926298281744,89.51166485586599,179.50182542491845,-0.0023580094793965,0.0273331544297738,0.0127451477266213,-95.04944361214596,83.19493518152582,0.316689320835367,0.0117306093405948,0.0087278098424609,-0.0083995774460562,-171.19306892057838,2.299501263549354,6.298776328187412,0.0284832077015655,0.024297659445868,0.0391785754888076,-129.5520930427694,14.95146588739197,10.511454667353076,0.0065646180181083,0.0589240447761346,0.0442572796056463
0.3,-19.30455043900349,89.52651627662988,179.51184750136656,0.01148837166118,0.0396833196504313,0.0153874173821189,-95.08194506145747,83.21370737882282,0.2970006787312221,0.0362356147719278,0.0294959810379948,0.000845513537014,-171.19329010052846,2.309304111152477,6.303348823282372,0.0448058754699636,0.037250624762092,0.0035513378255009,-129.50155457207987,14.78937795640543,10.457040153809812,0.0184717719759433,0.0584787526611555,0.0513205898805497
0.31,-19.28552313793103,89.48616599240951,179.49428740631657,0.0090126307113862,0.0379479575893772,-0.0090775752429415,-95.12655305983378,83.23814980663809,0.3173252700874629,0.0325889938242267,0.024951024025239,0.0056673939214178,-171.1194340891061,2.2501588087809594,6.2617385291450285,0.0254012656588557,0.0145575699090982,0.018517364076663,-129.41398892510728,14.782881697843258,10.450185378478103,-0.0025445668364096,0.0779032697814672,0.0820233264443767
0.32,-19.350082854570516,89.50985213322954,179.50128206363792,0.0408659324736208,0.0324754015492717,0.0173069326149963,-95.15754755585148,83.24655996406429,0.3177157213579308,0.0426374816526988,0.0392504812106905,-0.0056131042550572,-171.12424038497304,2.274502867856715,6.2616455004706255,0.0509359633595993,-0.0159927745332474,0.012953509822848,-129.33537407344193,14.76558752986788,10.442489576170685,-0.0031018126918224,0.105875091788137,0.1007357364015299
0.33,-19.367917461877777,89.49187459130675,179.49213100710324,0.0518675546901757,0.0431463496288704,-0.005225109723301,-95.1580244066338,83.25037688071602,0.291362523086914,0.0354001072354019,0.0215666476738103,-0.0139342185691883,-171.12476882747825,2.267874175461165,6.256214484011598,0.0410919595118055,0.0009762284985891,0.0338067830402202,-129.30733612878234,14.75641728325904,10.429122432715705,-0.0016456585765038,0.1038053647464273,0.1276627266687649
0.34,-19.3785080470755,89.4337822261646,179.50420360003423,0.0206565192321133,0.0412191672554163,0.0003609035836968,-95.2631214476919,83.24819530823375,0.3044213820776869,0.0505985815918817,0.0015767260565681,-0.0004576679484832,-171.12173816945446,2.26117053696868,6.174574848889455,0.0466642804173783,0.0109241765554855,0.0200118957852038,-129.1792678077565,14.688667610514983,10.379120442482575,0.0106101805675015,0.0735272802919197,0.1308059092795037
0.35,-19.43470222526961,89.43880940238111,179.5043416644497,0.0331366713496501,0.0510305211517383,0.0185927258127539,-95.24894579426925,83.25734667999784,0.3139850953785736,0.0420822476127139,0.0160875174096187,0.0101056837812247,-171.134251653308,2.3000584014948706,6.123498817409936,0.0174632830986868,0.0267285255728878,-0.0008955344863398,-129.07388847736075,14.62725682090615,10.3258490034996,0.0129338824277718,0.0833591346760147,0.1134515267913014
0.36,-19.442719251008704,89.45964445379335,179.49191518242512,-0.00821315438394,0.0678422438274377,0.0211306963860073,-95.32635112623448,83.31101079816197,0.3080416136486971,0.0382790773172968,0.0548973930147697,0.0083530579292914,-171.1264031563492,2.300562311989467,6.129111750661069,0.0263270297063707,-0.0013991992586817,0.019785924461736,-128.86336318818053,14.565954472025949,10.3035634178359,-0.003785922723204,0.0657794810997315,0.1240798754910969
0.37,-19.43860665374923,89.38336540512648,179.4920722965155,0.0130838782059758,0.0457552363098583,0.0085821620451449,-95.30666003982428,83.35126484956714,0.3070962513859823,0.0156561625248593,0.0188670021617699,0.0019813080219545,-171.1917853622745,2.320999405611392,6.066277238999744,0.0063502238021654,0.0407333970853101,0.0545502306819028,-128.75115067238175,14.55502060958899,10.231350971042076,0.0222858920829195,0.0483858485740173,0.1646533746447536
0.38,-19.430448353322664,89.36492901280948,179.49810844669355,0.016493331599203,0.0460139303285531,-0.0146561956374576,-95.376962910548,83.38400352173106,0.2896928177281451,0.0302749915902061,0.0353339866895156,0.0234514314868685,-171.24906594094026,2.3866875725057666,6.06017486752162,0.0055668491466935,0.0116026677741467,0.0488159788717339,-128.5605841809169,14.571502834910996,10.199087253788823,0.0087812990869912,0.031479585033375,0.1362992736415553
0.39,-19.491889312133203,89.30349136082654,179.50423798858827,0.011902564816432,0.0251399466176519,0.0214534874033391,-95.37059574421129,83.45301156249555,0.2996714097871634,0.0151026199450161,0.0133876036542884,-0.0024287912069136,-171.31411327489107,2.371300699929736,6.073415291404573,0.0219407965261034,0.018564727847677,0.0669367154385515,-128.38831049060002,14.646104711345387,10.130854269531998,0.0237938973404617,0.0087179214897487,0.1617663373007539
0.4,-19.501850834262047,89.31259380448036,179.4909266838486,0.0110078237675779,0.0350758647556855,-0.011739800736376,-95.39382165864512,83.43628683287768,0.3285682462368725,0.0009919639885122,0.0271608710165954,0.0185556176706543,-171.3628519888242,2.4397512158740198,6.004093982965039,0.0364271320655657,0.0277907468669881,0.0612213994359528,-128.25260075311118,14.698917558034314,10.047873172160154,0.0325105810954248,0.0435924893799701,0.1335993421928574
0.41,-19.492235887309494,89.31793608355467,179.4970489519036,0.0252979521633218,0.045895091167884,-0.0007633724610557,-95.37446881735848,83.48256357065507,0.3239758363991169,0.0118113909617284,0.0378998832666587,0.0141248796510082,-171.4283294254498,2.4387382304387275,5.998700622275219,0.0195852058642705,0.0136489920613291,0.0449056664600125,-128.11193527601787,14.87416572294766,10.01053835987368,0.0015095575007396,0.1133654983008777,0.0931832488852673
0.42,-19.56498916858091,89.25707881631853,179.49831933943784,0.0163504230626524,0.040075488244718,-0.0099016183610638,-95.37937817899696,83.50866815563091,0.3062350127203764,0.0049985351529923,0.0232550668161999,0.0289374581217515,-171.49198554460492,2.4476095239367357,5.932010529394868,0.036361875148407,0.0029367976313488,0.0357104051344254,-128.04863900178137,15.198779465358394,9.946076089772111,-0.0016521401727374,0.150802779811735,0.0323031377452111
0.43,-19.56106227907645,89.19653630963163,179.49519954773345,0.047848571567058,0.0547404309583434,0.0021554510748404,-95.37546362702142,83.45700769397617,0.3265343328064429,-0.0045691681754498,0.0023446752256258,0.0051256356505703,-171.49847053048956,2.490035606552385,5.8681905105058085,0.0689248198905537,0.0287113472062243,0.0084712344153896,-128.0414581238847,15.494286528915982,9.94484839122128,0.012637687381386,0.2375262228653541,0.0149407713348575
0.44,-19.581835958007897,89.15786431096524,179.4918842758736,0.023526912450891,0.0481515247383647,-0.0191310055646103,-95.37640625092716,83.44573076518877,0.3028687578876443,0.063198073046219,0.0532870130564843,0.0066105938201469,-171.47568290574344,2.4199807438888574,5.814305571163078,0.0705330506042847,0.0345016495451015,0.0573540948995378,-128.14467924428135,15.991980871797482,9.952522124935824,-0.0115147294089577,0.3308514378560725,0.0968280979586343
0.45,-19.61521046318844,89.1418550234926,179.4961454729735,0.0069150297258107,0.0101162820437885,-0.010532837804242,-95.2951230548978,83.50305079011565,0.3243908675216547,0.0899493962376954,0.0555491491054606,0.0225843724897525,-171.45096818872773,2.353496501926018,5.759469119513929,0.1063387735122402,0.0021191105435385,0.0954623567458496,-128.37801633445957,16.48028597066774,9.979139798669872,0.0117894055521485,0.4151378891161545,0.1579060216566699
0.46,-19.623503070402577,89.12176354924522,179.49939987636043,0.002992679147234,-0.0031989692000096,0.013166438677789,-95.30137861302168,83.6183142142822,0.3797217763561842,0.0538504983658128,0.0414930902088368,0.0454956348427828,-171.2408648150527,2.368774195010325,5.629920731937432,0.1371768735768997,0.0409603691311294,0.1533109379417877,-128.63663698304129,16.95079330543529,9.993618038281609,0.0348626097955712,0.4704883930315279,0.2143914683178063
0.47,-19.55476543277796,89.0654156749067,179.5620295694733,0.0097660573461006,-0.0035293275892844,-0.0128584738927008,-95.30876529221636,83.68598080259764,0.4540811210935685,0.0296921074239849,0.0358659827544031,0.0252802969034768,-171.02528872498058,2.413540922886625,5.506273678557882,0.1106743856315867,0.0439653699438745,0.219184644457115,-129.01314739958423,17.44642831650659,10.059966525496852,0.0336580635409126,0.4696955700937046,0.2859295372508321
0.48,-19.5777298010434,89.01098587522992,179.5266162729942,0.026770802661277,0.0302031761544955,0.0185800529285118,-95.36724909594412,83.73665941545181,0.475012457738672,0.0295212845963236,0.1006608414357135,0.0643481079473905,-170.9272355816653,2.417945469598345,5.481699674598406,0.0705008316136531,0.0173435730679878,0.2488275859205613,-129.16596718984397,17.689293051022165,10.094640848361172,0.0653148565500257,0.4855667898550111,0.3134697369700047
0.49,-19.56978506941533,88.94997389954027,179.49972795801233,0.0128337089551343,0.0501801519827905,0.0258388031801553,-95.38395596741726,83.8157419703551,0.4971703854286968,0.0100635747166625,0.1219386204865091,0.0687997946777967,-170.80518700481258,2.4478337125777165,5.434795830397021,0.0463931189610978,0.0215549501345108,0.2734881960723319,-129.3846743966011,17.94221615605174,10.12743589131916,0.0911865541118843,0.5191375046888,0.3486942212903256
0.5,-19.565377548730886,88.85623438106938,179.5013057005482,-0.0172941503384382,0.0564435861587007,0.0265742682465204,-95.3817356094648,83.99137648111436,0.5626948357597668,0.0960088770799962,0.2287590923865718,0.0139722487175891,-170.56808958437975,2.3328976661500342,5.369965688365349,0.0214722492723967,0.0766010470298236,0.2560824279385322,-129.8742708763053,18.50861310165836,10.176913940857698,0.1213081753972574,0.5336524797744957,0.3339490758824078
0.51,-19.572151872212697,88.74325441805564,179.5001435893995,0.0067586461274268,0.0571866788870274,0.0136907241133051,-95.4968932611158,84.2972908507293,0.6294334314471549,0.0229327474020593,0.3156794142357256,0.0455913476012396,-170.23321055888252,2.263731030673702,5.309277580393926,0.051816247324241,0.1125595336823125,0.2334595148785192,-130.30954768618415,19.11294325982764,10.195132002176342,0.1806603869987879,0.5894036799208752,0.3010546175674356
0.52,-19.550559665265496,88.62123564421829,179.4615556223592,-0.0027643388260076,0.1112583612580531,0.011353436295159,-95.62704518403704,84.58104251905688,0.687375593725095,0.0585347196306955,0.265717301361092,0.0391452389642453,-170.070513949017,2.072287258844212,5.36340453357586,0.0549711874245921,0.1544198216413542,0.101643250730824,-130.7516140281887,19.6967193631762,10.138765481256696,0.1711880611776035,0.6085263756425392,0.3103106463217553
0.53,-19.62689678359025,88.4593418843281,179.4334156491979,0.0394930489142239,0.1492245847456703,-0.0145472322775805,-95.74800689678584,84.86645957453955,0.7556288573243521,0.0806446538719579,0.2257835948085515,0.047142720485648,-169.9859181553305,1.9341497057092396,5.4586078368769,0.0847488173586984,0.1506278105637236,0.0544160460194106,-131.20494792689536,20.306252564420276,10.127461398907894,0.197208048015862,0.6274703576151912,0.3329628159187273
0.54,-19.692433100713465,88.2202149352656,179.43876263948442,0.0476693473869526,0.1940364299844502,0.0037231253984488,-95.95510906040556,85.18304069051601,0.8110313503650554,0.0902494686681206,0.3362739375806512,0.0103052087590999,-169.9431497283911,1.739579945383142,5.5606321470490485,0.152122848394924,0.1411376964788762,0.0718252058371864,-131.60192346978857,20.782117263025317,10.14704183777378,0.1586461245845309,0.6510450457731545,0.4161797015517811
0.55,-19.746778771442116,87.9934046875664,179.449750505729,0.065667052895812,0.2455857790503396,-0.0006545652226046,-96.01766318078838,85.67975001863276,0.7692092885496626,0.0964316944616284,0.3975422932262891,0.0102117229874644,-169.86322225112016,1.5694287122222506,5.763793787450083,0.233049995138761,0.1935114091773514,0.0517205758553908,-132.0008046249227,21.2335275718879,10.199862945704837,0.1324323596979666,0.6688189437552535,0.4791730278727347
0.56,-19.802904507051544,87.68229377812246,179.45074471375148,0.0657091220033302,0.2773203206604588,0.004476495371006,-96.12186883942564,86.18226307044787,0.7596147710207432,0.113755539666024,0.4584174730958015,-0.0033990368957431,-169.9261116815342,1.310336729590604,6.071536716856922,0.2847572207265346,0.2046371616443109,0.0803731071508989,-132.6665569689241,21.86915395897641,10.296982216185294,0.1091247845912367,0.6488842215958791,0.5438479660612948
0.57,-19.8722451080409,87.35717874868563,179.49056065221606,0.0752857798949044,0.3575283189850887,0.022721938176948,-96.25799064283188,86.6895726772244,0.7482969989882343,0.1070877307334416,0.4117748108449152,0.021226905425818,-169.99912974402258,1.0588052437552762,6.444264038871744,0.3322053817045395,0.2456062315835374,0.1208981981187019,-133.39738692881514,22.39631708617461,10.54343071247836,0.0947430125308946,0.6392279448463367,0.543955708806899
0.58,-19.910526904608044,87.18466887006664,179.49532064775647,0.0674520209011714,0.3374957856538776,0.0206812824163903,-96.2922222179734,87.10187607625463,0.7452340905754886,0.0774208929069368,0.4805577694445095,0.0230935719877258,-170.24762718309654,0.7406559022266755,6.81418659952622,0.3543583625496663,0.2887372419858787,0.1877229149484531,-134.13753115113926,22.92976306516371,10.749812602530952,0.0920784297512544,0.5942820510918508,0.5313482482207951
0.59,-19.99930257038187,86.79211280338151,179.5069886669076,0.074725827035801,0.3880920605456987,0.0513793295930397,-96.36943163378626,87.44575658673097,0.7794021312234667,0.0406117101674403,0.5671049668662264,0.0164977628366309,-170.42999665211624,0.5209175558400893,7.1788835981219234,0.2847423455779891,0.2598063435581619,0.1430487163221676,-134.82374231013446,23.42018109994468,11.002417412042412,0.06751325444065,0.6314682531223622,0.5139998831376454
0.6,-19.995074587882115,86.3051794485016,179.54249655683398,0.0692510285321019,0.459218170511649,0.0014241300862919,-96.41968162482704,88.0511794823665,0.7566779862727517,0.0654929311470606,0.6857051280374139,0.0517588689205684,-170.68191164005455,0.1334925728990458,7.730779920862207,0.2292507606040817,0.1168602853191066,0.085712123310442,-135.3748910635662,24.0094232824844,11.26027147858709,0.0657846639394616,0.642338098715108,0.4473275680264117
0.61,-20.06372362811962,85.82498773659923,179.5619734915972,0.0616833407228893,0.5899863705893146,0.0406189533345469,-96.45073615382218,88.73252699727693,0.6959720312833417,0.0721591241997997,0.7289364829249831,0.0741051372772817,-170.69945687081656,0.1409209712834256,7.996518626951974,0.2159022188506821,0.0143605770825286,0.0168567132193938,-136.11429910123695,24.50524232876576,11.437036208352984,0.0924631677092178,0.6137661437317898,0.4468725985696662
0.62,-20.10759901349433,85.12100571449096,179.63787688793067,0.0679605868821934,0.6457821199806686,0.0524040971994235,-96.43213434384243,89.3760684864108,0.5544524972447931,0.0741749926849545,0.7602741980227089,0.0876323896801277,-170.54587436637738,0.1250032160589335,8.26964210784699,0.1476487534420408,0.048452828450056,0.0849375153137032,-136.6778041684235,24.973747362585275,11.684603999176252,0.080344309574733,0.5543174117060318,0.4183981593326616
0.63,-20.122576731461223,84.37417338017666,179.68259878970184,0.0864921641834657,0.7170390175635155,0.0660424214406901,-96.40798244849404,88.90920052160907,0.5556593042387874,0.062098275956309,0.7345887419336782,0.0905207146238488,-170.49014936366487,0.1256748551490719,8.303695346488805,0.11072312886258,0.0649950067431843,0.1515653700886406,-137.19310399714968,25.44351673485143,11.881633557269588,0.0337887770345558,0.4514344157863325,0.3080918458676261
0.64,-20.10948202393168,83.99061648716746,179.37154121050764,0.0462992634607205,0.7029127566565578,0.0606996855614561,-96.38590094780903,88.68445205252493,0.5391069737059739,0.0417391740559203,0.7260970455970066,0.0857644270185638,-170.4256018715612,0.1579586582617325,8.353458883639405,0.0941966129219193,0.0440069611558767,0.0875690066313705,-137.51744684184882,25.61653494334161,11.946669867828668,0.0364414620887603,0.4377501998847102,0.2684383974103528
0.65,-20.10580039531152,83.59960595795428,179.06304562205534,0.0516236658649618,0.6904939210613233,0.0430981625936677,-96.38410789813308,88.43471877459255,0.5465579500862451,0.0296156821310396,0.7106169645710185,0.0795239583905406,-170.37637151415123,0.1877656985780649,8.3552769186113,0.0981337047822953,0.070881756446325,0.0696955214289573,-137.80908879142694,25.81321295263465,12.04897706322314,0.0166617085392071,0.4128813307896234,0.2448375515810871
0.66,-20.122547277554983,82.80513577836324,178.44063027135448,0.0343089281065139,0.6619514309986717,0.0597477986935204,-96.30338452411247,87.56887691237444,0.6146210261610746,0.0297629440912287,0.8675909448159594,0.0883898096267118,-170.31991042896945,0.2259740895071036,8.498706678788258,0.122322561499823,0.0734514589459675,0.0219294055434577,-138.08942058894183,26.21277744989456,12.184842781405068,0.0274318798982015,0.4150527459857728,0.1409354305006721
0.67,-20.11754402566291,82.0601419882223,179.054354644396,0.0641843408347866,0.7211155586365554,0.0681926157189681,-96.18764864012664,86.50135014997561,0.7409444616892652,0.037798797454218,1.026373348960058,0.1348215658651198,-170.3172707912001,0.3743009658811995,8.693001970640465,0.1283468837815227,0.0554425108323368,0.0338966684531696,-138.3605947645849,26.6313482564721,12.324662081847627,0.0396052781236685,0.4352965858248344,0.0533096610581787
0.68,-20.113802341470667,80.93884701973298,179.34798318445203,0.0672490890443066,0.7853089304449274,0.0753022387470927,-96.11698539074956,85.32165890835377,0.8908384266116592,0.0953254538664621,1.0454561444483983,0.1610661604794934,-170.3815706282258,0.4287755364688909,8.809154233106465,0.0921585842248121,0.0866038041295012,-0.0010397313738522,-138.62508955636577,26.94126056754812,12.486938222543433,0.0428532775884818,0.3868077653249355,0.1329044735046565
0.69,-20.126901838480656,79.81884540864178,179.63609311521938,0.0896278242149006,0.8562367974641485,0.1010837208368208,-96.05933359399344,84.13540670869958,0.7440899519064579,0.1182062595651166,1.0273985880885423,0.1542948125805138,-170.31216672582747,0.615736281599786,8.94197278274237,0.0956437955302954,0.1504710418779988,0.0061343487903263,-138.87577796914,27.19547814360003,12.686182145905322,-0.0026065714606649,0.3085277109049445,0.1140125172768668
0.7,-20.207798808327805,78.88295639709014,179.25022513069672,0.0960016897314568,0.841333230041508,0.101314855324067,-96.00053503011183,82.87677498516965,-1.8188930832563528,0.0618920039744836,1.2221416963355751,0.1616366636649166,-170.31057265252588,0.7945105320181911,8.99065494491293,0.0664052615508548,0.1797826864327731,0.0229266443061663,-139.2544531503948,27.35859725902405,12.992814458045052,0.0706584384687871,0.2668549678525717,0.0483662507959536
0.71,-20.123833074812275,77.94733483073124,178.6114807767015,0.0706918968339058,0.8483425514549736,0.1443233120138945,-95.87836880812304,81.48711398344273,-2.5840181325876896,0.0364897475028961,1.259806887889309,0.1662113768585509,-170.18885215012904,1.1063836417058286,8.99947258089663,0.0052008878174553,0.2578167601998031,0.0783846852179713,-139.2980595371626,27.512950966756065,13.124391950883972,0.0720006686606473,0.2478926765275406,0.0242268427074193
0.72,-19.98187040877073,76.88127835755759,178.14027096804358,0.044386719437182,0.961254081570432,0.141226157650809,-95.73810155647998,80.13175762832299,-3.1265846251377205,0.1192737432460971,1.2123411255021388,0.1748679921250932,-169.99609099056872,1.4463776446978025,8.924618818268776,0.0597538848443626,0.3179758041122202,0.1975760180244009,-139.35654516214666,27.69148692719584,13.315922940833712,0.0404640700718289,0.2641419515609914,-0.007022763543559
0.73,-19.980195287356985,75.7934859060307,177.74877216026525,0.0903309167035624,0.9480791897992706,0.1185794432412438,-95.69983042342623,78.8171077853544,-3.637034711262806,0.1279893637773471,1.1861746641435702,0.2082220660225976,-169.82367255908633,1.601779871298484,8.94383023382443,0.0358888855712118,0.3419184958991176,0.4297686014760923,-139.73679460794187,27.94751356858042,13.458571789298118,0.0656632231638324,0.216843720811472,0.0377116466225762
0.74,-19.935579985814787,74.74841961190947,177.5075734526888,0.0702746666408112,0.9462003312682232,0.1246057364326054,-95.570418163543,77.62561401140923,-4.045528606835024,0.0674082532962703,1.0847958236792017,0.1728857395618202,-169.24338977951473,1.872372324374731,8.940702511407608,0.050030470722032,0.2972181485707224,0.5227424353123512,-139.75263656591508,28.119540550613472,13.544360261124034,0.1517874823508842,0.1647012886554782,0.0581078989591478
0.75,-19.690974705277853,73.81221618317416,177.0970891724873,0.1001096035558088,0.8568459530329035,0.1323348033202648,-95.43119193703008,76.45352889796891,-4.44373911701551,-0.0144761174693611,0.9897632445866232,0.1737490968541072,-168.68701024118496,2.0629065291584348,8.938469271560034,0.0776390786734785,0.2692969849098797,0.551028525802376,-140.00110231780764,28.266358675514844,13.795325083672498,0.1669414715555348,0.1405138560096586,0.0052233181654871
0.76,-19.428359817714306,72.86518285575859,176.69334580938718,0.1405605062010536,0.8118192544865527,0.1432735939623878,-95.19313916638173,75.30451053875022,-4.821166536993942,0.0731022484075623,0.9688859970985372,0.159649815840801,-168.0628864455482,2.3000821682411976,8.818615028959934,0.132706511173115,0.3121271504252125,0.4915725151314145,-139.9707240436179,28.408957187414156,14.003316317360158,0.179722413365458,0.2013751212283024,0.0340099320483869
0.77,-18.94619740717055,72.00492622100383,176.12851677077694,0.2089050378223366,0.757715920308402,0.1360924359075558,-94.86799380085918,74.19407625602031,-5.029057622429357,0.0832173386600494,1.009393659128789,0.1192945248433554,-167.50404632165692,2.5547883949266272,8.679451733108694,0.0749816583659385,0.261275262747544,0.4082613833606553,-139.93146991246982,28.57071702263184,14.193514799992103,0.192920915868319,0.2221762043307264,0.1250952625308833
0.78,-18.470250134804992,70.72296827185023,175.7441345198086,0.1304466044587578,0.8703156857176031,0.1026001889002752,-94.75376062600732,73.63333374313413,-5.059420331251975,0.0449571885197642,1.0052194489207424,0.1043287529453445,-166.94729069195338,2.8051273275720177,8.558208800912354,0.0633804824945157,0.2010304504497471,0.2521727881812118,-140.07424092828828,28.94946049296426,14.436500965692568,0.2401837027243754,0.2903629497817488,0.1174805834979399
0.79,-17.9746756115609,69.49240546699596,175.37615163498307,0.0649420496729952,0.9605321994915346,0.0908419650876732,-94.49997273247192,72.56073010541068,-5.130147240562022,0.0197820747362981,0.936688095758056,0.1119921493813895,-166.67223169475727,2.936127226163365,8.550980815972304,0.0040700498945055,0.1533837393959924,0.1275949464075967,-139.93006448037931,29.19334364335264,14.624083835538045,0.0838759124892628,0.1757372907484397,0.1326932156158679
0.8,-17.986931175706182,69.22254164555596,175.40492510676066,0.0376929156797722,1.0053889273799137,0.0300227125472953,-94.40356199770804,72.0262591364592,-5.135145000143521,0.0193120837352657,0.9813078024146636,0.0987730262562338,-166.71446480555642,2.9883964031073136,8.582063733211937,0.0136624866540385,0.132696528040799,0.1365083171927227,-139.96045488767163,29.28129736220363,14.628058514875203,0.0796135873406126,0.0977801738422719,0.1281430039778346
0.81,-17.94030750444483,68.94096731153277,175.44180208661592,0.0036017414192615,1.011672158111566,0.0367412902057065,-94.30076603756896,71.49604797324187,-5.154046532663938,0.0430381099285168,1.0205101591336,0.1033304057316109,-166.74711233927562,3.050026993529684,8.567369609925873,-0.0084126319315047,0.0998488526299702,0.1143365758090859,-140.0062424183252,29.3707188760928,14.614079221472029,0.0507754910071037,0.0185860857636311,0.1124598679799116
0.82,-17.94836903401254,67.88687826223581,175.60394991441643,0.1162166121489145,1.00737463997473,0.0010473748924554,-94.26243090634132,70.30665233214951,-5.07799304731389,0.1117272460858185,1.144528671370956,0.101243849108557,-166.8268355331986,3.1998884899078197,8.56221125397706,-0.0033350272852104,0.0617130089738641,0.0024782606319025,-139.69725296238215,29.509145246277715,14.546926822399692,0.2341680450650881,0.1477238453247565,0.8090653854507817
0.83,-18.13412223731657,66.7587280424251,175.9916504083785,0.1546364978203963,0.97340589058076,0.0171495797299954,-94.30976081318936,69.06864625454243,-4.870931185784886,0.1511738589764686,1.004731102048404,0.0756336934544141,-166.81795452489533,3.2418030872532424,8.619342473200605,0.1221960561467024,0.0331797650590613,0.1215860893593569,-138.70281631275023,29.997731626616925,14.369840085874916,0.3202885922724232,0.263854690160627,0.9793076515367144
0.84,-18.36395156570094,65.68595709748367,176.30491017121963,0.1976415676736061,0.8536497314835799,-0.0058180834294578,-94.36971244475497,67.97852551525824,-4.639086412174963,0.1400110461908768,0.9246074395106,0.0816165847676083,-166.697828367349,3.2479298194987645,8.752831733037791,0.1907127858930092,0.0039653862047544,0.0349150056920897,-137.71030851000066,30.497556431762344,14.141319210130924,0.2604161974577414,0.1739632710259277,0.92690574604085
0.85,-18.60633875264184,64.7882017727758,176.62848423464567,0.1556852419183247,0.7716657514958744,0.042029400501462,-94.52833754019372,66.98154113221473,-4.467239135211086,0.179885045049989,0.95679450641816,0.0908496354965903,-166.68471084935862,3.234807273398663,8.946225682077253,0.1638931952867125,0.0069963380172852,0.060205989608085,-137.0697417517466,30.681758424489605,13.885971233108858,0.0461156067063564,0.0770506603117472,0.2857027300083173
0.86,-18.8024457762907,63.93739066927473,176.81094595205477,0.1232004196246928,0.7241885146346175,0.0257460534494461,-94.68294220370748,65.9320781321468,-4.252796336564956,0.2009581677214251,0.9890781138207404,0.1561911084630168,-167.01576422527705,3.2467632566555324,9.05843273778722,0.0658033667635732,0.0393389344225848,0.3761833117565658,-137.000150774584,30.686513787461404,13.81177956751645,0.1419401299137978,0.0101276378152705,0.2457398378269561
0.87,-18.741062705534297,63.00105666426994,176.78663665159317,0.0488533919042663,0.7860900704939667,0.0819753703396443,-94.62384516547928,64.70112742739006,-4.362243820551449,0.0785220837306367,1.0835683006183636,0.2265472249922285,-167.49455145953982,3.244146810046836,9.13466379520618,0.1315767382097118,0.0252796957848246,0.5062401807500464,-136.55856105214374,30.941605984330906,14.007571576155383,0.3201445358507254,0.2758927364614311,0.4414024438430873
0.88,-18.68620612795041,62.07040168843925,176.755822315921,-0.0109946825724506,0.8388880840119641,0.1460477984002784,-94.18647157469914,63.75053634363796,-4.667922902215153,0.1198767215181097,0.9110185870935243,0.1541372610009662,-168.0019051264801,3.280729141490683,9.249778165262205,0.1571778477595173,0.0528899389903487,0.454907277279739,-136.01625359065451,31.37850955328346,14.0677390722032,0.2607190690909687,0.3300290456669177,0.5008475910826878
0.89,-18.29991549691928,61.137524278140106,176.43321890293174,0.0875631760063642,0.8004146783014396,0.2083225415950632,-93.75040306295982,62.8247153187217,-4.946228450258429,0.1441025059251178,0.7267628666416116,0.1197580890965797,-168.49643595680348,3.3029202162832045,9.377296208822663,0.1760539523129425,0.0761451730160566,0.3908781149925974,-136.12870253894806,31.86525844727997,14.079743474291885,0.0230537542312531,0.4218626813568739,0.1489778621729797
0.9,-17.759059578062804,60.44335352962307,176.00120482490135,0.1957338758015601,0.6030297097883466,0.1006887128157013,-93.49337279295317,62.01028151598301,-4.997063720157043,0.0405981968790665,0.7308424604734399,0.0394285405115601,-168.99581148370882,3.298684482035932,9.556657974188662,0.1923324664410379,0.0995515888995886,0.4505520498238651,-136.3047657657133,32.24100176282843,14.1530878214933,0.0653903686841764,0.3427253727234641,0.1031646841023866
0.91,-17.30230786814406,59.75360939438338,175.6954005963226,0.1337385874379058,0.5949079263763367,0.0926581263013879,-93.29522948470049,61.17483522044973,-4.962019375665838,0.0255916256313445,0.7335349556163799,0.0171033490367128,-169.5946807322294,3.354923216897207,9.808741462943685,0.1897097180502346,0.0303269042302295,0.4177327644363771,-136.4967051960355,32.62715461639566,14.254014739878253,0.0783239425965146,0.3162889949269402,0.0114199697919534
0.92,-17.003447850309534,59.19567184866982,175.5031386785644,0.0208175802278959,0.4561198245594224,0.1152724239178013,-93.25473422674986,60.41770819787165,-4.888541430519316,0.0020449749955197,0.6637156898037294,0.0595248033608913,-170.17925603530145,3.3774125086234883,10.048368863060285,0.1874288895057499,0.0167989466442415,0.3755969139941285,-136.69693486981933,32.89161500878522,14.491336365620954,0.0554921645549596,0.2687745223245155,0.2834982244861583
0.93,-16.852674870732127,58.76974661924747,175.3051578248226,0.0109693370513386,0.3643614180553207,0.1381221872289034,-93.26021635106282,59.82057795979956,-4.761565559911761,0.0993087496864057,0.5683963512789282,0.0867303162386598,-170.55770016848172,3.5079943741423443,10.266706026290844,0.1108585826382098,0.0273812324539262,0.0860560252229573,-137.18622838758634,32.9276193684527,14.866187984887144,0.04243266091832,0.1646881139372149,0.4616315774226683
0.94,-16.770876927956376,58.32306938253373,175.18920804808656,0.06324020040653,0.416009477283024,0.1294899244734008,-93.31787598325263,59.132837725786274,-4.688479388569178,0.0917717772100188,0.6352439990431767,0.1171579066979347,-170.55875402021425,3.49355231619895,10.31838785192107,0.1197744805497463,0.0019881482261141,0.0149176043952979,-137.99267353650777,32.865221651896256,15.32176766718418,0.0940116040863248,0.0344373189481978,0.4692731046094303
0.95,-16.813883792385116,57.77469148371098,175.18796986716526,0.1127342088527949,0.5525927225528476,0.0839946790174662,-93.25705019068891,58.44422945579058,-4.825743485271377,0.1046559220538812,0.6276219563968388,0.1714655036607905,-170.57349306680882,3.48388025581132,10.441881302365642,0.0886994358983628,0.0289666581279507,0.1179405534929241,-138.55304132354914,32.7924578173782,15.738694528209626,0.0712600080789115,0.0829041225346094,0.514041597573995
0.96,-16.801495891207068,57.47415549663943,175.18921157538728,0.1039439943064394,0.4937173418692184,0.103325242400777,-93.16873555606185,58.11975628570788,-4.8459819208433865,0.0961896107093971,0.5859140369286567,0.133558441022312,-170.62625238307075,3.5075462830358304,10.48622378534117,0.0669581712735672,0.0197615063194074,0.0777739830050529,-139.02330173307084,32.80591016856785,15.958652583304644,0.0296642332032832,0.1089779289134785,0.5777512428265101
0.97,-16.80788133071726,57.19903758206888,175.20186212197763,0.0755904975827304,0.4368572243149398,0.0966248553841569,-93.08483468285723,57.81935030722969,-4.871120022265847,0.0446769254697924,0.5776812048196669,0.0994737733674231,-170.69818572677497,3.503732005525718,10.501796666442694,0.0358706608196831,0.0131351165873039,0.0414395165765451,-139.50985584505034,32.798845394528726,16.192692412420357,0.0232442381231292,0.1441056844713085,0.6014272192336082
0.98,-16.681324074662456,56.87230879145677,175.1256864900752,0.074623939193379,0.3931653768747419,0.060786933547162,-92.92468198675364,57.16913495048758,-4.961219002542659,0.0264328491730189,0.5304961236890842,0.0420755001110773,-170.75483456914813,3.498964365964019,10.505621167160552,0.0371237730991471,0.0577520058603919,0.1218035610457356,-140.1845987560667,32.81257851342916,16.689761285075775,0.0757340142837369,0.2063828457197262,0.5590076654152809
0.99,-16.544215274722884,56.50016899320001,175.0532230644068,0.0366125464406322,0.3475868625096426,0.0221331251417106,-92.81082049996958,56.65033784634016,-4.877709855138855,0.0372696386621316,0.4704080342025369,0.0242387226624252,-170.87539221939412,3.512021720221332,10.55646738256151,0.1211994369591363,0.071717896775633,0.0420287116863969,-140.61422454020888,32.93297346682468,17.241290750128364,0.1746664768973817,0.1961989019767031,0.3427739375120376
1.0,-16.57240229583283,56.00411170089975,175.1297544164734,0.0504032666499398,0.4290419098333671,0.0291879648511565,-92.94974498798584,56.054000858971634,-4.801392399837657,0.1210149657511905,0.5390491793994818,0.0559497083220191,-170.9335093347014,3.3570959936012925,10.70816478773851,0.1261212539748362,0.0111857310465994,0.1252501825312316,-141.0049581084977,33.05323083956213,17.728516855866996,0.2932198358511944,0.166849191238713,0.154065813418635
1.01,-16.739347436323786,55.63648662752905,175.38227128045838,0.179909735868184,0.2467397439348668,0.0233561431248378,-93.1138651961374,55.62819359796754,-4.627465439784333,0.1578427740076509,0.4794764492840951,0.0381461469711388,-170.82053640050154,3.3802498668633234,10.815223059271064,0.0972430771238521,0.0080679082124624,0.1809639464199316,-141.3071374245551,33.19206088151544,17.945897801122666,0.0878265197299626,0.1604845525223946,0.1961892158664573
1.02,-17.183224677373676,55.382754738415,175.61841403954477,0.187392628386831,0.1746566396437945,0.0311605426341607,-93.37832435314512,55.19470363907792,-4.4625140219354815,0.151330096153775,0.3767269881307359,0.0223623561690213,-170.50545083493267,3.251975353163344,10.95000581295237,0.0430377074967455,0.0682426995384186,0.3200196099922954,-141.54254837433814,33.406411695948464,17.636521142518813,0.2225636385846046,0.1924255290385373,0.2031167915662937
1.03,-17.70625542564935,55.18804527559648,175.99931794767764,0.2330060423559138,0.1712205631968484,0.029767240798783,-93.57256160548084,54.8114726827416,-4.251588498860429,0.0876603477651915,0.333401123328103,0.0108209883850155,-170.12254794388284,3.1212826812085965,10.994344952293725,0.0012359248130363,0.1079471568677193,0.3704157730212928,-141.7513909227923,33.61898379424277,17.302582018703255,0.3520478152221648,0.2635764433568217,0.2114130197690864
1.04,-18.17616088010712,54.98396124418681,176.3220296297422,0.2087542142217161,0.2193170701195856,0.0527442896740945,-93.62474354729584,54.68680035913345,-4.197198662588225,0.1117543481349406,0.304027914346985,0.0258759400890444,-169.75262785873414,2.952335890916775,10.998544850826775,0.0140902785608151,0.1070877839784317,0.3450559879202858,-141.69559965611475,33.94812246207619,16.763117150087407,0.4004208091049245,0.1874458971242855,0.1425818084170418
1.05,-18.612253256032847,54.80265949600977,176.63233064537832,0.1597317380058965,0.1647956411715163,0.1120850615634068,-93.86409140139672,54.303277329654776,-3.942545702270044,0.1747076068708626,0.2754059083947732,0.079690414704194,-169.32295191087843,2.753767744060096,11.050517628842254,0.0434026462491074,0.0809210612596792,0.4565608306895735,-141.92792706159966,33.98373504187605,16.257010729063087,0.3457976471539356,0.0260710725125253,0.1503314056531819
1.06,-19.061648558719384,54.73792242598149,177.0573691221286,0.0748927684476796,0.0067156515285487,0.1417212795440819,-94.29774309046796,54.073534219007485,-3.625459899840021,0.161785970414962,0.2046255564452424,0.0293686016823112,-168.81918058026127,2.5590180767284294,11.113167242442652,0.0717995866899768,0.0895925845098709,0.4618682546434179,-141.9294375126136,33.99953770597239,16.054413283181546,0.1062692914656759,0.2135175851157894,0.0539836841758749
1.07,-19.364090319077672,54.7484726926792,177.31534443951406,0.0259830480737074,0.0097485561197045,0.0096876932759335,-94.60483988712784,53.82153696844394,-3.381856795443615,0.0509496860173585,0.3594269021068613,0.0467531205575236,-168.3795840576827,2.320564087664252,11.256004083373991,0.0818428374929773,0.1565834501825205,0.3597980623832641,-141.99409886365078,33.68267289694364,16.05783679470745,0.1244380422593566,0.2658053655332909,0.0577510040523371
1.08,-19.24961680081709,54.76005373912495,177.24054311219936,0.1169688458643552,0.0837581315923968,0.0898111642185622,-94.57107862539846,53.37804553618615,-3.3756091434994837,0.0021699845812897,0.4012936407738751,0.0639719161745088,-168.246251642006,2.122807373833288,11.367010834184454,0.1677098101992316,0.155459831983267,0.0969696916403222,-142.38365034958508,33.37603714750457,16.18964337838362,0.0283196984801864,0.204803975794356,0.0915424034250931
1.09,-18.798053567356515,54.54915475708407,176.9280775835008,0.0928566241315504,0.1893009738167771,0.0977850256883948,-94.3040174549014,53.02404655267934,-3.433810070807698,0.0994580678038883,0.2479776871852485,0.0197587732262884,-168.35186195751265,1.939441096767924,11.57853547246226,0.1991775104083862,0.1339912642858327,0.1829468182695827,-142.49135100939674,33.18626016738013,16.184932959739683,0.2133717902833571,0.1305779736555787,0.0961252757155217
1.1,-18.605881714240837,54.2491781351978,176.8849491545979,0.0408827968989022,0.22786001765726,0.104125329683301,-94.11663897201156,52.76799716370991,-3.517182341377535,0.0601101820920661,0.2082817446961041,0.0410304830069386,-168.5565296359682,1.935792235818176,11.750773930768734,0.1831936778015268,0.0309006804887558,0.0766207709206411,-142.87265510154597,33.000045281258714,15.991807451481597,0.2238786903893509,0.1100780149693918,0.2549745979105432
1.11,-18.440556429087856,53.94922335231982,176.81848176714513,-0.0029772188015569,0.2843204228377149,0.1217623560449641,-94.25461376228488,52.56377415787096,-3.3860948411091347,0.0320495691591436,0.1365111137743703,0.062085632301265,-168.364578931542,1.938646254852388,11.93463328689952,0.129375937755681,0.0659504959681742,0.2318064130716306,-143.2614448973739,32.75690430814994,15.80477036291665,0.242257755592655,0.0408328386719251,0.3670233271122102
1.12,-18.537603008213424,53.79257510285017,176.9023394381077,0.0266862484975559,0.2824327078356742,0.1202506231549126,-94.37425880716476,52.47080375051736,-3.2692526259163275,0.1073293847119716,0.2010754001420224,0.0411192269098153,-168.19243804117605,1.9684446394764223,11.975824296075324,0.0931187147763823,0.0583751065268047,0.281857232021119,-143.56164840969004,32.6429329935072,15.834162461813026,0.2352854300300137,0.0444965357902273,0.47824894212199
1.13,-18.61276092011708,53.63668307587383,176.9862721622469,0.0444241473049767,0.2773257112802281,0.1358825263832096,-94.50592977134936,52.39144190070865,-3.2029812486880807,0.164278574281678,0.276797305078515,0.0248992382027061,-168.00782720189972,1.9278068181288992,11.998646720729452,0.0186745811218481,0.0504881393921275,0.3123819512435709,-143.87195451531022,32.57270179568721,15.88823053808381,0.2189496022186278,0.0337590995407652,0.634342294085508
1.14,-18.962241345106985,53.31192554406066,177.36577122548073,0.183857299841449,0.2701923570866879,0.0364270563628167,-94.80052183540688,52.064978846099855,-2.9430131765417067,0.1414291080047622,0.3158904953198003,-0.0071682647707724,-167.82240752240665,1.9935969144545775,12.02892198087291,0.0311268047511269,0.1285736595170128,0.0916917689883266,-145.235480615903,32.26152217102121,16.236341889556822,0.2100957542436785,0.0997145072028191,0.9274367829382758
1.15,-19.43812314791721,52.9987642938348,177.6189252107393,0.1680546465200942,0.2810687355064515,-0.0015974966563403,-94.87789446932256,51.68300279188474,-2.855534633138739,0.0050069096514457,0.3211218981324896,0.0001530658119445,-167.61161947179986,2.106089609108571,11.932976212688532,0.0190248892849678,0.0937316902901638,0.1758641037035592,-146.1204796872668,31.699127583563172,16.630834308128065,0.0691835637257134,0.2476747532952672,0.6193426330514732
1.16,-19.553211126217278,52.67432304784422,177.6199988648284,0.0609475753991793,0.2818490688046295,0.0791064123658178,-94.74463951030268,51.45366312485324,-2.87834869415162,0.1026972541571282,0.1755172525986097,0.0393947882410394,-167.36715501486643,2.058974651468169,12.061648570270284,0.0896074961516677,0.0092519640604107,0.277971878331098,-147.12025371591312,31.312596081273934,17.062552323305834,0.125005566917191,0.1319820158294794,0.5583956039330297
1.17,-19.44676089849606,52.38070623414407,177.55222373695756,0.1250567155733189,0.2377516404381309,0.0144191666272463,-94.48567721219948,51.32164138777274,-2.9530494980474624,0.1422353735525734,0.0817310258088752,0.0880253576284079,-167.06188623900243,1.8583381520610904,12.133768166868368,0.0896221756039536,0.0992287812463443,0.2326908843647046,-147.45683129804897,31.261628954676542,17.555570820563762,0.2587173769199032,0.0478111987278971,0.2600330751952823
1.18,-19.064387223309804,52.06288433305851,177.45525819560845,0.1536705699110033,0.2137201112474948,0.0108893537714279,-94.25011626338552,51.19601188898975,-2.953200115217373,0.1276155947300414,0.1201453920503676,0.0778921003452081,-167.0212244325617,1.7442529014314818,12.199340136443542,0.024678058755844,0.1100648860834672,0.0218270566194401,-147.5561421725246,31.30836041558832,18.00438240184445,0.2741729072151369,0.1014398670535787,0.2561926233807284
1.19,-18.81285676794929,51.819768423379024,177.3765164381993,0.1101996041433947,0.2234945143812409,0.0313226435953309,-93.93753196687834,51.06502557013371,-3.007949594662286,0.1189524922756252,0.0879245720782275,0.0631987531495437,-167.17987072437282,1.8141055918969171,12.12706745292104,0.0243426625596135,0.042736499705098,0.2002135208702505,-148.25886337742438,31.25617833829415,18.434747526995345,0.1937080261030066,0.0268330110990423,0.2315191485399179
1.2,-18.57346405181461,51.56719109150119,177.3184802230681,0.0198985728105325,0.2484579330971107,0.0721359589709591,-93.939541455225,51.04979896453742,-2.942112775955658,0.02535465271002,-0.0128781191719168,0.0719876907139824,-167.30465058890258,1.949847207827196,12.07648027721908,0.0639609011893917,0.127851217725768,0.0699734515486408,-148.99685500811702,30.95193351334488,19.25528003292979,0.3441110683362733,0.0691441416230933,0.9930198667666976
1.21,-18.7394332882104,51.372392519707454,177.45203444670992,0.1339647864855507,0.1368120674021879,0.0318244563325867,-93.9317268309801,51.05553355934733,-2.946260678059706,0.015541992281703,0.0446672081392944,0.0073634790506341,-167.21670811454578,2.07227848906712,12.013964280256207,0.0605314063669279,0.104770655295357,0.0347705108451488,-150.4374368421154,30.45027035104576,20.50446598571476,0.646867377706829,0.09884477292785,0.9148732761155391
1.22,-19.188222557177884,51.29902600370286,177.69021879330143,0.1746394731389747,0.0643463508007968,0.0089119265741779,-93.87226077560057,50.92673759360712,-2.92919755245987,0.0582170287810836,0.1406098668104528,0.0191957922096289,-167.1251855426786,2.2083502933004127,11.948288179412874,0.0580527885071584,0.0246504877305471,0.0481836939143718,-150.67553177303705,30.175820315834017,21.501441468698918,0.7190276476182509,0.1046593951038689,0.3316772435200776
1.23,-19.36830540582958,51.252851771908574,177.80571067769552,0.0540080358678709,0.0656605292273384,-0.0080404328479094,-93.6912978733162,50.82202269790184,-2.9339971454082896,0.0907864372428638,0.0835150970533642,0.0657653768742043,-167.2481912667234,2.133648993509328,11.873113355226558,0.0405283884357652,0.0748667081128054,0.1267411571990273,-150.60028637547703,30.102927021801055,22.13436052591597,0.4521782154996576,0.0093619990716821,-0.0072501525109064
1.24,-19.3689577147665,51.19028506394149,177.7949529029247,0.0483762873946841,0.0752982476816568,0.0640064415350487,-93.70136052489607,50.81745137757194,-2.8666140019381032,0.0391054508367257,0.0353559621367879,0.124449486868471,-167.38029235531937,2.006058253715141,11.878400188727534,0.0390664665512197,0.1070888503814649,0.1331524034710729,-150.6848180055043,30.18398770336944,22.51678685809726,0.3845522725972131,0.0049713954298741,0.1905250190024533
1.25,-19.31553878229998,51.126928736186414,177.87480412106234,0.0572860145747535,0.0335308865840501,0.0875032728809369,-93.76835340681087,50.89230897606259,-2.802004830596018,0.0422763081005296,0.0110499404232782,0.0868774801778164,-167.51190177760992,1.8691993652913927,11.884755103806398,0.0515050612547105,0.1438673067981994,0.1573767365914839,-150.49663599451964,30.232510555404936,22.616634644247704,0.3887739947861462,0.0765131403537227,0.3115702062603548
1.26,-19.371099894180357,51.05952766243281,177.98093706148313,-0.0053694616104345,0.0935555662642387,0.0809942151031297,-93.92649619106643,50.80323272431151,-2.642294311294731,0.0795226736553895,0.1159179955141602,0.0503213659113554,-167.8295764915876,1.755520789584907,11.881563676334522,0.0436805426774938,0.2091272965268738,0.3543901939129651,-149.9278821967753,30.308284055615783,22.87549265925544,0.410891532504128,0.0346150768956724,0.4065634135521008
1.27,-19.563622789308788,50.88185991188424,178.13301221980808,0.1053831966503289,0.1624261574213241,-0.0077692935446145,-94.18863689336386,50.692867956177054,-2.42490871017238,0.1145686687589953,0.1308941125502226,-0.0085296743724427,-168.24627494676187,1.621982090718119,11.808949201263168,0.0488514838211755,0.2268241608900111,0.3633400651539193,-149.9376121041395,30.44192655322912,23.05515744796796,0.4080336806210106,0.043632453984364,0.2819452801049622
1.28,-19.662049086640103,50.777052191803065,178.15968558542795,0.101428324772476,0.1855829932765703,0.0258794892743841,-94.34770673000924,50.62149137443107,-2.3759712016912453,0.1263108152587404,0.1082172961371137,0.0085800574010821,-168.4840042790666,1.5553402717881275,11.789011730719102,0.0277993500604735,0.209480977264207,0.3906459508305494,-149.68631715968502,30.49704122078292,23.180570151729768,0.4251847712441081,0.0372460532144005,0.3484756408821442
1.29,-19.76019154487142,50.70373789169473,178.17677290682485,0.0809832682666828,0.1938176173671477,0.0381369782661669,-94.50643179144134,50.56386012800312,-2.3219941515850366,0.1717973182013961,0.0812345576679403,-0.0034579943051919,-168.68939291100068,1.4929218296810678,11.739865848873023,0.0373540107984431,0.1887843505013564,0.3758451235366873,-149.43854856685846,30.57022984797531,23.339945304457736,0.4322285828375751,0.0418150566608277,0.4232226124728629
1.3,-19.93935142364432,50.57112563189288,178.24836686276024,0.0336669032979289,0.1492565763678019,0.0076363857393234,-94.89807791023614,50.47484376134569,-2.1077542310872515,0.1551114451719418,0.124514757194667,0.0244914676104568,-168.93022356192418,1.3871830415223614,11.633338683659211,0.1907739017111087,0.142453984530039,-0.0199860746418032,-149.1792314259923,30.675331513536506,23.571088258103813,0.4773963730075884,0.0398317118841013,0.6362397584537021
1.31,-20.052068544452883,50.50426725091694,178.30085462359506,0.0665389081177751,0.0919235358687769,0.024036459103732,-95.3256977667277,50.36525132819115,-1.880732602545312,0.1608401868328899,0.1291598097365868,0.0383437708653285,-168.8444778711472,1.1998408037924817,11.440610122427632,0.1952440899858639,0.1677682661240878,0.1011581778149054,-148.31146714780692,30.87605542671472,23.67901715005009,0.5915705147601406,0.1596852956369954,0.7004023211616244
1.32,-20.302344091459645,50.382696841582856,178.43814891390318,0.1341615648427042,0.0927266617664278,-0.0003269807145233,-95.49143724066418,50.247331470788176,-1.8295790637682767,0.0251313732724202,0.1253956151351166,0.0205673369625642,-168.68446963506236,0.93863735626033,11.257617788996471,0.1706900919181855,0.1842805096310849,0.252696899600816,-147.33947195090573,31.04188527889368,23.93902416144353,0.6753799124575525,0.1385521131002787,0.6924481397242701
1.33,-20.50796006400451,50.306084177609385,178.4874781840299,0.0936323600798375,0.0908649281875754,0.0392485393938952,-95.50331374657377,50.11885452479039,-1.8231184831034943,0.0037415516460591,0.1376980711744672,0.0150438148424627,-168.37023405656498,0.7987300978018796,11.048549876416873,0.1912755014717586,0.0410493481476764,0.3046711431146536,-146.79869553845586,31.31092286561279,24.31986431093415,0.7141450846790979,0.0189649308547965,0.6449094651988282
1.34,-20.360276452707,50.23149437836184,178.44477908427586,0.0544570137117098,0.0107611411164908,0.0778919547588282,-95.38888128604316,49.99944832662453,-1.8950116325862487,0.0654042992586141,0.1112771435837468,0.0163211606288279,-167.87429807243674,0.7732752230988218,10.684319178104971,0.3987112706967319,0.1006680685584786,0.4572045746373575,-146.00594793680375,31.75466614086841,24.702556122946117,0.7141591445323305,0.1083654641556529,0.692522749850574
1.35,-19.987280388215723,50.30904144874744,178.12420157933224,0.141361069857162,0.0637031632345508,0.1014621961381249,-95.25961008254038,49.86397101888653,-1.951726499885719,0.0763613470261224,0.1004329775712955,-0.0088768283973758,-167.4317581119621,0.7208101110625392,10.175068000091043,0.3951864144322826,0.0382206689218311,0.3013313045566747,-145.11943961813927,32.1756995192406,25.12975886536459,0.7684123736385517,0.1125796603411605,0.678088806090294
1.36,-19.5415637037614,50.31943016426818,177.8719748424056,0.1466923838269528,0.0439678227037432,0.0691541396337269,-94.98943333448132,49.7432332591096,-2.07275466062648,0.1114833012415427,0.1191585942612236,0.0074506002688402,-167.00438714100932,0.6968861736899477,9.702925581236814,0.3836476678405333,0.0037456369510347,0.1905547649141189,-144.13974758933597,32.68385521816105,25.624139096673638,0.9055233397139772,0.2181177271459697,0.8335459847116771
1.37,-19.31514900398055,50.22437053329652,177.75010658849916,0.0824482413418764,0.0681399931920401,0.015512515478293,-94.8109981335558,49.6341011754395,-2.1249270406431644,0.0290747640310354,0.0808634487016465,0.010510974290683,-166.94212551244786,0.7519133205405953,9.440059708969704,0.1616505410011776,0.1315099338453697,0.0351158109765637,-142.94337709627504,33.3869495409399,26.18793013472767,0.9093789912508105,0.293959650192831,0.7882138228774309
1.38,-19.114649759196336,50.19690826606721,177.6707483049145,0.0502057096149477,0.0381633036172512,0.0214631661697288,-94.80205270518586,49.55851569371427,-2.1351473851031244,-0.0022116862986223,0.1000826035214153,0.0082438110432332,-166.86962824354632,0.9450862690201586,9.373559352973738,0.017122521504792,0.1435684879968333,0.0558172635711998,-142.2570002984106,33.99741784224391,26.819751220486136,0.8992417902850082,0.3269810592471575,0.6778421298210311
1.39,-18.99268693396456,50.2586849913745,177.56235764453956,0.0548114918979529,0.0510925910333961,0.0638895309307486,-94.64445466924889,49.39237696277544,-2.2693457255141354,0.0475901635636324,0.1194218991230656,0.0624805413089926,-166.8979523998721,1.0687783164878415,9.364777408987688,0.0275175533857237,0.0964606971749002,0.0653147250490964,-141.13451766103364,34.67322539311541,27.480267054267284,1.1502136978892727,0.3467343857822428,0.7858062405356813
1.4,-18.89468147904262,50.398596859307794,177.46143264371875,0.022523643677467,0.1084795553985156,0.0359341373851791,-94.3030980525119,49.233002031019154,-2.377320416524445,0.0774872932207902,0.1218943981126695,0.0536409467793901,-167.06255419002528,1.1763785521312642,9.315645073009293,0.1048736604057499,0.0746740700274034,0.2108746781859543,-140.0644921994843,35.447711061593445,28.4417161910067,1.1976669473657071,0.3409789958382158,0.7260762640458759
1.41,-18.803150307871032,50.539273339085184,177.39014827633414,0.0164580746917992,0.1883995908774802,-0.0167672424445324,-94.11837869094056,49.19600747631096,-2.5223126442207398,0.0849729128388669,0.038980226056739,0.0269162227145212,-167.6165730058286,1.2323991562132006,9.171648285064324,0.0476581647440358,0.044878394144766,0.5838916660801688,-139.11560605516937,36.1395649047373,29.549556282567597,1.2176744245692737,0.4500557113751188,0.4267128399817667
1.42,-18.73667582338715,50.756179391649,177.3849030101965,0.0147659284559216,0.1494929003270528,0.0032299933899042,-94.05283954857606,49.2031655945944,-2.5133487664163985,-0.0023045335511686,-0.0035110075237642,0.0100822950874339,-168.40208860287171,1.2554935622002332,9.06277097649402,0.131956372169836,0.1706451671916687,0.6748498225755915,-138.3064773146352,36.88545824158675,30.768160848844563,1.1382201019335632,0.5307593857305988,0.4960394419819928
1.43,-18.588325896082356,50.79022059073935,177.31451087698036,0.0556914474781956,0.0898565994357531,0.015222721871749,-94.05566551403432,49.187800436511125,-2.4968040339399398,0.0011452324233636,0.0121862015710835,0.0110034060644618,-168.80824434425742,1.135056931029561,8.758973680506529,0.2325386983637934,0.1321514537530127,0.4052820589276029,-137.59616013165248,37.70549512044121,31.93264378603985,1.134115496953377,0.5941695808044855,0.4046715184191758
1.44,-18.534699321524965,50.79788493736855,177.29108918565285,0.0709590865174296,0.0248172968896849,0.0278460123678026,-94.05399943192162,49.17442426680118,-2.518853272826272,0.0012741602750728,0.0531612596924919,0.0092487754782493,-169.03521430505995,1.064356392230501,8.582745490760136,0.2856709116096411,0.1143057123896232,0.2725069732722855,-137.23024898993953,38.10100254029786,32.52418734081777,1.1103380679211965,0.6204519047169625,0.3395616826213148
1.45,-18.43350879970827,50.80990535598928,177.26089087100047,0.0709691475841416,-0.0173817412536522,0.0166763610207547,-94.05583350768605,49.20512884118547,-2.512377918160825,0.0271863883934603,0.1080842109451554,0.0116472716854275,-169.27380479790222,0.9771201704640428,8.439653885569419,0.3303624250608875,0.0699273304500273,0.1335183530795641,-136.89356095185786,38.49255568647686,33.12915633016476,1.0972173594636885,0.6476886661468149,0.2879283638893402
1.46,-18.36476077536439,50.87800646195076,177.2023718570327,0.0305687333799581,0.0779130450054836,0.0259088497141425,-94.12725092278724,49.37326299078944,-2.437157091651342,0.0217102397281419,0.1625889800574233,0.0150157523163545,-169.0549446359272,1.0003215125619014,8.060254439009046,0.3312181210880214,0.0347655095612765,0.1939649018257648,-136.43650346476076,39.14235191588725,34.503150902535644,1.071057935382941,0.6151129853050953,0.0614824191169284
1.47,-18.318173317002383,51.00777418478227,177.18275936360038,0.0245200393409509,0.1374098389641567,0.0169674569256732,-94.25024584948976,49.556746699925306,-2.399811472884004,0.0387007372613883,0.2243215053646367,0.0461187158905025,-168.58443411522885,1.0501634447060804,7.575747788828701,0.3972258912586267,0.0498247141272259,0.2741667053453332,-136.0679162824288,39.903059117090855,35.88591122824304,1.0170598902272825,0.7394834865336596,0.126266326285505
1.48,-18.30237325580077,51.25859948177989,177.19109665588906,0.0259282509979302,0.2963475848108436,0.0132640530877055,-94.49356741043016,49.80565385954423,-2.330740206197159,0.040864127830574,0.2223115248659893,0.0278047472158775,-168.12358855745998,1.0641911734110103,7.12370035002292,0.5143077228036649,0.0918308164569684,0.3929810116258151,-135.6892850855337,40.68419549045591,37.25128818368131,0.9327931944391876,0.8627902376242267,0.1896840688247977
1.49,-18.24670515291596,51.57554315689423,177.1182601013124,0.0359082851840496,0.2318971456456038,0.0176032194532818,-94.63472551376528,50.11347770477588,-2.275058805797447,0.0135984669894812,0.2598800744939352,0.0542534663691215,-167.8692142792718,1.121147600763514,6.6274380434618685,0.4406906204644913,0.1261740164565392,0.1482194895317393,-135.08102960371644,41.75841733113843,38.19737044585608,0.7340183051452167,0.7578454764194086,0.705562696645886
1.5,-18.208270794131572,51.81512086175167,177.05402117040194,0.0621128950048446,0.2109116527842731,0.0305541256601804,-94.49752052362186,50.41786350879797,-2.2648652349263627,0.105970218332238,0.2783239835109078,0.0663263721415944,-167.8182831397575,1.1955035925252169,6.375282865007389,0.3840730659248159,0.0900209486421758,0.0020366708838678,-133.50608713318368,43.13185329325232,38.43118885599356,0.8095034104037847,0.6072215782103104,1.3472546531165002
1.51,-18.123737708426408,52.05074838754756,177.1094815953289,0.0453091536184392,0.1796682506013285,0.0995475096697554,-94.5041136485004,50.81811202460497,-2.2437892160089072,0.0599568703655787,0.4203648140299703,0.0714833189019193,-167.87296816048135,1.3057569290679298,5.996704471338627,0.3154705794462695,0.0240068536513423,0.3170015119664516,-132.36701107001426,44.48371017026465,39.54343832096884,1.109969274952672,1.01967022690793,0.5427228025122963
1.52,-18.18883059394761,52.33697659388005,177.19645502049246,0.0367895667989201,0.2458107751589469,0.0645008859608682,-94.4807801528791,51.29582238236161,-2.27814113749882,0.0313512642219289,0.3787877297525527,0.0450514763735331,-168.31950694387925,1.1912769876802565,5.685312458063796,0.2871802827826574,0.1574851459137849,0.4218992507014704,-132.6262770708098,45.11811469023717,41.80999582827871,0.9973176241032764,1.0633517192461934,0.5851554808679724
1.53,-18.31492817700345,52.63333399927652,177.2574452181671,0.011578718836193,0.316022741638884,0.0453136837086333,-94.45866727260685,51.75130087158269,-2.317228688949783,0.0700044281610362,0.3448328643271642,0.0464363752183904,-169.12802096132734,0.925180067436008,5.445563028313384,0.1622778292200571,0.3845713786558888,0.8309417876262801,-133.07792953971864,45.56792177076385,44.054131420977846,0.9433477884201156,1.0271720912684743,0.5004324531122023
1.54,-18.364599688505027,53.01200915960855,177.253938304467,0.0061603207300775,0.3969460431168907,0.0519219511993297,-94.4449473831879,52.14899028993286,-2.3240570602209827,0.0085785029209712,0.3747076578058724,0.0383052271689766,-170.11848006105748,0.4317941247423872,5.306986680286644,0.1384081832413294,0.5425942187953181,0.8063368587370577,-133.24125375501717,45.88817573860309,45.1122530367997,0.9894749259696368,1.0031189990853775,0.0789713518535687
1.55,-18.49895855591121,53.444851667519785,177.317265271446,0.0297089445817685,0.4370068730324288,0.0465870034552155,-94.55237830417424,52.67886829779268,-2.305951761074938,0.0411201604277194,0.5153838856799258,0.0476815419258322,-170.78156081646736,0.4054118124091165,5.122958052649041,0.1586521574356552,0.4473763428500099,0.5541365303626522,-132.72657443224335,47.06151931733984,46.98168788382117,1.0197660185031523,1.1882166787110016,0.3081565722850002
1.56,-18.69272959438072,53.93961395402829,177.4287939269012,0.0308413129261804,0.4449730660435796,0.079669995632356,-94.80294326951116,53.31126133269751,-2.184058336156362,0.0730681221332101,0.5862566708367921,0.0511817052597074,-171.44535012549431,0.3717211846112373,4.93462725183123,0.1860376338971306,0.3641630132704849,0.3196278974742826,-132.18256671555466,48.27087178869312,48.867390531538994,1.0579183643952148,1.3732433201633114,0.5361465669625521
1.57,-18.87788833645269,54.3875583402916,177.57784182704754,0.0375132327193245,0.4128632786684524,0.0616932572715973,-94.9989970024266,54.12452460458691,-2.1961912139692776,-0.0052097762674974,0.7032523083806927,0.0152623676588635,-171.55179102696945,0.6904974537940554,4.5957893928463145,0.2658799870036363,0.2137912202704466,0.0551508788585656,-131.80161118565226,49.57475513034677,50.9560188715552,0.8326447243722569,1.3825949894685992,0.3204748246749224
1.58,-18.985896099883547,54.96445593329479,177.6124819385194,0.0037557974877305,0.4914773809408328,0.0764058622275516,-95.00529785277683,54.88289789470482,-2.25644024681976,0.0248268087303141,0.685633334248095,0.0335768086218955,-171.44115926433753,0.8108945731124136,4.190256060484512,0.3982244447551261,0.0963168157414032,0.2149638102069316,-131.6107635976111,50.69358363027322,53.06457761500626,0.9751506382998848,1.446422723806171,0.3581471441191866
1.59,-19.05332650948661,55.57646059653922,177.75125510172856,0.0194317267045077,0.5825873248430682,0.10808137231504,-95.00791994867284,55.547941642791656,-2.252011737927244,0.0298309187794702,0.5781609143594996,0.0417964653007061,-171.05197091601357,0.8738898687614444,3.747848240850054,0.3903871361046002,0.0056927025558417,0.3719931629830171,-131.12468633346958,51.93329105335,55.64526158140978,1.0811628842504204,1.5570228254608205,0.3218737132986565
1.6,-19.13818676995697,55.9056845834004,177.81009431972893,0.0137379473485705,0.60729992492606,0.1120511931994231,-95.03160581313917,55.8806838988819,-2.2754958260531786,0.0191040131168966,0.5706752705426238,0.0310126195671245,-170.89081880616752,0.9189356640589008,3.558908504943822,0.373992704106038,0.0165954851798997,0.3664483911260237,-130.92383232775143,52.59502820879543,57.129563659476815,1.0950723707413963,1.6553611130451389,0.2967516165304821
1.61,-19.210850694462927,56.24948652699332,177.8407888675481,0.0267515520563495,0.6482654615533346,0.1276900415510569,-95.05847326883196,56.19570505533972,-2.2630916679489608,0.0146726229923247,0.5606842879709293,0.0269246096066142,-170.6976853767191,0.9573916105379748,3.3847138118999016,0.3128602665828714,0.055775844000134,0.3478136432357591,-130.74869263431538,53.23997341946363,58.62910877950703,1.0813566471426763,1.73661759359582,0.2559964831246208
1.62,-19.245703620555823,56.953815830640565,177.93267232569693,0.0557028298170778,0.6183042593739685,0.0897177951654085,-95.1786670331868,56.880645067166334,-2.325177133736175,0.0090276862670934,0.6477416137124631,-0.0060550636765774,-170.54959053827173,1.1225346909696987,3.1979245554713835,0.0887145307026016,0.2334552082937319,0.0444967316987334,-130.67558459323422,54.62018060659319,62.183830782358434,0.9430254834530676,2.075105443065213,0.2644014527228929
1.63,-19.17871459541827,57.63519548474745,177.9699221204706,0.099508628116701,0.6260901848658371,0.0903352904542848,-95.18852642345152,57.48558950598227,-2.3852512529251744,0.0422122962730901,0.6904772041275361,0.0269373001388267,-170.81616720740712,1.5624732857232984,3.2525546871200914,0.0893656992976895,0.431488917914297,0.257555694785354,-130.48672692044934,56.1863814102919,66.24178159361415,0.9890387635462976,2.2975057063351545,0.4527665419950569
1.64,-19.12173588181456,58.30306607247047,178.0069918272458,0.1035311818159089,0.6316533108099044,0.1114412239681021,-95.18752976372858,58.04866602998392,-2.4365241521818346,0.0678489763434893,0.73711870693596,0.0779391372723987,-171.20789129991795,2.0538748332973777,3.4951493895773447,0.2322593933467159,0.5243962001953567,0.4362017917029951,-130.05740624657912,57.49674253790639,70.69160457928169,1.297564211567534,1.9796370844394184,0.3689961926460295
1.65,-19.05129744099821,59.11931797063833,178.0642118481777,0.117433959106217,0.7722022107895194,0.1169874082169508,-95.18870721731894,58.88750935609546,-2.4499920282600285,0.1004978204171993,0.7755831966210183,0.055341354567436,-171.69627298185262,2.6224859149634594,3.947031924340892,0.374480372715608,0.4947915997191386,0.4477846768514952,-129.51071421766588,58.130756314076415,75.00266067890381,1.670577454874275,1.4102526554007266,0.0190237871989773
1.66,-18.963840051398453,60.09021738103584,177.99253124717325,0.0972684764582341,0.818498393301462,0.0756095002364477,-95.10257045323232,59.74711595423401,-2.546206670671264,0.1197945792387405,0.7587635612134048,0.0585280510890497,-172.18531058641955,3.023693325156551,4.353921268396544,0.3455204200069345,0.43491487864406,0.490077975693219,-128.88166287128496,58.48993759600044,79.50390171950282,1.5483804550886848,1.6676899949910011,0.09999237742117
1.67,-18.8682306911234,61.05312097752463,177.93816755755327,0.1016559402562952,0.8415772219076277,0.0438090475902301,-95.00352010078464,60.63379918156179,-2.623407156019508,0.1362711824150288,0.7712315890044161,0.0365117653875567,-172.6972315249439,3.4479140605801,4.750731883770419,0.2986120581637481,0.3574436934442488,0.4761887634121552,-128.3883983990133,59.31125113063342,79.51264507870441,1.2886574444078054,2.2761536181071613,0.5332260352178185
1.68,-18.68967242683015,61.9772738575092,177.85673528007914,0.1616379079213085,0.8337927073149841,0.0423078687453669,-94.861136663567,61.49611535089774,-2.80617924795077,0.0782001436564674,0.8157192747518293,0.0305471347429991,-173.1803959115281,3.7395775069974273,5.056837412377562,0.2073226826981345,0.2908967796348867,0.3726531170030408,-127.95567949881796,59.87044751093227,82.36644959295809,1.2469574525863667,2.3524599505780914,0.9075672148756024
1.69,-18.44617775942644,62.94172869084181,177.68353831258068,0.1708099878424049,0.9102650982825444,0.0212039003050421,-94.73699228211798,62.502003581428895,-3.080912346249769,0.1919632623358737,0.9659114332905728,0.0066023739675816,-173.4211389545869,3.941246548356977,5.218136975795368,0.263673642776107,0.2548828288527851,0.2187622687780493,-127.10229714982408,60.47856341341618,82.36791376575627,1.4348742608853218,2.1579216586154777,0.6308192655385125
1.7,-18.24286710845024,64.00402602924717,177.37431453136892,0.1646091996053814,1.003997509582116,0.0156943379909905,-94.43829506910876,63.55037892823027,-3.504490026120099,0.2098671033274645,0.9814250553049256,0.0327266178504298,-173.63464203619793,4.109958605952526,5.434891848638675,0.3602324623296992,0.2020284179501692,0.0893298777117738,-126.24839375578873,61.04036362649928,82.3674979602611,1.630749757566185,1.9639802787776344,0.35469170240411
1.71,-18.04609237258025,65.11995999142712,177.2342690868352,0.1551105462318788,1.000204900984642,0.0643835928914267,-94.11894105636893,64.69335581298115,-3.815940509826975,0.2174067788327336,0.930183335777399,0.0980939845932235,-173.68377124983772,4.320719988537505,5.885392994850458,0.4540706478406535,0.2022283513959171,0.2128038761186083,-125.56980209548912,60.80150976556825,82.37999257272003,1.5190879460769973,2.4354521171530035,0.1447026710054149
1.72,-17.871236243425297,66.18644893529286,177.11236366064148,0.1855302494734528,0.939547169523944,0.0612397573303056,-94.06507004838994,65.7016551412482,-3.9505823456534697,0.1209078627835996,0.9732752497722332,0.0764477845358677,-173.9999847413224,4.556056249963093,6.446000814307962,0.40280545500473,0.3232116189512661,0.4532377745215331,-125.6141932583797,59.75234269960719,88.56409961596825,1.468960580520724,2.516854930775636,0.0544971118250236
1.73,-17.608483081367552,67.25302143184089,176.9483056037851,0.1672665281971953,0.897762296767537,0.05803167475305,-93.9885044742708,66.7486690854221,-4.1399352010877335,0.1474549875454083,0.9237921896368686,0.0722985816660028,-174.56256404571317,4.874902152393628,6.870297001910532,0.4030134420097335,0.3624888280163106,0.6133229808292335,-125.26046517042322,58.75849873761819,94.376231718989,1.6075191381852565,2.0348146042526447,0.2152454283366222
1.74,-17.422250928437926,68.21851804392645,176.72622039474848,0.2183636839323628,0.938406033008801,0.067140770970369,-93.81110186937087,67.80814532465803,-4.367725458789184,0.1319239623408178,0.9271036018196532,0.0598019204645035,-175.2396603519271,5.1817967940329615,7.505533999949176,0.5246779962531701,0.3687599555533274,0.5904625364157782,-124.23607930835452,57.94996815810265,99.565447184185,1.6399509401098558,1.9232683747300576,0.4323956548213691
1.75,-17.254923814531296,69.20578972287815,176.5082092087307,0.2257424922695659,1.0075848556191411,0.0631527335657247,-93.60825683452042,68.87813480984,-4.632816707833481,0.1592910755057754,0.9234390648968246,0.063917363824554,-175.7998494196117,5.50625333042709,8.305523084956159,0.8066163444967411,0.4051271553088224,0.3476599384480421,-123.12242167340467,57.04171428749292,104.50169084793278,1.47466789436764,2.030854777094853,0.3364884128140753
1.76,-17.127427412356294,69.7444426985588,176.3773468760477,0.2165060951561477,1.043499279019273,0.0474842508908343,-93.593313560477,69.36854471925871,-4.790885165728972,0.143561462745632,0.9512408829974924,0.0448456504720772,-176.0034545920519,5.751935275739831,8.785718622384898,0.8274599923501922,0.4562013540263676,0.3671536760302926,-123.10279026102404,56.24338476210715,106.59857784032306,1.2935833176829137,2.191315067563789,0.204945920512786
1.77,-16.9974654313724,70.30914663292232,176.24034347461944,0.1963864529542147,1.0465734816678365,0.0601590999731543,-93.55694682876909,69.8763559601818,-4.965161875483821,0.1030382953558699,0.90919740224803,0.0326657229523305,-176.18188076311165,6.004006951904895,9.246158218582185,0.8515486645834172,0.5201837016460096,0.3459350042807623,-123.0421111995095,55.42429364366515,108.6659967201856,1.0685755446355392,2.338751372520935,0.0550586471060939
1.78,-16.80317515642023,72.11614848230401,175.7885888322723,0.1501787860798927,1.0645552221897503,0.0438355328164167,-93.32134630136753,71.21824744629804,-5.58339869915994,0.1452177880727771,0.9805351267233984,0.0183417447540848,-176.93511935907094,6.495813164508584,10.236216007495116,0.8613250391466647,0.56485101892701,0.5674964978757235,-122.34521492837436,54.10231086474904,112.54735787055816,1.2816942279585573,1.8613933236150495,0.3289091543561904
1.79,-16.60148463297237,73.9281959173995,175.29980099471854,0.1123855587781511,1.0264028453966072,0.0251373575907641,-93.05906761058684,72.55974283757489,-6.265187020146257,0.1726633355360176,1.0199342980272308,0.0252839573090127,-177.6815237517364,7.0034315222728845,11.244447968007515,0.8704532783229371,0.6845799799578807,0.7776631378986003,-121.6313749076658,52.75045414795317,116.35803356566042,1.4758411731136567,1.3705799902579217,0.6025842114039229
1.8,-16.51935058624574,75.07435724100506,174.86015987287644,0.1246176149323144,0.9364501353171952,-0.0034733592539667,-92.93740116850324,73.62993688607723,-6.814244280331383,0.1676025006267431,0.9649854275370486,0.0543909827129545,-178.81021028996705,7.573252490048645,12.364707007321144,0.9494793648031448,0.7124367619917817,0.7110374118563685,-120.06518247900154,51.87613223871882,119.3797412730936,1.2222682331378123,1.3060419447497833,0.2490186351606945
1.81,-16.359739187909252,76.12975389730325,174.4953799275363,0.1288132303516138,0.9276839378546976,0.0407214025518031,-92.76250428781748,74.70805086192946,-7.326934940964081,0.1871361591991817,0.9305068975097608,0.0743448389506211,-179.6834725470001,8.593817734661643,14.032047199570268,1.0101867739830626,0.7965836756262226,0.5877369739644582,-119.87594758449576,50.50470338657217,121.69410666755014,0.7551699681853712,1.661327711556414,0.0442811678328154
1.82,-16.31730442577723,77.12462240990916,174.3801648544427,0.1390542271380568,0.9411585875202496,0.0951142972848814,-92.68677812983016,75.26951456612166,-7.56271761331502,0.17462383931767,0.9570807516284314,0.0387332464619235,-180.57068725569687,9.61539246329236,15.699069832315166,1.0964783221103036,0.8561374691810902,0.4984900065867437,-119.55836201200306,49.309256609473074,124.17017239768704,0.8041935070501055,1.4692641522906082,0.7336573437339401
1.83,-16.266290550737867,78.18761394732348,174.3066134744382,0.1363813042523503,0.9203107492045852,0.1123562668218554,-92.54627775385244,76.31482089796175,-8.111567008625954,0.1210808456307767,0.9610987353718264,0.0960291636152869,-180.7386366823648,9.941595940353311,16.30876442987703,0.9465829458390296,0.6159233329403895,0.1852000070254814,-116.99082646919705,48.93002305805956,127.43818266170156,1.2872528489706812,1.022791051927614,1.1134413033523702
1.84,-16.184874414621305,79.18065397273516,174.11362946053333,0.153172112454561,0.9199703116040524,0.1090236123119512,-92.69601641938397,77.3219065202447,-8.262586741958085,0.0538285693748149,0.9274376778854524,0.0961194370070636,-180.80906125343407,10.506943395100404,17.36677396754851,0.8563543068422753,0.3808277159117794,0.1890920115135204,-115.19892534377868,48.24835718705645,129.81162810490954,1.055067672858015,0.9457468128030916,0.2111749246288729
1.85,-16.03480491734967,80.12790210194775,173.28917439517235,0.1527761041268131,0.8689937007553489,0.0796010934080923,-92.70858349443476,78.28278367488262,-8.73894030372958,0.0861677087794229,0.8623406240517806,0.0694764466903069,-180.68286442634985,10.962161609295572,18.30926903464144,0.9192871241633832,0.4187552703984293,0.1741406518751473,-115.05962410930566,46.9851913049203,130.80835199803272,0.5942524626706279,1.1894515934396068,0.4856422957771215
1.86,-15.86754056630581,81.04731476512193,172.50812641540466,0.102367917857555,0.8283648362355354,0.0416001009154733,-92.76549770065986,79.19762359857518,-9.190890895955688,0.0968811703759111,0.7948009531146014,0.0436038042020801,-180.50698051844552,11.45179253325226,19.375765084909617,0.930354775142247,0.5125560884276471,0.0912251502229533,-114.506457902983,46.062648223436646,132.3680443346487,0.5810309911346876,1.0188498105317236,0.767918359622166
1.87,-15.69556320959784,81.95086821707385,171.5502319067419,0.1313674595901798,0.8063640620206214,0.0284504906111235,-92.62042506388508,80.1758889808517,-10.201678914531737,0.1462475194079316,0.9310180438377246,0.0345586730292493,-180.45250089367428,12.003335898077207,20.45449278841873,0.9841561297111846,0.5288007656285777,0.0169783108548575,-113.262810508535,45.93376667612787,133.746143093271,1.024349271752344,0.7293529210051215,1.4016249257914324
1.88,-15.632247071284612,82.6888675366957,171.1366041192033,0.1144219856219098,0.66585451472116,0.055221070321822,-92.61577208542036,81.11504626295728,-11.14042321661883,0.0511310668441777,0.7727812817581701,0.0516321554701899,-180.68619456622795,12.560778947175656,21.88049889822153,1.2097503389125082,0.6275235390479179,0.3282905237758259,-110.84258365775274,45.55321929582911,135.91719156035765,0.8805965071203045,0.7112447973106374,0.908307302579931
1.89,-15.48674642190735,83.3642930327645,171.1409905651004,0.1434932019495695,0.6241899027319232,0.0308582244818803,-92.61441460621752,81.95273411109511,-12.004489540355875,0.0595638011934163,0.7288577083521989,0.0435555943552593,-180.9376447216172,13.148958100648958,23.32264432335705,1.468906298825556,0.6984696003757355,0.627707199552764,-108.43405571137552,45.19459299732927,138.05678824462947,0.7137579024541812,0.7053129325222646,0.3833182827051843
1.9,-15.39469597723475,84.06992760598389,171.12244342006642,0.0693941976328321,0.6202106808722218,0.0175218253580716,-92.4925038759134,82.63330930858478,-13.128003219786017,0.1743819132590023,0.6233057612554556,0.0295812147501041,-181.74856832053624,13.50095820455375,25.23577649948991,1.5640629475976418,0.7258567277973835,0.8106053806743603,-107.36343899207492,44.42970621756128,139.4978145491335,0.669089657814813,0.8599174144472054,0.9277525517227154
1.91,-15.392485894270296,84.7473278811209,171.11632612434977,0.0571786950520789,0.6529190619513229,0.0322511696656847,-92.30299692776184,83.30533860728362,-13.14123303150868,0.1843018582990304,0.6953751789982554,0.0225028134635978,-182.71833069095368,13.759737194656092,27.32334731584273,1.5300715505236122,0.6646827198496552,0.8390176010169841,-104.88113319235232,43.87446449742887,141.57139939063777,0.8111656398670264,0.7191171149242597,0.6989523663102739
1.92,-15.382447121071843,85.17183888630818,171.17487034505317,0.0408847619936917,0.7003513253205659,0.0084793041910484,-92.28952306633056,83.71993560666989,-13.155544816887884,0.1521051370004987,0.6813878065319494,0.0200018068869551,-183.09806272730992,13.878107683909048,28.31389906053335,1.528415794696605,0.6351109828740114,0.7504428478600714,-103.62878244487229,43.59283815581688,142.59760606189886,0.838559324146432,0.6446976169891144,0.5785805584562105
1.93,-15.356312879778072,85.5614174688784,171.1986662098239,0.0291387514876034,0.7286844006868941,0.062304148954553,-92.23410281966063,84.11989259701747,-13.127824161805904,0.0944579983047251,0.7277831801271019,0.0159451350439496,-183.4949309175166,13.990645125396105,29.32239470392215,1.547679571293758,0.6060479631474186,0.7062275980016058,-102.38004687605483,43.30199161811134,143.60562662146148,0.9110116791028682,0.5969709398222474,0.4567147045953535
1.94,-15.506699135664102,86.3151232063991,171.27177431214966,0.0047287564018291,0.6921798481033519,0.0513709312688895,-92.23372287501483,84.79597656273765,-13.138729438334336,0.0235919442081882,0.6180410515379778,0.0180549271683847,-183.92619723177475,14.129691803500958,31.24808016718244,1.5866833344356486,0.4313549033906269,0.3843714457085062,-102.36944217291324,42.72959623776121,145.0644661828941,0.7304764017580825,0.6006335599314774,0.0748570424111852
1.95,-15.49119985880942,86.9021224884142,171.2681730585804,0.0104553717491783,0.6117092848896301,0.0596423066669502,-92.26415310268108,85.45448151383941,-13.080249595928333,0.0658696907916185,0.5891916920233259,0.0199791166848529,-183.8822652872629,14.369217240154992,33.11336515436387,1.7324945506597458,0.1565260543790478,0.1463525329007838,-102.06545848189722,42.10025426922031,145.87787441789217,0.6218677620603406,0.5607849560564373,0.0869084017812547
1.96,-15.517193877598142,87.48938713267984,171.24893429805155,0.0101581676774007,0.5387788853472806,0.0312854018660442,-92.2529101770654,85.98355120775138,-12.999584770823256,0.0673552584331121,0.5359817583925911,0.040208061213397,-183.48718466510664,14.639773621948136,35.05754584877509,1.7710961509891163,0.1669450418867595,0.1404112688315375,-102.1851333681996,41.56673719555113,146.98940504984958,0.8453308633139678,0.4447572591796325,0.7594368685301941
1.97,-15.441967814758367,87.98160586711604,171.19249284430026,0.0475974732178629,0.5529139286086724,0.0642947751501354,-92.23020680257922,86.49504336806935,-12.946785982960044,0.0197459829142846,0.4686942877232178,0.0657829065249581,-183.2619340200216,14.881276151308134,37.05877688339712,1.8002170286316428,0.2879125121740236,0.007950032014659,-102.70364215326678,41.23919791323387,148.7469938061072,0.6991663395986492,0.158827286206211,0.7686216524954234
1.98,-15.371365425368284,88.17917704525928,171.1385750503096,0.0359401603102556,0.4485603960258997,0.0848159894270319,-92.23962866787868,86.94214932856843,-12.950343278128171,0.0285172162761713,0.4441453345515004,0.0001550013247903,-183.18556401987703,15.13822367242316,39.06086003296976,1.6709211501686632,0.3630974008957847,0.0657565042040997,-103.39232496992662,41.19845763932644,150.3061264663588,0.5203572424285798,0.2524082648064767,0.8692794066040763
1.99,-15.24550088203557,88.4401797950279,171.0270820447888,0.0156265546182037,0.3638136641700378,0.0606123261732623,-92.17847687901332,87.36827326654829,-13.00397989704602,0.071443155380006,0.4104149800271451,0.0150613408852926,-182.4661408819124,15.616137174010367,40.54370321217139,1.5366119028852236,0.2226184243010312,0.412541695392371,-104.5201675324958,40.939179669604414,151.93650159834812,0.6252750133406474,0.2343812346156453,1.411781052119523
2.0,-15.062322998291766,88.60681929862875,170.95187870778918,0.1200513804704241,0.3836400690176089,0.0576299832817827,-92.11187538483968,87.62513482603809,-13.014937060983687,0.0637415423634615,0.3307516531955957,0.0200445512838149,-181.7571869818479,16.111563615747944,42.06848050929632,1.353435227232534,0.065751083191835,0.7682503927691733,-105.89433222705236,40.878500928707865,154.1204110614332,0.7480267273304582,0.0794276204557959,1.6153873207313745
2.01,-14.941024308683804,88.60560722266719,170.87169125614224,0.0493296469231997,0.3190101104096107,0.085854691175046,-92.00959133730792,87.81287314996499,-13.016002469490514,0.0638321047321479,0.2109190575929587,0.0329958361834441,-180.86366742300316,16.617666527720868,43.57025857225845,1.544602322741622,0.0600491122013832,0.5467839176794753,-107.44308921194968,41.1989390726627,156.2517359194785,0.6574481371280668,0.297825411968324,1.2054228921389278
2.02,-14.73739714239567,88.51419091057073,170.88468692466017,0.0375883545969703,0.2764659047466499,0.1250661591289806,-91.86231040188662,87.88359007589337,-13.064039655019052,0.1206829710272217,0.1874577815164806,0.0533364603590453,-180.05678712420075,17.036923527716777,45.31170941727462,1.6473312279607724,0.0885000899048993,0.4520533611974531,-108.00491859407164,41.81724432235989,156.99568511263988,0.4687176365853556,0.6479772678024678,0.6372910114693311
2.03,-14.50180327272407,88.24745543026505,171.06539155793578,0.0773370208651128,0.3264116149938468,0.1356901552245882,-91.6891666983422,87.9453155188345,-13.152398579216444,0.0847920968038996,0.1223803653740712,0.0271561111955353,-179.48369667201018,17.56674479421511,47.13379087984096,1.661984644570136,0.3322856952488944,0.249823401830023,-109.50879878679936,42.61738749932376,155.23541757188633,0.555750701940487,0.7126140665015779,1.3228334606063783
2.04,-14.236057226613646,87.9985095116465,171.2689694705435,0.1542220667878061,0.3859684876141347,0.1491457086709529,-91.50933856164256,87.90354240696212,-13.221233154121515,0.0905745423812377,0.11977511289317,0.0665759581082883,-179.50958542555972,17.794457963331936,49.1750231895879,1.7011354809516497,0.5530987883720694,0.2309269854491771,-110.8380741892048,43.13713701323799,153.32206500742203,0.4065746903598234,0.4869038700815288,1.3050043289857507
2.05,-14.010564863066827,87.69897172616656,171.3799786898011,0.1353050789517947,0.4281511901231157,0.1133618904768473,-91.3619049440708,87.88988258486346,-13.31546199639767,0.0629282335503803,0.1191136950283145,0.0942751749896611,-179.69306185355805,18.087129211116988,51.19742621060086,1.5628303577134115,0.5635123416827582,0.1705440368659512,-111.99965302823983,43.634250476605885,151.87225970144596,0.1387144756805605,0.6339982167969597,1.1085241194653184
2.06,-13.72687818041844,87.37754117097165,171.49751452233863,0.1439327072937575,0.2823011528247005,0.1363913506575845,-91.1744023699823,87.80293007534434,-13.384154276663804,0.0882866269893387,0.0730772572372634,0.0621114309020636,-179.9461216144407,18.42768115289446,52.94708308043752,1.4159260918431218,0.43953505093309,0.1922821740396357,-113.32076565509584,44.44380385975838,150.64350439911885,0.2060841179206214,0.8194944820533748,0.868571136588821
2.07,-13.445526537286852,87.05313364842841,171.68847150077195,0.0771761365962369,0.2875089315215608,0.1453645042057064,-91.02059299902363,87.7680180876154,-13.517072656988525,0.1180974496809167,0.0353209230984874,0.0744404583637488,-179.50546692813094,18.81608075789485,54.58544241731561,1.441186059917969,0.2873788707737703,0.1753641249269881,-113.33203946608798,45.19412238430134,149.62904246006,0.1214303481100035,0.7449497665973103,0.5340999987543671
2.08,-13.392724179150786,86.89703610996914,171.7447201898321,0.0821181030529184,0.2860972853361347,0.0999368196982942,-90.94074857744975,87.7190535998389,-13.53780675408212,0.0676507239399379,0.1063559356578046,0.0622619931901415,-179.28507796045096,19.011586077221043,55.384160786658185,1.413651077539011,0.2094891939302133,0.1841614156982171,-113.50770486645033,45.43510318792858,149.49376381627027,0.1692233002882099,0.5705340797249864,0.3872790088533517
2.09,-13.376603957647744,86.75400874716583,171.77860928277752,0.0742793500383007,0.3022617158677728,0.0789887014375998,-90.8774848874268,87.69457716111599,-13.575404697164696,0.071357595470523,0.1832835868313041,0.0806072508446117,-179.05450337731813,19.19263722037701,56.18039490259078,1.424080319196921,0.1295994720060658,0.1653115470278406,-113.74485135984864,45.68394453547493,149.373291309552,0.2539603209714648,0.3919164417189895,0.2217032908722029
2.1,-13.29896956000667,86.44712577314623,171.89602415022156,0.0726773362799143,0.3279439901803201,0.0384614259440965,-90.68809427292368,87.62623423694808,-13.626706094385083,0.0540988803481083,0.1806598493063733,0.1002763631316378,-178.85874447236947,19.434077578119123,56.87516436851747,1.1890487420108449,-0.0017435818879341,0.7048797207152531,-114.0203381392586,45.81830303605184,149.3816569151166,0.2896244642753987,0.2636290594948291,0.6954430784870054
2.11,-17.56429272631111,85.42880595814594,170.9545304064764,0.3178386871261522,0.0715705602097296,0.1938544347578667,-91.94212668166958,87.48084214248092,-13.615653756817174,0.2048727200812765,0.1154045214704281,0.0569500446126965,-177.67776651610262,20.124202578582643,57.95013429744818,1.0719249531975823,0.0335673258834502,0.7700282535401289,-113.83067484129673,46.00553979625038,148.69850263929752,0.0494651673929566,0.2257187581540016,0.8798581789119831
2.12,-18.1797173138671,85.3841130036858,170.8227939865955,0.4870320394846518,0.1083528197174165,0.1864171301597629,-93.19896210099309,87.38421822030527,-13.634630474394388,0.3531976285226397,0.0726956389415652,0.0187090838767279,-176.674564331231,20.8830853957424,59.0568162402275,1.0941995605188486,0.1372051223254144,0.7094640817492612,-113.38407463568002,46.06449653195697,147.80833787032088,0.1078480010811599,-0.0016621742321236,0.4268842172238007
2.13,-18.85868180917909,85.3065458130009,170.69502891012817,0.4764446988376496,0.0847183675706892,0.0997831531253084,-93.55566103327092,87.39017477057608,-13.663966450918284,0.2638950570704086,0.1534770968659507,0.0230905638279057,-175.8882755990634,21.412641523980987,60.26202513833235,1.0980011025748675,0.0919256083296604,0.6990769428574358,-113.58147706463708,45.99584285250132,147.63522322904694,0.5451865851662342,0.0998976516200552,0.2001677124725454
2.14,-19.314737673517808,85.30621442491854,170.71010671154107,0.3710059315070845,0.0077307617813027,0.0434854251048694,-93.87676768730398,87.44533215307064,-13.685936297388944,0.2775804435890015,0.2258615446162403,-0.0071221635992254,-175.06580543363793,21.944348472744924,61.43455037294978,1.0869148838738836,0.0654168388823265,0.7307621761020994,-114.70252528447313,45.752908238039225,148.1235428664264,0.5528986162872508,0.2919617850084966,0.0233056483215414
2.15,-19.74582511863193,85.36940755806526,170.64523457269178,0.3476187071560272,0.0386008933508272,0.0383215836653466,-94.24955260469972,87.36930028140085,-13.750838328270422,0.4512838384104612,0.2642729288461782,0.0575696808153675,-174.9463439279965,18.80583347383736,61.45050022738168,0.3847034941870788,0.1822068072770497,0.043400435324701,-115.25985721227566,45.38854512872699,148.18554860603075,0.0470187098046067,0.3180160707220495,0.5477451139561695
2.16,-20.186837124058087,85.43278653146498,170.6197883730794,0.3321332527447532,0.0501128779388406,0.0463311885716512,-94.6906597030624,87.24650382919025,-13.823409801010168,0.4324539410131679,0.1931375806616781,0.0670047432897169,-174.3744901939663,18.988997474353656,61.6313967744886,0.2699186862906435,0.2571656785507968,0.313376478755485,-114.7989797433822,44.89180339313246,147.87974672373488,0.1677160599948093,0.5426732269396104,0.140583891550639
2.17,-20.551440927329743,85.56031843009953,170.56896262426784,0.2662605947764996,0.094702505429171,0.0821038143192774,-94.87558564595976,87.17964803109784,-13.807974184996237,0.1411520797600341,0.087711707684793,0.0278363337953725,-173.3732844530506,19.564671937337742,61.70104914202899,0.1641288624071184,0.3107295438448736,0.7397347774539668,-114.82593351993653,44.26012383323099,148.55435885218293,0.3927568489876826,0.689990743490568,0.4108342847663046
2.18,-20.94282698023912,85.66187233710026,170.48974819515416,0.2845422694921197,0.098858040018004,0.0791159201592796,-95.06526596500524,87.1178420776819,-13.82452638251162,0.2791899888464595,0.2451440146402613,0.0154983611537097,-172.5058152898686,20.30567548052129,61.69225441312259,0.1632544753395996,0.3053571519054071,0.7343403568695245,-114.62931880991438,43.48514868364365,149.75445699737696,0.728457691220682,0.9266783503809316,0.3009776822953062
2.19,-21.32511350867109,85.74917239727984,170.39803222860334,0.2988313820364358,0.0655594388524904,0.0748554235898076,-95.38216915750456,86.96060864268696,-13.84236501151087,0.3019414642434746,0.236735564926284,0.0625159110272595,-171.49902213700724,20.941490201917475,61.68313469893332,0.2022919489293203,0.2352058601227557,0.61156193313753,-114.76077120148962,42.50761003290896,150.55589520112895,0.532347203736514,0.8918438642984906,0.248924076683063
2.2,-21.69705088475087,85.87909018383608,170.38603317077406,0.2997184995517112,0.1608754506257026,0.0551377940610056,-95.6783175176208,86.81461858810756,-13.894895303128806,0.3407630345635809,0.2383771308605885,0.0904227230772376,-171.19327063714687,21.371353510678144,61.80814681532708,0.2368880080880294,0.1859868753916595,0.3798944979723096,-114.90322008843748,41.50323008347458,151.3873456790798,0.2847812400951098,0.8527253799348927,0.2076150304502199
2.21,-21.97957812411975,86.1307110064799,170.32503763581957,0.2199219358774412,0.2172525919311767,0.0619341205276612,-95.87963619073668,86.6347370971414,-13.93085774817188,0.1994678540698889,0.178473367101211,0.0682040454051384,-170.62876697433197,21.701435551675573,62.0169132777882,0.2544878589452808,0.2020325877807366,0.3335425299961536,-113.81930816804244,40.554159914457074,153.0576825780172,0.5891331132344156,0.953857977203436,1.3737438123523888
2.22,-22.24524107701745,86.36802964996195,170.27507824903603,0.2160045234182315,0.2151166429858277,0.0897079247705669,-96.0521622291994,86.56469246952088,-13.895892304601157,0.1390290387387759,0.1246689511503011,0.0683883746925176,-170.40124518248388,21.71958649962932,62.27370100754663,0.2747533541497647,0.1388618325699901,0.1966445098897521,-112.81795034426284,39.613309284654186,155.0956983140304,0.5582778858765435,0.8681544853397889,1.0557997298169208
2.23,-22.545484477522454,86.63142941357324,170.27319434602117,0.2204743767008922,0.1904909960166032,0.0287996868731587,-96.44738617056636,86.47344588753758,-13.828409022073568,0.2975734398481456,0.2097616290550322,0.0470855588953261,-170.1858792865219,21.761016363741447,62.52240909431641,0.3265612927702764,0.105891368398954,0.1065709751766278,-111.79837459285068,38.67591739682312,157.11382963547365,0.4932306141606584,0.8060704935259417,0.734695781166813
2.24,-22.688654632707053,86.72564303223446,170.25910285128393,0.2109427260412528,0.1816006268486527,0.0298316582626423,-96.55909822919332,86.40451071209795,-13.811449714471788,0.2483559283690118,0.2207941801302222,0.0526979480182909,-170.1802996177262,21.69365236573441,62.58653285810932,0.3513267477513834,0.0758242069812467,0.1603341278778606,-111.5071244538352,38.318781808866255,156.60736877117935,0.4819066032038616,0.6543729074256187,0.7219618198129257
2.25,-22.81461108317237,86.81703288876528,170.257505107656,0.2014708980819105,0.1702733288144429,0.0046841511236814,-96.69652975429956,86.31516346320684,-13.8267463554485,0.2291271326783234,0.2155632014750897,0.0539811314139886,-170.200944449662,21.62580550965304,62.70795692378455,0.3582647210335235,0.0180731243743774,0.223235321831487,-111.1990546496978,37.92852511930762,156.1190736930898,0.4587348067636516,0.5390322937034404,0.7120259970124689
2.26,-23.056631898831764,87.023808611472,170.18690601006773,0.145492406289228,0.1914194549652593,0.0209066697005832,-96.80684766659694,86.12318563192629,-13.877120784630447,0.1067812517850704,0.1628486847444772,0.0520105050924681,-170.62267807535255,21.202607371347604,63.33156413189217,0.3370973737385619,0.0951436260270237,0.400916148391462,-110.31802378070827,37.44401666766579,154.56563442185347,0.9857359963430192,0.336750247254411,1.0929326828418675
2.27,-23.244897413494005,87.23819906101598,170.1856176605652,0.2201718833671266,0.1961386497150715,0.0030359489801683,-96.996876077456,86.06378171755973,-13.88347003260187,0.1856113265055002,0.0944319403232906,0.0272351188108913,-170.80777258194044,20.95508909704765,63.49169113280957,0.2473178648211097,0.0098256136290313,0.2466258273932066,-109.62073895148468,36.98746616829072,152.61639679656264,1.1117719238718593,0.3346897566762269,0.4948541205891088
2.28,-23.54574001656968,87.42998181852587,170.1932118367394,0.2615418037249714,0.2054503456516476,0.0307678542877205,-97.23564557836806,85.83749800585696,-13.892409360019176,0.3151036264207138,0.261755112999149,0.0290908434079775,-170.8739981463133,20.805564228156697,63.7670258084593,0.1883668350389581,0.1056809802198329,0.0207729247656892,-109.747242346701,36.49949917673845,151.12688750554156,1.025484126768828,0.4464385675426843,0.3205870818501656
2.29,-23.778843428199824,87.70030881044073,170.1713612923953,0.2070219858369241,0.2118571292598516,0.0422342645455337,-97.4313604605995,85.49380570382043,-14.002298137777286,0.206597885877042,0.3341944365045712,0.0965406465422862,-170.999262817404,20.76275453673496,63.95362510829873,0.1958900092975726,-0.0030158484648737,0.0553159777148276,-109.8195529995697,36.0055926358324,149.94981086767416,0.9248594942316528,0.4522468791783442,0.2810357297213161
2.3,-24.01144680614856,87.94305981919858,170.1264635716902,0.1577194606458915,0.2247255637109331,0.0500332762860838,-97.6168749935033,85.4148192317822,-13.973517024064131,0.2473212896109463,0.2217921373223077,0.0754671759606976,-171.06026253611878,20.610083558192184,64.19613848537689,0.1403487104472778,0.0241342045610153,0.1025914242824808,-109.3851725139115,35.39496292552874,148.43348605932673,0.9289692064862992,0.4355820835096088,0.7943948100380865
2.31,-24.05313801006223,88.07290392043537,170.11886099636604,0.1741297653393066,0.2029101894012074,0.0360698847868178,-97.82038687085554,85.3187650930856,-13.94161915500298,0.2900053914897949,0.0763014638581954,0.039726378095502,-170.93904511621005,20.617294145288184,64.18981740399762,0.0404069787148626,0.1760144443346361,0.0718365420646217,-109.03725735357936,35.01398815518463,147.22369775824447,0.8038713977173881,0.3054827437588324,0.6356030432674753
2.32,-24.326579615576684,88.24758959143519,170.12574717576942,0.1492508643397863,0.1209414506773993,0.0018622810850258,-98.06392586325146,85.07664562373269,-14.01321272034304,0.1913138442666673,0.3392749677004652,0.2088948060417669,-170.53132595622438,20.93137072625216,63.95179017193983,0.1416533849425837,0.4226115286059189,0.4795335984071435,-108.70710703804208,34.62028905944549,146.00254525469452,0.7015916395999904,0.1783467603027852,0.430476162870287
2.33,-24.37832196313725,88.38130648133277,170.11695231634633,0.0356835919747704,0.1195298507622131,0.0291447714053303,-97.99708720863654,84.69633832359989,-14.171968053956633,0.0345783314395604,0.1471320562016083,0.080873574394301,-170.19509888749866,21.25012073060443,63.96896737778757,0.260291585216125,0.3181694952976411,0.2488522063929382,-108.58086579876522,34.14857052000382,144.55464446446035,1.1319803446727108,0.4316227688604709,0.3249114064844697
2.34,-24.433385397486266,88.49598599003912,170.13627378440154,-0.0014137356479639,0.1684884852444923,-0.0052551945048678,-97.82813786966383,84.57689304068722,-14.264763569719964,0.0745275136423966,0.0862584016050335,0.0526001143305283,-169.87958232022223,21.55506889378301,64.00664430941876,0.4046862095437835,0.2088028815013004,0.0290755480062973,-110.45604375139985,33.90211177317198,144.57474994853615,0.9860994067983034,0.4169039112533287,0.9970233272915072
2.35,-24.453171219723743,88.62302712514028,170.13224738147525,0.0100916490758225,0.1324607244972165,0.0228489196649403,-97.81764313973544,84.6220595678219,-14.175969235096725,0.0104013073601127,0.0058893195290816,0.0151068659752827,-169.6881848541426,21.74765150659414,64.44472707212648,0.1263419906532193,0.091897271900347,0.5553272045782902,-112.30462913295123,33.67970510761264,144.55163638178442,0.826667108963748,0.3916593441853281,1.6780020398924829
2.36,-24.44748765062224,88.68267780603377,170.12832742038646,0.0563151567687579,0.0683000475815519,0.0162251267949881,-97.81045136723188,84.50950722929608,-14.25293395317094,0.0252296863185604,0.1194801351664626,0.0673084280640717,-168.94412568914046,22.367744023609905,64.37750894268751,0.0391513621253102,0.1213005586261423,0.6398933183256634,-114.3834333776546,33.692282682313206,144.82179560117612,0.8557744759519463,0.2654131798501586,1.1804573638966278
2.37,-24.327534825947332,88.62449005378879,170.13027207197217,0.1177612361919294,0.0669074832341314,0.0227061908604946,-97.71296235837744,84.37680968746847,-14.32170966232273,0.0084206903188643,0.1146012587013519,0.014927238121602,-169.00832713940437,22.62401067386408,64.24619210854539,0.0666511258976089,0.0683289905598722,0.0139738669656354,-115.88744857819448,33.63323855118892,144.56909505071488,0.96572406305373,0.3027524339488573,0.8921843707725307
2.38,-24.112283433948477,88.67899669688437,170.1413068638747,0.1453051298929679,0.1416311024744485,0.0549125390398812,-97.68135900496532,84.24919583509255,-14.367843247292075,0.0464465996878851,0.0864350927550102,0.0483549995142795,-169.94254915356646,21.921986170967468,64.50545901364109,0.0857882680906839,0.2032353793882738,0.799398884934182,-117.62987558030795,33.50683573888955,144.31420946622544,0.7103117865952169,0.4639304032141228,1.1132404433172474
2.39,-23.685781424009907,88.78479485449873,170.2637545413555,0.2498734367604801,0.188245746132057,0.0942100162218958,-97.45387335010356,83.99003132966641,-14.488550303559505,0.174261430950969,0.2396898078855961,0.1276161874488833,-170.93221362669956,21.268483086910667,64.71721445311846,0.0431763316976367,0.128001017804344,0.5332274068046366,-119.19449440223195,33.25279991117628,144.51734679383762,0.5896623068077488,0.3412645511268288,1.2320297367998858
2.4,-23.476341621493592,88.81741356960295,170.31994209321115,0.2916878467924696,0.2124199163116923,0.098510337361688,-97.25734086495976,83.87765401038855,-14.540345162284368,0.1557115768676825,0.1886151619457481,0.1291026072238967,-171.06329527527052,21.261829503897165,64.71036039093299,0.0260264831818763,0.2286507110640863,0.2973600586201949,-120.02306148805113,33.260368366664096,144.63977834481344,0.6719250269561563,0.2729380158555618,1.255478239799089
2.41,-23.242370490846174,88.8639846870785,170.39413871119197,0.3512246426343173,0.230736441536724,0.1396915543947448,-97.08872370142691,83.78439462017778,-14.58621759092208,0.1255440988167441,0.1483827407161355,0.1069336830450738,-171.19427065967938,21.252663641712573,64.74075324731406,0.0041007213030915,0.3333902887288145,0.0687978668077154,-120.82110524243572,33.23135775574575,144.75042206079263,0.7178750879884428,0.1852614522853963,1.2973924559640064
2.42,-22.94421086269002,89.0008216983595,170.44722776659023,0.1602233661717507,0.2487254179169467,0.016991554995269,-96.73794974496072,83.54691723258102,-14.69304932290746,0.0791711534843215,0.0608784019999107,0.0568871928133318,-171.57329484143057,21.25589665581596,65.01436558983575,0.1213607324504534,0.4071196621594203,0.2435742863345101,-122.1988404179386,33.439069070603445,144.6767450745997,0.6267200909585486,0.0760998649635637,0.8467818984255752
2.43,-22.873477245452875,89.10729281404572,170.309137313636,0.186687553885188,0.1374333705561697,0.0475890612483613,-96.70309613849524,83.45184026631543,-14.606528327030867,0.0705612591112273,0.1626398675539466,-0.0025419625507234,-172.19837335597347,20.74534255258796,65.3364316066986,0.1414490865923417,0.0680921856379878,0.3707235564194164,-123.05315643175878,33.41897088837643,144.7614078884454,0.0219770024245564,0.1015470359224362,0.4858340129386281
2.44,-22.806324472602142,89.18774317535126,170.18554453727225,0.2090879855196145,0.0181115127972637,0.113611715748426,-96.27937742192672,83.27435207466084,-14.633111535687997,0.1506597365215164,0.1870630326545258,0.0468259506892569,-171.07789635752968,21.619335353049543,64.92982235020432,0.1513638258038318,0.0994875465942033,0.6998218898822117,-123.6405771033432,33.49904899624384,145.01476830842657,0.0954800786270492,0.0900095010108004,0.3923685389343708
2.45,-22.699441389433808,89.318348400308,170.06161194288137,0.1918719085018151,0.1983968549610056,0.1123922031594289,-95.86885338150906,83.11067041738522,-14.62385629435307,0.2407072797899471,0.1604392370657724,0.1077094061039558,-169.92884893896422,22.48576274804114,64.58756712542201,0.1703304518239152,0.138520624365639,1.01436365526044,-124.13828117388536,33.94455712111927,144.83325990766863,0.4656677668607354,0.4764522062759351,0.253846761917485
2.46,-22.5480518600194,89.44575683599466,170.00477754753058,0.2659720477560476,0.0564365158365453,0.0750604262922235,-95.81544676346596,83.49704510881415,-14.63323639949071,0.1408467507478485,0.4497105403937298,0.1593160195425773,-169.75208037540742,22.80601372037776,64.69875561252617,0.1475869033138084,0.2149127121823172,0.0061024885238688,-124.6296880000521,34.63823030519306,144.45737501419083,0.4914582912233144,0.554916647224763,0.5242610150800406
2.47,-22.362313149010127,89.49831254667444,169.96863226377113,0.1670694621291691,0.1238948355755261,0.0396455251979269,-95.94465205371142,84.0637738333362,-14.446674962831402,0.0414651132580485,0.1562709145204383,0.012696139543854,-169.79690059870595,22.960115931172297,65.09743116309788,0.1860598682797166,0.2311017047768058,0.2633780791579517,-125.50253820334072,35.37318521252643,144.3807988296219,0.4356740147598339,0.535126749969086,0.6872173652512703
2.48,-22.234335340726723,89.50379604046125,169.86635323992667,0.0998657617004247,0.0771147920530912,0.061842124730688,-95.8830114921246,84.1898351225216,-14.459526163573114,0.2115898929104955,0.1368938076869335,0.035329788221698,-169.8647151474834,23.112194828201677,65.5134440766021,0.1888229607340321,0.2268430547925928,0.5028688843462453,-126.2008054560573,36.13335439486479,144.1980886468909,0.5282400389043188,0.6706316408240535,0.5929056271862042
2.49,-22.23415157749232,89.57817990241094,169.79249280716343,0.1554668512559293,0.1764300818470198,0.0950805738580272,-95.62799915087432,84.11655613596209,-14.424855544584236,0.2696223554414131,0.1133146622122494,0.0819743622555363,-169.50505010136666,23.700612184106028,65.77212320558763,0.1021943554238734,0.3155958334955748,0.2018453046646325,-127.03162284194568,37.062068297630425,143.98829671727793,0.4074621417383333,0.7484605153847578,0.6335211725376914
2.5,-22.0497249398874,89.68599947048786,169.82101613102236,0.2775777600945243,0.2480233409061118,0.044965319449639,-95.44760030256565,84.27092064168382,-14.257132023840926,0.1623120733484593,0.0193082933804174,0.0717883265392712,-169.95506875114015,23.825814371743604,66.00302866608558,0.0647077568508346,0.3121849487193497,0.011438106035802,-127.69834566168792,38.04879547423496,144.1955812124368,0.036192162063505,0.8341094673639458,0.295825673160893
2.51,-21.593736663326844,89.47164010378377,169.68325349562687,0.2890860443297319,0.2611919182815252,0.1090259196418066,-95.30146355425212,84.17528943630522,-14.234386260743385,0.0626754291007705,0.1743034332155145,0.0204861838929963,-170.2073140945296,23.81086196537505,66.11899227344647,0.0594430156182339,-0.0008739154183447,0.2797034610062508,-127.89066802594868,39.00468359999629,144.200068023942,0.0891693913225791,0.807022678188033,0.1709103216987821
2.52,-21.12974979203159,89.25926802458959,169.57367038595197,0.2997807780887861,0.2718821801651696,0.1973586252899416,-94.90772969773398,83.97434439659844,-14.40906609156369,0.233266894685475,0.1429094085519694,0.0550845022774476,-169.59998822164692,24.23386705007156,66.11782759377806,0.0556049391539035,0.1750782102044996,0.5846565051027379,-128.00976502799213,39.80773716673978,143.95331263981606,0.150568651773643,0.737978350369413,0.0563260715214285
2.53,-20.557544114522575,88.88527185903624,169.32276076951388,0.2623215017948169,0.4432033699563124,0.1417276843822077,-94.50905005393864,83.75330662660463,-14.582625558956442,0.3620991335955507,0.1225366429071394,0.1053903442784306,-169.0498992648331,24.82147168957789,66.13849934786968,0.1014253280737319,0.1107459304010061,0.5106815113016214,-128.00406126246705,40.611408494647705,143.60964500909674,0.1861727864465897,0.084609103597631,0.872828672257712
2.54,-20.121740731094377,88.43977051990991,169.19197650639796,0.2690198165276623,0.4094664540190181,0.1076504476763155,-94.0561787475799,83.68565976525164,-14.603335726570895,0.3275698816976949,0.0525808511891084,0.0811868838415425,-169.15426925277987,24.73334218700051,66.44196396312134,0.5154963680790036,0.2787072829458151,0.6750284892816925,-127.76999813719954,40.39235754287573,143.1903873406369,0.1603169056829267,0.4245762410931233,0.2353386690617725
2.55,-19.86326315075044,88.05464326956988,169.1227430218007,0.0326639706385934,0.2517629723046141,0.0031832477179223,-94.00352957673736,83.8154048200338,-14.498176070567052,0.1217499668517803,0.0757262045790582,0.1528371173525607,-170.19168730051845,23.931724722383333,67.38005184932192,0.6647949969775487,0.3903100974512734,0.8616866465322783,-127.94359594230458,40.13030083344441,143.3906323728143,0.1718117924606398,0.2442220656710401,0.1567573423807987
2.56,-19.903785941372355,87.97480497264536,169.12222636782712,0.0237183735854545,0.2261821533190701,0.0256710832869893,-94.03674877073075,83.91877415267001,-14.39819840186112,0.0884068228259592,0.0909379970901173,0.1046340191980072,-170.82558600289107,23.40665378567392,67.9248835019856,0.6038850345097302,0.3222179925907081,0.9312415761994894,-127.99573776402788,40.007088025857016,143.49857945647094,0.2117000015835616,0.1672327879386511,0.1158298308489192
2.57,-19.93449156648825,87.87714121588563,169.12967049562988,0.0770079563704125,0.1834375033756847,0.0407176155585674,-94.06703069955996,84.00184841731864,-14.295902571333755,0.0404040010828066,0.1134761622330364,0.1294498199878451,-171.4451974823284,22.870139153825644,68.44211003214791,0.5324061616301492,0.2769542656551798,1.0215098218988934,-128.05431460600522,39.88845643029069,143.59831457624298,0.2200877929240473,0.0589368279159192,0.0434280043515593
2.58,-20.126284411810573,87.74377085324424,169.21112319914607,0.0889294645872838,0.0921359429629346,0.0677656410184011,-94.30307150515192,84.13348725991153,-14.19649126049223,0.1389777045939284,0.051456083072481,0.0949619588682707,-172.44011273783846,21.960037798636527,69.08387690565267,0.3575721913843209,0.1193989733847352,0.7084520911727936,-128.76911700327503,39.89099196451985,143.4991449251116,0.4760812853028195,0.1245801355671833,0.4943021720263873
2.59,-20.316996004985675,87.61705273875712,169.2546891021965,0.1643774099646973,0.2574768588488644,0.080611331045165,-94.56199273518448,83.97945262888273,-14.206185132863416,0.2174255314578121,0.2040362551586952,0.0036716899854971,-172.87889680223302,21.561689476819343,69.25989557221392,0.0833892842777308,0.141604066583313,0.2619113560268991,-129.39097839219144,39.62726320531576,143.2589331498233,0.5136377641443668,0.3971298527884715,0.1542005878408399
2.6,-20.550975035884328,87.3710126690093,169.37913782311304,0.1826066749750425,0.2793907539344617,0.0635647552293976,-94.80657655706874,83.68162852414612,-14.195488923664088,0.2079577769620913,0.3547034757585255,0.0341813906665548,-172.93860330553645,21.31257423660388,69.25639537720195,0.0518869325888771,0.0901677624536801,0.0005906049932812,-129.51111441953387,39.30256383810186,142.30154060554597,0.7803115733765743,0.1098637197561251,0.3513910572396357
2.61,-20.876903523221834,87.05424538906576,169.45444417988205,0.2154267153361033,0.282733208513405,0.0277834342596208,-94.94052477519008,83.31736029800075,-14.187520992502558,0.1256077738372855,0.3358076594069127,0.0124079861135687,-172.94945265600046,21.370085729196965,69.12651118475732,0.0812998606129024,0.0703722275125324,0.146590494279985,-129.44875598277284,39.378771742402165,141.31328302122176,0.6063435941247868,0.2440657114001817,0.1932268636098973
2.62,-21.03640536408624,86.75117423706808,169.44183178682658,0.1583795016752456,0.3013359215867601,0.0101113086837986,-95.0583045549949,83.20787132319565,-14.136872003724784,0.0851456525205465,0.1913806032867617,0.0795420265810082,-172.3117653832539,21.87873766552845,69.05507920944798,0.0204688778892581,0.1429585167341783,0.750635578888623,-129.33751749583774,39.962215178703175,140.6758569108839,0.1939376204354116,0.5326232943600755,0.2279584778429669
2.63,-21.117767127744223,86.37315837366657,169.45280071030874,0.0715449463792659,0.3364850339140371,0.003590616896388,-95.1921176484335,83.11016705964211,-13.9934318075296,0.1081851572819433,0.1670646355850878,0.0979961001686282,-171.32110565532756,22.66783887671754,68.94478511515322,0.0320441907994677,0.1056240110886397,0.8082019783701294,-128.6465341142301,39.42244056691823,140.0104836046808,0.1607713066381195,0.506685377326884,0.1219393850202498
