0.01,-110.5,75.62,164.44,0.01,0.01,0.01,0.02,0.03,0.2,0.38,0.69,0.26,0.56,-99.06,82.37,89.31,0.01,0.03,0.01,0.02,0.05,0.04,-0.01,0.71,-0.11,0.7,-156.5,4.0,6.87,0.02,0.06,0.03,0.08,0.27,0.02,-0.02,0.07,-0.98,0.21,-129.25,7.62,9.13,0.01,0.01,0.02,0.08,0.04,0.03,-0.03,0.1,-0.9,0.43
0.02,-110.5,75.69,164.44,0.03,0.01,0.01,0.05,0.05,0.24,0.38,0.69,0.26,0.56,-99.06,82.37,89.25,0.01,0.02,0.01,0.02,0.04,0.02,-0.01,0.71,-0.11,0.7,-156.5,4.06,6.87,0.1,0.07,0.13,0.04,0.05,0.08,-0.02,0.07,-0.98,0.21,-129.25,7.62,9.13,0.01,0.01,0.03,0.12,0.04,0.03,-0.03,0.1,-0.9,0.43
0.03,-110.53,75.69,164.44,0.02,0.01,0.01,0.04,0.04,0.22,0.38,0.69,0.26,0.56,-99.06,82.37,89.06,0.01,0.04,0.01,0.02,0.08,0.08,-0.01,0.71,-0.11,0.7,-156.44,4.12,6.94,0.01,0.11,0.05,0.04,0.1,0.02,-0.02,0.07,-0.98,0.21,-129.19,7.62,9.13,0.01,0.01,0.03,0.14,0.01,0.05,-0.03,0.1,-0.9,0.43
0.04,-110.56,75.69,164.44,0.01,0.01,0.01,0.03,0.03,0.19,0.38,0.69,0.26,0.56,-99.13,82.37,88.69,0.01,0.04,0.01,0.02,0.07,0.06,-0.02,0.71,-0.11,0.7,-156.44,4.12,6.94,0.08,0.01,0.01,0.04,0.14,0.02,-0.02,0.07,-0.98,0.21,-129.19,7.62,9.13,0.01,0.01,0.02,0.12,0.02,0.01,-0.03,0.1,-0.9,0.43
0.05,-110.56,75.69,164.44,0.01,0.02,0.01,0.05,0.01,0.07,0.38,0.69,0.26,0.56,-99.13,82.37,88.37,0.01,0.03,0.01,0.02,0.07,0.07,-0.02,0.71,-0.11,0.7,-156.37,4.12,7.0,0.15,0.06,0.05,0.04,0.04,0.02,-0.02,0.07,-0.98,0.21,-129.12,7.62,9.13,0.01,0.02,0.01,0.08,0.04,0.06,-0.03,0.1,-0.9,0.43
0.06,-110.56,75.66,164.47,0.01,0.02,0.01,0.04,0.02,0.15,0.38,0.69,0.26,0.56,-99.13,82.37,88.25,0.01,0.01,0.01,0.01,0.05,0.09,-0.02,0.71,-0.11,0.7,-156.44,4.19,6.94,0.02,0.04,0.08,0.06,0.09,0.02,-0.02,0.07,-0.98,0.21,-129.12,7.56,9.13,0.01,0.01,0.02,0.1,0.07,0.06,-0.03,0.1,-0.9,0.43
0.07,-110.56,75.62,164.5,0.01,0.02,0.01,0.03,0.02,0.23,0.38,0.69,0.26,0.56,-99.13,82.37,88.25,0.01,0.01,0.01,0.01,0.07,0.03,-0.02,0.71,-0.11,0.7,-156.4,4.22,6.94,0.05,0.06,0.08,0.06,0.16,0.02,-0.02,0.07,-0.98,0.21,-129.12,7.56,9.06,0.01,0.01,0.03,0.12,0.01,0.01,-0.03,0.1,-0.9,0.43
0.08,-110.56,75.62,164.5,0.01,0.01,0.01,0.01,0.01,0.18,0.38,0.69,0.26,0.56,-99.06,82.37,88.25,0.01,0.01,0.01,0.03,0.1,0.02,-0.02,0.71,-0.11,0.7,-156.37,4.25,6.94,0.08,0.08,0.08,0.07,0.24,0.02,-0.02,0.07,-0.98,0.21,-129.09,7.56,9.06,0.01,0.01,0.02,0.1,0.02,0.03,-0.03,0.1,-0.9,0.43
0.09,-110.56,75.69,164.44,0.01,0.01,0.01,0.01,0.02,0.17,0.38,0.69,0.26,0.56,-99.06,82.37,88.31,0.01,0.01,0.01,0.01,0.11,0.05,-0.02,0.71,-0.11,0.7,-156.31,4.25,7.0,0.02,0.02,0.09,0.03,0.11,0.02,-0.02,0.07,-0.98,0.21,-129.06,7.56,9.06,0.01,0.01,0.02,0.08,0.03,0.06,-0.03,0.1,-0.9,0.43
0.1,-110.56,75.69,164.5,0.01,0.02,0.01,0.03,0.02,0.15,0.38,0.69,0.26,0.56,-99.06,82.37,88.31,0.01,0.01,0.01,0.01,0.09,0.11,-0.02,0.71,-0.11,0.7,-156.31,4.19,7.06,0.09,0.01,0.03,0.01,0.02,0.02,-0.02,0.07,-0.98,0.21,-129.06,7.56,9.06,0.01,0.01,0.02,0.07,0.04,0.07,-0.03,0.1,-0.9,0.43
0.11,-110.56,75.62,164.5,0.01,0.02,0.01,0.03,0.03,0.17,0.38,0.69,0.26,0.56,-99.06,82.37,88.19,0.01,0.03,0.01,0.04,0.13,0.08,-0.02,0.71,-0.11,0.7,-156.31,4.19,7.06,0.03,0.03,0.03,0.04,0.09,0.02,-0.02,0.07,-0.98,0.21,-129.06,7.56,9.06,0.01,0.01,0.02,0.08,0.05,0.07,-0.03,0.1,-0.9,0.43
0.12,-110.56,75.62,164.5,0.01,0.02,0.01,0.04,0.05,0.17,0.38,0.69,0.26,0.56,-99.06,82.37,87.94,0.02,0.03,0.01,0.07,0.06,0.01,-0.02,0.71,-0.12,0.7,-156.31,4.19,7.06,0.08,0.12,0.07,0.05,0.17,0.01,-0.02,0.07,-0.98,0.21,-129.06,7.56,9.06,0.01,0.01,0.01,0.04,0.06,0.06,-0.03,0.1,-0.9,0.43
0.13,-110.56,75.62,164.5,0.01,0.02,0.01,0.02,0.02,0.2,0.38,0.69,0.26,0.56,-99.06,82.37,87.88,0.02,0.01,0.01,0.03,0.04,0.2,-0.02,0.71,-0.12,0.7,-156.31,4.19,7.06,0.01,0.13,0.04,0.05,0.03,0.02,-0.02,0.07,-0.98,0.21,-129.06,7.56,9.06,0.01,0.01,0.01,0.04,0.06,0.1,-0.03,0.1,-0.9,0.43
0.14,-110.56,75.62,164.56,0.01,0.02,0.01,0.04,0.04,0.2,0.38,0.69,0.26,0.56,-99.06,82.37,88.06,0.02,0.04,0.01,0.12,0.15,0.04,-0.02,0.71,-0.11,0.7,-156.31,4.06,7.12,0.04,0.02,0.05,0.04,0.1,0.01,-0.02,0.07,-0.98,0.21,-129.06,7.56,9.06,0.01,0.03,0.02,0.1,0.04,0.14,-0.03,0.1,-0.9,0.43
0.15,-110.56,75.62,164.56,0.01,0.02,0.01,0.01,0.09,0.15,0.38,0.69,0.26,0.56,-99.06,82.37,88.94,0.05,0.13,0.02,0.22,0.06,0.13,-0.02,0.71,-0.11,0.7,-156.28,4.09,7.12,0.05,0.04,0.04,0.03,0.07,0.02,-0.02,0.07,-0.98,0.21,-129.06,7.5,9.06,0.02,0.04,0.03,0.24,0.05,0.15,-0.02,0.1,-0.9,0.43
0.16,-110.56,75.62,164.62,0.01,0.01,0.01,0.1,0.07,0.09,0.38,0.69,0.26,0.56,-99.06,82.31,90.44,0.04,0.18,0.05,0.4,0.05,0.5,-0.01,0.71,-0.1,0.7,-156.25,4.12,7.12,0.06,0.07,0.04,0.02,0.04,0.03,-0.02,0.07,-0.98,0.21,-129.0,7.5,9.06,0.03,0.04,0.04,0.47,0.15,0.37,-0.02,0.1,-0.9,0.43
0.17,-110.56,75.62,164.62,0.01,0.01,0.01,0.13,0.06,0.07,0.38,0.69,0.26,0.56,-99.06,82.31,91.75,0.08,0.13,0.04,0.65,0.01,0.36,0.0,0.71,-0.09,0.7,-156.25,4.19,7.06,0.16,0.1,0.01,0.03,0.02,0.05,-0.02,0.07,-0.98,0.21,-128.94,7.44,9.0,0.02,0.05,0.11,0.5,0.5,0.71,-0.02,0.1,-0.9,0.43
0.18,-110.56,75.62,164.62,0.07,0.02,0.01,0.16,0.03,0.07,0.38,0.69,0.26,0.56,-99.13,82.19,93.69,0.23,0.31,0.09,0.32,0.03,0.19,0.01,0.71,-0.08,0.7,-156.28,4.19,7.03,0.1,0.07,0.02,0.02,0.12,0.05,-0.02,0.07,-0.98,0.21,-128.75,7.37,8.94,0.02,0.07,0.19,0.7,0.45,0.79,-0.02,0.1,-0.89,0.43
0.19,-110.5,75.69,164.5,0.08,0.01,0.01,0.06,0.01,0.06,0.38,0.69,0.26,0.56,-99.19,82.0,97.69,0.25,0.51,0.14,0.6,0.07,0.47,0.04,0.71,-0.06,0.7,-156.31,4.19,7.0,0.03,0.04,0.03,0.01,0.23,0.05,-0.02,0.07,-0.98,0.21,-128.56,7.31,8.94,0.02,0.14,0.15,1.07,0.48,0.12,-0.02,0.1,-0.89,0.44
0.2,-110.37,75.75,164.37,0.09,0.07,0.02,0.45,0.22,0.1,0.38,0.69,0.26,0.56,-99.19,81.75,102.44,0.18,0.62,0.11,0.64,0.02,0.34,0.07,0.71,-0.03,0.7,-156.37,4.12,7.0,0.03,0.1,0.07,0.23,0.51,0.18,-0.02,0.07,-0.98,0.21,-128.38,7.19,8.88,0.03,0.2,0.11,1.14,0.8,0.44,-0.02,0.1,-0.89,0.44
0.21,-110.25,75.87,164.25,0.09,0.2,0.07,0.33,0.26,0.58,0.38,0.69,0.26,0.56,-99.19,81.56,106.25,0.12,0.46,0.04,0.18,0.22,0.32,0.09,0.72,-0.01,0.69,-156.31,4.25,6.87,0.21,0.16,0.07,0.39,0.58,0.16,-0.02,0.07,-0.98,0.21,-128.25,7.0,8.81,0.03,0.22,0.15,1.16,1.04,1.07,-0.02,0.1,-0.89,0.44
0.22,-110.31,76.12,164.31,0.01,0.15,0.07,0.42,0.12,1.59,0.38,0.69,0.26,0.56,-99.25,81.44,109.12,0.09,0.41,0.01,0.86,0.23,0.22,0.11,0.72,0.01,0.69,-156.25,4.25,6.75,0.04,0.08,0.07,0.48,0.46,0.18,-0.02,0.07,-0.98,0.21,-127.87,6.75,8.69,0.06,0.26,0.37,1.2,0.85,1.43,-0.02,0.09,-0.89,0.44
0.23,-110.5,76.12,164.69,0.11,0.04,0.05,0.16,0.35,1.23,0.38,0.69,0.26,0.56,-99.25,81.19,113.31,0.08,0.69,0.03,0.98,0.3,0.26,0.14,0.71,0.03,0.68,-156.25,4.25,6.62,0.25,0.01,0.03,0.56,0.46,0.6,-0.02,0.06,-0.98,0.21,-127.25,6.56,8.5,0.18,0.23,0.7,1.06,0.54,1.85,-0.02,0.09,-0.89,0.45
0.24,-110.6,76.0,165.03,0.07,0.09,0.04,0.19,0.32,1.11,0.38,0.69,0.26,0.56,-99.19,80.81,113.31,0.06,0.89,0.05,1.04,0.41,0.25,0.14,0.72,0.03,0.68,-156.19,4.19,6.37,0.24,0.06,0.01,0.7,0.84,0.91,-0.02,0.06,-0.98,0.21,-126.38,6.44,8.19,0.2,0.22,0.72,1.11,0.08,2.07,-0.02,0.09,-0.89,0.45
0.25,-110.69,75.87,165.37,0.03,0.14,0.02,0.22,0.3,0.99,0.38,0.69,0.26,0.56,-99.06,80.56,116.13,0.04,0.94,0.11,1.3,0.26,0.19,0.16,0.71,0.05,0.68,-156.19,4.25,5.94,0.22,0.01,0.01,0.95,1.4,0.75,-0.03,0.06,-0.98,0.21,-125.69,6.31,7.87,0.22,0.2,0.57,1.02,0.01,2.66,-0.02,0.09,-0.88,0.46
0.26,-110.63,75.62,165.56,0.06,0.19,0.01,0.74,0.45,0.88,0.38,0.69,0.26,0.56,-99.0,80.06,121.75,0.01,1.09,0.13,1.51,0.15,0.31,0.2,0.71,0.08,0.67,-155.91,4.35,5.62,0.3,0.14,0.23,1.05,1.54,0.64,-0.03,0.06,-0.98,0.21,-125.25,6.19,7.56,0.21,0.18,0.29,0.97,0.19,2.82,-0.02,0.08,-0.88,0.46
0.27,-110.38,75.37,165.59,0.11,0.26,0.02,0.96,0.24,0.7,0.39,0.69,0.26,0.55,-98.94,79.37,127.63,0.01,1.19,0.15,2.09,0.09,0.13,0.23,0.71,0.11,0.66,-155.63,4.44,5.31,0.37,0.26,0.45,1.15,1.68,0.54,-0.03,0.05,-0.98,0.21,-125.06,6.0,7.31,0.21,0.16,0.17,0.87,0.66,3.03,-0.02,0.08,-0.88,0.46
0.28,-110.12,75.12,165.62,0.16,0.32,0.02,1.18,0.03,0.51,0.39,0.69,0.27,0.55,-98.81,78.5,133.32,0.04,1.29,0.18,2.62,0.12,0.06,0.27,0.7,0.15,0.64,-155.12,4.56,4.87,0.36,0.13,0.45,0.92,1.77,0.92,-0.03,0.05,-0.97,0.22,-124.81,5.87,7.06,0.21,0.14,0.31,0.67,0.41,3.56,-0.02,0.08,-0.88,0.46
0.29,-109.87,74.62,165.88,0.14,0.45,0.02,1.23,0.07,0.44,0.39,0.69,0.27,0.55,-98.75,77.44,138.44,0.02,1.49,0.19,2.67,0.48,0.18,0.31,0.7,0.17,0.62,-154.38,4.69,4.56,0.35,0.25,0.74,0.69,1.65,1.5,-0.03,0.05,-0.97,0.22,-124.5,5.81,6.75,0.22,0.11,0.49,0.59,0.3,3.66,-0.02,0.08,-0.88,0.47
0.3,-109.69,74.06,166.31,0.13,0.61,0.02,1.69,0.08,0.73,0.4,0.69,0.27,0.54,-98.56,76.0,143.44,0.04,1.84,0.13,2.62,0.51,0.27,0.34,0.69,0.19,0.6,-153.5,4.81,4.25,0.35,0.18,0.66,0.72,1.34,1.81,-0.03,0.05,-0.97,0.23,-123.94,5.81,6.44,0.22,0.08,0.51,0.47,0.15,3.86,-0.02,0.07,-0.88,0.47
0.31,-109.31,73.19,166.81,0.19,0.81,0.01,1.67,0.12,0.81,0.41,0.69,0.27,0.54,-98.5,74.16,147.28,0.11,1.9,0.09,2.79,0.41,0.33,0.37,0.69,0.21,0.58,-152.81,4.94,3.94,0.32,0.15,0.59,0.82,0.89,2.25,-0.03,0.04,-0.97,0.24,-123.44,5.81,6.19,0.18,0.04,0.39,0.46,0.33,4.1,-0.02,0.07,-0.88,0.47
0.32,-108.94,72.25,167.31,0.19,0.95,0.01,1.74,0.29,0.64,0.41,0.69,0.27,0.53,-98.44,72.31,151.13,0.17,1.97,0.05,2.96,0.31,0.39,0.4,0.69,0.22,0.56,-152.25,5.06,3.75,0.21,0.15,0.43,0.96,0.67,2.58,-0.03,0.04,-0.97,0.24,-123.38,5.81,6.0,0.14,0.02,0.17,0.33,0.25,3.79,-0.02,0.07,-0.88,0.48
0.33,-108.63,71.12,167.94,0.14,1.05,0.01,1.94,0.01,0.15,0.42,0.69,0.27,0.52,-98.31,70.31,153.94,0.17,1.98,0.06,3.21,0.44,1.2,0.42,0.69,0.23,0.54,-151.75,5.12,3.56,0.27,0.1,0.38,0.98,0.69,2.63,-0.04,0.04,-0.97,0.25,-123.31,5.81,5.94,0.12,0.04,0.13,0.29,0.27,3.75,-0.02,0.07,-0.88,0.48
0.34,-108.25,69.87,168.5,0.13,1.19,0.02,1.82,0.01,0.05,0.43,0.69,0.27,0.51,-98.12,67.84,156.22,0.18,2.14,0.06,3.4,0.28,0.92,0.45,0.69,0.23,0.52,-151.44,5.19,3.19,0.28,0.05,0.33,0.85,1.07,3.18,-0.04,0.04,-0.97,0.25,-123.13,5.87,5.75,0.09,0.06,0.15,0.21,0.18,4.24,-0.02,0.07,-0.88,0.48
0.35,-108.0,68.5,169.13,0.1,1.29,0.02,1.67,0.03,0.06,0.44,0.7,0.27,0.5,-97.94,65.37,158.5,0.18,2.31,0.05,3.6,0.12,0.63,0.47,0.69,0.23,0.5,-150.82,5.25,2.9,0.31,0.04,0.42,0.86,0.84,3.51,-0.04,0.04,-0.97,0.25,-123.0,5.94,5.69,0.06,0.09,0.1,0.18,0.13,4.26,-0.02,0.07,-0.88,0.48
0.36,-107.63,67.0,169.69,0.1,1.31,0.03,1.35,0.22,0.07,0.45,0.7,0.26,0.49,-97.88,62.88,160.25,0.25,2.54,0.06,3.89,0.06,1.44,0.48,0.69,0.23,0.48,-150.19,5.31,2.62,0.34,0.04,0.51,0.86,0.62,3.84,-0.04,0.03,-0.96,0.26,-122.87,6.06,5.56,0.09,0.13,0.23,0.25,0.26,3.41,-0.02,0.07,-0.87,0.48
0.37,-107.44,66.25,170.0,0.22,1.26,0.08,2.0,0.4,0.76,0.46,0.7,0.26,0.48,-97.88,60.06,161.94,0.32,2.68,0.04,2.48,0.38,0.55,0.5,0.7,0.22,0.46,-149.56,5.44,2.37,0.24,0.07,0.54,0.85,0.25,4.02,-0.04,0.03,-0.96,0.26,-122.69,6.25,5.44,0.15,0.16,0.34,0.11,0.23,2.99,-0.03,0.07,-0.87,0.48
0.38,-106.87,64.87,170.38,0.37,1.38,0.09,3.33,0.32,0.97,0.46,0.7,0.26,0.47,-97.81,57.0,163.25,0.34,2.78,0.09,1.49,0.13,0.64,0.52,0.7,0.21,0.44,-149.0,5.44,2.22,0.19,0.06,0.47,0.74,0.34,3.84,-0.04,0.03,-0.96,0.27,-122.31,6.44,5.25,0.18,0.18,0.27,0.24,0.38,2.55,-0.03,0.07,-0.87,0.48
0.39,-106.06,63.31,170.69,0.44,1.76,0.13,2.89,0.53,0.34,0.48,0.7,0.26,0.46,-97.56,54.0,164.19,0.22,2.78,0.11,1.78,0.38,0.06,0.53,0.7,0.2,0.42,-148.44,5.44,2.06,0.14,0.06,0.4,0.63,0.44,3.67,-0.04,0.03,-0.96,0.27,-122.06,6.69,5.0,0.18,0.19,0.24,0.25,0.32,1.89,-0.03,0.07,-0.87,0.49
0.4,-105.31,61.31,171.25,0.12,2.07,0.21,0.55,0.63,0.09,0.49,0.71,0.26,0.44,-97.06,50.94,164.94,0.16,2.86,0.05,1.35,0.19,0.86,0.55,0.71,0.19,0.4,-147.94,5.56,1.94,0.17,0.04,0.46,0.51,0.19,4.25,-0.04,0.03,-0.96,0.28,-122.0,6.94,4.81,0.16,0.19,0.22,0.27,0.45,0.56,-0.03,0.07,-0.87,0.49
0.41,-105.12,59.06,172.19,0.18,1.98,0.15,1.75,0.06,0.3,0.5,0.71,0.25,0.43,-96.44,47.81,165.69,0.06,2.83,0.1,1.22,0.52,0.18,0.57,0.71,0.18,0.38,-147.5,5.5,1.81,0.15,0.15,0.41,0.59,0.27,4.26,-0.04,0.03,-0.96,0.28,-121.75,7.19,4.56,0.18,0.23,0.27,0.56,0.22,0.63,-0.04,0.07,-0.87,0.49
0.42,-105.37,56.94,173.06,0.24,1.84,0.08,0.26,0.46,0.5,0.51,0.72,0.25,0.41,-95.62,44.69,166.44,0.01,2.89,0.19,0.46,0.6,0.43,0.58,0.71,0.17,0.35,-146.94,5.44,1.75,0.12,0.1,0.47,0.11,0.77,3.42,-0.04,0.03,-0.96,0.28,-121.56,7.44,4.31,0.17,0.26,0.16,0.89,0.44,0.38,-0.04,0.06,-0.87,0.49
0.43,-105.87,55.25,173.75,0.33,1.52,0.06,1.21,0.58,0.94,0.51,0.72,0.24,0.4,-95.62,41.56,167.19,0.39,2.8,0.04,0.03,0.32,2.36,0.59,0.71,0.16,0.33,-146.56,5.25,1.75,0.01,0.13,0.36,0.02,0.86,3.21,-0.04,0.03,-0.96,0.29,-121.56,7.81,4.25,0.07,0.31,0.02,0.5,0.32,0.03,-0.04,0.07,-0.87,0.49
0.44,-106.19,53.5,174.5,0.01,1.68,0.16,1.5,0.11,0.31,0.52,0.73,0.24,0.39,-95.62,38.44,167.88,0.3,2.89,0.06,0.75,0.19,1.6,0.6,0.72,0.15,0.31,-145.94,5.06,1.87,0.09,0.21,0.59,0.17,0.6,2.66,-0.04,0.03,-0.95,0.29,-121.56,8.13,4.37,0.13,0.31,0.04,0.37,0.4,0.79,-0.04,0.07,-0.87,0.49
0.45,-105.94,51.69,174.81,0.13,1.68,0.12,3.06,0.37,0.18,0.53,0.73,0.23,0.37,-95.49,35.44,168.25,0.05,2.61,0.04,1.0,0.28,0.82,0.61,0.72,0.13,0.29,-145.31,4.75,2.0,0.07,0.22,0.58,0.12,0.39,2.26,-0.03,0.03,-0.95,0.3,-121.37,8.56,4.5,0.15,0.37,0.2,0.81,0.52,1.6,-0.05,0.07,-0.87,0.49
0.46,-105.22,49.94,174.75,0.17,1.52,0.07,2.9,0.25,1.67,0.53,0.73,0.22,0.36,-95.31,33.0,168.5,0.06,2.11,0.09,0.18,0.42,2.63,0.62,0.72,0.12,0.27,-144.81,4.44,2.25,0.2,0.23,0.4,0.42,0.18,1.23,-0.03,0.03,-0.95,0.3,-121.06,9.06,4.69,0.24,0.51,0.35,0.9,0.32,1.76,-0.05,0.07,-0.87,0.49
0.47,-104.5,48.19,174.69,0.21,1.35,0.02,2.73,0.13,3.17,0.54,0.73,0.22,0.35,-95.12,30.88,168.69,0.08,1.9,0.09,0.57,0.16,2.66,0.63,0.73,0.11,0.26,-144.25,4.06,2.56,0.25,0.31,0.47,1.19,0.24,0.05,-0.03,0.03,-0.95,0.31,-120.69,9.69,4.87,0.3,0.53,0.31,0.69,0.13,2.52,-0.05,0.08,-0.86,0.5
0.48,-103.31,46.69,174.56,0.41,1.43,0.08,0.68,0.1,2.52,0.55,0.73,0.21,0.34,-94.75,28.44,168.82,0.09,2.33,0.11,0.13,0.82,0.31,0.64,0.73,0.1,0.24,-143.69,3.69,3.0,0.41,0.3,0.55,1.1,0.22,0.26,-0.02,0.03,-0.95,0.31,-120.28,10.38,5.24,0.35,0.58,0.35,1.02,0.18,3.09,-0.06,0.08,-0.86,0.5
0.49,-103.31,44.56,174.62,0.08,2.02,0.04,2.3,0.16,0.2,0.56,0.74,0.2,0.32,-94.62,25.81,169.06,0.17,2.34,0.04,1.52,0.96,0.49,0.64,0.73,0.08,0.23,-143.0,3.37,3.31,0.28,0.3,0.57,0.54,0.86,0.02,-0.02,0.04,-0.95,0.32,-119.87,11.06,5.62,0.4,0.64,0.39,1.36,0.22,3.66,-0.06,0.09,-0.86,0.5
0.5,-103.43,42.31,175.19,0.4,2.01,0.06,1.76,0.12,0.03,0.57,0.74,0.19,0.31,-94.62,23.75,169.5,0.28,1.71,0.06,1.42,1.47,2.29,0.65,0.73,0.07,0.21,-142.5,2.94,3.75,0.4,0.36,0.54,1.22,0.21,0.46,-0.01,0.04,-0.95,0.32,-119.44,11.81,6.06,0.43,0.63,0.39,1.02,0.64,4.0,-0.06,0.1,-0.86,0.51
0.51,-103.43,40.38,175.5,0.01,1.68,0.03,0.59,0.06,0.37,0.57,0.74,0.18,0.29,-94.75,22.19,169.69,0.16,1.38,0.13,0.84,0.14,3.32,0.65,0.73,0.06,0.2,-141.69,2.56,4.25,0.42,0.29,0.63,1.27,0.24,0.84,-0.01,0.04,-0.94,0.33,-119.28,12.47,6.53,0.38,0.52,0.24,1.2,0.66,3.38,-0.06,0.1,-0.85,0.51
0.52,-103.12,38.94,175.31,0.39,1.14,0.1,0.82,0.97,1.02,0.57,0.75,0.18,0.28,-94.75,21.37,169.75,0.18,1.5,0.09,1.39,1.21,0.41,0.65,0.73,0.06,0.2,-140.94,2.12,4.69,0.29,0.35,0.69,1.27,0.72,1.58,-0.0,0.04,-0.94,0.33,-119.13,13.13,7.0,0.34,0.41,0.08,1.37,0.68,2.75,-0.07,0.11,-0.85,0.51
0.53,-103.18,37.56,175.0,0.35,1.38,0.01,1.51,1.09,0.75,0.58,0.75,0.17,0.28,-94.81,19.69,169.82,0.19,1.42,0.1,1.96,0.03,0.65,0.65,0.73,0.05,0.18,-140.19,1.62,5.19,0.39,0.5,0.73,1.33,0.8,1.92,0.0,0.05,-0.94,0.34,-118.94,13.56,7.31,0.21,0.23,0.36,1.3,0.72,3.71,-0.07,0.11,-0.85,0.51
0.54,-103.18,36.63,174.94,0.13,1.98,0.14,2.99,0.32,0.27,0.58,0.75,0.16,0.27,-94.87,18.25,170.0,0.22,0.98,0.02,2.11,0.16,1.79,0.66,0.73,0.04,0.17,-139.31,1.0,5.69,0.39,0.45,0.65,1.73,0.94,2.31,0.01,0.05,-0.94,0.35,-118.5,13.81,7.44,0.18,0.18,0.41,1.01,1.59,4.22,-0.07,0.12,-0.85,0.51
0.55,-103.37,34.44,175.19,0.21,1.64,0.12,2.93,0.86,0.15,0.58,0.76,0.15,0.26,-94.81,17.25,170.31,0.26,0.89,0.1,1.45,0.46,2.88,0.66,0.73,0.04,0.17,-138.69,0.44,6.25,0.42,0.39,0.59,1.37,0.28,3.51,0.02,0.05,-0.93,0.35,-118.25,14.0,7.56,0.11,0.01,0.01,1.03,1.07,3.79,-0.07,0.12,-0.85,0.52
0.56,-103.75,32.81,175.38,0.21,0.91,0.02,1.74,1.38,0.89,0.58,0.76,0.14,0.25,-94.62,16.19,170.69,0.17,1.0,0.19,0.88,0.2,3.29,0.66,0.73,0.04,0.16,-137.88,0.44,6.81,0.58,0.33,0.65,1.25,0.36,3.75,0.02,0.06,-0.93,0.36,-118.25,13.94,7.69,0.09,0.13,0.13,0.48,1.54,3.62,-0.07,0.12,-0.85,0.52
0.57,-103.68,31.87,175.75,0.33,0.86,0.17,0.66,0.22,1.54,0.59,0.76,0.14,0.24,-94.43,15.13,170.94,0.25,0.93,0.08,1.22,0.67,2.32,0.66,0.73,0.03,0.15,-137.44,0.44,7.25,0.34,0.35,0.39,1.27,0.35,3.43,0.02,0.06,-0.93,0.36,-118.44,13.75,7.81,0.09,0.17,0.22,0.44,0.05,2.99,-0.07,0.12,-0.85,0.51
0.58,-103.75,30.72,176.1,0.18,0.92,0.14,1.54,0.59,1.47,0.59,0.76,0.14,0.23,-94.37,14.19,171.19,0.19,0.76,0.04,1.4,0.13,2.24,0.67,0.73,0.03,0.14,-136.94,0.75,7.78,0.41,0.29,0.38,0.84,0.36,3.43,0.02,0.07,-0.93,0.37,-118.75,13.5,8.06,0.18,0.1,0.14,0.14,0.05,2.86,-0.07,0.12,-0.85,0.51
0.59,-103.81,29.56,176.44,0.04,0.98,0.11,2.41,0.96,1.4,0.59,0.77,0.13,0.22,-94.31,13.56,171.31,0.02,0.51,0.03,1.38,0.44,1.62,0.67,0.73,0.02,0.14,-136.44,1.06,8.31,0.48,0.23,0.36,0.41,0.36,3.43,0.02,0.07,-0.93,0.37,-118.75,13.38,8.25,0.1,0.01,0.07,0.24,0.88,2.33,-0.06,0.12,-0.85,0.51
0.6,-103.93,28.5,176.44,0.08,0.83,0.16,2.06,0.56,1.33,0.59,0.77,0.13,0.21,-94.24,13.13,171.38,0.08,0.35,0.08,0.53,0.49,2.75,0.67,0.73,0.02,0.13,-136.12,1.44,8.81,0.4,0.26,0.22,0.66,0.31,3.98,0.02,0.08,-0.92,0.37,-118.37,13.56,8.06,0.09,0.08,0.32,1.0,0.6,2.22,-0.07,0.12,-0.85,0.51
0.61,-104.56,27.62,176.44,0.01,0.62,0.17,1.79,0.17,0.92,0.59,0.77,0.12,0.21,-94.18,12.88,171.63,0.25,0.23,0.14,0.2,0.68,2.99,0.67,0.73,0.02,0.13,-136.0,1.62,9.31,0.41,0.16,0.1,0.57,1.07,4.03,0.02,0.08,-0.92,0.37,-118.06,13.69,7.87,0.07,0.18,0.3,0.04,0.04,1.55,-0.07,0.12,-0.85,0.52
0.62,-104.68,27.0,176.44,0.01,0.28,0.06,0.76,0.43,0.32,0.59,0.77,0.12,0.2,-93.99,12.69,171.94,0.19,0.15,0.14,0.15,0.35,2.45,0.67,0.73,0.02,0.13,-135.94,1.62,9.5,0.28,0.15,0.06,0.32,1.03,3.76,0.02,0.08,-0.92,0.37,-117.75,13.94,7.81,0.13,0.19,0.25,0.59,1.45,3.27,-0.07,0.12,-0.84,0.52
0.63,-104.87,26.69,176.5,0.01,0.45,0.15,1.18,0.65,0.67,0.59,0.78,0.12,0.2,-93.93,12.56,172.06,0.05,0.12,0.1,0.27,0.58,1.66,0.67,0.73,0.02,0.13,-136.06,1.81,9.81,0.16,0.17,0.13,0.53,1.05,3.26,0.02,0.09,-0.92,0.37,-117.69,14.06,7.87,0.19,0.06,0.43,0.74,2.0,4.04,-0.07,0.12,-0.84,0.52
0.64,-104.75,26.19,176.56,0.06,0.54,0.06,1.72,0.51,2.01,0.59,0.78,0.12,0.2,-93.81,12.44,172.06,0.04,0.06,0.07,0.99,0.82,0.79,0.67,0.73,0.02,0.13,-136.06,1.94,10.0,0.08,0.08,0.2,0.61,1.18,2.96,0.02,0.09,-0.92,0.37,-118.44,14.06,8.31,0.19,0.12,0.89,0.36,0.7,2.77,-0.07,0.12,-0.85,0.51
0.65,-104.68,25.62,176.69,0.09,0.49,0.02,2.06,0.88,2.08,0.59,0.78,0.11,0.19,-93.81,12.5,172.25,0.17,0.11,0.01,1.05,0.06,0.6,0.67,0.73,0.03,0.13,-136.25,2.0,10.19,0.2,0.05,0.02,0.41,0.96,2.33,0.02,0.09,-0.92,0.37,-120.0,14.0,8.94,0.2,0.13,1.55,0.15,3.29,4.59,-0.07,0.13,-0.85,0.5
0.66,-104.99,25.19,176.81,0.11,0.16,0.03,1.65,0.12,1.6,0.59,0.78,0.11,0.19,-93.87,12.81,172.38,0.08,0.29,0.03,0.66,0.99,1.85,0.67,0.73,0.03,0.13,-136.19,2.0,10.38,0.14,0.1,0.03,0.02,0.73,2.08,0.02,0.09,-0.92,0.37,-121.13,14.06,9.5,0.44,0.45,0.06,1.14,0.29,6.11,-0.07,0.13,-0.86,0.49
0.67,-105.06,25.06,176.94,0.05,0.04,0.03,0.92,0.78,0.09,0.59,0.78,0.11,0.19,-93.87,13.19,172.25,0.15,0.36,0.04,0.36,0.74,3.56,0.67,0.73,0.03,0.13,-136.25,2.06,10.31,0.01,0.09,0.1,1.1,0.01,2.16,0.02,0.09,-0.92,0.37,-121.06,14.63,10.13,0.58,0.63,0.16,1.34,1.02,6.13,-0.07,0.14,-0.85,0.5
0.68,-105.49,25.12,176.94,0.24,0.24,0.01,0.31,0.27,0.22,0.59,0.78,0.11,0.19,-93.81,13.38,172.19,0.14,0.3,0.1,0.16,0.46,3.2,0.67,0.73,0.03,0.13,-136.25,2.37,10.19,0.03,0.21,0.32,0.2,1.32,2.25,0.01,0.09,-0.92,0.37,-121.25,15.5,11.0,0.74,0.88,0.39,1.76,1.08,4.86,-0.07,0.15,-0.85,0.5
0.69,-105.43,25.44,176.69,0.02,0.13,0.08,0.75,0.72,0.41,0.59,0.78,0.11,0.19,-93.68,13.69,172.06,0.13,0.22,0.07,0.5,0.95,2.22,0.67,0.73,0.03,0.13,-136.75,2.56,10.19,0.01,0.27,0.67,0.9,0.08,3.41,0.01,0.09,-0.92,0.37,-122.13,16.31,12.13,0.68,0.9,0.88,1.91,0.67,4.6,-0.07,0.16,-0.85,0.49
0.7,-105.37,25.5,176.75,0.14,0.02,0.06,1.65,1.11,2.5,0.59,0.78,0.11,0.19,-93.62,13.94,172.0,0.06,0.21,0.05,0.99,0.19,2.52,0.67,0.73,0.03,0.14,-137.5,2.5,10.25,0.1,0.19,0.82,1.06,0.88,3.07,0.01,0.09,-0.93,0.36,-122.72,17.06,12.88,0.54,0.82,0.6,1.14,0.35,4.31,-0.08,0.17,-0.85,0.49
0.71,-105.75,25.25,176.94,0.14,0.24,0.11,2.31,0.46,2.14,0.58,0.78,0.11,0.19,-93.62,14.19,172.06,0.15,0.4,0.03,1.57,0.38,3.64,0.67,0.73,0.03,0.14,-138.5,2.62,10.44,0.17,0.36,0.98,0.19,1.17,3.39,0.01,0.09,-0.93,0.35,-123.31,17.81,13.62,0.4,0.73,0.31,0.36,0.03,4.03,-0.08,0.18,-0.85,0.48
0.72,-105.81,25.31,176.69,0.44,0.44,0.06,2.1,0.06,1.67,0.58,0.78,0.11,0.19,-93.68,14.69,172.19,0.09,0.63,0.05,1.54,0.07,3.83,0.67,0.73,0.04,0.14,-139.81,2.75,10.56,0.06,0.07,0.78,1.26,0.43,4.79,0.01,0.09,-0.93,0.34,-124.0,18.44,14.19,0.3,0.59,0.31,0.35,0.72,3.86,-0.08,0.18,-0.86,0.48
0.73,-105.93,25.81,176.19,0.36,0.5,0.01,1.7,0.48,2.32,0.58,0.78,0.11,0.2,-93.62,15.44,172.25,0.02,0.73,0.09,0.89,0.08,3.05,0.67,0.73,0.04,0.14,-140.69,2.75,10.69,0.29,0.1,0.62,0.7,0.54,5.03,0.01,0.1,-0.94,0.34,-124.31,18.94,14.63,0.26,0.54,0.2,0.75,0.97,3.59,-0.09,0.19,-0.86,0.48
0.74,-105.99,26.31,176.19,0.31,0.34,0.01,1.8,0.8,1.4,0.58,0.78,0.11,0.2,-93.49,16.44,172.19,0.13,0.9,0.08,0.74,0.09,2.24,0.67,0.73,0.05,0.15,-141.31,2.75,10.5,0.09,0.11,0.64,0.04,0.47,5.14,0.01,0.09,-0.94,0.33,-124.5,19.5,15.06,0.33,0.56,0.18,0.59,0.73,3.5,-0.09,0.19,-0.85,0.47
0.75,-106.06,26.75,176.5,0.25,0.35,0.05,1.89,0.73,0.81,0.58,0.78,0.12,0.2,-93.43,17.44,172.06,0.15,0.9,0.03,1.3,0.64,2.2,0.67,0.73,0.05,0.16,-142.19,2.87,10.19,0.36,0.19,0.77,0.87,0.31,4.88,0.01,0.09,-0.94,0.32,-125.06,20.06,15.63,0.34,0.64,0.29,0.48,0.01,3.28,-0.09,0.2,-0.85,0.47
0.76,-106.31,27.31,176.37,0.22,0.6,0.04,2.25,0.46,2.06,0.58,0.78,0.12,0.21,-93.37,18.44,171.88,0.18,0.93,0.04,1.47,0.83,2.33,0.67,0.72,0.06,0.16,-143.0,2.87,9.88,0.27,0.18,0.72,1.11,0.29,4.48,0.0,0.09,-0.94,0.32,-125.56,20.75,16.19,0.31,0.82,0.42,0.67,0.01,3.4,-0.1,0.2,-0.85,0.47
0.77,-106.31,28.06,176.12,0.03,0.73,0.07,2.28,0.5,1.91,0.57,0.78,0.12,0.21,-93.24,19.62,171.63,0.3,1.24,0.15,1.47,0.57,1.78,0.67,0.72,0.06,0.17,-143.87,3.0,9.75,0.18,0.23,0.73,0.69,0.39,4.55,0.0,0.09,-0.95,0.31,-126.25,21.62,16.94,0.4,0.98,0.6,0.73,0.17,3.29,-0.1,0.21,-0.85,0.46
0.78,-106.43,28.87,176.19,0.13,0.85,0.06,1.81,0.22,0.04,0.57,0.78,0.12,0.22,-93.06,21.06,171.31,0.31,1.34,0.2,1.39,0.32,0.91,0.66,0.72,0.07,0.18,-144.69,3.19,9.44,0.3,0.05,0.55,0.1,0.91,3.84,-0.0,0.09,-0.95,0.3,-127.0,22.56,17.94,0.57,1.12,0.65,0.33,0.38,2.61,-0.1,0.22,-0.85,0.46
0.79,-106.43,29.87,176.19,0.15,1.04,0.04,1.94,0.21,0.18,0.57,0.78,0.13,0.23,-92.81,22.62,171.13,0.18,1.4,0.2,1.39,0.09,2.27,0.66,0.72,0.08,0.19,-145.12,3.19,9.13,0.38,0.12,0.6,0.2,0.63,3.62,-0.0,0.08,-0.95,0.3,-127.81,23.56,19.19,0.71,1.22,0.63,0.72,0.26,2.46,-0.11,0.24,-0.85,0.46
0.8,-106.37,31.06,176.0,0.2,1.07,0.03,1.97,0.05,0.78,0.57,0.78,0.13,0.23,-92.62,24.37,170.88,0.37,1.72,0.16,0.93,0.05,1.84,0.66,0.72,0.09,0.21,-145.5,3.19,8.81,0.26,0.04,0.27,0.31,0.02,3.35,-0.0,0.08,-0.95,0.3,-128.06,24.84,20.34,0.74,1.27,0.34,0.8,0.2,2.23,-0.11,0.25,-0.85,0.46
0.81,-106.75,32.25,175.75,0.14,1.18,0.08,1.9,0.4,0.2,0.56,0.78,0.14,0.24,-92.37,26.31,170.44,0.39,1.81,0.17,1.03,0.08,0.75,0.66,0.71,0.1,0.22,-145.94,3.19,8.56,0.31,0.03,0.33,0.64,0.45,3.06,-0.0,0.08,-0.95,0.29,-128.31,26.12,21.5,0.76,1.32,0.05,0.88,0.13,2.0,-0.12,0.26,-0.84,0.46
0.82,-106.87,33.56,175.44,0.35,1.31,0.04,1.65,0.43,0.82,0.56,0.78,0.14,0.25,-92.18,28.38,170.06,0.42,1.84,0.12,1.37,0.17,1.28,0.65,0.71,0.11,0.23,-146.19,3.31,8.25,0.36,0.13,0.41,0.83,0.33,2.52,-0.01,0.08,-0.95,0.29,-128.44,27.5,22.75,0.89,1.35,0.04,0.71,0.03,1.81,-0.13,0.27,-0.84,0.46
0.83,-107.06,35.0,174.87,0.48,1.35,0.01,1.68,0.15,0.04,0.56,0.77,0.14,0.27,-91.99,30.5,169.5,0.47,1.95,0.12,0.98,0.35,1.07,0.65,0.71,0.12,0.25,-146.81,3.25,8.0,0.31,0.07,0.58,0.66,2.38,2.57,-0.01,0.07,-0.96,0.29,-128.38,28.87,24.19,1.06,1.36,0.1,0.3,0.52,1.27,-0.13,0.29,-0.83,0.46
0.84,-106.87,36.5,174.31,0.29,1.39,0.01,2.17,0.31,0.67,0.55,0.77,0.15,0.28,-91.75,32.94,168.88,0.56,2.26,0.21,0.46,0.09,0.54,0.64,0.7,0.13,0.27,-147.81,3.19,7.75,0.28,0.16,1.02,0.68,2.41,2.34,-0.01,0.07,-0.96,0.28,-128.19,30.44,25.69,1.07,1.53,0.19,0.56,1.15,0.73,-0.14,0.3,-0.82,0.46
0.85,-106.99,38.19,173.96,0.21,1.49,0.02,1.84,0.36,1.15,0.55,0.77,0.15,0.29,-91.31,35.69,168.38,0.49,2.49,0.31,0.51,0.43,0.33,0.64,0.7,0.14,0.29,-149.12,3.25,7.37,0.38,0.18,1.12,0.14,1.38,1.68,-0.01,0.07,-0.96,0.27,-128.0,32.25,27.44,1.27,1.74,0.17,0.22,1.34,0.15,-0.14,0.32,-0.81,0.47
0.86,-107.12,39.88,173.62,0.13,1.59,0.02,1.5,0.41,1.63,0.54,0.77,0.16,0.31,-90.99,38.5,167.94,0.38,2.57,0.32,0.39,0.46,0.12,0.63,0.69,0.16,0.3,-150.5,3.44,6.94,0.42,0.32,1.2,0.19,1.11,1.75,-0.01,0.07,-0.96,0.26,-127.81,34.13,29.5,1.45,1.9,0.14,0.12,0.55,0.94,-0.15,0.34,-0.8,0.47
0.87,-107.06,41.81,173.19,0.3,1.82,0.06,0.97,0.29,0.87,0.54,0.76,0.17,0.32,-90.62,41.37,167.57,0.32,2.55,0.29,0.08,0.71,0.29,0.63,0.69,0.17,0.32,-151.12,3.56,6.75,0.36,0.33,1.19,0.06,0.2,2.16,-0.02,0.06,-0.97,0.25,-127.62,36.13,31.87,1.49,2.06,0.14,0.19,0.53,1.71,-0.15,0.37,-0.78,0.48
0.88,-107.06,44.0,172.5,0.31,1.96,0.1,0.66,0.32,1.34,0.53,0.76,0.17,0.34,-90.43,44.25,167.19,0.29,2.6,0.2,0.28,0.64,0.01,0.62,0.68,0.19,0.34,-152.38,3.75,6.44,0.4,0.42,0.83,0.12,0.71,1.4,-0.02,0.06,-0.97,0.24,-127.56,37.13,33.19,1.56,2.17,0.12,0.03,0.97,2.42,-0.15,0.38,-0.77,0.48
0.89,-99.31,46.19,171.81,0.32,2.11,0.15,0.34,0.36,1.8,0.57,0.72,0.2,0.34,-90.43,47.25,166.69,0.31,2.73,0.21,0.81,0.04,0.22,0.61,0.68,0.21,0.36,-153.25,4.12,6.0,0.34,0.46,0.43,0.18,0.85,0.3,-0.02,0.06,-0.97,0.23,-127.62,39.13,36.06,1.68,2.25,0.11,0.11,2.62,2.21,-0.16,0.4,-0.76,0.49
0.9,-99.43,48.56,171.25,0.32,2.14,0.19,0.38,0.66,1.87,0.56,0.71,0.21,0.36,-90.87,50.25,166.13,0.24,2.74,0.2,1.37,0.09,1.02,0.59,0.68,0.22,0.38,-153.69,4.62,5.69,0.1,0.51,0.23,0.66,0.89,0.38,-0.03,0.06,-0.97,0.23,-127.69,41.06,39.25,1.81,2.25,0.1,0.39,2.11,3.34,-0.16,0.43,-0.74,0.49
0.91,-99.37,50.75,170.69,0.36,1.9,0.16,0.66,0.59,1.52,0.56,0.71,0.22,0.37,-91.31,53.31,165.57,0.21,2.71,0.16,1.8,0.38,0.33,0.58,0.67,0.23,0.4,-153.94,5.19,5.62,0.07,0.52,0.01,0.8,0.1,0.42,-0.03,0.06,-0.97,0.23,-127.0,43.31,42.56,1.99,2.31,0.58,0.63,1.12,3.05,-0.16,0.46,-0.72,0.51
0.92,-99.18,52.75,170.06,0.4,1.99,0.15,1.0,0.32,1.12,0.55,0.7,0.23,0.39,-91.81,56.19,165.0,0.09,2.59,0.15,1.57,0.12,0.77,0.56,0.67,0.24,0.42,-154.06,5.81,5.75,0.04,0.64,0.15,0.76,0.28,1.33,-0.04,0.06,-0.97,0.23,-126.19,45.63,46.13,1.99,2.37,0.51,0.67,0.65,1.76,-0.15,0.48,-0.69,0.52
0.93,-98.93,55.0,169.25,0.4,2.06,0.16,0.43,0.26,1.17,0.54,0.7,0.24,0.4,-92.5,59.19,164.44,0.05,2.78,0.2,2.01,0.25,0.15,0.55,0.67,0.25,0.43,-154.31,6.5,6.12,0.47,0.77,0.43,0.9,0.38,1.86,-0.04,0.06,-0.97,0.22,-125.62,47.81,50.12,2.0,2.5,0.46,1.25,0.52,1.48,-0.15,0.51,-0.66,0.53
0.94,-98.87,57.31,168.37,0.36,2.13,0.12,1.06,0.12,0.88,0.53,0.69,0.24,0.42,-92.81,60.75,164.13,0.03,2.84,0.21,2.72,0.59,0.06,0.54,0.67,0.26,0.44,-154.87,7.37,6.81,0.65,0.92,0.58,0.19,0.73,2.45,-0.05,0.07,-0.97,0.22,-124.94,49.94,54.69,2.08,2.6,0.46,1.36,0.59,0.93,-0.14,0.54,-0.62,0.54
0.95,-99.18,59.81,167.56,0.18,2.31,0.19,1.42,0.17,0.96,0.52,0.69,0.25,0.44,-93.5,63.87,163.44,0.04,2.66,0.16,2.72,0.68,0.44,0.52,0.66,0.27,0.47,-155.63,8.31,7.87,0.83,0.97,0.75,0.09,1.24,2.47,-0.06,0.08,-0.97,0.21,-124.06,52.06,59.63,2.14,2.63,0.63,1.12,0.05,0.24,-0.13,0.57,-0.59,0.56
0.96,-99.71,62.25,166.9,0.2,2.08,0.15,1.1,0.43,0.67,0.5,0.69,0.26,0.46,-93.94,66.69,162.44,0.08,2.54,0.12,3.14,0.75,0.48,0.5,0.66,0.28,0.48,-156.63,9.44,9.06,0.97,1.2,0.88,0.2,1.52,2.57,-0.06,0.09,-0.97,0.21,-123.06,54.19,59.63,2.07,2.81,0.75,1.07,0.39,0.76,-0.14,0.58,-0.57,0.57
0.97,-100.24,64.69,166.25,0.22,1.84,0.1,0.77,0.68,0.38,0.49,0.68,0.26,0.47,-94.12,69.31,161.06,0.17,2.31,0.07,2.86,0.78,1.06,0.48,0.66,0.28,0.5,-157.5,10.63,10.5,1.25,1.34,0.84,0.07,2.12,2.88,-0.07,0.11,-0.97,0.2,-122.44,55.94,66.01,2.09,2.97,0.38,1.36,0.2,0.79,-0.11,0.61,-0.53,0.58
0.98,-100.24,66.62,165.06,0.22,1.77,0.02,1.55,1.08,0.29,0.48,0.68,0.27,0.49,-94.18,71.69,159.32,0.16,2.15,0.03,2.74,0.37,1.11,0.47,0.66,0.29,0.52,-158.25,11.88,12.37,1.73,1.44,0.57,0.46,2.4,3.1,-0.08,0.12,-0.97,0.2,-121.81,57.13,73.13,2.2,2.99,0.36,1.7,0.98,0.29,-0.08,0.64,-0.48,0.59
0.99,-100.3,68.44,163.44,0.12,1.69,0.02,1.82,0.73,0.38,0.46,0.68,0.27,0.5,-94.31,73.94,157.19,0.13,2.08,0.04,2.82,0.17,1.0,0.45,0.66,0.29,0.54,-158.81,13.31,14.5,1.72,1.39,0.44,0.86,2.14,3.22,-0.09,0.14,-0.97,0.2,-120.94,58.25,80.63,2.11,3.02,0.69,1.63,0.48,0.63,-0.04,0.67,-0.42,0.6
1.0,-100.37,70.25,161.81,0.03,1.61,0.02,2.09,0.37,0.46,0.45,0.68,0.26,0.52,-94.56,76.12,154.69,0.01,1.99,0.04,2.93,0.47,0.97,0.42,0.66,0.28,0.56,-159.25,14.87,16.87,1.87,1.6,0.4,0.59,1.3,2.75,-0.1,0.17,-0.96,0.2,-119.94,59.13,88.19,1.87,2.97,0.79,1.84,0.86,0.87,-0.0,0.7,-0.37,0.61
1.01,-100.74,71.81,160.44,0.21,1.36,0.01,2.94,0.12,0.24,0.43,0.68,0.26,0.53,-94.87,78.06,151.38,0.1,1.86,0.02,2.66,0.6,0.72,0.39,0.66,0.27,0.58,-159.37,16.37,19.37,2.08,1.64,0.28,0.85,0.37,2.37,-0.11,0.19,-0.96,0.2,-119.28,59.06,95.44,1.82,2.86,0.58,1.61,1.22,1.09,0.04,0.72,-0.32,0.61
1.02,-101.37,73.19,159.12,0.38,1.04,0.03,2.44,0.23,0.39,0.42,0.68,0.26,0.55,-95.12,79.81,146.75,0.08,1.77,0.08,2.21,0.63,0.46,0.36,0.67,0.25,0.6,-159.69,18.0,22.06,2.27,1.61,0.21,1.59,0.59,2.5,-0.12,0.21,-0.95,0.2,-118.62,59.0,102.69,1.77,2.75,0.38,1.38,1.57,1.31,0.08,0.74,-0.27,0.61
1.03,-102.0,74.19,158.12,0.27,0.82,0.04,1.16,0.43,0.01,0.4,0.68,0.26,0.56,-95.25,81.31,146.75,0.04,1.59,0.1,1.8,0.76,0.2,0.35,0.66,0.26,0.61,-159.87,19.5,25.0,2.33,1.67,0.32,1.19,0.52,2.06,-0.13,0.24,-0.94,0.2,-118.5,58.69,106.13,1.78,2.73,0.33,1.02,0.19,0.49,0.1,0.75,-0.25,0.6
1.04,-102.56,75.0,157.37,0.24,0.78,0.02,1.12,0.71,0.1,0.39,0.68,0.25,0.56,-95.31,82.5,139.44,0.07,1.32,0.13,1.13,0.78,0.19,0.31,0.68,0.22,0.63,-160.19,21.06,28.0,2.37,1.78,0.29,0.92,0.04,1.79,-0.13,0.26,-0.93,0.21,-117.94,57.56,112.47,1.62,2.68,0.42,1.02,0.27,0.53,0.15,0.76,-0.21,0.59
1.05,-102.99,75.81,156.37,0.23,0.8,0.02,1.24,0.83,0.4,0.38,0.68,0.25,0.57,-95.43,83.31,139.44,0.09,1.18,0.12,0.48,0.44,0.16,0.3,0.67,0.23,0.64,-160.69,22.56,31.37,2.57,1.83,0.46,1.29,0.51,1.11,-0.14,0.29,-0.92,0.21,-117.37,56.44,118.82,1.46,2.64,0.5,1.03,0.35,0.57,0.19,0.77,-0.17,0.58
1.06,-103.49,76.62,155.5,0.38,0.69,0.14,0.6,0.74,1.06,0.37,0.68,0.24,0.58,-95.56,84.0,139.31,0.08,1.2,0.11,0.85,0.22,0.84,0.3,0.67,0.23,0.64,-161.19,23.94,35.0,2.59,1.97,0.55,1.34,1.09,0.79,-0.15,0.32,-0.91,0.21,-117.5,55.12,124.26,1.38,2.41,0.38,1.27,0.45,0.42,0.22,0.78,-0.14,0.56
1.07,-104.43,77.37,155.37,0.71,0.51,0.21,0.17,0.52,0.56,0.36,0.68,0.24,0.58,-95.62,84.56,139.31,0.1,1.21,0.03,0.73,0.19,0.68,0.29,0.67,0.23,0.64,-161.88,25.31,38.75,2.61,1.96,0.66,0.75,0.39,0.26,-0.15,0.35,-0.9,0.22,-116.94,53.69,128.88,1.35,2.23,0.22,0.99,0.3,0.7,0.25,0.79,-0.12,0.55
1.08,-105.68,77.94,156.12,0.71,0.44,0.19,1.03,0.44,0.38,0.36,0.68,0.24,0.59,-95.62,84.69,139.31,0.04,1.03,0.03,0.8,0.18,0.01,0.29,0.67,0.23,0.64,-162.37,26.5,42.31,2.39,1.78,0.57,1.02,0.31,0.38,-0.16,0.38,-0.88,0.22,-116.94,52.06,132.82,1.31,2.17,0.25,1.27,0.54,1.13,0.28,0.79,-0.1,0.53
1.09,-105.9,78.34,155.74,0.54,0.38,0.11,1.08,0.78,0.26,0.35,0.68,0.24,0.59,-95.68,84.87,139.31,0.11,1.01,0.01,1.07,0.42,0.07,0.29,0.67,0.23,0.64,-162.94,27.44,45.88,2.45,1.65,0.49,0.64,1.1,0.42,-0.16,0.41,-0.87,0.22,-116.31,50.56,136.45,1.19,2.02,0.39,1.96,0.46,0.12,0.31,0.8,-0.08,0.51
1.1,-106.12,78.75,155.37,0.38,0.33,0.03,1.14,1.12,0.15,0.35,0.68,0.24,0.59,-95.68,84.75,139.31,0.11,0.93,0.04,0.52,0.51,0.27,0.29,0.67,0.23,0.64,-163.31,28.38,49.5,2.51,1.54,0.21,0.29,1.18,0.64,-0.16,0.43,-0.86,0.23,-115.56,49.06,139.69,1.11,1.9,0.41,1.91,0.41,0.2,0.33,0.8,-0.06,0.5
1.11,-105.31,79.0,154.5,0.56,0.17,0.05,0.59,0.84,0.27,0.34,0.68,0.24,0.6,-95.56,84.31,139.44,0.06,0.92,0.18,0.52,0.5,0.22,0.3,0.67,0.23,0.64,-163.25,29.44,53.13,2.6,1.64,0.06,0.18,1.07,0.06,-0.16,0.46,-0.84,0.24,-115.56,47.75,142.57,0.92,1.74,0.56,2.18,1.44,0.1,0.35,0.8,-0.04,0.48
1.12,-104.87,79.06,154.31,0.11,0.03,0.1,0.21,0.56,0.16,0.35,0.68,0.24,0.6,-95.37,83.69,139.62,0.07,0.88,0.18,0.62,0.52,0.14,0.3,0.67,0.23,0.64,-163.19,30.56,56.81,2.62,1.64,0.15,0.36,0.48,0.4,-0.16,0.49,-0.82,0.25,-115.0,46.5,144.88,0.74,1.52,0.38,2.25,1.39,0.81,0.37,0.8,-0.03,0.47
1.13,-104.74,79.12,154.87,0.03,0.02,0.12,0.36,0.73,0.34,0.35,0.68,0.25,0.59,-95.06,83.1,139.62,0.17,0.74,0.15,0.56,0.3,0.22,0.31,0.67,0.23,0.63,-163.06,31.81,60.63,2.49,1.91,0.25,0.37,0.26,0.27,-0.16,0.51,-0.8,0.26,-115.62,45.25,146.44,0.52,1.3,0.2,2.15,1.09,1.12,0.38,0.81,-0.03,0.45
1.14,-104.74,79.19,155.37,0.12,0.02,0.09,0.18,0.79,0.25,0.35,0.68,0.25,0.59,-94.75,82.5,161.71,0.27,0.59,0.12,0.51,0.08,0.29,0.43,0.62,0.35,0.56,-162.75,33.0,64.37,2.41,1.79,0.26,0.66,0.05,0.17,-0.16,0.54,-0.78,0.27,-115.56,44.31,147.82,0.36,1.1,0.38,2.24,0.28,1.2,0.39,0.81,-0.02,0.44
1.15,-104.49,79.19,155.25,0.24,0.02,0.02,0.8,0.44,0.26,0.35,0.68,0.25,0.59,-94.5,82.06,158.9,0.17,0.49,0.09,0.7,0.39,0.39,0.42,0.63,0.34,0.57,-162.62,34.06,68.0,2.26,1.64,0.31,0.27,0.46,0.14,-0.16,0.57,-0.76,0.28,-115.44,43.5,149.07,0.34,1.0,0.37,2.34,0.45,1.37,0.39,0.81,-0.02,0.43
1.16,-104.06,79.19,155.25,0.2,0.06,0.04,0.72,0.24,0.44,0.36,0.68,0.25,0.59,-94.38,81.75,157.65,0.12,0.3,0.09,0.71,0.46,0.36,0.41,0.63,0.33,0.57,-162.09,35.1,71.75,2.34,1.58,0.45,0.6,0.58,0.11,-0.15,0.59,-0.74,0.29,-116.0,42.69,150.07,0.35,0.86,0.21,2.87,0.87,1.34,0.4,0.81,-0.02,0.43
1.17,-103.99,79.06,155.87,0.08,0.18,0.08,0.58,0.69,0.16,0.36,0.68,0.26,0.59,-94.25,81.44,156.4,0.06,0.12,0.09,0.72,0.53,0.32,0.41,0.63,0.32,0.57,-161.56,36.13,75.5,2.43,1.51,0.59,0.92,0.7,0.07,-0.15,0.61,-0.71,0.31,-115.75,42.19,150.94,0.16,0.58,0.48,2.89,1.3,0.84,0.4,0.81,-0.01,0.42
1.18,-103.74,78.87,157.06,0.01,0.28,0.13,0.56,0.71,0.16,0.37,0.67,0.26,0.58,-94.12,81.31,156.46,0.06,0.03,0.09,0.78,0.67,0.42,0.41,0.63,0.32,0.57,-160.63,37.25,79.31,2.37,1.6,0.59,0.65,0.35,0.13,-0.14,0.64,-0.68,0.32,-116.37,42.06,151.57,0.07,0.35,0.51,2.53,1.22,0.48,0.4,0.82,-0.01,0.42
1.19,-103.81,78.5,158.44,0.05,0.4,0.12,0.45,0.52,0.32,0.38,0.67,0.27,0.58,-94.0,81.25,157.15,0.05,0.05,0.08,0.66,0.77,0.16,0.41,0.63,0.33,0.57,-159.84,38.34,83.06,2.24,1.56,0.68,0.93,0.69,0.11,-0.13,0.66,-0.66,0.34,-116.44,42.0,151.88,0.12,0.19,0.35,2.46,0.21,0.99,0.4,0.82,-0.01,0.41
1.2,-103.68,78.16,159.75,0.06,0.4,0.13,0.4,0.54,0.62,0.39,0.67,0.28,0.57,-94.0,81.31,158.46,0.1,0.2,0.05,0.56,1.29,0.48,0.42,0.63,0.33,0.56,-159.06,39.44,86.81,2.1,1.52,0.76,1.21,1.03,0.08,-0.12,0.68,-0.63,0.35,-116.25,42.1,152.13,0.07,0.17,0.43,2.52,0.72,0.8,0.4,0.81,-0.01,0.41
1.21,-103.56,77.81,161.06,0.07,0.4,0.14,0.36,0.57,0.93,0.39,0.67,0.28,0.57,-94.18,81.5,159.84,0.34,0.15,0.05,0.36,1.89,0.1,0.42,0.62,0.34,0.56,-158.37,40.0,90.56,1.87,1.52,0.4,0.66,2.03,0.38,-0.11,0.7,-0.6,0.36,-116.06,42.19,152.38,0.02,0.15,0.51,2.58,1.22,0.62,0.41,0.81,-0.0,0.41
1.22,-103.68,77.44,162.19,0.12,0.38,0.06,0.68,1.35,0.49,0.4,0.67,0.29,0.56,-94.5,81.56,160.9,0.37,0.09,0.06,0.85,1.61,0.02,0.43,0.62,0.34,0.56,-157.94,40.56,93.94,1.78,1.34,0.68,1.22,0.79,0.14,-0.1,0.72,-0.58,0.37,-115.25,42.56,152.82,0.01,0.3,0.53,2.36,1.47,0.07,0.41,0.81,0.0,0.42
1.23,-103.93,76.94,163.12,0.32,0.43,0.01,0.47,2.21,0.25,0.41,0.67,0.29,0.56,-94.75,81.63,161.46,0.18,0.06,0.06,0.77,0.76,0.7,0.43,0.62,0.35,0.56,-157.06,41.06,97.31,1.82,1.26,0.69,1.36,0.3,0.33,-0.09,0.74,-0.55,0.38,-114.53,43.16,153.17,0.13,0.34,0.55,2.32,1.58,0.25,0.42,0.81,0.01,0.42
1.24,-104.25,76.75,163.62,0.57,0.39,0.05,0.04,2.12,0.83,0.41,0.67,0.29,0.55,-95.06,81.69,161.53,0.18,0.04,0.1,0.61,0.28,0.28,0.43,0.62,0.35,0.56,-156.06,41.56,100.5,1.65,1.25,0.64,1.02,0.43,0.19,-0.07,0.75,-0.53,0.39,-113.81,43.75,153.51,0.25,0.37,0.58,2.27,1.7,0.43,0.42,0.8,0.02,0.42
1.25,-104.99,76.31,164.56,0.63,0.39,0.04,1.85,0.68,1.69,0.41,0.67,0.29,0.55,-95.25,81.81,161.15,0.08,0.02,0.12,0.09,0.33,0.72,0.42,0.62,0.34,0.56,-155.19,42.19,103.5,1.49,0.96,0.85,0.74,1.24,0.39,-0.06,0.76,-0.5,0.4,-113.44,44.38,153.63,0.24,0.44,0.44,2.57,1.48,0.31,0.42,0.8,0.03,0.42
1.26,-105.56,75.87,165.5,0.32,0.23,0.02,2.36,0.27,1.25,0.41,0.67,0.29,0.55,-95.28,82.0,161.34,0.05,0.11,0.1,0.56,0.32,0.55,0.42,0.62,0.35,0.56,-153.56,43.06,106.44,1.5,0.97,1.04,0.6,1.18,0.2,-0.04,0.78,-0.47,0.41,-113.19,45.0,153.63,0.27,0.46,0.48,2.53,1.35,0.08,0.42,0.8,0.03,0.43
1.27,-105.81,75.69,165.88,0.02,0.1,0.05,1.23,0.88,0.79,0.41,0.67,0.29,0.54,-95.31,82.19,161.53,0.02,0.19,0.09,1.02,0.31,0.39,0.42,0.62,0.35,0.56,-152.25,43.81,108.9,1.26,0.84,1.06,0.7,0.97,0.74,-0.03,0.78,-0.45,0.42,-112.94,45.69,153.63,0.41,0.42,0.47,2.44,0.91,0.72,0.42,0.8,0.03,0.43
1.28,-105.74,75.62,166.19,0.21,0.04,0.1,0.42,0.59,0.14,0.41,0.67,0.29,0.54,-95.43,82.44,162.27,0.04,0.22,0.11,1.32,0.56,0.26,0.42,0.62,0.35,0.56,-150.94,44.56,111.37,1.02,0.71,1.07,0.79,0.76,1.28,-0.02,0.79,-0.43,0.43,-113.06,46.31,153.51,0.43,0.38,0.46,2.68,1.12,0.79,0.42,0.8,0.04,0.44
1.29,-105.56,75.62,166.56,0.07,0.1,0.2,0.42,0.29,0.67,0.42,0.67,0.29,0.54,-95.43,82.75,163.34,0.15,0.33,0.15,0.99,0.65,0.67,0.43,0.61,0.36,0.56,-149.31,45.25,113.75,1.14,0.7,0.98,0.92,0.42,0.91,0.0,0.8,-0.4,0.44,-113.19,46.88,153.38,0.4,0.42,0.44,2.52,2.27,0.63,0.42,0.8,0.04,0.44
1.3,-105.74,75.5,167.56,0.2,0.14,0.27,0.53,0.64,0.92,0.42,0.67,0.3,0.54,-95.43,83.06,164.4,0.14,0.25,0.15,0.48,0.76,0.1,0.43,0.61,0.37,0.55,-147.46,46.25,116.38,0.96,0.57,0.99,1.37,1.0,0.98,0.02,0.81,-0.37,0.46,-113.44,47.5,153.07,0.42,0.44,0.18,2.1,1.76,0.65,0.41,0.8,0.04,0.44
1.31,-106.25,75.44,169.13,0.29,0.12,0.28,0.4,0.58,1.15,0.43,0.66,0.31,0.53,-95.31,83.31,164.4,0.21,0.21,0.1,0.09,1.04,1.52,0.43,0.61,0.37,0.55,-145.62,47.25,119.0,0.79,0.45,1.0,1.82,1.58,1.05,0.04,0.81,-0.34,0.47,-113.88,48.0,152.57,0.41,0.44,0.16,1.32,1.17,0.48,0.4,0.8,0.03,0.45
1.32,-106.93,75.37,170.62,0.16,0.1,0.22,0.04,0.16,2.18,0.43,0.66,0.31,0.53,-95.12,83.62,164.34,0.24,0.34,0.06,0.22,1.07,2.18,0.43,0.61,0.37,0.56,-145.44,47.56,120.0,0.81,0.43,0.84,2.38,1.29,0.8,0.04,0.82,-0.33,0.47,-114.19,48.56,152.07,0.42,0.49,0.19,1.41,1.28,0.31,0.4,0.8,0.03,0.45
1.33,-107.31,75.31,171.62,0.04,0.08,0.19,0.39,0.3,2.2,0.43,0.66,0.31,0.53,-95.0,83.81,164.27,0.07,0.33,0.01,0.79,0.19,1.49,0.43,0.61,0.37,0.56,-144.13,48.06,121.87,0.77,0.46,0.68,2.29,1.21,0.65,0.06,0.82,-0.31,0.48,-114.5,49.19,151.63,0.44,0.51,0.27,1.51,1.33,0.21,0.39,0.8,0.03,0.46
1.34,-107.31,75.31,172.19,0.17,0.01,0.14,0.69,0.44,1.87,0.43,0.66,0.32,0.52,-94.87,84.0,164.21,0.17,0.16,0.04,0.46,0.2,1.71,0.43,0.6,0.37,0.56,-142.87,48.38,123.56,0.63,0.33,0.65,1.75,2.01,0.02,0.07,0.82,-0.29,0.48,-114.56,49.94,151.38,0.38,0.54,0.41,0.54,0.95,0.11,0.39,0.8,0.03,0.47
1.35,-107.06,75.44,172.31,0.45,0.15,0.12,0.05,0.07,2.09,0.44,0.66,0.32,0.52,-94.75,84.13,164.15,0.17,0.06,0.1,0.56,0.42,1.24,0.43,0.6,0.37,0.56,-142.37,48.63,125.06,0.56,0.18,0.36,1.44,2.45,0.37,0.08,0.83,-0.28,0.48,-114.5,50.63,151.26,0.42,0.49,0.51,0.59,0.15,0.26,0.38,0.79,0.04,0.47
1.36,-106.37,75.62,172.19,0.56,0.15,0.11,0.53,0.61,2.71,0.44,0.66,0.32,0.52,-94.66,84.34,163.96,0.22,0.16,0.12,0.52,0.56,1.26,0.43,0.6,0.37,0.56,-141.44,48.81,126.19,0.49,0.27,0.21,1.14,1.84,0.48,0.09,0.83,-0.27,0.48,-115.06,51.31,151.26,0.39,0.42,0.54,0.97,0.32,0.05,0.38,0.79,0.04,0.47
1.37,-105.49,75.56,171.75,0.69,0.09,0.06,0.49,0.79,2.42,0.44,0.65,0.32,0.52,-94.56,84.56,163.77,0.27,0.26,0.14,0.48,0.71,1.28,0.43,0.6,0.38,0.56,-140.94,48.88,127.12,0.41,0.31,0.29,0.68,1.5,0.6,0.1,0.83,-0.26,0.48,-114.88,51.94,151.38,0.21,0.36,0.43,0.89,0.22,0.2,0.38,0.79,0.04,0.48
1.38,-104.62,75.31,171.44,0.62,0.32,0.06,0.29,0.53,2.22,0.45,0.65,0.33,0.52,-94.5,84.69,163.71,0.23,0.23,0.09,0.39,0.56,0.96,0.43,0.6,0.38,0.56,-140.44,48.94,128.06,0.33,0.34,0.37,0.23,1.17,0.73,0.11,0.83,-0.25,0.49,-114.62,52.31,151.44,0.11,0.22,0.25,0.53,1.16,0.23,0.38,0.79,0.04,0.48
1.39,-103.68,74.87,171.31,0.7,0.41,0.1,0.01,0.09,2.25,0.45,0.65,0.33,0.51,-94.31,84.87,163.65,0.23,0.07,0.05,0.34,0.62,1.2,0.43,0.6,0.38,0.56,-139.75,49.06,129.12,0.39,0.31,0.49,0.71,1.85,0.68,0.12,0.83,-0.24,0.49,-115.19,52.5,151.38,0.12,0.15,0.03,0.39,0.09,0.16,0.37,0.79,0.04,0.48
1.4,-102.62,74.44,171.13,0.89,0.42,0.12,0.82,0.19,2.25,0.46,0.65,0.33,0.51,-94.12,84.94,163.59,0.27,0.14,0.05,1.36,1.01,1.11,0.43,0.6,0.38,0.56,-139.5,49.44,130.12,0.12,0.17,0.77,0.77,0.65,0.54,0.12,0.83,-0.23,0.49,-115.5,52.62,151.01,0.16,0.13,0.1,0.19,0.61,0.72,0.37,0.79,0.04,0.48
1.41,-101.24,74.06,170.75,0.97,0.38,0.11,0.81,0.39,2.24,0.47,0.65,0.33,0.5,-93.75,85.0,163.59,0.26,0.25,0.05,2.2,0.24,1.14,0.43,0.6,0.38,0.56,-138.44,50.0,131.5,0.25,0.12,0.69,0.88,1.21,0.6,0.13,0.83,-0.21,0.49,-116.19,52.69,150.63,0.12,0.13,0.13,0.19,0.94,0.93,0.36,0.8,0.03,0.48
1.42,-99.93,73.69,170.25,0.87,0.31,0.05,0.8,0.88,1.98,0.47,0.64,0.33,0.5,-93.43,85.06,163.59,0.28,0.19,0.03,0.45,0.43,1.48,0.43,0.6,0.38,0.56,-137.37,50.56,132.87,0.38,0.07,0.61,0.98,1.78,0.65,0.14,0.83,-0.19,0.5,-116.31,52.88,150.32,0.1,0.19,0.02,0.01,0.72,0.96,0.36,0.8,0.03,0.49
1.43,-98.87,73.37,169.75,0.66,0.31,0.01,1.67,1.55,0.8,0.48,0.64,0.33,0.5,-93.18,85.12,163.59,0.22,0.03,0.05,0.75,0.28,0.22,0.43,0.6,0.38,0.56,-136.44,50.88,133.56,0.45,0.13,0.31,0.65,1.09,0.94,0.15,0.83,-0.18,0.5,-116.72,53.0,150.1,0.14,0.2,0.04,0.12,0.63,0.94,0.36,0.8,0.03,0.49
1.44,-98.12,73.12,169.44,0.44,0.18,0.04,1.96,2.61,0.13,0.48,0.64,0.33,0.5,-93.18,85.19,163.52,0.02,0.06,0.05,0.47,0.38,0.13,0.43,0.6,0.38,0.56,-136.25,50.88,133.69,0.41,0.08,0.19,0.37,0.62,0.64,0.15,0.83,-0.18,0.5,-117.13,53.13,149.88,0.18,0.2,0.05,0.22,0.54,0.93,0.35,0.8,0.03,0.49
1.45,-97.93,73.06,169.62,0.13,0.06,0.15,0.42,2.11,0.54,0.48,0.64,0.33,0.49,-93.12,85.31,163.46,0.02,0.45,0.02,0.92,0.55,0.39,0.43,0.6,0.38,0.56,-136.44,50.69,133.94,0.22,0.04,0.18,0.26,0.16,0.54,0.15,0.83,-0.18,0.5,-117.25,53.38,149.63,0.21,0.22,0.11,0.07,0.05,1.63,0.35,0.8,0.03,0.49
1.46,-98.12,72.81,170.69,0.11,0.32,0.29,0.46,0.36,1.09,0.49,0.64,0.34,0.49,-93.12,85.5,163.37,0.08,0.24,0.06,0.54,0.3,1.09,0.43,0.6,0.38,0.56,-136.31,50.56,134.12,0.19,0.06,0.17,0.08,0.44,0.74,0.16,0.83,-0.18,0.5,-117.66,53.66,149.41,0.2,0.22,0.18,0.19,0.16,1.59,0.34,0.8,0.02,0.49
1.47,-98.18,72.69,171.25,0.09,0.13,0.19,0.16,1.6,1.49,0.49,0.64,0.34,0.49,-93.12,85.69,163.27,0.14,0.02,0.11,0.16,0.05,1.79,0.43,0.59,0.39,0.56,-136.62,50.44,134.37,0.12,0.09,0.17,0.55,0.61,1.11,0.15,0.84,-0.18,0.49,-118.06,53.94,149.2,0.18,0.23,0.25,0.31,0.27,1.55,0.34,0.8,0.02,0.5
1.48,-98.18,72.62,171.62,0.25,0.19,0.01,0.81,1.78,0.31,0.49,0.64,0.34,0.48,-93.12,85.75,163.21,0.03,0.06,0.03,0.3,0.4,1.7,0.43,0.59,0.39,0.56,-136.34,50.44,134.46,0.15,0.13,0.16,0.32,0.35,0.99,0.16,0.84,-0.18,0.49,-117.94,54.31,149.26,0.13,0.26,0.22,0.18,0.43,1.71,0.34,0.8,0.02,0.5
1.49,-97.58,72.28,171.22,0.29,0.3,0.03,0.61,1.1,0.45,0.5,0.64,0.34,0.48,-93.02,85.78,163.24,0.04,0.17,0.02,0.2,0.37,1.78,0.43,0.59,0.39,0.56,-136.06,50.44,134.56,0.17,0.17,0.15,0.08,0.09,0.87,0.16,0.84,-0.18,0.5,-118.31,54.69,149.2,0.16,0.27,0.21,0.66,0.61,1.49,0.33,0.8,0.02,0.5
1.5,-96.99,71.94,170.81,0.33,0.41,0.05,0.41,0.41,0.59,0.5,0.64,0.34,0.48,-92.93,85.81,163.27,0.06,0.28,0.01,0.1,0.34,1.85,0.43,0.59,0.39,0.56,-136.06,50.63,134.81,0.11,0.09,0.23,0.28,0.31,1.27,0.16,0.84,-0.17,0.5,-118.25,55.12,149.13,0.2,0.3,0.34,0.47,0.81,1.84,0.33,0.8,0.03,0.5
1.51,-96.43,71.5,170.56,0.28,0.38,0.02,0.39,0.66,1.22,0.5,0.64,0.34,0.48,-92.87,85.81,163.27,0.04,0.02,0.03,0.54,0.37,1.02,0.43,0.59,0.39,0.56,-135.78,50.84,135.09,0.1,0.07,0.26,0.26,0.5,1.36,0.16,0.84,-0.17,0.5,-118.06,55.56,149.2,0.15,0.29,0.26,0.22,0.43,1.45,0.33,0.8,0.03,0.51
1.52,-96.08,71.18,170.25,0.17,0.28,0.09,0.41,0.41,0.8,0.5,0.64,0.34,0.48,-92.81,85.75,163.34,0.02,0.11,0.09,0.23,0.35,0.66,0.43,0.59,0.39,0.56,-135.5,51.06,135.37,0.09,0.05,0.29,0.23,0.7,1.46,0.16,0.83,-0.17,0.5,-118.44,55.94,148.95,0.11,0.34,0.01,0.28,0.5,1.41,0.33,0.8,0.03,0.51
1.53,-95.74,70.87,169.94,0.06,0.18,0.16,0.43,0.16,0.37,0.51,0.64,0.33,0.48,-92.75,85.56,163.34,0.07,0.27,0.13,0.33,0.73,1.07,0.43,0.59,0.39,0.56,-135.0,51.44,135.69,0.03,0.03,0.32,0.33,0.49,1.65,0.17,0.83,-0.16,0.5,-118.56,56.31,148.51,0.27,0.37,0.08,0.14,0.64,1.65,0.32,0.79,0.03,0.51
1.54,-95.43,70.62,169.5,0.08,0.17,0.16,0.05,0.82,0.77,0.51,0.64,0.33,0.48,-92.62,85.44,163.22,0.05,0.08,0.09,0.04,0.51,1.94,0.43,0.59,0.39,0.56,-134.44,51.75,136.0,0.12,0.19,0.43,0.49,0.59,1.47,0.17,0.83,-0.15,0.5,-119.31,56.88,147.63,0.27,0.37,0.07,0.03,0.4,1.48,0.31,0.8,0.02,0.52
1.55,-95.06,70.44,168.94,0.2,0.11,0.16,0.01,0.99,0.9,0.51,0.64,0.33,0.48,-92.5,85.44,163.22,0.13,0.05,0.07,0.23,0.1,1.55,0.43,0.59,0.39,0.56,-134.06,52.19,136.44,0.06,0.16,0.46,0.39,0.23,1.76,0.18,0.83,-0.15,0.51,-119.56,57.19,147.01,0.19,0.37,0.09,1.71,2.31,1.89,0.31,0.8,0.02,0.52
1.56,-94.56,70.31,168.31,0.19,0.07,0.15,0.18,0.14,0.13,0.51,0.64,0.33,0.48,-92.31,85.31,163.09,0.03,0.02,0.08,0.1,0.38,1.48,0.43,0.59,0.39,0.56,-133.44,52.56,136.81,0.04,0.27,0.19,0.41,0.21,1.52,0.18,0.83,-0.14,0.51,-119.37,57.38,147.07,0.09,0.04,0.16,1.57,1.99,2.08,0.31,0.79,0.02,0.52
1.57,-94.31,70.25,167.81,0.03,0.02,0.14,0.2,0.05,0.26,0.51,0.64,0.33,0.48,-92.18,85.22,163.0,0.03,0.05,0.08,0.22,0.24,1.61,0.43,0.59,0.39,0.56,-133.5,52.81,136.81,0.07,0.16,0.01,0.27,0.43,1.31,0.18,0.83,-0.14,0.51,-119.5,57.44,147.38,0.05,0.03,0.13,0.93,0.83,1.43,0.31,0.8,0.02,0.52
1.58,-94.31,70.12,167.56,0.12,0.09,0.13,0.01,0.12,0.17,0.51,0.64,0.32,0.48,-92.06,85.12,162.9,0.03,0.09,0.08,0.35,0.09,1.74,0.43,0.59,0.39,0.56,-132.81,53.06,137.06,0.22,0.19,0.26,0.26,0.76,1.44,0.18,0.83,-0.13,0.51,-119.62,57.44,147.07,0.04,0.14,0.17,0.79,0.37,1.65,0.31,0.8,0.02,0.52
1.59,-94.43,70.0,167.5,0.14,0.1,0.09,0.27,0.03,0.91,0.51,0.64,0.32,0.48,-91.93,85.12,162.9,0.15,0.08,0.04,0.21,0.04,0.64,0.43,0.59,0.39,0.56,-132.19,53.31,137.31,0.16,0.1,0.08,0.25,0.11,1.33,0.19,0.83,-0.13,0.51,-120.0,57.56,147.07,0.15,0.05,0.27,0.59,0.1,1.36,0.3,0.8,0.02,0.52
1.6,-94.37,69.94,167.31,0.01,0.03,0.09,0.5,0.08,0.76,0.51,0.64,0.32,0.48,-91.75,85.12,162.9,0.11,0.07,0.01,0.29,0.05,0.82,0.43,0.59,0.39,0.56,-132.44,53.38,137.25,0.12,0.08,0.14,0.31,0.36,0.76,0.19,0.83,-0.13,0.51,-120.0,57.75,147.19,0.19,0.06,0.19,0.37,0.87,1.0,0.3,0.8,0.02,0.52
1.61,-94.18,69.94,167.0,0.1,0.02,0.07,0.49,0.17,0.76,0.51,0.64,0.32,0.48,-91.75,85.06,162.9,0.06,0.11,0.01,0.11,0.25,0.74,0.44,0.59,0.39,0.56,-132.32,53.34,137.25,0.1,0.11,0.24,0.56,0.44,1.52,0.19,0.83,-0.13,0.51,-120.13,57.94,147.19,0.19,0.09,0.23,0.64,1.39,0.81,0.3,0.8,0.02,0.53
1.62,-93.99,69.87,166.69,0.06,0.01,0.06,0.19,0.34,0.19,0.51,0.64,0.32,0.48,-91.68,85.06,162.84,0.02,0.19,0.01,0.16,0.34,1.14,0.44,0.59,0.39,0.56,-132.19,53.31,137.25,0.08,0.14,0.33,0.8,0.51,2.27,0.19,0.83,-0.13,0.51,-120.19,58.31,147.69,0.19,0.11,0.5,0.75,0.75,0.97,0.3,0.79,0.02,0.53
1.63,-93.81,69.81,166.5,0.05,0.03,0.06,0.2,0.03,0.11,0.51,0.64,0.32,0.48,-91.75,85.0,162.84,0.05,0.17,0.02,0.12,0.44,1.36,0.44,0.59,0.39,0.56,-132.19,53.13,137.44,0.11,0.07,0.08,0.55,0.13,1.31,0.19,0.83,-0.13,0.51,-120.06,58.5,147.95,0.18,0.15,0.4,0.64,0.38,1.02,0.3,0.79,0.03,0.53
1.64,-93.56,69.81,166.19,0.15,0.04,0.06,0.37,0.03,0.04,0.51,0.64,0.32,0.48,-91.75,85.0,162.84,0.06,0.08,0.03,0.21,0.29,1.27,0.44,0.59,0.39,0.56,-132.19,53.13,137.37,0.02,0.05,0.07,0.24,0.35,1.0,0.19,0.83,-0.13,0.51,-119.87,58.81,148.26,0.11,0.04,0.44,0.94,0.6,0.53,0.3,0.79,0.03,0.53
1.65,-93.24,69.75,165.88,0.15,0.05,0.06,0.36,0.15,0.11,0.51,0.64,0.32,0.48,-91.68,85.0,162.84,0.06,0.04,0.04,0.12,0.05,1.14,0.44,0.59,0.39,0.56,-132.12,53.31,137.75,0.09,0.05,0.32,0.31,0.79,0.88,0.19,0.83,-0.12,0.51,-119.87,59.06,148.69,0.16,0.26,0.15,0.82,1.01,0.06,0.3,0.79,0.03,0.53
1.66,-93.12,69.62,165.75,0.01,0.12,0.07,0.24,0.23,0.12,0.51,0.64,0.32,0.48,-91.75,85.0,162.84,0.1,0.01,0.02,0.21,0.17,1.33,0.44,0.59,0.39,0.56,-131.44,53.75,138.19,0.05,0.19,0.51,0.42,0.25,0.68,0.2,0.83,-0.12,0.52,-119.81,59.44,148.57,0.11,0.18,0.53,0.7,0.13,1.84,0.3,0.79,0.04,0.53
1.67,-93.12,69.44,165.69,0.08,0.13,0.08,0.36,0.06,0.12,0.51,0.64,0.31,0.48,-91.81,84.94,162.84,0.05,0.01,0.05,0.17,0.03,1.4,0.44,0.59,0.39,0.56,-130.75,54.38,138.62,0.24,0.25,0.56,0.77,0.58,0.85,0.2,0.82,-0.11,0.52,-119.56,59.88,149.32,0.06,0.08,0.57,0.11,0.37,1.5,0.31,0.79,0.04,0.53
1.68,-93.12,69.37,165.56,0.02,0.06,0.07,0.34,0.1,0.37,0.51,0.64,0.31,0.48,-91.75,84.94,162.78,0.01,0.09,0.04,0.1,0.07,1.18,0.44,0.59,0.39,0.56,-129.94,54.88,139.06,0.13,0.23,0.34,0.48,0.1,0.83,0.21,0.82,-0.1,0.52,-119.25,60.06,149.69,0.01,0.07,0.02,0.05,0.74,1.92,0.31,0.79,0.05,0.53
1.69,-93.0,69.31,165.37,0.01,0.02,0.09,0.19,0.07,0.51,0.51,0.64,0.31,0.48,-91.75,84.94,162.78,0.01,0.13,0.01,0.44,0.05,0.97,0.44,0.59,0.39,0.56,-129.31,55.31,139.37,0.07,0.12,0.39,0.47,0.24,1.34,0.21,0.82,-0.09,0.53,-119.31,60.12,149.63,0.07,0.06,0.12,0.82,1.25,2.14,0.31,0.79,0.05,0.53
1.7,-92.87,69.25,165.06,0.03,0.01,0.11,0.04,0.06,0.49,0.51,0.64,0.31,0.48,-91.87,84.94,162.78,0.08,0.11,0.03,0.46,0.08,0.89,0.43,0.59,0.38,0.56,-129.44,55.56,139.31,0.03,0.15,0.22,0.49,0.08,0.13,0.21,0.82,-0.09,0.53,-119.87,60.06,149.2,0.08,0.05,0.22,1.64,1.01,2.28,0.3,0.79,0.04,0.53
1.71,-92.93,69.25,164.94,0.13,0.02,0.08,0.06,0.06,0.33,0.51,0.64,0.31,0.48,-91.93,85.0,162.84,0.01,0.13,0.04,0.43,0.21,0.79,0.43,0.59,0.39,0.56,-129.0,55.88,139.56,0.07,0.34,0.35,1.04,0.45,1.02,0.21,0.82,-0.09,0.53,-120.44,59.88,148.44,0.15,0.01,0.51,2.21,1.09,3.26,0.3,0.79,0.03,0.53
1.72,-93.0,69.19,164.94,0.2,0.05,0.05,0.26,0.1,0.42,0.51,0.64,0.31,0.48,-91.93,85.06,162.84,0.02,0.11,0.02,0.18,0.03,0.9,0.43,0.59,0.39,0.56,-128.72,56.22,139.81,0.1,0.2,0.3,0.72,0.41,1.36,0.21,0.82,-0.08,0.53,-121.06,59.44,147.76,0.22,0.19,0.57,2.64,1.05,3.43,0.29,0.79,0.02,0.53
1.73,-93.24,69.25,165.0,0.18,0.08,0.05,0.19,0.24,0.3,0.51,0.64,0.31,0.48,-91.93,85.12,162.9,0.03,0.16,0.02,0.21,0.01,1.09,0.43,0.59,0.39,0.56,-128.44,56.56,140.06,0.12,0.05,0.26,0.4,0.37,1.7,0.21,0.82,-0.08,0.53,-121.13,58.81,147.51,0.5,0.4,0.59,3.56,2.38,4.65,0.29,0.8,0.02,0.53
