0.01,135.31,44.19,152.75,6.67,3.39,6.07,0.34,0.01,0.06,22.19,19.06,44.88,0.16,0.20,0.18,0.16,0.61,0.67,0.39
0.02,99.19,81.94,94.06,9.67,1.24,0.10,0.07,0.07,0.01,50.75,1.56,17.87,0.03,0.12,0.01,0.46,0.60,0.38,0.54
0.03,99.06,81.94,93.56,9.78,1.25,0.20,0.04,0.06,0.00,50.75,2.25,18.69,0.07,0.11,0.11,0.46,0.60,0.38,0.54
0.04,99.13,82.00,93.06,10.02,0.98,0.24,0.01,0.07,0.03,50.75,2.25,18.69,0.30,0.37,0.16,0.46,0.60,0.38,0.54
0.05,99.19,82.00,92.25,9.71,1.23,0.35,0.02,0.11,0.02,50.75,2.25,18.69,0.00,0.12,0.29,0.46,0.60,0.38,0.54
0.06,98.94,82.06,91.87,9.63,1.26,0.08,0.00,0.11,0.03,50.25,3.37,17.50,0.07,0.07,0.04,0.46,0.60,0.38,0.54
0.07,99.00,82.12,91.12,9.77,1.32,0.07,0.01,0.06,0.04,50.25,3.37,17.50,0.05,0.01,0.05,0.46,0.60,0.38,0.54
0.08,99.06,82.12,90.81,9.84,1.27,0.20,0.01,0.04,0.04,50.25,1.87,17.06,0.10,0.06,0.25,0.46,0.60,0.38,0.54
0.09,99.13,82.19,90.38,9.71,1.21,0.24,0.00,0.07,0.03,50.25,1.87,17.06,0.19,0.09,0.00,0.46,0.60,0.38,0.54
0.10,99.19,82.25,90.00,9.64,1.24,0.05,0.06,0.05,0.02,50.25,1.87,17.06,0.09,0.12,0.16,0.46,0.60,0.38,0.54
0.11,99.31,82.25,90.19,9.79,1.27,0.40,0.09,0.00,0.00,50.75,1.87,17.06,0.07,0.04,0.39,0.46,0.60,0.38,0.54
0.12,99.44,82.25,90.12,9.85,1.25,0.24,0.10,0.00,0.00,50.75,1.87,17.06,0.13,0.06,0.23,0.46,0.60,0.38,0.54
0.13,99.56,82.25,89.87,9.56,1.22,0.36,0.08,0.12,0.01,50.75,1.87,17.06,0.15,0.09,0.36,0.46,0.60,0.38,0.54
0.14,99.56,82.25,89.25,9.61,1.45,0.05,0.07,0.08,0.01,51.06,2.25,17.50,0.10,0.13,0.07,0.46,0.60,0.38,0.54
0.15,99.62,82.25,88.81,9.65,1.38,0.02,0.05,0.05,0.00,51.06,2.25,17.50,0.06,0.07,0.00,0.46,0.60,0.38,0.54
0.16,99.69,82.25,88.69,9.80,1.27,0.13,0.02,0.05,0.00,50.69,1.56,17.06,0.08,0.03,0.16,0.46,0.60,0.38,0.54
0.17,99.62,82.25,88.06,9.79,1.36,0.10,0.02,0.08,0.00,50.69,1.56,17.06,0.07,0.04,0.05,0.46,0.60,0.38,0.54
0.18,99.62,82.25,87.37,9.76,1.38,0.04,0.02,0.10,0.02,50.69,1.56,17.06,0.04,0.06,0.10,0.46,0.59,0.38,0.54
0.20,99.62,82.19,86.00,9.61,1.29,0.02,0.00,0.05,0.01,51.37,1.87,16.69,0.05,0.03,0.01,0.46,0.59,0.38,0.54
0.21,99.62,82.19,85.69,9.72,1.32,0.11,0.00,0.03,0.01,51.00,1.87,16.25,0.04,0.00,0.02,0.46,0.59,0.38,0.54
0.23,99.62,82.12,85.19,9.64,1.30,0.05,0.01,0.05,0.02,51.00,1.87,16.25,0.06,0.02,0.06,0.46,0.59,0.38,0.54
0.24,99.37,82.12,84.87,9.64,1.25,0.06,0.02,0.04,0.03,51.37,3.00,16.69,0.00,0.05,0.22,0.46,0.59,0.38,0.54
0.25,99.44,82.06,84.69,9.63,1.27,0.00,0.01,0.03,0.02,51.37,3.00,16.69,0.04,0.09,0.00,0.46,0.59,0.38,0.54
0.26,99.37,82.06,84.62,9.68,1.36,0.18,0.00,0.00,0.02,51.37,3.00,16.69,0.05,0.01,0.13,0.46,0.59,0.38,0.54
0.27,99.25,82.06,84.37,9.73,1.32,0.11,0.02,0.03,0.01,51.69,2.25,18.25,0.07,0.02,0.02,0.46,0.59,0.38,0.54
0.28,99.19,82.06,84.31,9.82,1.29,0.14,0.03,0.01,0.01,51.69,2.25,18.25,0.09,0.01,0.01,0.46,0.59,0.38,0.54
0.29,99.19,82.06,84.25,9.68,1.31,0.14,0.02,0.02,0.01,51.37,2.25,15.50,0.04,0.02,0.04,0.46,0.59,0.38,0.54
0.30,99.19,82.06,84.19,9.71,1.34,0.17,0.03,0.01,0.02,51.37,2.25,15.50,0.03,0.00,0.01,0.46,0.59,0.38,0.54
0.31,99.19,82.00,84.37,9.77,1.32,0.09,0.03,0.03,0.02,51.37,2.25,15.50,0.01,0.04,0.14,0.46,0.59,0.38,0.54
0.33,99.13,82.00,84.56,9.66,1.36,0.04,0.03,0.00,0.01,51.37,1.87,16.69,0.02,0.02,0.05,0.46,0.59,0.38,0.54
0.34,99.06,82.00,84.56,9.71,1.37,0.11,0.02,0.01,0.00,50.69,2.25,17.06,0.01,0.00,0.00,0.46,0.59,0.38,0.54
0.36,99.00,82.00,85.56,9.79,1.24,0.01,0.00,0.06,0.00,51.00,3.00,16.25,0.08,0.08,0.12,0.46,0.59,0.38,0.54
0.37,98.87,82.06,86.06,9.76,1.29,0.08,0.00,0.03,0.01,51.00,3.00,16.25,0.03,0.06,0.19,0.46,0.59,0.38,0.54
0.38,98.87,82.06,86.31,9.72,1.26,0.05,0.00,0.03,0.01,51.00,3.00,16.25,0.01,0.08,0.13,0.46,0.59,0.38,0.54
0.39,98.81,82.06,86.56,9.65,1.30,0.01,0.02,0.01,0.01,51.69,2.56,17.06,0.05,0.04,0.09,0.46,0.59,0.38,0.54
0.40,98.75,82.06,86.56,9.64,1.29,0.02,0.03,0.01,0.01,51.69,2.56,17.06,0.07,0.05,0.10,0.46,0.59,0.38,0.54
0.41,98.75,82.06,86.69,9.64,1.29,0.03,0.02,0.01,0.01,51.69,1.87,17.06,0.06,0.05,0.01,0.46,0.59,0.38,0.54
0.42,98.75,82.06,87.12,9.82,1.26,0.10,0.00,0.05,0.01,51.69,1.87,17.06,0.23,0.11,0.01,0.46,0.59,0.38,0.54
0.43,98.81,82.06,87.81,9.88,1.23,0.26,0.04,0.08,0.01,51.69,1.87,17.06,0.16,0.07,0.04,0.46,0.59,0.38,0.54
0.44,98.81,82.12,87.81,9.60,1.38,0.08,0.05,0.00,0.01,51.00,1.56,17.06,0.10,0.04,0.13,0.46,0.59,0.38,0.54
0.45,98.87,82.12,87.88,9.85,1.25,0.32,0.03,0.03,0.00,51.00,1.56,17.06,0.14,0.08,0.36,0.46,0.59,0.38,0.54
0.46,98.87,82.12,87.94,9.68,1.25,0.25,0.02,0.02,0.01,51.00,1.87,17.06,0.14,0.01,0.11,0.46,0.59,0.38,0.54
0.47,98.87,82.12,88.37,9.67,1.37,0.00,0.03,0.08,0.01,51.00,1.87,17.06,0.09,0.08,0.15,0.46,0.59,0.38,0.54
0.48,98.81,82.12,88.94,9.74,1.21,0.16,0.05,0.03,0.01,51.00,1.87,17.06,0.01,0.08,0.09,0.46,0.59,0.38,0.54
0.49,98.75,82.12,89.19,9.71,1.30,0.07,0.03,0.05,0.00,51.37,2.25,15.88,0.12,0.02,0.03,0.46,0.59,0.38,0.54
0.50,98.75,82.12,89.56,9.84,1.30,0.05,0.01,0.02,0.02,51.37,2.25,15.88,0.09,0.06,0.13,0.46,0.59,0.38,0.54
0.51,98.75,82.12,89.75,9.71,1.26,0.16,0.01,0.02,0.01,51.37,2.25,15.88,0.00,0.07,0.17,0.46,0.59,0.38,0.54
0.52,98.75,82.12,90.12,9.71,1.30,0.07,0.01,0.05,0.00,51.00,2.25,16.25,0.00,0.04,0.06,0.46,0.59,0.38,0.54
0.53,98.75,82.12,90.56,9.73,1.25,0.14,0.00,0.05,0.00,51.00,2.25,16.25,0.01,0.09,0.13,0.46,0.60,0.38,0.54
0.54,98.75,82.12,90.94,9.68,1.23,0.13,0.00,0.04,0.01,49.88,1.56,16.69,0.02,0.10,0.11,0.46,0.60,0.38,0.54
0.55,98.75,82.12,91.44,9.69,1.26,0.09,0.02,0.06,0.01,49.88,1.56,16.69,0.01,0.06,0.06,0.46,0.60,0.38,0.54
0.56,98.75,82.12,91.63,9.70,1.23,0.15,0.02,0.01,0.01,49.88,1.56,16.69,0.01,0.10,0.11,0.46,0.60,0.38,0.54
0.57,98.81,82.12,91.81,9.73,1.22,0.19,0.01,0.01,0.01,51.00,1.56,16.25,0.02,0.11,0.15,0.46,0.60,0.38,0.54
0.58,98.81,82.12,91.87,9.68,1.29,0.19,0.02,0.01,0.03,51.00,1.56,16.25,0.02,0.03,0.14,0.46,0.60,0.38,0.54
0.59,98.81,82.19,91.94,9.68,1.32,0.06,0.02,0.02,0.03,51.00,2.56,17.06,0.06,0.04,0.02,0.46,0.60,0.38,0.54
0.60,98.75,82.19,92.25,9.78,1.25,0.08,0.03,0.04,0.03,51.00,2.56,17.06,0.05,0.10,0.01,0.46,0.60,0.38,0.54
0.61,98.75,82.25,92.56,9.75,1.25,0.02,0.00,0.04,0.01,51.00,2.56,17.06,0.02,0.04,0.06,0.46,0.60,0.38,0.54
0.62,98.81,82.25,92.81,9.74,1.27,0.03,0.03,0.03,0.00,50.69,1.56,17.06,0.02,0.04,0.02,0.46,0.60,0.38,0.54
0.63,98.81,82.25,93.06,9.79,1.25,0.18,0.03,0.02,0.00,50.69,1.56,17.06,0.07,0.06,0.10,0.46,0.60,0.38,0.54
0.64,98.87,82.25,93.12,9.68,1.27,0.26,0.01,0.00,0.00,50.69,1.56,17.06,0.03,0.04,0.19,0.46,0.60,0.38,0.54
0.65,98.87,82.25,93.37,9.67,1.28,0.17,0.00,0.03,0.00,50.69,1.56,17.87,0.04,0.02,0.09,0.46,0.60,0.38,0.54
0.66,98.87,82.25,93.81,9.77,1.31,0.15,0.01,0.05,0.00,50.69,1.56,17.87,0.05,0.00,0.06,0.46,0.60,0.39,0.53
0.67,98.87,82.25,94.31,9.73,1.29,0.14,0.02,0.06,0.00,50.69,1.56,17.50,0.02,0.02,0.04,0.46,0.60,0.39,0.53
0.68,98.87,82.25,94.62,9.70,1.25,0.19,0.03,0.06,0.01,50.69,1.56,17.50,0.00,0.06,0.08,0.46,0.60,0.39,0.53
0.69,98.87,82.19,95.12,9.71,1.25,0.20,0.03,0.06,0.01,50.69,1.56,17.50,0.00,0.06,0.08,0.46,0.60,0.39,0.53
0.70,98.87,82.19,95.69,9.73,1.25,0.23,0.02,0.06,0.01,51.00,1.87,17.87,0.02,0.04,0.10,0.46,0.60,0.39,0.53
0.71,98.94,82.19,96.06,9.77,1.30,0.23,0.01,0.01,0.00,51.00,1.87,17.87,0.04,0.00,0.12,0.46,0.60,0.39,0.53
0.72,98.94,82.19,96.06,9.69,1.32,0.23,0.01,0.01,0.00,50.25,1.87,18.25,0.03,0.02,0.07,0.46,0.60,0.39,0.53
0.73,98.87,82.19,96.12,9.66,1.29,0.20,0.00,0.04,0.00,50.25,1.87,18.25,0.04,0.03,0.00,0.46,0.60,0.39,0.53
0.75,98.94,82.19,97.62,9.83,1.26,0.34,0.06,0.11,0.02,50.25,1.56,17.87,0.09,0.02,0.16,0.46,0.60,0.39,0.53
0.76,98.94,82.12,98.00,9.71,1.29,0.43,0.01,0.03,0.01,50.25,1.56,17.87,0.07,0.01,0.24,0.45,0.60,0.39,0.53
0.77,99.00,82.12,97.81,9.50,1.30,0.30,0.04,0.02,0.00,50.25,1.56,17.87,0.21,0.01,0.11,0.45,0.60,0.39,0.53
0.78,99.00,82.12,98.56,9.85,1.36,0.47,0.06,0.09,0.02,50.69,1.87,18.69,0.14,0.04,0.27,0.45,0.60,0.39,0.53
0.79,99.00,82.06,99.00,9.64,1.36,0.37,0.02,0.04,0.02,50.69,1.87,18.69,0.06,0.01,0.01,0.45,0.60,0.39,0.53
0.80,98.94,82.06,99.56,9.74,1.23,0.37,0.02,0.07,0.01,50.25,2.25,18.25,0.02,0.09,0.14,0.45,0.60,0.39,0.53
0.81,98.87,82.06,100.06,9.72,1.25,0.25,0.04,0.08,0.00,50.25,2.25,18.25,0.01,0.07,0.02,0.45,0.60,0.39,0.53
0.82,98.87,82.00,100.94,9.82,1.32,0.20,0.00,0.11,0.01,50.25,2.25,18.25,0.11,0.00,0.04,0.45,0.60,0.39,0.53
0.83,98.81,82.00,101.25,9.70,1.33,0.39,0.03,0.07,0.02,50.25,2.25,17.87,0.00,0.00,0.12,0.45,0.60,0.39,0.53
0.85,98.81,81.94,102.31,9.77,1.27,0.42,0.03,0.06,0.01,50.25,2.25,17.87,0.07,0.06,0.12,0.45,0.60,0.39,0.53
0.86,98.81,81.94,102.69,9.75,1.28,0.39,0.01,0.04,0.00,50.69,1.87,18.69,0.01,0.04,0.04,0.45,0.60,0.39,0.53
0.88,98.87,81.94,102.94,9.68,1.26,0.42,0.02,0.02,0.01,50.69,1.56,17.50,0.02,0.12,0.01,0.45,0.60,0.39,0.53
0.89,98.87,81.94,102.87,9.76,1.30,0.42,0.02,0.00,0.01,50.69,1.56,17.50,0.07,0.02,0.09,0.45,0.60,0.39,0.53
0.90,98.87,82.00,102.69,9.74,1.36,0.35,0.03,0.03,0.02,50.69,1.56,17.50,0.01,0.05,0.05,0.45,0.60,0.39,0.53
0.91,98.87,82.00,102.44,9.71,1.36,0.35,0.02,0.03,0.01,51.37,2.25,18.25,0.02,0.04,0.08,0.45,0.60,0.39,0.53
0.92,98.87,82.00,102.38,9.70,1.26,0.42,0.02,0.01,0.00,51.37,2.25,18.25,0.01,0.04,0.05,0.45,0.60,0.39,0.53
0.93,98.87,82.00,102.56,9.72,1.25,0.29,0.00,0.03,0.00,51.00,1.19,18.25,0.01,0.06,0.00,0.45,0.60,0.39,0.53
0.94,98.94,82.00,102.75,9.79,1.32,0.36,0.03,0.02,0.01,51.00,1.19,18.25,0.05,0.00,0.06,0.45,0.60,0.39,0.53
0.95,98.94,81.94,102.75,9.73,1.31,0.40,0.03,0.01,0.02,51.00,1.19,18.25,0.02,0.02,0.10,0.45,0.60,0.39,0.53
0.96,98.94,81.94,102.75,9.68,1.33,0.44,0.02,0.01,0.02,50.25,1.56,18.25,0.02,0.00,0.14,0.45,0.60,0.39,0.53
0.97,98.94,81.94,102.87,9.71,1.33,0.43,0.00,0.03,0.01,50.25,1.56,18.25,0.00,0.00,0.13,0.45,0.60,0.39,0.53
0.98,98.94,81.94,103.12,9.71,1.34,0.40,0.01,0.03,0.01,49.19,1.87,17.87,0.00,0.00,0.09,0.45,0.60,0.39,0.53
0.99,98.94,81.94,103.38,9.71,1.32,0.42,0.01,0.03,0.00,49.19,1.87,17.87,0.00,0.01,0.10,0.45,0.60,0.39,0.53
1.00,98.94,81.87,103.69,9.70,1.28,0.37,0.00,0.05,0.01,49.19,1.87,17.87,0.06,0.03,0.00,0.45,0.60,0.39,0.53
1.01,98.87,81.87,104.00,9.78,1.28,0.36,0.00,0.05,0.01,50.69,1.87,18.25,0.03,0.02,0.08,0.45,0.61,0.39,0.53
1.02,98.87,81.87,104.25,9.73,1.32,0.47,0.02,0.02,0.01,50.69,1.87,18.25,0.01,0.02,0.16,0.45,0.61,0.39,0.53
1.03,98.87,81.87,104.38,9.67,1.28,0.50,0.02,0.01,0.02,50.69,1.87,18.25,0.00,0.03,0.11,0.45,0.61,0.39,0.53
1.04,98.87,81.81,104.38,9.72,1.28,0.47,0.01,0.00,0.01,50.69,2.25,19.06,0.07,0.02,0.10,0.45,0.61,0.39,0.53
1.05,98.87,81.81,104.38,9.77,1.29,0.41,0.01,0.01,0.00,50.69,2.25,19.06,0.05,0.03,0.07,0.45,0.61,0.39,0.53
1.06,98.87,81.81,104.50,9.71,1.33,0.23,0.02,0.04,0.01,50.25,2.25,19.06,0.01,0.01,0.11,0.45,0.61,0.39,0.53
1.07,98.87,81.81,104.94,9.78,1.30,0.51,0.07,0.08,0.02,50.25,2.25,19.06,0.07,0.03,0.14,0.45,0.61,0.39,0.53
1.08,98.94,81.75,105.44,9.80,1.31,0.63,0.06,0.04,0.03,50.25,2.25,19.06,0.04,0.05,0.45,0.45,0.61,0.39,0.53
1.09,98.94,81.75,105.00,9.56,1.32,0.52,0.02,0.09,0.00,50.25,2.25,19.50,0.12,0.04,0.19,0.45,0.61,0.39,0.53
1.10,98.94,81.75,104.94,9.63,1.34,0.24,0.03,0.06,0.01,50.25,2.25,19.50,0.15,0.08,0.11,0.45,0.61,0.39,0.53
1.11,98.94,81.75,105.37,9.83,1.44,0.63,0.04,0.01,0.02,49.88,1.56,18.69,0.05,0.03,0.26,0.45,0.61,0.39,0.53
1.12,98.94,81.69,105.50,9.68,1.21,0.53,0.02,0.01,0.02,49.88,1.56,18.69,0.02,0.14,0.16,0.45,0.61,0.39,0.53
1.13,98.87,81.69,105.44,9.65,1.19,0.53,0.05,0.02,0.00,49.88,1.56,18.69,0.05,0.08,0.04,0.45,0.61,0.39,0.53
1.14,98.87,81.69,105.63,9.71,1.33,0.26,0.04,0.04,0.02,50.69,1.87,17.50,0.16,0.02,0.01,0.45,0.61,0.39,0.53
1.15,98.87,81.69,105.94,9.87,1.32,0.43,0.01,0.03,0.00,50.69,1.87,17.50,0.14,0.08,0.07,0.45,0.61,0.39,0.53
1.16,98.87,81.69,105.81,9.77,1.27,0.47,0.02,0.03,0.00,50.25,1.87,17.50,0.06,0.07,0.09,0.45,0.61,0.39,0.53
1.17,98.87,81.75,105.31,9.77,1.28,0.50,0.01,0.08,0.02,50.25,1.87,17.50,0.06,0.06,0.13,0.45,0.61,0.39,0.53
1.18,98.87,81.81,104.56,9.74,1.35,0.36,0.03,0.11,0.02,50.25,1.87,17.50,0.03,0.00,0.01,0.45,0.61,0.39,0.53
1.19,98.87,81.81,104.19,9.71,1.31,0.45,0.04,0.10,0.02,49.88,1.87,18.25,0.00,0.02,0.12,0.45,0.61,0.39,0.53
1.20,98.87,81.87,103.31,9.73,1.21,0.29,0.04,0.15,0.03,49.88,1.87,18.25,0.02,0.12,0.01,0.45,0.60,0.39,0.53
1.21,98.87,81.94,102.31,9.72,1.26,0.36,0.04,0.13,0.02,49.88,1.56,19.87,0.01,0.00,0.11,0.45,0.60,0.39,0.53
1.22,98.87,82.00,101.31,9.69,1.34,0.35,0.05,0.12,0.02,49.88,1.56,19.87,0.02,0.02,0.03,0.45,0.60,0.39,0.53
1.23,98.87,82.06,100.50,9.70,1.33,0.22,0.04,0.09,0.02,49.88,1.56,19.87,0.03,0.00,0.02,0.45,0.60,0.39,0.53
1.24,98.87,82.06,99.94,9.80,1.29,0.30,0.04,0.07,0.02,51.00,1.87,17.50,0.09,0.02,0.07,0.45,0.60,0.39,0.53
1.25,98.87,82.12,99.31,9.71,1.33,0.25,0.02,0.07,0.02,51.00,1.87,17.50,0.02,0.00,0.03,0.45,0.60,0.39,0.53
1.26,98.87,82.12,98.94,9.68,1.32,0.24,0.00,0.04,0.00,51.00,1.87,17.50,0.03,0.00,0.03,0.45,0.60,0.39,0.53
1.27,98.87,82.12,98.69,9.77,1.27,0.30,0.00,0.04,0.00,50.69,0.75,17.50,0.05,0.04,0.10,0.45,0.60,0.39,0.53
1.28,98.87,82.12,98.56,9.71,1.25,0.36,0.00,0.05,0.01,50.69,0.75,17.50,0.00,0.07,0.16,0.46,0.60,0.39,0.53
1.29,98.87,82.12,98.25,9.68,1.25,0.25,0.01,0.04,0.01,50.69,1.56,17.06,0.02,0.06,0.06,0.46,0.60,0.39,0.53
1.30,98.87,82.12,97.94,9.72,1.27,0.23,0.01,0.03,0.01,50.69,1.56,17.06,0.00,0.04,0.05,0.46,0.60,0.39,0.53
1.31,98.87,82.19,97.75,9.77,1.31,0.20,0.02,0.02,0.01,50.69,1.56,17.06,0.05,0.00,0.03,0.46,0.60,0.39,0.53
1.32,98.87,82.19,97.50,9.76,1.31,0.20,0.02,0.03,0.01,50.69,3.00,18.25,0.02,0.00,0.01,0.46,0.60,0.39,0.53
1.33,98.87,82.19,97.25,9.69,1.27,0.19,0.01,0.03,0.01,50.69,3.00,18.25,0.01,0.07,0.01,0.46,0.60,0.39,0.53
1.34,98.87,82.19,97.00,9.69,1.21,0.17,0.00,0.03,0.01,50.69,1.87,18.69,0.02,0.09,0.00,0.46,0.60,0.39,0.53
1.35,98.87,82.19,96.81,9.75,1.22,0.27,0.01,0.03,0.00,50.69,1.87,18.69,0.02,0.05,0.14,0.46,0.60,0.39,0.53
1.36,98.87,82.19,96.56,9.72,1.23,0.30,0.01,0.05,0.01,50.69,1.87,18.69,0.02,0.07,0.15,0.46,0.60,0.39,0.53
1.37,98.94,82.25,96.12,9.69,1.27,0.22,0.00,0.06,0.00,51.00,1.87,18.25,0.01,0.01,0.03,0.46,0.60,0.39,0.53
1.38,98.94,82.25,95.62,9.70,1.29,0.14,0.00,0.06,0.01,51.00,1.87,18.25,0.00,0.03,0.00,0.46,0.60,0.39,0.53
1.39,98.94,82.25,95.19,9.73,1.26,0.12,0.02,0.05,0.02,51.00,1.87,18.25,0.01,0.04,0.00,0.46,0.60,0.39,0.53
1.40,98.94,82.25,95.06,9.76,1.29,0.03,0.00,0.00,0.01,50.25,1.56,17.50,0.10,0.03,0.02,0.46,0.60,0.39,0.53
1.41,99.00,82.25,95.06,9.77,1.30,0.38,0.02,0.00,0.00,50.25,1.56,17.50,0.04,0.02,0.14,0.46,0.60,0.39,0.53
1.42,99.00,82.31,94.69,9.66,1.33,0.34,0.00,0.07,0.01,51.37,1.87,17.06,0.05,0.02,0.23,0.46,0.60,0.39,0.53
1.43,99.06,82.31,93.94,9.67,1.15,0.26,0.04,0.09,0.01,51.37,1.87,17.06,0.03,0.05,0.01,0.46,0.60,0.38,0.54
1.44,99.06,82.31,93.44,9.79,1.35,0.24,0.03,0.05,0.01,51.37,1.87,17.06,0.08,0.04,0.16,0.46,0.60,0.38,0.54
1.45,99.13,82.31,93.12,9.79,1.23,0.00,0.00,0.02,0.00,51.00,1.87,16.69,0.07,0.07,0.06,0.46,0.60,0.38,0.54
1.47,99.06,82.31,92.44,9.75,1.29,0.19,0.05,0.06,0.02,51.00,1.19,16.69,0.03,0.00,0.24,0.46,0.60,0.38,0.54
1.48,99.00,82.31,92.37,9.86,1.26,0.08,0.00,0.00,0.01,51.00,1.19,16.69,0.14,0.03,0.03,0.46,0.60,0.38,0.54
1.50,99.06,82.37,91.50,9.60,1.20,0.12,0.01,0.06,0.01,50.69,1.87,17.06,0.11,0.09,0.09,0.46,0.60,0.38,0.54
1.51,99.06,82.37,91.19,9.68,1.23,0.06,0.00,0.03,0.01,50.69,1.87,17.06,0.03,0.06,0.03,0.46,0.59,0.38,0.54
1.52,99.06,82.37,91.12,9.73,1.27,0.17,0.00,0.00,0.00,51.37,0.75,17.50,0.01,0.02,0.14,0.46,0.59,0.38,0.54
1.53,99.06,82.37,91.00,9.71,1.19,0.01,0.01,0.02,0.01,51.37,0.75,17.50,0.00,0.10,0.00,0.46,0.59,0.38,0.54
1.54,99.06,82.37,90.75,9.77,1.29,0.07,0.03,0.04,0.02,51.37,0.75,17.50,0.05,0.00,0.05,0.46,0.59,0.38,0.54
1.55,99.06,82.37,90.38,9.77,1.27,0.09,0.02,0.05,0.01,51.37,1.87,15.50,0.05,0.05,0.06,0.46,0.59,0.38,0.54
1.56,99.06,82.37,89.94,9.74,1.20,0.00,0.01,0.03,0.01,51.37,1.87,15.50,0.06,0.09,0.00,0.46,0.59,0.38,0.54
1.57,99.06,82.37,89.75,9.74,1.27,0.09,0.00,0.03,0.00,51.37,1.87,15.50,0.00,0.01,0.04,0.46,0.59,0.38,0.54
1.58,99.06,82.37,89.37,9.72,1.26,0.06,0.01,0.04,0.00,51.37,1.19,17.06,0.02,0.06,0.06,0.46,0.59,0.38,0.54
1.60,99.06,82.37,89.25,9.73,1.24,0.02,0.00,0.02,0.00,50.69,1.56,17.87,0.02,0.04,0.02,0.46,0.59,0.38,0.54
1.61,99.06,82.37,89.06,9.71,1.21,0.06,0.01,0.04,0.01,50.69,1.56,17.87,0.00,0.08,0.08,0.46,0.59,0.38,0.54
1.62,99.13,82.37,88.69,9.70,1.25,0.06,0.00,0.04,0.00,50.69,1.56,17.87,0.02,0.07,0.06,0.46,0.59,0.38,0.54
1.63,99.13,82.37,88.37,9.71,1.25,0.00,0.00,0.03,0.00,50.69,1.56,16.25,0.00,0.07,0.07,0.46,0.59,0.38,0.54
1.64,99.13,82.37,88.25,9.71,1.25,0.04,0.00,0.01,0.00,50.69,1.56,16.25,0.00,0.05,0.09,0.46,0.59,0.38,0.54
1.65,99.13,82.37,88.25,9.73,1.23,0.03,0.01,0.01,0.00,51.37,1.56,16.25,0.01,0.07,0.03,0.46,0.59,0.38,0.54
1.66,99.06,82.37,88.25,9.74,1.23,0.01,0.01,0.01,0.00,51.37,1.56,16.25,0.03,0.10,0.02,0.46,0.59,0.38,0.54
1.67,99.06,82.37,88.31,9.76,1.18,0.01,0.01,0.00,0.00,51.37,1.56,15.88,0.01,0.11,0.05,0.46,0.59,0.38,0.54
1.68,99.06,82.37,88.31,9.71,1.20,0.05,0.01,0.01,0.00,51.37,1.56,15.88,0.01,0.09,0.11,0.46,0.59,0.38,0.54
1.69,99.06,82.37,88.19,9.68,1.15,0.04,0.01,0.03,0.00,51.37,1.56,15.88,0.04,0.13,0.08,0.46,0.59,0.38,0.54
1.70,99.06,82.37,87.94,9.66,1.17,0.00,0.00,0.03,0.00,51.00,1.19,17.87,0.07,0.06,0.01,0.46,0.59,0.38,0.54
1.71,99.06,82.37,87.88,9.73,1.26,0.12,0.02,0.01,0.01,51.00,1.19,17.87,0.03,0.04,0.20,0.46,0.59,0.38,0.54
1.72,99.06,82.37,88.06,9.75,1.31,0.33,0.02,0.04,0.01,51.00,1.19,17.87,0.12,0.15,0.04,0.46,0.59,0.38,0.54
1.73,99.06,82.37,88.94,9.57,1.38,0.10,0.05,0.13,0.02,50.69,2.25,16.69,0.22,0.06,0.13,0.46,0.59,0.38,0.54
1.74,99.06,82.31,90.44,9.43,1.29,0.18,0.04,0.18,0.05,50.69,2.25,16.69,0.40,0.05,0.50,0.46,0.59,0.38,0.54
1.75,99.06,82.31,91.75,9.06,1.32,0.40,0.08,0.13,0.04,50.69,2.25,16.25,0.65,0.01,0.36,0.46,0.60,0.38,0.54
1.76,99.13,82.19,93.69,9.48,1.35,0.04,0.23,0.31,0.09,50.69,2.25,16.25,0.32,0.03,0.19,0.46,0.60,0.38,0.54
1.77,99.19,82.00,97.69,10.31,1.26,0.28,0.25,0.51,0.14,50.69,2.25,16.25,0.60,0.07,0.47,0.45,0.60,0.38,0.53
1.78,99.19,81.75,102.44,10.35,1.34,0.04,0.18,0.62,0.11,50.69,1.56,17.50,0.64,0.02,0.34,0.45,0.61,0.38,0.53
1.79,99.19,81.56,106.25,9.51,1.14,0.73,0.12,0.46,0.04,50.69,1.56,17.50,0.18,0.22,0.32,0.45,0.61,0.39,0.53
1.80,99.25,81.44,109.12,8.83,1.14,0.70,0.09,0.41,0.01,51.00,1.56,18.25,0.86,0.23,0.22,0.45,0.61,0.39,0.53
1.81,99.25,81.19,113.31,8.70,1.07,0.86,0.08,0.69,0.00,51.00,1.56,18.25,0.98,0.30,0.26,0.44,0.62,0.39,0.52
1.82,99.19,80.81,118.87,8.63,0.95,1.01,0.00,0.89,0.05,51.00,1.56,18.25,1.04,0.41,0.25,0.44,0.62,0.39,0.52
1.83,99.06,80.56,121.69,8.36,1.08,0.73,0.04,0.94,0.11,49.88,2.25,20.25,1.30,0.26,0.19,0.44,0.62,0.40,0.51
1.84,99.00,80.06,127.31,8.13,1.17,0.80,0.01,1.09,0.13,49.88,2.25,20.25,1.51,0.15,0.31,0.43,0.63,0.40,0.51
1.85,98.94,79.37,133.19,7.78,1.23,1.14,0.01,1.19,0.15,49.88,2.25,20.25,2.09,0.09,0.13,0.43,0.63,0.41,0.50
1.86,98.81,78.50,138.88,7.18,1.19,1.45,0.04,1.29,0.18,49.19,2.25,21.87,2.62,0.12,0.06,0.42,0.64,0.41,0.50
1.87,98.75,77.44,144.00,6.78,0.87,1.65,0.02,1.49,0.19,49.19,2.25,21.87,2.67,0.48,0.18,0.42,0.64,0.42,0.49
1.88,98.56,76.00,149.00,6.91,0.67,1.71,0.04,1.84,0.13,47.38,1.56,25.06,2.62,0.51,0.27,0.41,0.65,0.43,0.48
1.90,98.44,72.31,156.69,6.38,0.85,2.34,0.17,1.97,0.05,47.38,1.56,25.06,2.96,0.31,0.39,0.39,0.67,0.44,0.45
1.91,98.31,70.31,159.50,5.94,0.79,2.04,0.17,1.98,0.06,45.19,1.19,28.25,3.21,0.44,1.20,0.38,0.67,0.45,0.44
1.93,97.94,65.37,164.06,5.99,1.24,3.72,0.18,2.31,0.05,42.69,0.37,31.87,3.60,0.12,0.63,0.36,0.70,0.47,0.41
1.94,97.88,62.88,165.81,4.77,1.11,3.18,0.25,2.54,0.06,42.69,0.37,31.87,3.89,0.06,1.44,0.35,0.70,0.47,0.40
1.95,97.88,60.06,167.50,5.27,0.76,3.81,0.32,2.68,0.04,42.69,0.37,31.87,2.48,0.38,0.55,0.33,0.72,0.48,0.38
1.96,97.81,57.00,168.81,6.43,0.66,5.34,0.34,2.78,0.09,39.00,0.06,37.88,1.49,0.13,0.64,0.32,0.73,0.49,0.36
1.97,97.56,54.00,169.75,6.24,1.36,6.50,0.22,2.78,0.11,39.00,0.06,37.88,1.78,0.38,0.06,0.30,0.74,0.49,0.35
1.98,97.06,50.94,170.50,6.03,1.31,5.33,0.16,2.86,0.05,33.50,0.69,41.50,1.35,0.19,0.86,0.29,0.75,0.50,0.33
1.99,96.44,47.81,171.25,5.70,0.80,6.69,0.06,2.83,0.10,33.50,0.69,41.50,1.22,0.52,0.18,0.27,0.76,0.51,0.31
2.00,95.62,44.69,172.00,6.43,0.36,6.46,0.01,2.89,0.19,33.50,0.69,41.50,0.46,0.60,0.43,0.26,0.76,0.52,0.29
2.01,111.50,41.56,172.75,6.55,0.59,9.63,0.39,2.80,0.04,27.19,1.37,45.50,0.03,0.32,2.36,0.24,0.77,0.53,0.27
2.02,111.50,38.44,173.44,6.24,0.64,7.42,0.30,2.89,0.06,27.19,1.37,45.50,0.75,0.19,1.60,0.22,0.78,0.53,0.25
2.03,111.37,35.44,173.81,6.69,1.14,7.11,0.05,2.61,0.04,20.19,1.69,49.56,1.00,0.28,0.82,0.21,0.79,0.54,0.23
2.04,111.19,33.00,174.06,6.03,1.46,9.09,0.00,2.11,0.09,20.19,1.69,49.56,0.18,0.42,2.63,0.20,0.79,0.54,0.21
2.05,111.00,30.88,174.25,4.46,0.67,11.03,0.00,1.90,0.09,20.19,1.69,49.56,0.57,0.16,2.66,0.19,0.79,0.55,0.19
2.06,110.63,28.44,174.38,4.80,0.00,8.89,0.09,2.33,0.11,13.56,1.37,51.19,0.13,0.82,0.31,0.18,0.80,0.55,0.18
2.07,110.50,25.81,174.62,5.80,1.78,8.29,0.17,2.34,0.04,13.56,1.37,51.19,1.52,0.96,0.49,0.16,0.80,0.55,0.16
2.08,110.50,23.75,175.06,5.38,2.24,11.23,0.28,1.71,0.06,8.38,2.50,52.88,1.42,1.47,2.29,0.15,0.80,0.56,0.15
2.09,110.63,22.19,175.25,4.55,0.59,12.37,0.16,1.38,0.13,8.38,2.50,52.88,0.84,0.14,3.32,0.14,0.81,0.56,0.14
2.10,110.63,21.37,175.31,4.84,0.46,9.56,0.00,1.50,0.09,8.38,2.50,52.88,1.39,1.21,0.41,0.13,0.81,0.56,0.13
2.11,110.69,19.69,175.38,5.14,0.68,9.90,0.19,1.42,0.10,4.25,2.50,53.25,1.96,0.03,0.65,0.13,0.81,0.56,0.12
2.12,110.75,18.25,175.56,5.10,0.85,11.11,0.22,0.98,0.02,4.25,2.50,53.25,2.11,0.16,1.79,0.12,0.81,0.56,0.11
2.13,110.69,17.25,175.87,4.54,0.33,12.09,0.26,0.89,0.10,0.75,2.87,53.25,1.45,0.46,2.88,0.11,0.81,0.56,0.10
2.14,110.50,16.19,176.25,3.91,0.22,12.72,0.17,1.00,0.19,0.75,2.87,53.25,0.88,0.20,3.29,0.11,0.81,0.56,0.10
2.15,110.31,15.13,176.50,3.68,1.20,11.94,0.25,0.93,0.08,0.75,2.87,53.25,1.22,0.67,2.32,0.10,0.81,0.57,0.09
2.16,110.25,14.19,176.75,3.64,0.98,11.71,0.19,0.76,0.04,2.56,3.19,53.69,1.40,0.13,2.24,0.09,0.81,0.57,0.09
2.17,110.19,13.56,176.87,3.75,0.08,11.62,0.02,0.51,0.03,2.56,3.19,53.69,1.38,0.44,1.62,0.09,0.81,0.57,0.08
2.18,110.12,13.13,176.94,3.34,0.54,11.56,0.08,0.35,0.08,2.56,3.19,53.69,0.53,0.49,2.75,0.09,0.81,0.57,0.08
2.19,110.06,12.88,177.19,2.39,1.23,12.51,0.25,0.23,0.14,4.87,4.37,54.19,0.20,0.68,2.99,0.08,0.81,0.57,0.08
2.20,109.87,12.69,177.50,2.38,0.91,12.28,0.19,0.15,0.14,4.87,4.37,54.19,0.15,0.35,2.45,0.08,0.81,0.57,0.08
2.21,109.81,12.56,177.62,2.41,0.38,11.23,0.05,0.12,0.10,5.56,3.87,52.56,0.27,0.00,1.66,0.08,0.81,0.57,0.08
2.22,109.69,12.44,177.62,2.82,0.16,10.53,0.04,0.06,0.07,5.56,3.87,52.56,0.99,0.82,0.79,0.08,0.81,0.57,0.08
2.23,109.69,12.50,177.81,3.18,0.42,10.16,0.17,0.11,0.01,5.56,3.87,52.56,1.05,0.06,0.60,0.08,0.81,0.57,0.08
2.24,109.75,12.81,177.94,2.84,1.33,11.40,0.08,0.29,0.03,6.00,4.37,52.06,0.66,0.99,1.85,0.08,0.81,0.57,0.08
2.25,109.75,13.19,177.81,1.87,1.09,13.10,0.15,0.36,0.04,6.00,4.37,52.06,0.36,0.74,3.56,0.08,0.81,0.57,0.08
2.26,109.69,13.38,177.75,2.13,0.08,12.73,0.14,0.30,0.10,5.19,4.00,52.06,0.16,0.46,3.20,0.08,0.81,0.57,0.09
2.27,109.56,13.69,177.62,2.85,0.55,11.73,0.13,0.22,0.07,5.19,4.00,52.06,0.50,0.95,2.22,0.09,0.81,0.57,0.09
2.28,109.50,13.94,177.56,3.38,0.20,12.02,0.06,0.21,0.05,5.19,4.00,52.06,0.99,0.19,2.52,0.09,0.81,0.57,0.09
2.29,109.50,14.19,177.62,3.72,0.44,12.13,0.15,0.40,0.03,5.56,3.56,52.56,1.57,0.38,3.64,0.09,0.81,0.57,0.09
2.30,109.56,14.69,177.75,4.10,0.43,13.29,0.09,0.63,0.05,5.56,3.56,52.56,1.54,0.07,3.83,0.09,0.81,0.57,0.09
2.31,109.50,15.44,177.81,3.80,0.30,12.56,0.02,0.73,0.09,4.50,4.37,52.06,0.89,0.00,3.05,0.09,0.81,0.57,0.10
2.32,109.37,16.44,177.75,3.52,0.33,12.10,0.13,0.90,0.08,4.50,4.37,52.06,0.74,0.09,2.24,0.10,0.81,0.57,0.11
2.33,109.31,17.44,177.62,4.33,0.24,11.52,0.15,0.90,0.03,4.50,4.37,52.06,1.30,0.64,2.20,0.10,0.81,0.57,0.11
2.34,109.25,18.44,177.44,4.50,0.42,11.49,0.18,0.93,0.04,2.25,4.00,52.56,1.47,0.83,2.33,0.11,0.80,0.57,0.12
2.35,109.12,19.62,177.19,4.82,0.17,11.62,0.30,1.24,0.15,2.25,4.00,52.56,1.47,0.00,1.78,0.12,0.80,0.57,0.13
2.36,108.94,21.06,176.87,4.82,0.74,10.74,0.31,1.34,0.20,2.25,4.00,52.56,1.39,0.32,0.91,0.13,0.80,0.57,0.13
2.37,108.69,22.62,176.69,5.43,0.54,11.00,0.18,1.40,0.20,0.00,3.56,53.38,1.39,0.09,2.27,0.14,0.80,0.57,0.14
2.38,108.50,24.37,176.44,5.18,0.45,11.04,0.37,1.72,0.16,0.00,3.56,53.38,0.93,0.05,1.84,0.15,0.79,0.57,0.15
2.39,108.25,26.31,176.00,5.28,0.69,9.72,0.39,1.81,0.17,3.25,2.87,53.38,1.03,0.08,0.75,0.16,0.79,0.57,0.17
2.40,108.06,28.38,175.62,5.83,0.78,9.70,0.42,1.84,0.12,3.25,2.87,53.38,1.37,0.17,1.28,0.17,0.78,0.57,0.18
2.41,107.87,30.50,175.06,6.24,1.13,10.01,0.47,1.95,0.12,3.25,2.87,53.38,0.98,0.35,1.07,0.19,0.78,0.57,0.19
2.42,107.63,32.94,174.44,6.04,0.93,8.99,0.56,2.26,0.21,8.00,1.69,52.56,0.46,0.09,0.54,0.20,0.77,0.57,0.20
2.43,107.19,35.69,173.94,6.34,0.40,7.91,0.49,2.49,0.31,8.00,1.69,52.56,0.51,0.43,0.33,0.22,0.77,0.56,0.22
2.44,106.87,38.50,173.50,6.50,0.39,7.49,0.38,2.57,0.32,11.56,1.37,50.88,0.39,0.46,0.12,0.23,0.76,0.56,0.24
2.45,106.50,41.37,173.13,6.66,1.21,6.35,0.32,2.55,0.29,11.56,1.37,50.88,0.08,0.71,0.29,0.25,0.75,0.56,0.26
2.46,106.31,44.25,172.75,6.55,1.53,6.98,0.29,2.60,0.20,11.56,1.37,50.88,0.28,0.64,0.01,0.27,0.74,0.55,0.27
2.47,91.87,47.25,172.25,6.39,0.85,6.82,0.31,2.73,0.21,18.25,0.69,49.25,0.81,0.04,0.22,0.28,0.73,0.55,0.29
2.48,92.31,50.25,171.69,6.17,0.99,7.22,0.24,2.74,0.20,18.25,0.69,49.25,1.37,0.09,1.02,0.30,0.72,0.54,0.31
2.49,92.75,53.31,171.13,6.05,0.51,5.45,0.21,2.71,0.16,25.00,0.06,45.69,1.80,0.38,0.33,0.31,0.71,0.54,0.33
2.50,93.25,56.19,170.56,6.57,0.77,4.60,0.09,2.59,0.15,25.00,0.06,45.69,1.57,0.12,0.77,0.33,0.70,0.53,0.35
2.51,93.94,59.19,170.00,6.41,1.12,5.09,0.05,2.78,0.20,25.00,0.06,45.69,2.01,0.25,0.15,0.34,0.69,0.52,0.36
2.52,94.25,60.75,169.69,5.95,1.43,4.40,0.03,2.84,0.21,30.75,0.50,42.88,2.72,0.59,0.06,0.35,0.69,0.52,0.37
2.53,94.94,63.87,169.00,6.18,1.49,3.56,0.04,2.66,0.16,30.75,0.50,42.88,2.72,0.68,0.44,0.36,0.67,0.51,0.39
2.54,95.38,66.69,168.00,6.08,1.55,3.28,0.08,2.54,0.12,30.75,0.50,42.88,3.14,0.75,0.48,0.37,0.66,0.50,0.41
2.55,95.56,69.31,166.62,6.02,1.58,2.65,0.17,2.31,0.07,36.38,0.50,37.69,2.86,0.78,1.06,0.38,0.65,0.50,0.42
2.56,95.62,71.69,164.88,6.51,1.39,1.92,0.16,2.15,0.03,36.38,0.50,37.69,2.74,0.37,1.11,0.40,0.64,0.49,0.44
2.57,95.75,73.94,162.75,6.60,0.97,1.57,0.13,2.08,0.04,41.19,0.50,32.50,2.82,0.17,1.00,0.41,0.63,0.48,0.45
2.58,96.00,76.12,160.25,6.41,1.06,1.11,0.01,1.99,0.04,41.19,0.50,32.50,2.93,0.47,0.97,0.42,0.62,0.47,0.46
2.59,96.31,78.06,156.94,6.93,1.39,1.14,0.10,1.86,0.02,41.19,0.50,32.50,2.66,0.60,0.72,0.42,0.62,0.47,0.47
2.60,96.56,79.81,152.31,7.43,1.44,1.06,0.08,1.77,0.08,43.87,0.50,29.37,2.21,0.63,0.46,0.43,0.61,0.46,0.48
2.61,96.69,81.31,146.25,7.88,1.58,1.01,0.04,1.59,0.10,43.87,0.50,29.37,1.80,0.76,0.20,0.44,0.60,0.45,0.49
2.62,96.75,82.50,138.94,8.58,1.62,0.76,0.07,1.32,0.13,46.75,0.19,24.87,1.13,0.78,0.19,0.45,0.59,0.44,0.50
2.63,96.87,83.31,174.94,9.25,1.30,0.57,0.09,1.18,0.12,46.75,0.19,24.87,0.48,0.44,0.16,0.45,0.59,0.44,0.51
2.64,97.00,84.00,174.81,8.89,1.10,1.36,0.08,1.20,0.11,46.75,0.19,24.87,0.85,0.22,0.84,0.46,0.58,0.43,0.52
2.65,97.06,84.56,174.81,9.02,1.08,0.40,0.10,1.21,0.03,49.00,0.88,22.19,0.73,0.19,0.68,0.46,0.58,0.42,0.52
2.66,97.06,84.69,174.81,8.96,1.05,0.07,0.04,1.03,0.03,49.00,0.88,22.19,0.80,0.18,0.01,0.47,0.57,0.42,0.53
2.67,97.12,84.87,5.06,8.69,1.29,0.02,0.11,1.01,0.01,50.38,0.88,19.37,1.07,0.42,0.07,0.47,0.57,0.42,0.53
2.68,97.12,84.75,5.06,9.23,1.39,0.56,0.11,0.93,0.04,50.38,0.88,19.37,0.52,0.51,0.27,0.47,0.56,0.41,0.54
2.69,97.00,84.31,5.19,9.22,1.40,0.69,0.06,0.92,0.18,50.38,0.88,19.37,0.52,0.50,0.22,0.48,0.56,0.41,0.54
2.70,96.81,83.69,5.37,9.16,1.40,0.71,0.07,0.88,0.18,51.06,1.25,17.37,0.62,0.52,0.14,0.48,0.55,0.41,0.54
2.72,96.19,82.50,49.56,9.20,0.88,1.12,0.27,0.59,0.12,51.06,1.25,17.37,0.51,0.08,0.29,0.49,0.55,0.40,0.55
2.73,95.94,82.06,46.75,8.94,0.47,1.22,0.17,0.49,0.09,52.19,1.25,14.19,0.70,0.39,0.39,0.50,0.54,0.40,0.55
2.75,95.69,81.44,44.25,8.99,0.79,1.00,0.06,0.12,0.09,52.19,2.00,13.38,0.72,0.53,0.32,0.50,0.54,0.39,0.55
2.76,95.56,81.31,44.31,9.00,0.33,0.87,0.00,0.03,0.09,52.19,2.00,13.38,0.78,0.67,0.42,0.50,0.54,0.39,0.55
2.77,95.44,81.25,45.00,8.76,0.43,0.59,0.05,0.05,0.08,52.19,2.00,13.38,0.66,0.77,0.16,0.50,0.54,0.39,0.55
2.78,95.44,81.31,46.31,9.08,0.11,1.33,0.10,0.20,0.05,52.50,1.69,12.56,0.56,1.29,0.48,0.50,0.54,0.39,0.55
2.79,95.62,81.50,47.69,9.15,0.64,1.41,0.34,0.15,0.00,52.50,1.69,12.56,0.36,1.89,0.10,0.50,0.54,0.39,0.55
2.80,95.94,81.56,48.75,10.39,0.68,0.58,0.37,0.09,0.00,52.88,1.69,13.75,0.85,1.61,0.02,0.50,0.55,0.39,0.55
2.81,96.19,81.63,49.31,10.53,0.29,1.41,0.18,0.06,0.06,52.88,1.69,13.75,0.77,0.76,0.70,0.49,0.55,0.39,0.55
2.82,96.50,81.69,49.38,10.31,0.78,1.20,0.18,0.04,0.10,52.88,1.69,13.75,0.61,0.28,0.28,0.49,0.55,0.39,0.55
2.83,96.69,81.81,49.00,10.18,1.43,1.57,0.08,0.02,0.12,52.88,2.37,14.56,0.09,0.33,0.72,0.49,0.55,0.39,0.55
2.85,96.75,82.19,49.38,8.68,0.68,1.25,0.02,0.19,0.09,52.06,2.00,15.00,1.02,0.31,0.39,0.49,0.55,0.39,0.55
2.86,96.87,82.44,50.12,8.39,0.42,1.09,0.04,0.22,0.11,52.06,2.00,15.00,1.32,0.56,0.26,0.49,0.55,0.40,0.55
2.87,96.87,82.75,51.19,8.73,0.30,1.44,0.15,0.33,0.15,52.06,2.00,15.00,0.99,0.65,0.67,0.49,0.55,0.40,0.55
2.88,96.87,83.06,52.25,9.25,0.16,0.82,0.14,0.25,0.15,52.06,1.25,13.38,0.48,0.76,0.10,0.49,0.55,0.40,0.55
2.89,96.75,83.31,5.25,9.26,0.04,1.49,0.21,0.21,0.10,52.06,1.25,13.38,0.09,1.04,1.52,0.49,0.55,0.40,0.55
2.90,96.56,83.62,5.19,9.97,0.19,2.81,0.24,0.34,0.06,51.00,0.88,15.00,0.22,1.07,2.18,0.49,0.55,0.41,0.54
2.91,96.44,83.81,5.12,10.47,0.36,2.33,0.07,0.33,0.01,51.00,0.88,15.00,0.79,0.19,1.49,0.48,0.55,0.41,0.54
2.92,96.31,84.00,5.06,10.21,0.67,2.24,0.17,0.16,0.04,51.00,0.88,15.00,0.46,0.20,1.71,0.48,0.55,0.41,0.54
2.93,96.19,84.13,5.00,9.18,0.43,1.76,0.17,0.06,0.10,51.69,1.25,14.56,0.56,0.42,1.24,0.48,0.55,0.41,0.54
2.95,96.00,84.56,4.62,9.76,0.08,1.74,0.27,0.26,0.14,51.69,0.88,15.75,0.00,0.71,1.28,0.48,0.55,0.42,0.54
2.96,95.94,84.69,4.56,10.15,0.21,1.38,0.23,0.23,0.09,51.69,0.88,15.75,0.39,0.56,0.96,0.48,0.55,0.42,0.54
2.97,95.75,84.87,4.50,10.11,0.13,1.61,0.23,0.07,0.05,51.69,0.88,15.75,0.34,0.62,1.20,0.48,0.55,0.42,0.53
2.98,95.56,84.94,4.44,10.61,0.19,1.82,0.27,0.14,0.00,51.37,0.88,16.19,1.36,1.01,1.11,0.48,0.55,0.42,0.53
2.99,95.19,85.00,4.44,11.97,0.52,0.79,0.26,0.25,0.05,51.37,0.88,16.19,2.20,0.24,1.14,0.49,0.55,0.43,0.53
3.00,94.87,85.06,4.44,11.27,0.93,1.25,0.28,0.19,0.03,51.37,0.88,16.19,0.45,0.43,1.48,0.49,0.55,0.43,0.53
3.01,94.62,85.12,4.44,9.51,1.22,0.24,0.22,0.03,0.05,51.69,0.88,16.19,0.75,0.28,0.22,0.49,0.55,0.43,0.53
3.02,94.62,85.19,4.37,9.53,0.95,0.47,0.02,0.06,0.05,51.69,0.88,16.19,0.47,0.38,0.13,0.49,0.55,0.43,0.53
3.03,94.56,85.31,4.31,10.69,1.30,0.13,0.02,0.45,0.02,52.06,1.25,17.00,0.92,0.55,0.39,0.49,0.55,0.43,0.53
3.05,94.56,85.69,4.12,9.94,0.77,1.62,0.14,0.02,0.11,52.06,1.25,17.00,0.16,0.05,1.79,0.48,0.55,0.44,0.52
3.06,94.56,85.75,4.06,9.47,0.29,1.53,0.03,0.06,0.03,49.88,0.88,17.75,0.30,0.40,1.70,0.48,0.55,0.44,0.52
3.08,94.37,85.81,4.12,9.68,1.04,1.79,0.06,0.28,0.01,50.25,1.25,18.56,0.10,0.34,1.85,0.48,0.55,0.44,0.52
3.09,94.31,85.81,4.12,9.38,1.08,1.75,0.00,0.02,0.03,50.25,1.25,18.56,0.54,0.37,1.02,0.48,0.55,0.44,0.52
3.10,94.25,85.75,4.19,9.54,1.08,0.63,0.02,0.11,0.09,50.25,1.25,18.56,0.23,0.35,0.66,0.48,0.55,0.44,0.52
3.11,94.19,85.56,175.56,10.11,1.48,1.09,0.07,0.27,0.13,50.25,0.50,17.75,0.33,0.73,1.07,0.48,0.55,0.44,0.52
3.12,94.06,85.44,175.44,9.72,1.28,1.98,0.05,0.08,0.09,50.25,0.50,17.75,0.04,0.51,1.94,0.48,0.55,0.44,0.52
3.13,93.94,85.44,175.44,9.54,0.88,1.59,0.13,0.05,0.07,51.37,0.50,18.56,0.23,0.10,1.55,0.48,0.55,0.44,0.52
3.14,93.75,85.31,175.31,9.66,1.18,1.51,0.03,0.02,0.08,51.37,0.50,18.56,0.10,0.38,1.48,0.48,0.55,0.44,0.52
3.16,93.50,85.12,175.12,9.29,0.87,2.23,0.03,0.09,0.08,51.00,0.88,19.75,0.35,0.09,1.74,0.48,0.56,0.44,0.51
3.17,93.37,85.12,175.12,9.49,0.79,0.89,0.15,0.00,0.00,51.00,0.88,19.75,0.21,0.04,0.64,0.48,0.56,0.44,0.51
3.18,93.19,85.12,175.12,9.49,0.86,0.63,0.11,0.07,0.01,51.00,0.88,19.75,0.29,0.05,0.82,0.48,0.55,0.44,0.51
3.19,93.19,85.06,175.12,9.47,0.78,1.30,0.00,0.11,0.01,49.88,1.25,19.00,0.11,0.25,0.74,0.48,0.56,0.44,0.51
3.20,93.12,85.06,175.06,9.85,0.61,0.80,0.02,0.19,0.01,49.88,1.25,19.00,0.16,0.00,1.14,0.48,0.56,0.44,0.51
3.21,93.19,85.00,175.06,9.93,1.06,1.44,0.05,0.17,0.02,50.69,0.88,19.00,0.12,0.44,1.36,0.48,0.56,0.44,0.51
3.22,93.19,85.00,175.06,9.77,1.43,1.99,0.06,0.08,0.00,50.69,0.88,19.00,0.21,0.29,1.27,0.48,0.56,0.44,0.51
3.23,93.12,85.00,175.06,9.89,0.89,1.29,0.06,0.04,0.04,50.69,0.88,19.00,0.12,0.05,1.14,0.48,0.56,0.44,0.51
3.24,93.19,85.00,175.06,9.98,0.66,1.48,0.10,0.01,0.02,50.25,1.25,19.37,0.21,0.17,1.33,0.48,0.56,0.44,0.51
3.25,93.25,84.94,175.06,9.89,0.78,1.44,0.05,0.01,0.05,50.25,1.25,19.37,0.17,0.03,1.40,0.48,0.56,0.44,0.51
3.26,93.19,84.94,175.00,9.65,0.81,1.52,0.01,0.09,0.04,50.25,1.69,18.19,0.10,0.07,1.18,0.48,0.56,0.44,0.51
3.27,93.19,84.94,175.00,9.58,0.77,0.87,0.01,0.13,0.01,50.25,1.69,18.19,0.44,0.05,0.97,0.48,0.56,0.44,0.51
3.28,93.31,84.94,175.00,9.30,0.93,0.99,0.08,0.11,0.03,50.25,1.69,18.19,0.46,0.08,0.89,0.48,0.56,0.44,0.51
3.29,93.37,85.00,175.06,9.33,1.05,0.87,0.01,0.13,0.04,49.88,1.69,19.37,0.43,0.21,0.79,0.48,0.56,0.44,0.51
3.30,93.37,85.06,175.06,9.51,0.93,0.67,0.02,0.11,0.02,49.88,1.69,19.37,0.18,0.03,0.90,0.48,0.56,0.44,0.51
3.31,93.37,85.12,175.12,9.55,0.85,1.11,0.03,0.16,0.02,50.25,2.00,18.56,0.21,0.01,1.09,0.48,0.55,0.44,0.51
3.32,93.25,85.06,175.06,9.62,0.88,0.69,0.15,0.13,0.00,50.25,2.00,18.56,0.04,0.01,0.41,0.48,0.55,0.44,0.51
3.33,93.06,85.06,175.06,9.85,0.81,0.24,0.19,0.07,0.02,50.25,2.00,18.56,0.08,0.02,0.21,0.49,0.55,0.44,0.51
3.34,92.88,85.00,175.00,9.81,0.13,0.08,0.09,0.04,0.04,50.69,1.69,18.19,0.04,0.71,0.04,0.49,0.55,0.44,0.51
3.35,92.94,84.94,174.94,9.47,0.06,0.02,0.22,0.03,0.06,50.69,1.69,18.19,0.29,0.78,0.05,0.49,0.55,0.44,0.51
3.36,93.37,84.87,174.87,9.61,1.05,1.10,0.45,0.12,0.07,50.25,1.25,18.19,0.15,0.18,1.07,0.48,0.56,0.44,0.51
3.37,93.81,84.81,5.12,9.87,1.52,3.59,0.39,0.27,0.07,50.25,1.25,18.19,0.10,0.64,3.60,0.48,0.56,0.43,0.52
3.38,93.81,84.75,5.12,10.18,0.99,0.31,0.09,0.52,0.01,50.25,1.25,18.19,0.41,0.11,0.21,0.49,0.56,0.43,0.52
3.39,93.87,84.69,5.19,9.80,0.43,0.74,0.19,0.38,0.09,50.56,2.00,18.19,0.04,0.46,0.91,0.49,0.55,0.43,0.52
3.40,94.13,84.50,5.31,9.83,0.24,1.45,0.37,0.25,0.14,50.56,2.00,18.19,0.07,0.68,1.23,0.49,0.55,0.43,0.52
3.41,94.37,84.31,5.50,9.81,0.90,1.97,0.44,0.04,0.15,51.00,1.25,17.00,0.27,0.23,0.79,0.49,0.56,0.42,0.52
3.42,94.62,84.19,5.62,10.07,0.65,0.60,0.28,0.10,0.09,51.00,1.25,17.00,0.31,0.52,0.48,0.48,0.56,0.42,0.53
3.43,94.75,84.00,5.69,9.83,0.54,1.68,0.41,0.18,0.14,51.00,1.25,17.00,0.27,0.15,1.87,0.49,0.56,0.42,0.53
3.44,95.06,83.75,5.87,9.16,1.52,1.27,0.49,0.06,0.19,51.69,1.69,17.00,0.47,0.33,0.53,0.49,0.56,0.41,0.53
3.45,95.12,83.56,6.06,9.35,0.84,0.34,0.19,0.08,0.16,51.69,1.69,17.00,0.55,0.60,0.19,0.48,0.56,0.41,0.53
3.46,95.19,83.31,6.25,9.04,0.81,1.76,0.24,0.08,0.19,51.69,1.69,17.00,0.69,0.26,1.41,0.49,0.56,0.41,0.53
3.47,95.31,83.19,6.50,9.36,1.35,1.85,0.32,0.27,0.19,52.06,2.00,16.19,0.36,0.23,1.55,0.48,0.56,0.41,0.53
3.48,95.31,83.12,6.62,9.31,0.33,0.62,0.16,0.21,0.09,52.06,2.00,16.19,0.42,0.80,0.36,0.48,0.57,0.41,0.53
3.49,95.44,83.12,79.25,8.93,1.27,0.64,0.18,0.19,0.05,51.69,2.00,16.56,0.79,0.12,0.42,0.48,0.57,0.41,0.53
3.50,95.31,83.19,6.69,9.18,2.03,0.56,0.18,0.36,0.05,51.69,2.00,16.56,0.55,0.88,0.40,0.48,0.57,0.41,0.53
3.51,95.12,83.31,6.56,9.17,1.05,0.91,0.19,0.35,0.10,51.69,2.00,16.56,0.56,0.07,0.82,0.48,0.57,0.41,0.52
3.52,95.12,83.44,6.50,9.20,1.11,0.11,0.19,0.38,0.14,51.37,1.69,16.56,0.54,0.00,0.08,0.48,0.57,0.41,0.52
3.53,95.00,83.56,173.56,9.41,1.46,0.38,0.32,0.64,0.02,51.37,1.69,16.56,0.32,0.37,0.45,0.48,0.57,0.42,0.52
3.54,94.50,83.50,173.56,9.74,1.58,0.43,0.41,0.75,0.03,50.25,2.00,17.75,0.68,0.04,0.07,0.48,0.57,0.42,0.52
3.55,93.87,83.37,173.50,10.45,0.68,0.25,0.47,0.28,0.04,50.25,2.00,17.75,0.57,0.50,0.26,0.48,0.57,0.43,0.51
3.56,93.37,83.37,173.56,9.77,1.59,0.97,0.51,0.10,0.05,50.25,2.00,17.75,0.02,0.50,0.70,0.48,0.57,0.43,0.51
3.57,92.81,83.37,173.62,9.65,1.80,0.76,0.57,0.16,0.03,49.88,1.69,19.37,0.14,0.58,0.19,0.48,0.57,0.43,0.51
3.58,92.06,83.31,173.56,9.40,1.33,0.20,0.58,0.36,0.03,49.88,1.69,19.37,0.24,0.20,0.12,0.48,0.57,0.44,0.50
3.59,91.31,83.19,173.50,9.66,1.19,0.72,0.58,0.33,0.01,49.88,1.69,19.37,0.05,0.03,0.47,0.48,0.57,0.44,0.50
3.60,90.62,83.06,110.12,9.81,1.00,1.00,0.60,0.28,0.00,49.88,2.37,19.00,0.21,0.20,0.45,0.49,0.57,0.45,0.49
3.61,90.00,82.94,112.62,10.08,0.84,0.63,0.43,0.45,0.02,49.88,2.37,19.00,0.36,0.13,0.08,0.49,0.57,0.45,0.49
3.62,89.44,82.75,116.00,9.97,1.75,0.58,0.35,0.47,0.01,49.56,3.87,20.19,0.13,0.89,0.33,0.49,0.57,0.45,0.48
3.63,88.94,82.62,118.13,9.72,1.75,0.79,0.57,0.24,0.02,49.56,3.87,20.19,0.18,0.24,0.25,0.49,0.57,0.46,0.48
3.64,88.25,82.50,119.37,9.34,0.77,0.66,0.63,0.24,0.03,49.56,3.87,20.19,0.33,0.12,0.02,0.49,0.56,0.46,0.48
3.65,87.56,82.37,121.37,9.53,1.18,0.60,0.55,0.39,0.05,49.56,3.87,21.00,0.06,0.31,0.07,0.49,0.56,0.47,0.47
3.66,86.94,82.12,124.50,9.67,1.59,0.95,0.51,0.48,0.09,49.56,3.87,21.00,0.09,0.51,0.30,0.49,0.56,0.47,0.47
3.67,86.37,81.94,127.38,9.46,1.63,1.31,0.54,0.44,0.12,48.75,4.19,22.19,0.24,0.54,0.47,0.49,0.56,0.48,0.46
3.68,85.81,81.75,130.12,8.84,1.59,0.87,0.61,0.45,0.18,48.75,4.19,22.19,0.75,0.42,0.11,0.49,0.56,0.48,0.46
3.69,85.19,81.44,133.94,9.06,1.43,0.91,0.63,0.69,0.20,48.75,4.19,22.19,0.63,0.38,0.09,0.49,0.56,0.49,0.45
3.70,84.56,80.94,138.50,8.87,1.81,1.18,0.77,0.89,0.23,48.75,3.50,22.19,0.80,0.79,0.02,0.49,0.56,0.50,0.45
3.71,83.62,80.38,143.06,9.23,2.07,1.60,0.96,0.93,0.33,48.75,3.50,22.19,0.42,1.09,0.29,0.49,0.56,0.51,0.44
3.72,82.62,79.81,147.25,9.00,2.13,2.07,1.08,0.89,0.42,47.69,4.56,23.75,0.64,1.19,0.61,0.49,0.55,0.52,0.43
3.73,81.69,79.12,151.19,9.06,1.91,2.09,0.99,0.95,0.43,47.69,4.56,23.75,0.56,1.02,0.48,0.49,0.55,0.53,0.42
3.74,80.87,78.37,154.81,9.35,1.32,2.70,0.82,1.00,0.41,47.69,4.56,23.75,0.24,0.48,0.91,0.49,0.55,0.54,0.41
3.75,80.62,78.00,156.50,8.86,0.79,2.90,0.72,0.98,0.46,47.38,4.19,24.19,0.71,0.00,0.95,0.48,0.55,0.54,0.41
3.76,80.12,77.12,159.87,8.57,0.31,1.89,0.68,1.32,0.51,47.38,4.19,24.19,0.95,0.39,0.27,0.48,0.55,0.55,0.40
3.77,79.62,75.81,163.56,8.88,0.30,1.81,0.71,1.48,0.58,45.38,4.19,29.00,0.36,0.07,0.01,0.48,0.54,0.57,0.40
3.78,79.25,74.50,167.13,8.74,1.09,2.09,0.81,1.40,0.77,45.38,4.19,29.00,1.09,0.98,0.26,0.47,0.54,0.58,0.39
3.79,79.12,73.25,170.62,7.82,1.27,2.91,0.58,1.20,0.92,45.38,4.19,29.00,1.80,0.42,0.00,0.46,0.54,0.59,0.38
3.80,79.37,72.06,173.87,7.82,0.54,3.02,0.51,1.32,0.91,43.69,3.87,31.37,0.69,0.07,0.14,0.45,0.54,0.60,0.38
3.81,79.69,70.44,176.63,8.85,0.10,3.27,0.31,1.75,0.82,43.69,3.87,31.37,0.16,0.37,0.56,0.44,0.54,0.62,0.37
3.82,80.12,68.50,178.94,9.05,0.24,2.77,0.24,1.71,0.83,43.69,3.87,31.37,0.07,0.31,0.80,0.43,0.54,0.63,0.36
3.83,81.00,66.94,178.75,8.66,0.17,3.43,0.08,1.37,0.89,41.37,3.06,33.38,0.29,0.39,0.26,0.42,0.54,0.64,0.36
3.84,82.19,65.44,176.56,8.71,0.33,3.93,0.14,1.29,0.88,41.37,3.06,33.38,0.23,0.06,0.36,0.41,0.54,0.65,0.36
3.85,83.87,63.81,174.50,8.92,0.35,4.74,0.36,1.45,0.82,39.19,2.00,36.19,0.12,0.05,0.44,0.39,0.54,0.66,0.35
3.86,85.75,62.06,172.56,8.92,0.39,4.72,0.51,1.45,0.82,39.19,2.00,36.19,0.25,0.20,0.17,0.38,0.54,0.66,0.35
3.87,88.12,60.56,170.50,8.51,0.74,4.52,0.74,1.18,0.83,39.19,2.00,36.19,0.02,0.05,0.22,0.36,0.54,0.67,0.35
3.88,91.25,59.25,168.37,9.18,1.38,5.27,1.00,1.06,0.75,37.69,0.56,38.56,0.75,0.37,0.36,0.35,0.54,0.67,0.36
3.89,92.81,58.56,167.37,10.18,1.72,6.92,1.20,1.15,0.56,37.69,0.56,38.56,1.87,0.50,1.86,0.33,0.55,0.68,0.36
3.90,96.12,57.25,165.56,8.45,1.55,6.29,1.19,1.06,0.47,34.38,3.87,41.00,0.26,0.13,1.08,0.33,0.55,0.68,0.36
3.91,99.56,55.94,163.94,8.20,1.57,5.53,0.80,1.10,0.72,34.38,3.87,41.00,0.14,0.03,0.18,0.31,0.55,0.68,0.37
3.92,102.38,54.50,162.50,8.82,2.43,5.65,0.66,1.07,0.81,34.38,3.87,41.00,0.90,0.63,0.15,0.30,0.56,0.68,0.37
3.93,105.37,53.06,161.12,9.19,2.42,5.53,0.69,1.10,0.79,32.56,6.75,41.75,1.77,0.34,0.38,0.28,0.56,0.69,0.37
3.94,108.31,51.69,159.81,9.68,2.56,5.31,0.78,1.00,0.59,32.56,6.75,41.75,1.38,0.47,0.10,0.27,0.56,0.69,0.37
3.95,111.12,50.44,158.75,8.54,2.23,6.08,0.73,0.90,0.54,32.56,6.75,41.75,0.66,0.40,0.44,0.26,0.56,0.69,0.37
3.96,113.44,49.44,157.81,7.74,1.83,6.48,0.50,0.68,0.53,28.87,8.25,42.56,0.08,0.05,0.53,0.24,0.56,0.70,0.37
3.97,115.44,48.63,157.00,7.52,2.91,6.52,0.51,0.64,0.49,28.87,8.25,42.56,0.58,0.92,0.74,0.24,0.56,0.70,0.37
3.98,117.81,47.75,156.19,8.21,3.99,6.94,0.68,0.70,0.36,27.69,10.88,45.38,0.95,1.33,0.91,0.23,0.56,0.70,0.38
4.00,121.94,46.37,154.75,7.23,3.48,6.38,0.49,0.40,0.30,27.69,10.88,45.38,0.13,0.59,0.26,0.21,0.57,0.70,0.38
4.01,123.62,45.88,154.12,7.36,3.75,6.47,0.47,0.38,0.28,26.00,12.69,45.00,0.32,0.77,0.33,0.20,0.57,0.70,0.38
4.02,125.19,45.31,153.56,7.41,3.69,6.51,0.41,0.40,0.26,26.00,12.69,45.00,0.43,0.62,0.34,0.20,0.57,0.70,0.38
4.03,125.87,45.06,153.31,6.89,3.48,6.21,0.32,0.28,0.25,24.06,14.19,45.75,0.03,0.34,0.02,0.19,0.57,0.70,0.38
4.04,127.06,44.75,152.87,6.81,3.66,6.46,0.29,0.14,0.21,24.06,14.19,45.75,0.07,0.46,0.27,0.19,0.57,0.70,0.38
4.05,128.06,44.50,152.38,6.80,3.94,6.53,0.35,0.16,0.12,24.06,14.19,45.75,0.06,0.67,0.34,0.19,0.57,0.70,0.39
4.06,129.06,44.31,152.00,6.74,3.98,6.76,0.34,0.18,0.08,23.38,14.87,44.56,0.28,0.68,0.43,0.18,0.57,0.70,0.39
4.07,129.87,44.13,151.69,6.27,3.52,5.86,0.27,0.16,0.08,23.38,14.87,44.56,0.48,0.04,0.16,0.18,0.57,0.70,0.39
4.08,130.69,43.94,151.37,6.48,3.47,6.05,0.28,0.12,0.08,23.38,14.87,44.56,0.29,0.18,0.12,0.18,0.57,0.70,0.39
4.09,131.44,43.81,151.06,6.49,3.77,6.58,0.27,0.05,0.06,23.25,16.37,45.00,0.33,0.40,0.04,0.18,0.57,0.70,0.39
4.10,132.00,43.75,150.81,6.40,3.94,6.21,0.18,0.05,0.05,23.25,16.37,45.00,0.37,0.47,0.03,0.17,0.57,0.70,0.39
4.11,132.56,43.69,150.62,6.53,3.86,6.18,0.13,0.05,0.06,23.00,17.50,45.75,0.06,0.39,0.04,0.17,0.57,0.70,0.39
4.12,132.87,43.56,150.44,6.85,3.90,6.15,0.11,0.01,0.08,23.00,17.50,45.75,0.24,0.45,0.08,0.17,0.57,0.70,0.39
4.13,133.19,43.56,150.25,7.06,4.06,6.33,0.12,0.03,0.06,23.00,17.50,45.75,0.21,0.52,0.38,0.17,0.57,0.70,0.40
4.14,133.37,43.63,150.00,6.97,4.05,6.64,0.09,0.12,0.04,22.69,17.50,45.00,0.20,0.43,0.58,0.17,0.57,0.70,0.40
4.15,133.31,43.75,149.87,7.03,3.55,6.69,0.01,0.18,0.04,22.69,17.50,45.00,0.25,0.13,0.46,0.17,0.57,0.70,0.40
4.16,132.94,43.94,149.81,7.06,3.35,6.38,0.10,0.24,0.03,23.06,17.06,45.00,0.24,0.19,0.28,0.17,0.57,0.70,0.40
