0.01,173.31,5.56,9.75,0.89,1.73,9.61,0.01,0.0,0.04,7.06,5.69,50.69,0.05,0.07,0.0,0.06,0.05,0.08,0.99
0.02,173.38,5.56,9.75,0.85,1.8,9.63,0.02,0.01,0.01,6.25,5.69,49.88,0.09,0.14,0.01,0.06,0.05,0.08,0.99
0.03,173.38,5.56,9.75,0.94,1.69,9.59,0.02,0.02,0.02,6.25,5.69,49.88,0.01,0.04,0.02,0.06,0.05,0.08,0.99
0.04,173.38,5.56,9.69,1.03,1.7,9.58,0.02,0.02,0.01,6.25,5.69,49.88,0.07,0.05,0.03,0.06,0.05,0.08,0.99
0.05,173.38,5.62,9.69,0.97,1.76,9.66,0.02,0.02,0.0,6.69,6.5,51.19,0.0,0.11,0.04,0.06,0.05,0.08,0.99
0.06,173.38,5.62,9.69,1.0,1.78,9.67,0.02,0.01,0.01,6.69,6.5,51.19,0.04,0.14,0.05,0.06,0.05,0.08,0.99
0.07,173.38,5.62,9.69,0.96,1.78,9.68,0.0,0.02,0.02,7.06,5.69,51.19,0.07,0.12,0.03,0.06,0.05,0.08,0.99
0.08,173.38,5.69,9.69,0.95,1.65,9.65,0.0,0.02,0.03,7.06,5.69,51.19,0.02,0.0,0.03,0.06,0.05,0.08,0.99
0.09,173.38,5.69,9.69,0.86,1.51,9.69,0.01,0.0,0.01,7.06,5.69,51.19,0.1,0.12,0.07,0.06,0.05,0.08,0.99
0.1,173.38,5.69,9.63,0.95,1.62,9.56,0.02,0.0,0.0,6.69,5.69,50.69,0.02,0.01,0.05,0.06,0.05,0.08,0.99
0.11,173.38,5.69,9.63,0.96,1.73,9.56,0.02,0.0,0.02,6.69,5.69,50.69,0.0,0.09,0.05,0.06,0.05,0.08,0.99
0.12,173.38,5.69,9.63,0.95,1.73,9.58,0.02,0.01,0.01,7.75,6.06,51.56,0.04,0.08,0.03,0.06,0.05,0.08,0.99
0.13,173.25,5.69,9.56,0.84,1.76,9.58,0.01,0.02,0.01,7.75,6.06,51.56,0.12,0.13,0.03,0.06,0.05,0.08,0.99
0.14,173.25,5.69,9.56,0.88,1.55,9.62,0.02,0.08,0.03,7.75,6.06,51.56,0.07,0.07,0.0,0.06,0.05,0.08,0.99
0.15,173.31,5.56,9.56,0.82,1.62,9.72,0.03,0.08,0.04,7.06,6.06,51.19,0.17,0.1,0.13,0.06,0.05,0.08,0.99
0.16,173.38,5.5,9.5,0.76,1.8,9.77,0.07,0.14,0.08,7.06,6.06,51.19,0.42,0.46,0.24,0.06,0.05,0.08,0.99
0.17,173.5,5.31,9.38,0.44,2.28,9.85,0.09,0.15,0.08,6.69,5.69,51.19,0.48,0.95,0.17,0.06,0.05,0.08,0.99
0.18,173.56,5.19,9.25,0.41,2.87,9.85,0.16,0.1,0.07,6.69,5.69,51.19,0.58,1.87,0.04,0.06,0.05,0.08,0.99
0.19,173.62,5.12,9.0,0.15,3.63,9.67,0.22,0.0,0.05,6.69,5.69,51.19,0.8,2.15,0.19,0.06,0.05,0.08,0.99
0.2,173.44,5.12,8.75,0.15,3.74,9.09,0.23,0.02,0.1,7.06,6.5,51.56,0.71,2.14,0.92,0.06,0.05,0.07,0.99
0.21,173.19,5.19,8.56,0.22,3.38,8.23,0.22,0.11,0.25,7.06,6.5,51.56,0.83,1.87,1.5,0.06,0.05,0.07,0.99
0.22,172.87,5.25,8.31,0.09,3.3,8.06,0.21,0.14,0.3,7.06,6.5,51.56,0.93,1.9,1.69,0.06,0.05,0.07,0.99
0.23,172.44,5.37,8.13,0.33,3.45,7.57,0.2,0.19,0.43,6.25,7.56,51.19,0.55,1.98,2.18,0.07,0.05,0.07,0.99
0.24,171.81,5.56,8.0,0.49,3.13,7.46,0.13,0.26,0.69,6.25,7.56,51.19,0.33,1.58,2.07,0.07,0.05,0.07,0.99
0.25,170.94,5.75,7.94,0.6,2.46,7.72,0.1,0.28,0.75,7.06,8.0,50.69,0.31,0.94,1.82,0.08,0.06,0.07,0.99
0.26,170.0,5.94,8.0,0.76,2.18,7.82,0.07,0.27,0.82,7.06,8.0,50.69,0.22,0.7,1.79,0.09,0.06,0.06,0.99
0.27,169.06,6.06,8.06,0.72,1.57,7.92,0.0,0.21,0.82,7.06,8.0,50.69,0.31,0.19,1.72,0.09,0.06,0.06,0.99
0.28,168.06,6.12,8.19,0.74,1.27,7.9,0.08,0.2,0.71,8.56,7.56,51.19,0.26,0.26,1.79,0.1,0.06,0.07,0.99
0.29,167.37,6.25,8.38,0.8,0.95,7.85,0.1,0.17,0.54,8.56,7.56,51.19,0.38,0.59,1.96,0.11,0.06,0.07,0.99
0.3,166.88,6.31,8.56,0.84,0.95,7.56,0.09,0.12,0.36,8.56,7.19,49.19,0.24,0.49,2.07,0.11,0.06,0.07,0.99
0.31,166.62,6.37,8.69,0.83,1.05,7.41,0.07,0.06,0.24,8.56,7.19,49.19,0.27,0.39,2.28,0.12,0.06,0.07,0.99
0.32,166.25,6.37,8.88,1.16,0.93,6.99,0.06,0.05,0.16,8.19,7.19,51.19,0.06,0.57,2.62,0.12,0.06,0.07,0.99
0.33,166.12,6.44,8.94,1.02,0.87,7.17,0.06,0.07,0.16,8.19,7.19,51.19,0.13,0.64,2.34,0.12,0.07,0.07,0.99
0.34,165.62,6.5,9.19,1.5,0.45,8.21,0.14,0.01,0.17,9.69,6.5,50.38,0.37,1.24,1.11,0.12,0.07,0.07,0.99
0.35,165.44,6.44,9.38,1.43,0.3,8.88,0.15,0.04,0.12,9.69,6.5,50.38,0.35,1.3,0.37,0.13,0.07,0.07,0.99
0.36,165.25,6.31,9.56,1.55,0.1,9.8,0.2,0.09,0.06,10.75,6.06,50.69,0.45,1.85,0.62,0.13,0.07,0.08,0.99
0.37,165.62,6.25,9.81,1.48,0.07,10.51,0.23,0.15,0.51,10.75,6.06,50.69,0.4,1.48,0.98,0.12,0.07,0.08,0.99
0.38,166.0,6.19,9.94,1.21,0.39,10.18,0.2,0.13,0.59,11.19,6.06,50.69,0.15,1.29,0.58,0.12,0.06,0.08,0.99
0.39,166.75,6.19,10.0,0.84,0.18,9.65,0.12,0.1,0.72,11.19,6.06,50.69,0.26,1.8,0.16,0.11,0.06,0.08,0.99
0.4,167.81,6.37,10.06,1.82,0.07,10.02,0.17,0.03,1.04,11.19,6.06,50.69,0.73,1.78,0.43,0.11,0.07,0.08,0.99
0.41,170.38,6.62,10.19,2.28,1.68,10.68,0.12,0.19,1.01,9.69,5.0,51.56,0.91,0.17,1.13,0.08,0.07,0.08,0.99
0.42,171.19,6.62,10.06,1.9,1.28,10.5,0.12,0.16,0.75,9.69,6.06,51.56,0.77,0.41,0.91,0.08,0.06,0.08,0.99
0.43,171.81,6.56,9.63,1.92,1.17,9.96,0.33,0.09,0.47,9.69,6.06,51.56,0.54,0.81,0.34,0.07,0.06,0.08,0.99
0.44,172.19,6.56,9.19,1.31,0.44,10.38,0.34,0.06,0.37,9.69,6.06,51.56,0.19,1.11,0.76,0.07,0.06,0.08,0.99
0.45,172.44,6.56,8.75,1.32,0.54,11.12,0.35,0.11,0.42,9.69,6.87,52.75,0.51,0.45,1.88,0.07,0.06,0.07,0.99
0.46,173.0,6.44,8.31,1.79,1.24,11.55,0.33,0.17,0.55,9.69,6.87,52.75,0.66,0.08,1.99,0.06,0.06,0.07,0.99
0.47,173.62,6.37,7.87,1.59,1.12,11.48,0.36,0.15,0.54,8.19,8.0,54.06,0.49,0.21,1.83,0.06,0.06,0.07,0.99
0.48,174.19,6.37,7.31,1.25,0.64,10.38,0.45,0.04,0.52,8.19,8.0,54.06,0.2,0.57,0.32,0.05,0.06,0.06,1.0
0.49,174.69,6.44,6.69,1.36,0.85,9.87,0.52,0.01,0.51,8.19,8.0,54.06,0.26,0.29,0.19,0.05,0.06,0.06,1.0
0.5,175.62,6.44,5.62,1.5,1.97,10.14,0.39,0.05,0.35,7.87,9.5,52.75,0.12,0.77,0.67,0.04,0.06,0.05,1.0
0.51,176.0,6.44,5.12,0.79,0.89,10.82,0.39,0.01,0.32,9.06,11.38,52.38,0.3,0.01,1.11,0.03,0.06,0.04,1.0
0.52,176.31,6.44,4.62,0.98,0.35,10.63,0.45,0.05,0.32,9.06,11.38,52.38,0.18,0.45,0.78,0.03,0.06,0.04,1.0
0.53,176.69,6.44,4.06,1.43,0.23,10.69,0.46,0.04,0.41,9.06,11.38,52.38,0.33,0.46,0.97,0.03,0.06,0.03,1.0
0.54,177.12,6.56,3.44,1.22,0.41,11.18,0.52,0.04,0.37,7.19,12.0,52.38,0.09,0.18,1.46,0.02,0.06,0.03,1.0
0.55,177.38,6.5,2.81,1.54,0.61,10.99,0.59,0.03,0.28,7.19,12.0,52.38,0.42,0.13,1.26,0.02,0.06,0.02,1.0
0.56,177.62,6.56,2.12,0.88,0.34,11.81,0.52,0.06,0.28,7.56,13.5,52.0,0.24,0.03,2.07,0.02,0.06,0.02,1.0
0.57,177.81,6.56,1.56,0.94,0.04,11.66,0.54,0.08,0.22,7.56,13.5,52.0,0.18,0.31,1.92,0.02,0.06,0.01,1.0
0.58,178.06,6.44,0.88,1.73,0.25,9.83,0.55,0.1,0.24,7.56,13.5,52.0,0.63,0.09,0.09,0.02,0.06,0.01,1.0
0.59,178.25,6.37,0.19,0.93,0.97,10.57,0.12,0.01,0.37,7.69,16.5,51.19,0.16,0.94,0.82,0.02,0.06,0.0,1.0
0.6,178.56,6.37,0.0,0.97,0.0,11.07,0.15,0.02,0.26,6.87,17.25,51.19,0.2,0.35,1.66,0.01,0.06,0.0,1.0
0.61,178.56,6.31,0.44,1.6,1.8,10.7,0.13,0.1,0.11,6.87,17.25,51.19,0.52,1.89,0.95,0.01,0.06,0.0,1.0
0.62,178.31,6.25,0.56,1.05,0.87,10.64,0.09,0.07,0.2,7.0,18.0,50.88,0.09,0.02,1.27,0.01,0.05,0.01,1.0
0.63,178.0,6.31,0.62,0.95,0.69,11.07,0.23,0.12,0.36,7.0,18.0,50.88,0.01,0.51,0.87,0.02,0.06,0.01,1.0
0.64,177.5,6.44,0.88,1.68,0.3,10.21,0.28,0.1,0.45,7.0,18.0,50.88,0.11,0.62,1.18,0.02,0.06,0.01,1.0
0.65,177.19,6.56,1.06,1.33,1.08,11.23,0.16,0.08,0.2,6.25,19.06,51.69,0.74,0.77,1.54,0.02,0.06,0.01,1.0
0.66,177.06,6.56,1.25,1.83,1.03,11.45,0.21,0.01,0.09,6.25,19.06,51.69,0.79,0.05,1.12,0.03,0.06,0.01,1.0
0.67,176.69,6.56,1.44,1.8,0.14,10.91,0.2,0.02,0.1,8.06,18.75,50.5,0.83,0.3,1.12,0.03,0.06,0.01,1.0
0.68,176.56,6.56,1.62,2.18,0.13,10.81,0.09,0.08,0.04,8.06,18.75,50.5,0.65,0.31,1.12,0.03,0.06,0.02,1.0
0.69,176.56,6.69,1.69,1.23,0.81,10.99,0.04,0.13,0.03,8.06,18.75,50.5,0.15,1.02,1.42,0.03,0.06,0.02,1.0
0.7,176.75,6.75,1.69,0.64,1.47,11.4,0.05,0.03,0.3,7.37,19.06,50.88,0.53,1.24,2.11,0.03,0.06,0.02,1.0
0.71,177.38,6.69,1.75,0.71,1.02,12.37,0.02,0.07,0.6,7.37,19.06,50.88,0.26,0.03,2.43,0.02,0.06,0.02,1.0
0.72,177.75,6.56,1.87,1.07,0.38,11.8,0.1,0.11,0.49,8.5,19.06,49.69,0.04,0.71,2.07,0.02,0.06,0.02,1.0
0.73,178.06,6.56,2.06,1.22,1.17,11.3,0.15,0.04,0.26,8.5,19.06,49.69,0.41,0.66,1.76,0.02,0.06,0.02,1.0
0.74,178.25,6.69,2.31,1.65,0.6,11.62,0.16,0.15,0.14,8.5,19.06,49.69,0.51,0.21,1.89,0.02,0.06,0.02,1.0
0.75,178.56,7.0,2.69,1.74,0.57,11.4,0.14,0.2,0.22,6.56,19.87,51.25,0.53,0.11,1.68,0.01,0.06,0.02,1.0
0.76,178.81,7.19,2.81,1.61,0.75,11.94,0.06,0.15,0.29,6.56,19.5,48.0,0.38,0.27,2.22,0.01,0.06,0.03,1.0
0.77,179.69,7.19,2.81,0.96,0.01,11.95,0.1,0.03,0.51,6.56,19.5,48.0,0.26,0.49,2.23,0.0,0.06,0.02,1.0
0.78,180.0,7.12,2.81,0.74,0.14,11.34,0.03,0.07,0.61,6.56,19.87,50.0,0.46,0.34,1.62,0.0,0.06,0.02,1.0
0.79,180.63,7.06,2.81,1.61,0.71,11.06,0.03,0.01,0.23,6.56,19.87,50.0,0.4,1.2,1.34,0.01,0.06,0.02,1.0
0.8,180.81,7.06,2.81,1.51,0.34,10.93,0.15,0.02,0.1,6.56,19.06,49.69,0.3,0.12,1.21,0.01,0.06,0.02,1.0
0.81,180.87,7.06,2.62,1.65,0.44,10.29,0.2,0.01,0.03,6.56,19.06,49.69,0.44,0.87,0.57,0.01,0.06,0.02,1.0
0.82,180.87,7.06,2.37,1.93,0.14,10.27,0.28,0.11,0.09,6.56,19.06,49.69,0.71,0.23,0.55,0.01,0.06,0.02,1.0
0.83,180.75,7.19,2.06,1.83,0.38,10.29,0.26,0.12,0.09,5.87,19.06,48.75,0.89,0.03,0.33,0.01,0.06,0.02,1.0
0.84,181.12,7.12,1.31,1.22,0.18,9.79,0.43,0.14,0.23,5.87,19.06,48.75,0.04,0.64,0.21,0.01,0.06,0.01,1.0
0.85,181.37,6.94,0.81,1.41,1.24,9.23,0.52,0.22,0.24,6.56,17.25,48.75,0.05,0.97,0.08,0.01,0.06,0.01,1.0
0.86,181.94,6.56,0.44,1.45,2.21,9.02,0.67,0.26,0.2,5.5,16.5,50.0,0.35,2.07,0.71,0.02,0.06,0.01,1.0
0.87,182.12,6.31,1.19,1.27,2.34,9.58,0.78,0.12,0.14,5.5,16.5,50.0,0.2,2.06,0.16,0.02,0.05,0.01,1.0
0.88,182.0,6.19,2.12,1.19,1.83,9.94,0.85,0.07,0.23,4.37,14.25,50.5,0.04,0.42,0.1,0.02,0.05,0.02,1.0
0.89,181.94,6.06,3.06,0.41,0.3,9.7,0.89,0.18,0.0,4.37,14.25,50.5,0.6,0.91,0.02,0.02,0.05,0.03,1.0
0.9,182.06,5.81,4.06,0.54,0.94,9.81,0.95,0.35,0.21,4.37,14.25,50.5,0.42,0.15,0.08,0.02,0.05,0.04,1.0
0.91,182.19,5.44,5.12,0.76,1.37,9.96,0.99,0.37,0.18,6.19,12.37,50.88,0.05,0.7,0.19,0.02,0.05,0.05,1.0
0.92,182.25,5.0,6.25,0.9,1.39,9.63,1.03,0.42,0.06,6.19,12.37,50.88,0.25,0.01,0.18,0.02,0.04,0.06,1.0
0.93,182.44,4.5,7.37,0.67,1.72,9.04,1.08,0.47,0.09,6.19,12.37,50.88,0.06,0.51,0.96,0.02,0.04,0.07,1.0
0.94,182.69,4.0,8.63,0.77,1.88,8.72,1.14,0.43,0.05,3.5,9.38,50.5,0.07,0.48,0.62,0.02,0.03,0.08,1.0
0.95,182.56,3.56,9.88,0.87,1.95,9.55,1.18,0.45,0.18,3.5,9.38,50.5,0.12,0.25,0.2,0.02,0.03,0.09,1.0
0.96,182.56,3.0,11.19,0.16,1.41,9.8,1.22,0.5,0.05,3.19,6.75,51.25,0.22,0.04,0.27,0.02,0.02,0.1,0.99
0.97,182.69,2.37,12.56,0.41,3.38,8.09,1.26,0.64,0.05,3.19,6.75,51.25,0.72,1.58,1.73,0.02,0.02,0.11,0.99
0.98,182.75,1.81,14.06,0.09,3.48,9.2,1.38,0.46,0.07,3.19,6.75,51.25,0.4,1.09,0.29,0.02,0.01,0.12,0.99
0.99,182.81,1.19,15.69,0.69,2.22,9.85,1.26,0.6,0.02,2.37,3.37,51.37,1.34,1.36,0.35,0.02,0.01,0.14,0.99
1.0,182.88,0.44,17.12,0.18,3.94,8.56,1.35,0.91,0.09,2.37,3.37,51.37,0.19,0.93,0.76,0.03,0.0,0.15,0.99
1.01,183.06,0.44,18.62,0.25,4.98,8.83,1.44,0.9,0.09,0.19,0.37,52.19,0.5,1.89,0.74,0.03,0.01,0.16,0.99
1.02,182.75,1.37,20.25,0.16,4.84,8.76,1.47,0.62,0.63,0.19,0.37,52.19,0.13,0.54,0.4,0.02,0.02,0.18,0.98
1.03,182.19,2.25,21.87,0.61,3.12,8.61,1.52,0.65,0.57,0.19,0.37,52.19,0.39,1.12,0.43,0.02,0.02,0.19,0.98
1.04,181.81,3.25,23.62,0.67,3.08,8.9,1.62,0.82,0.38,1.25,3.37,51.75,0.04,0.23,0.01,0.02,0.03,0.2,0.98
1.05,181.75,4.25,25.5,0.48,4.62,8.5,1.65,0.93,0.21,1.25,3.37,51.75,0.36,0.26,1.18,0.01,0.04,0.22,0.97
1.06,181.63,5.31,27.31,1.34,4.04,6.84,1.57,0.93,0.28,3.19,6.37,51.5,0.27,0.93,1.97,0.01,0.05,0.23,0.97
1.07,181.44,6.37,29.06,1.0,3.97,6.74,1.57,0.82,0.45,3.19,6.37,51.5,0.54,0.13,1.24,0.01,0.06,0.25,0.97
1.08,181.0,7.37,30.81,0.14,4.78,7.95,1.59,0.77,0.5,3.19,6.37,51.5,1.31,0.18,0.34,0.01,0.07,0.26,0.96
1.09,180.81,8.38,32.5,0.18,4.9,7.41,1.53,0.71,0.51,7.25,11.56,50.25,1.26,0.42,1.03,0.01,0.08,0.28,0.96
1.1,180.37,9.25,34.19,0.76,4.63,6.71,1.52,0.64,0.48,7.25,11.56,50.25,0.45,0.82,1.0,0.0,0.09,0.29,0.95
1.11,180.19,10.06,36.0,1.09,5.09,6.93,1.66,0.69,0.18,8.5,15.38,49.5,0.61,0.58,0.87,0.0,0.09,0.31,0.95
1.12,180.12,10.75,37.94,1.25,6.25,7.16,1.71,0.7,0.09,8.5,15.38,49.5,0.8,0.7,0.56,0.0,0.1,0.32,0.94
1.13,180.06,11.44,39.94,1.41,6.67,6.93,1.74,0.7,0.12,8.5,15.38,49.5,0.54,0.5,0.43,0.0,0.11,0.34,0.94
1.14,180.0,12.06,42.0,1.06,6.69,6.54,1.78,0.62,0.13,10.25,18.37,47.88,0.99,0.27,0.57,0.0,0.11,0.35,0.93
1.15,179.75,13.13,45.63,1.81,5.9,6.98,1.51,0.52,0.22,12.56,22.5,45.5,0.42,0.91,0.3,0.0,0.12,0.38,0.92
1.16,179.44,13.75,47.31,2.1,7.72,5.88,1.44,0.5,0.37,12.56,22.5,45.5,0.23,0.72,0.56,0.0,0.13,0.39,0.91
1.17,178.62,15.13,50.25,0.96,6.64,4.06,1.25,0.36,0.48,14.06,25.88,44.19,1.6,0.63,1.98,0.01,0.14,0.41,0.9
1.18,177.81,15.81,51.5,1.63,6.25,5.47,1.21,0.15,0.58,14.06,25.88,44.19,1.04,1.13,0.39,0.02,0.14,0.42,0.89
1.19,177.5,16.06,52.19,1.93,7.0,6.17,1.24,0.32,0.26,17.06,28.19,42.25,0.81,0.5,0.5,0.02,0.15,0.43,0.89
1.2,177.62,16.5,53.63,2.78,7.61,5.07,1.26,0.53,0.0,17.06,28.19,42.25,0.02,0.02,0.38,0.02,0.15,0.44,0.88
1.21,177.75,16.81,55.19,2.78,7.82,4.14,1.23,0.53,0.05,17.06,28.19,42.25,0.07,0.05,1.1,0.02,0.16,0.46,0.88
1.22,178.19,17.06,56.69,2.81,7.89,4.44,1.24,0.47,0.01,18.06,29.69,40.69,0.1,0.09,0.09,0.01,0.16,0.46,0.87
1.23,178.12,17.37,58.19,2.84,8.03,5.05,1.19,0.4,0.17,18.06,29.69,40.69,0.48,0.27,0.26,0.01,0.17,0.47,0.87
1.24,177.75,18.19,60.81,3.71,7.52,4.53,0.99,0.33,0.23,17.37,32.25,37.75,0.35,0.46,0.44,0.02,0.17,0.49,0.85
1.25,177.5,18.69,61.88,3.23,8.34,3.44,0.96,0.48,0.24,17.37,32.25,37.75,0.1,0.28,0.83,0.02,0.18,0.5,0.85
1.26,177.0,19.81,64.12,2.3,6.96,3.91,0.76,0.38,0.37,18.87,34.5,35.75,1.06,1.35,0.03,0.02,0.19,0.51,0.84
1.27,176.63,20.44,65.0,2.04,7.86,3.13,0.83,0.46,0.36,19.87,36.0,34.56,0.94,0.09,0.96,0.02,0.19,0.51,0.83
1.28,176.44,20.94,66.12,3.08,8.23,2.67,1.01,0.34,0.19,19.87,36.0,34.56,0.44,0.17,0.93,0.03,0.2,0.52,0.83
1.29,176.19,21.25,67.31,4.03,7.6,3.29,1.02,0.33,0.05,19.87,36.0,34.56,0.47,0.86,0.12,0.03,0.2,0.53,0.82
1.3,176.44,21.31,68.62,3.28,8.9,2.8,1.05,0.4,0.1,22.19,36.69,32.06,0.2,0.83,0.73,0.03,0.21,0.54,0.82
1.31,176.56,21.31,70.12,4.04,9.53,2.91,1.29,0.43,0.24,22.19,36.69,32.06,0.87,0.96,0.19,0.02,0.21,0.55,0.81
1.32,176.69,21.31,71.75,4.23,9.87,2.8,1.24,0.48,0.15,22.19,36.69,32.06,0.63,1.35,0.61,0.02,0.21,0.56,0.8
1.33,176.63,21.62,73.19,4.46,10.36,1.9,1.12,0.46,0.21,21.37,37.38,29.56,0.67,1.38,0.81,0.02,0.22,0.57,0.8
1.34,176.06,22.13,74.62,3.98,9.13,1.63,1.19,0.25,0.44,21.37,37.38,29.56,0.34,0.03,0.85,0.03,0.22,0.57,0.79
1.35,175.5,22.69,75.94,4.36,8.96,1.6,1.1,0.21,0.47,22.5,38.88,27.56,0.57,0.18,0.58,0.03,0.22,0.58,0.78
1.36,174.69,23.44,77.19,3.18,9.83,0.92,1.07,0.25,0.7,22.5,38.88,27.56,0.82,0.32,0.54,0.04,0.23,0.59,0.77
1.37,173.62,24.12,78.56,3.61,8.26,1.73,1.23,0.12,0.53,22.5,38.88,27.56,0.4,0.49,0.03,0.04,0.23,0.6,0.77
1.38,172.94,24.69,79.81,4.25,8.04,0.94,1.07,0.23,0.47,23.69,40.06,25.5,0.15,0.71,0.62,0.05,0.24,0.6,0.76
1.39,172.31,25.31,81.25,4.2,8.77,0.96,1.18,0.46,0.45,23.69,40.06,25.5,0.26,0.14,0.41,0.05,0.24,0.61,0.75
1.4,171.94,25.88,82.81,3.74,8.72,0.53,1.22,0.43,0.49,25.5,40.06,23.0,0.53,0.02,0.55,0.05,0.25,0.62,0.74
1.41,171.37,26.37,84.31,4.92,7.61,0.54,1.08,0.4,0.36,25.5,40.06,23.0,0.56,1.12,0.32,0.06,0.26,0.63,0.74
1.42,170.62,27.06,85.38,4.59,7.36,0.03,0.77,0.32,0.76,25.5,40.06,23.0,0.12,1.33,0.73,0.06,0.26,0.63,0.73
1.43,169.44,28.31,87.19,3.76,8.38,0.83,0.87,0.32,0.81,27.06,41.56,20.56,0.95,0.2,1.16,0.07,0.27,0.64,0.72
1.44,168.31,29.19,88.25,4.32,6.56,0.39,0.82,0.11,0.78,28.19,40.69,16.5,0.53,1.95,0.57,0.07,0.28,0.64,0.71
1.45,166.62,30.62,90.38,4.66,7.82,0.31,0.83,0.2,0.21,28.19,40.69,16.5,0.34,0.59,0.18,0.08,0.29,0.65,0.7
1.46,166.31,30.88,91.31,4.41,7.71,0.54,0.51,0.02,0.5,30.06,40.38,15.25,1.06,0.4,0.61,0.08,0.29,0.65,0.7
1.47,165.44,31.5,91.87,4.67,7.06,0.29,0.59,0.01,0.42,30.06,40.38,15.25,0.48,1.27,0.61,0.09,0.29,0.65,0.69
1.48,164.69,31.87,92.56,3.94,7.1,0.01,0.62,0.2,0.32,31.56,40.38,14.06,1.54,0.76,0.17,0.09,0.3,0.66,0.69
1.49,164.37,32.19,93.37,3.43,8.21,0.95,0.54,0.0,0.36,31.56,40.38,14.06,1.82,0.04,0.41,0.09,0.3,0.66,0.68
1.5,163.56,32.69,93.94,4.73,6.73,0.51,0.39,0.07,0.46,31.56,40.38,14.06,0.6,1.46,0.07,0.1,0.3,0.66,0.68
1.51,163.12,33.19,94.37,4.85,6.86,0.4,0.41,0.07,0.4,33.06,40.06,13.25,0.1,1.02,0.5,0.1,0.31,0.66,0.68
1.52,162.62,33.56,95.06,3.96,8.55,0.75,0.45,0.22,0.49,33.06,40.06,13.25,1.65,0.15,0.01,0.1,0.31,0.66,0.67
1.53,162.0,34.06,95.69,4.1,7.56,0.79,0.41,0.09,0.48,33.06,40.06,13.25,0.99,1.0,0.13,0.11,0.31,0.67,0.67
1.54,161.75,34.13,96.87,6.2,7.9,0.02,0.53,0.14,0.19,32.75,39.56,12.37,0.42,0.05,1.21,0.11,0.32,0.67,0.66
1.55,162.06,33.94,97.44,4.85,7.47,0.63,0.43,0.07,0.08,35.75,39.56,10.25,0.62,0.58,0.42,0.1,0.32,0.67,0.66
1.56,161.88,34.0,97.69,5.34,7.52,1.62,0.14,0.06,0.09,35.75,39.56,10.25,0.06,0.05,0.99,0.1,0.32,0.67,0.66
1.57,161.31,34.31,97.75,5.95,7.83,1.73,0.14,0.12,0.4,35.75,39.56,10.25,0.42,0.18,0.63,0.11,0.32,0.67,0.66
1.58,160.75,35.0,97.88,4.89,7.62,0.17,0.09,0.1,0.6,34.56,40.06,9.56,0.73,0.33,0.92,0.11,0.32,0.67,0.66
1.59,159.87,35.81,97.88,4.86,7.27,1.04,0.02,0.11,0.75,34.56,40.06,9.56,1.76,0.32,0.7,0.12,0.33,0.67,0.66
1.6,158.56,36.88,97.69,4.16,6.71,1.22,0.09,0.37,1.01,33.88,40.06,10.0,1.72,1.05,0.17,0.12,0.33,0.67,0.66
1.61,157.25,37.88,97.25,3.62,6.55,1.28,0.06,0.51,0.74,33.88,40.06,10.0,2.39,1.12,0.3,0.13,0.33,0.66,0.66
1.62,156.37,38.31,96.87,4.91,5.25,0.77,0.01,0.41,0.26,33.88,40.06,10.0,1.17,2.37,0.15,0.14,0.33,0.66,0.66
1.63,156.44,38.13,96.81,6.0,6.49,0.55,0.16,0.15,0.38,36.0,38.5,10.75,0.05,1.16,1.47,0.14,0.33,0.66,0.66
1.64,156.56,37.88,96.81,6.18,9.31,0.24,0.19,0.19,0.5,36.0,38.5,10.75,0.2,1.6,1.17,0.14,0.33,0.66,0.66
1.65,156.87,37.19,96.75,5.21,9.09,0.71,0.12,0.25,0.34,36.75,38.06,10.0,0.71,1.34,0.2,0.13,0.32,0.67,0.66
1.66,156.94,37.06,96.69,5.24,8.27,0.18,0.18,0.06,0.33,36.75,38.06,10.0,0.64,0.48,1.11,0.13,0.32,0.67,0.66
1.67,157.12,36.69,96.87,6.73,8.07,0.37,0.27,0.03,0.29,36.75,38.06,10.0,0.88,0.25,1.33,0.13,0.32,0.67,0.66
1.68,157.5,36.44,97.12,6.82,10.43,0.89,0.31,0.03,0.09,37.19,38.19,11.19,1.0,2.6,0.11,0.13,0.32,0.67,0.66
1.69,157.37,36.38,97.56,6.62,10.0,0.75,0.4,0.23,0.11,37.19,38.19,11.19,0.79,2.19,0.33,0.13,0.32,0.67,0.66
1.7,157.19,36.44,98.25,6.22,8.49,0.76,0.45,0.27,0.1,34.88,38.88,9.19,0.23,2.52,1.25,0.13,0.32,0.67,0.65
1.71,157.37,36.38,98.87,6.69,5.18,0.97,0.26,0.26,0.12,34.88,38.88,9.19,0.68,0.98,2.21,0.13,0.32,0.68,0.65
1.72,157.62,36.13,99.44,6.5,7.79,0.87,0.26,0.43,0.03,34.88,38.88,9.19,0.43,1.49,0.34,0.13,0.32,0.68,0.65
1.73,157.81,36.25,100.06,5.35,9.77,1.34,0.25,0.34,0.45,34.88,38.56,9.56,1.48,2.05,1.53,0.13,0.33,0.68,0.64
1.74,157.25,36.81,100.62,5.21,9.63,2.67,0.31,0.14,0.75,34.88,38.56,9.56,0.0,1.25,0.14,0.13,0.33,0.68,0.64
1.75,156.31,37.63,101.19,5.43,7.69,1.99,0.26,0.15,0.81,34.88,38.56,9.56,1.3,0.8,0.91,0.13,0.34,0.68,0.64
1.76,155.25,38.44,101.75,4.48,8.96,2.49,0.34,0.07,0.78,34.19,39.69,8.0,1.66,1.37,0.84,0.14,0.34,0.68,0.63
1.77,154.06,39.31,102.31,4.04,7.41,2.47,0.41,0.09,0.78,34.19,39.69,8.0,1.7,0.17,0.57,0.14,0.35,0.68,0.63
1.78,152.69,40.19,102.94,4.93,7.34,1.89,0.5,0.09,0.8,36.0,37.75,8.0,1.39,0.04,0.21,0.15,0.35,0.68,0.63
1.79,151.37,40.88,103.81,6.71,5.81,1.55,0.7,0.05,0.62,36.0,37.75,8.0,0.31,1.44,0.28,0.16,0.35,0.68,0.62
1.8,150.38,41.37,104.69,6.48,5.98,1.59,0.62,0.05,0.39,36.0,37.75,8.0,0.0,1.12,0.27,0.16,0.36,0.68,0.61
1.81,149.81,41.75,105.31,5.99,7.52,2.49,0.48,0.12,0.36,38.69,35.56,6.0,0.54,0.47,0.55,0.16,0.36,0.68,0.61
1.82,148.44,42.44,105.69,5.41,7.86,3.08,0.51,0.3,0.62,38.69,35.56,6.0,1.03,0.02,0.71,0.17,0.36,0.69,0.61
1.83,146.87,43.38,106.19,5.8,6.04,2.21,0.44,0.28,0.82,38.69,36.25,5.0,0.17,1.53,0.56,0.18,0.36,0.68,0.61
1.84,145.44,44.19,106.69,7.11,5.62,1.33,0.48,0.2,0.65,38.69,36.25,5.0,0.2,0.58,0.34,0.19,0.37,0.68,0.6
1.85,144.06,44.88,107.19,6.41,6.24,1.96,0.52,0.23,0.58,38.69,36.25,5.0,0.5,0.38,0.09,0.19,0.37,0.68,0.6
1.86,143.06,45.56,107.75,5.88,5.3,2.04,0.5,0.19,0.58,40.88,34.06,4.69,1.12,1.23,0.04,0.2,0.37,0.68,0.59
1.87,141.94,46.13,108.19,6.28,5.33,1.83,0.38,0.17,0.44,40.88,34.06,4.69,0.7,0.3,0.05,0.2,0.37,0.68,0.59
1.88,141.31,46.5,108.56,6.35,6.19,2.38,0.45,0.18,0.22,42.0,33.25,3.75,0.76,0.2,0.23,0.21,0.38,0.68,0.59
1.89,140.44,46.81,108.94,6.51,6.3,2.72,0.46,0.18,0.23,42.0,33.25,3.75,0.63,0.04,0.54,0.21,0.37,0.69,0.59
1.9,139.37,47.25,109.25,6.58,6.09,1.92,0.42,0.25,0.35,42.0,33.25,3.75,0.61,0.18,0.27,0.22,0.37,0.69,0.58
1.91,138.25,47.81,109.63,6.99,5.31,1.45,0.4,0.24,0.43,41.25,32.88,5.0,0.27,0.88,0.76,0.22,0.38,0.69,0.58
1.92,137.25,48.25,109.94,6.75,5.76,2.4,0.38,0.21,0.3,41.25,32.88,5.0,0.55,0.37,0.17,0.23,0.38,0.69,0.58
1.93,136.81,48.44,110.06,6.93,5.84,2.74,0.38,0.29,0.31,42.75,31.75,3.75,0.43,0.23,0.51,0.23,0.38,0.69,0.58
1.94,136.06,48.87,110.25,6.69,4.56,1.88,0.35,0.32,0.31,42.75,31.75,3.75,0.72,1.44,0.35,0.23,0.38,0.69,0.58
1.95,135.12,49.25,110.44,7.48,4.29,1.54,0.28,0.2,0.13,42.75,31.75,3.75,0.04,1.68,0.69,0.24,0.38,0.69,0.57
1.96,134.75,49.31,110.5,7.32,4.76,1.95,0.22,0.13,0.11,42.75,32.19,3.37,0.47,0.1,0.48,0.24,0.37,0.69,0.57
1.97,134.56,49.25,110.56,6.78,6.2,2.9,0.15,0.14,0.11,42.75,32.19,3.37,0.76,0.11,0.43,0.24,0.37,0.69,0.57
1.98,134.37,49.19,110.5,6.93,5.69,2.21,0.17,0.13,0.09,42.75,32.19,3.37,0.34,0.62,0.39,0.24,0.37,0.69,0.57
1.99,134.25,49.19,110.5,7.33,5.34,1.5,0.12,0.09,0.03,42.38,31.37,4.19,0.02,0.24,0.58,0.24,0.37,0.69,0.57
2.0,134.25,49.0,110.56,6.9,5.82,2.04,0.11,0.01,0.18,42.38,31.37,4.19,0.48,0.2,0.22,0.24,0.37,0.69,0.57
2.01,134.31,48.81,110.63,7.19,5.78,1.79,0.08,0.01,0.15,41.25,31.37,3.75,0.16,0.23,0.52,0.24,0.37,0.69,0.57
2.02,134.31,48.94,110.63,7.12,6.37,2.35,0.03,0.01,0.12,41.25,31.37,3.75,0.38,0.02,0.0,0.24,0.37,0.69,0.57
2.03,134.25,49.13,110.63,6.89,5.81,2.15,0.03,0.05,0.18,43.25,32.19,3.0,0.65,0.5,0.24,0.24,0.37,0.69,0.57
2.04,134.19,49.31,110.69,7.07,5.85,2.55,0.03,0.09,0.03,42.0,31.37,3.75,0.6,0.2,0.23,0.24,0.37,0.69,0.57
2.05,134.31,49.25,110.75,6.48,6.39,2.64,0.0,0.05,0.08,42.0,31.37,3.75,0.75,0.09,0.17,0.24,0.37,0.69,0.57
2.06,134.44,49.13,110.75,6.93,5.6,2.28,0.02,0.03,0.08,42.0,31.37,3.75,0.32,0.21,0.02,0.24,0.37,0.69,0.57
2.07,134.63,49.0,110.75,7.03,6.21,2.37,0.02,0.0,0.11,42.38,31.37,3.0,0.38,0.53,0.43,0.24,0.37,0.69,0.57
2.08,134.69,48.87,110.69,6.92,6.34,2.74,0.01,0.03,0.06,42.38,31.37,3.0,0.42,0.12,0.32,0.24,0.37,0.69,0.57
2.09,134.56,49.0,110.69,7.02,5.46,2.36,0.0,0.05,0.12,42.38,31.75,3.0,0.37,0.54,0.08,0.24,0.37,0.69,0.57
2.1,134.37,49.19,110.69,7.22,5.53,1.91,0.03,0.05,0.12,42.38,31.75,3.0,0.29,0.06,0.4,0.24,0.37,0.69,0.57
2.11,134.25,49.31,110.63,7.04,6.16,1.95,0.04,0.06,0.1,42.38,31.75,3.0,0.45,0.02,0.27,0.24,0.37,0.69,0.57
2.12,134.19,49.44,110.63,7.03,5.11,1.77,0.05,0.05,0.12,42.38,31.37,4.19,0.52,1.17,0.57,0.24,0.37,0.69,0.57
2.13,134.19,49.56,110.5,6.85,4.54,1.46,0.09,0.02,0.05,42.38,31.37,4.19,0.71,1.6,0.96,0.24,0.37,0.69,0.57
2.14,134.44,49.44,110.31,6.37,3.97,0.91,0.12,0.02,0.15,42.75,31.75,4.56,1.48,2.16,1.61,0.24,0.37,0.69,0.57
2.15,135.06,49.13,110.12,5.58,3.57,0.33,0.31,0.22,0.36,42.75,31.75,4.56,1.92,2.74,2.1,0.24,0.37,0.69,0.58
2.16,136.12,48.56,109.87,5.9,3.6,0.07,0.39,0.23,0.46,42.75,31.75,4.56,1.43,1.85,1.93,0.23,0.37,0.69,0.58
2.17,137.5,47.88,109.31,5.76,4.74,0.45,0.55,0.24,0.66,41.69,32.19,3.75,1.85,1.35,1.41,0.23,0.37,0.69,0.58
2.18,139.06,47.06,108.63,4.79,3.78,0.67,0.65,0.07,0.75,41.69,32.19,3.75,2.54,3.32,1.56,0.22,0.37,0.69,0.59
2.19,140.62,46.25,107.56,4.58,2.6,0.28,0.74,0.07,0.8,42.0,33.25,3.75,1.83,4.03,2.12,0.21,0.36,0.69,0.59
2.2,142.37,45.38,106.0,5.4,3.07,0.01,1.01,0.22,0.92,42.0,33.25,3.75,2.05,1.12,0.91,0.2,0.36,0.68,0.6
2.21,146.62,42.94,102.75,3.92,5.46,1.15,1.04,0.11,1.14,39.75,34.38,5.37,2.9,2.7,1.08,0.19,0.35,0.68,0.62
2.22,148.5,41.88,100.87,3.77,4.17,0.12,1.28,0.47,1.05,39.75,34.38,5.37,2.56,2.77,1.76,0.18,0.34,0.67,0.63
2.23,153.19,38.94,95.56,4.14,6.18,0.39,1.78,0.63,1.7,39.0,36.25,7.37,2.23,1.25,0.67,0.16,0.32,0.66,0.66
2.24,155.81,37.06,92.94,3.65,6.58,0.01,1.86,0.64,1.67,39.0,36.25,7.37,2.26,1.22,0.42,0.14,0.31,0.65,0.68
2.25,158.06,35.5,89.81,3.8,6.72,1.36,2.28,0.87,1.43,35.75,37.75,11.88,1.72,1.18,1.54,0.13,0.29,0.64,0.69
2.26,160.37,33.88,86.31,4.06,6.86,2.16,2.7,0.93,1.46,35.75,37.75,11.88,1.04,1.27,1.72,0.12,0.28,0.63,0.71
2.27,162.69,32.13,82.75,4.22,7.03,3.02,2.71,0.92,1.51,31.56,39.25,15.56,0.96,1.22,1.46,0.11,0.27,0.61,0.74
2.28,165.06,30.31,79.19,4.01,7.28,2.67,2.89,0.87,1.5,31.56,39.25,15.56,0.87,0.93,0.82,0.1,0.26,0.59,0.76
2.29,167.37,28.5,75.25,3.65,8.18,3.11,3.27,1.03,1.48,31.56,39.25,15.56,1.03,0.14,0.93,0.09,0.24,0.57,0.78
2.3,169.5,26.69,71.12,3.02,8.55,4.06,3.39,1.08,1.33,28.56,39.25,22.87,1.59,0.34,1.36,0.07,0.23,0.55,0.8
2.31,171.25,25.06,67.12,2.89,8.73,5.46,3.37,1.11,1.12,28.56,39.25,22.87,1.17,0.82,2.0,0.06,0.22,0.53,0.82
2.32,172.69,23.44,62.75,2.77,9.2,6.08,3.71,1.32,0.99,24.5,37.75,30.69,1.12,1.2,1.96,0.05,0.2,0.5,0.84
2.33,174.0,21.81,58.13,2.66,9.08,7.03,3.9,1.38,0.88,24.5,37.75,30.69,1.31,1.51,2.18,0.04,0.19,0.47,0.86
2.34,175.12,20.25,53.63,2.17,9.25,7.54,3.71,1.31,0.76,24.5,37.75,30.69,1.22,1.84,2.09,0.04,0.18,0.44,0.88
2.35,176.06,18.62,49.31,2.43,9.32,8.38,3.64,1.5,0.73,19.37,33.0,37.56,0.69,2.27,2.33,0.03,0.16,0.41,0.9
2.36,176.87,16.87,45.06,2.99,8.86,8.51,3.68,1.53,0.69,19.37,33.0,37.56,0.24,2.05,1.65,0.02,0.15,0.37,0.92
2.37,177.75,15.13,41.06,2.57,8.22,8.38,3.34,1.41,0.85,15.25,27.0,43.69,0.01,1.99,1.25,0.02,0.13,0.34,0.93
2.38,178.75,13.38,37.56,1.31,9.04,8.31,3.08,1.29,0.87,15.25,27.0,43.69,0.94,3.21,0.75,0.01,0.12,0.32,0.94
2.39,179.31,11.69,34.0,1.81,9.25,9.31,3.17,1.47,0.53,15.25,27.0,43.69,0.17,3.88,1.35,0.01,0.1,0.29,0.95
2.4,179.63,10.13,30.44,1.97,8.87,10.04,3.14,1.37,0.36,10.88,19.87,48.38,0.24,3.98,1.72,0.0,0.09,0.26,0.96
2.41,179.75,9.38,28.69,2.49,8.14,9.79,2.9,1.3,0.27,10.88,19.87,48.38,1.01,3.72,1.16,0.0,0.08,0.23,0.97
2.42,179.87,8.0,25.5,1.48,8.12,9.16,2.62,1.28,0.03,7.19,13.19,50.5,0.21,4.16,0.28,0.01,0.06,0.21,0.98
2.43,179.06,5.37,20.0,1.55,6.49,10.04,2.08,1.44,0.08,7.19,13.19,50.5,0.75,3.33,0.79,0.01,0.04,0.16,0.99
2.44,178.38,3.87,17.75,0.97,6.78,10.1,1.78,1.56,0.23,4.5,6.06,52.56,0.44,3.95,0.72,0.01,0.03,0.15,0.99
2.45,177.87,2.31,15.81,0.36,5.99,9.16,1.5,1.43,0.56,4.5,6.06,52.56,0.07,3.46,0.3,0.02,0.02,0.14,0.99
2.46,176.87,1.06,14.13,0.47,5.65,9.36,1.44,1.35,0.89,4.5,6.06,52.56,0.3,2.98,0.29,0.03,0.01,0.12,0.99
2.47,174.87,0.06,12.63,0.25,5.04,9.32,1.3,1.16,1.31,0.0,0.69,51.69,0.34,2.38,0.12,0.04,0.0,0.11,0.99
2.48,173.13,0.81,11.31,0.16,4.21,9.7,1.04,1.25,1.57,0.0,0.69,51.69,0.37,2.2,0.41,0.06,0.01,0.1,0.99
2.49,170.81,1.87,10.25,0.14,3.63,9.96,0.94,1.29,1.6,3.0,2.25,52.75,0.12,1.42,0.38,0.08,0.02,0.09,0.99
2.5,166.88,4.0,8.69,0.76,0.05,10.6,0.77,1.25,1.65,3.0,2.25,52.75,0.07,1.43,0.93,0.11,0.04,0.07,0.99
2.51,164.75,5.19,7.87,1.17,0.44,10.94,0.87,1.28,1.23,6.75,4.06,52.0,0.28,1.79,1.27,0.13,0.05,0.06,0.99
2.52,163.69,6.31,7.06,1.04,0.31,11.15,0.88,1.07,0.69,6.75,4.06,52.0,0.25,1.23,1.55,0.14,0.06,0.05,0.99
2.53,162.81,7.37,6.12,1.24,0.43,11.0,0.91,0.97,0.25,10.19,6.06,50.38,0.02,0.6,1.33,0.15,0.07,0.04,0.99
2.54,162.5,8.38,5.12,1.36,0.6,10.63,0.94,0.91,0.1,10.19,6.06,50.38,0.07,0.26,0.97,0.15,0.08,0.03,0.98
2.55,162.37,9.25,4.06,1.23,0.79,10.36,0.95,0.74,0.0,10.19,6.06,50.38,0.34,0.1,0.71,0.15,0.09,0.02,0.98
2.56,161.94,9.94,3.06,1.3,0.43,10.17,0.92,0.56,0.02,12.88,8.69,49.19,0.38,0.08,0.53,0.16,0.09,0.01,0.98
2.57,161.88,10.19,2.5,1.47,0.44,9.91,0.9,0.4,0.07,12.88,8.69,49.19,0.29,0.09,0.27,0.16,0.09,0.0,0.98
2.58,161.88,10.56,1.5,1.38,0.59,9.9,0.93,0.26,0.12,15.5,10.19,48.25,0.44,0.42,0.26,0.16,0.09,0.01,0.98
2.59,161.5,10.88,0.44,1.39,0.5,9.65,0.97,0.24,0.13,15.5,10.19,48.25,0.48,0.52,0.02,0.16,0.09,0.01,0.98
2.6,161.56,11.12,0.62,0.82,0.27,9.21,1.1,0.19,0.1,15.5,10.19,48.25,1.09,0.49,0.4,0.16,0.1,0.03,0.98
2.61,161.25,11.31,1.94,0.72,0.16,9.09,1.32,0.19,0.0,15.56,12.06,49.19,1.22,0.61,0.5,0.16,0.09,0.03,0.98
2.62,161.06,11.56,3.44,0.91,0.03,9.01,1.58,0.19,0.17,15.56,12.06,49.19,1.07,0.76,0.56,0.16,0.09,0.05,0.98
2.63,160.63,11.75,5.25,0.92,0.04,9.07,1.72,0.21,0.26,15.56,12.06,49.19,1.05,0.79,0.28,0.17,0.09,0.06,0.98
2.64,159.56,12.06,7.19,1.07,0.44,9.29,1.88,0.24,0.37,17.06,14.38,47.88,0.54,0.49,0.37,0.18,0.09,0.08,0.98
2.65,158.94,12.37,9.31,1.66,0.94,8.85,2.04,0.22,0.39,17.06,14.38,47.88,0.35,0.69,0.93,0.18,0.09,0.1,0.97
2.66,158.19,12.69,11.5,1.86,1.29,8.09,2.1,0.22,0.43,15.56,18.06,45.0,0.37,0.35,1.19,0.19,0.09,0.12,0.97
2.67,157.37,13.13,13.81,1.77,1.89,8.44,2.23,0.29,0.54,15.56,18.06,45.0,0.31,0.54,0.69,0.19,0.09,0.14,0.97
2.68,156.5,13.62,16.19,2.18,1.69,8.54,2.22,0.28,0.54,15.56,18.06,45.0,0.4,1.21,0.71,0.2,0.09,0.16,0.96
2.69,155.44,14.06,18.5,2.98,2.02,8.14,2.18,0.25,0.54,17.87,23.38,42.56,0.61,0.73,0.87,0.21,0.09,0.18,0.96
2.7,154.44,14.56,20.69,3.07,2.87,8.13,2.11,0.35,0.7,17.87,23.38,42.56,0.42,0.11,0.07,0.22,0.09,0.2,0.95
2.71,153.06,15.25,22.87,2.96,3.74,9.35,2.03,0.42,0.65,19.75,27.0,40.06,0.21,0.29,1.12,0.23,0.09,0.22,0.95
2.72,152.31,15.88,24.87,2.83,4.33,9.73,1.84,0.35,0.46,19.75,27.0,40.06,0.11,0.26,1.05,0.23,0.09,0.24,0.94
2.73,151.94,16.19,26.75,2.97,4.52,8.86,1.66,0.22,0.0,19.75,27.0,40.06,0.23,0.28,0.45,0.23,0.09,0.25,0.93
2.74,151.63,16.25,28.62,3.16,4.58,8.24,1.61,0.12,0.16,20.5,30.06,36.5,0.63,0.0,0.06,0.24,0.08,0.27,0.93
2.75,151.5,16.25,30.37,3.6,4.52,8.29,1.4,0.04,0.11,20.5,30.06,36.5,0.87,0.34,0.42,0.24,0.08,0.28,0.93
2.76,151.37,16.25,31.87,3.65,4.66,8.6,1.27,0.02,0.16,20.5,33.06,34.5,1.0,0.24,0.71,0.24,0.08,0.29,0.92
2.77,151.31,16.12,33.19,3.73,5.05,8.46,1.07,0.03,0.17,20.5,33.06,34.5,0.92,0.03,0.47,0.23,0.07,0.3,0.92
2.78,151.31,16.0,34.31,3.56,5.45,8.23,0.97,0.04,0.12,20.5,33.06,34.5,0.85,0.13,0.45,0.23,0.07,0.31,0.92
2.79,151.25,15.88,35.31,3.46,5.99,8.27,0.87,0.01,0.15,19.75,35.0,31.06,0.66,0.6,0.76,0.23,0.07,0.32,0.92
2.8,151.69,15.31,36.94,3.2,5.9,8.4,0.5,0.07,0.59,20.5,36.88,30.69,0.61,0.22,0.84,0.23,0.06,0.33,0.91
2.81,152.38,14.81,37.56,2.75,6.01,7.6,0.43,0.07,0.7,20.5,36.88,30.69,0.16,0.18,0.05,0.22,0.06,0.34,0.91
2.82,153.5,13.81,38.88,2.32,5.36,7.76,0.42,0.01,0.58,19.75,38.75,29.87,0.07,0.77,0.42,0.21,0.05,0.35,0.91
2.83,154.06,13.44,39.44,2.47,5.24,7.96,0.36,0.02,0.47,19.75,38.75,29.87,0.21,0.85,0.62,0.21,0.05,0.35,0.91
2.84,154.56,13.13,39.94,2.43,5.31,7.94,0.34,0.06,0.39,16.75,39.38,27.87,0.13,0.82,0.54,0.21,0.05,0.35,0.91
2.85,154.87,13.06,40.38,2.17,5.44,7.64,0.32,0.14,0.24,16.75,39.38,27.87,0.18,0.61,0.2,0.2,0.04,0.36,0.91
2.86,155.12,13.0,40.81,1.87,5.87,7.29,0.33,0.15,0.25,16.75,39.38,27.87,0.31,0.34,0.1,0.2,0.04,0.36,0.91
2.87,155.19,12.88,41.25,1.9,5.96,7.32,0.33,0.11,0.27,18.25,41.37,28.69,0.27,0.42,0.16,0.2,0.04,0.36,0.91
2.88,155.5,12.75,41.63,1.84,5.71,7.36,0.25,0.03,0.28,18.25,41.37,28.69,0.33,0.74,0.34,0.2,0.04,0.37,0.91
2.89,155.81,12.25,41.81,1.88,5.84,7.53,0.18,0.04,0.2,17.06,42.0,28.25,0.17,0.45,0.4,0.19,0.04,0.37,0.91
2.9,155.94,12.06,41.88,1.89,5.95,7.63,0.16,0.06,0.1,17.06,42.0,28.25,0.15,0.44,0.49,0.19,0.04,0.37,0.91
