0.01,-126.5203105406474,79.24423673519527,166.31671111577793,0.29137539477007984,0.2234240426046714,0.06012570950190551,0.6319405340258516,0.3039887397458037,0.8377705813775658,0.2786578019680097,0.7210474678187062,0.20804005918997032,0.6088624309843169,-96.84445255931324,82.74494287870934,110.01697207530283,0.01645018017568512,0.022972787499171025,0.009422468440713098,0.04606430506389057,0.06311557418284043,0.16919482937552502,0.12147437846317652,0.7100584193284174,0.040272302531467484,0.6886834451480579,-179.27728003700727,3.62013099647425,8.946574768500373,0.007900815946907296,0.05565136203957804,0.10445348423824193,0.08144862776556773,0.04795478009304091,0.1374930386878702,-0.030451991654889876,0.08067611146369988,-0.9999919610741387,0.010416750829803355,-145.218654060327,6.463925668394012,13.152801343083423,0.02001997676616171,0.04246236465489565,0.08349870518945567,0.37012558999902523,0.037215758673947434,0.14320716234775643,-0.020580495672589787,0.13048514606488504,-0.9396045533161012,0.3004175187199577
0.02,-126.59491720854056,78.99257995239618,165.88523349188867,0.2978697329271217,0.27311782748539487,0.1044364268850313,0.7048768956862351,0.32234790178740913,0.7638852132657995,0.2762066467106158,0.7221927215666378,0.20298741775657814,0.6082128548862841,-96.84678288219045,82.80186942872974,109.93511456940196,0.017130583145131426,0.023900753877583784,0.013920840410065433,0.08954929345926199,0.0901132955967135,0.18474383122947735,0.12125704475592965,0.7106017816412994,0.03949903049135319,0.6896545660789011,-179.52031119658605,3.371366343105666,8.918057939592945,0.002638130074555575,0.08742990102753605,0.12412322807111063,0.12674948167647407,0.2530907765571477,0.18075052290122384,-0.02866966874831729,0.08032458605388694,-1.000098633721427,0.007767223131247097,-145.43922321644396,6.445081755638171,13.170953258180784,0.0567525224143347,0.08851765760558084,0.10579901473461648,0.6246588324565112,0.2723350607327959,0.19351516936993257,-0.020365300263138406,0.13014165568984365,-0.9417027042458349,0.2988072792334883
0.03,-126.68168797887908,78.74107258356453,165.4477800847058,0.30380665298976617,0.32254947372750903,0.1458199259811547,0.7781019265366007,0.33799861349728183,0.6923659544050255,0.27367778245900004,0.7234396867679639,0.19784364850805747,0.6076375641358646,-96.83846667359238,82.86472715624174,109.88087594848572,0.017595501394314546,0.025837873047528333,0.01845121566360006,0.13079692810657756,0.11641776509231676,0.19882115364910805,0.12123840134713947,0.711099093650436,0.03900946615799876,0.6906410311245276,-179.7578268810229,3.1120401576023218,8.881462909980524,-0.0003235123097060578,0.11986095320146817,0.1416059651310754,0.16926867850507563,0.4558666490434228,0.22285954655963924,-0.02678000324687419,0.07990756793962747,-1.000222730976603,0.005185062322388424,-145.6487037447395,6.436915890510732,13.198764526881224,0.09354415530441461,0.13714832728356294,0.1282970448004711,0.8690181642176102,0.49567666621604406,0.24524307881784507,-0.020206695482327123,0.12989607876500786,-0.9436842438905138,0.29728968007324924
0.04,-126.80768892142501,78.46321993309178,164.99940552592588,0.3089957411069718,0.3730238601922542,0.18272689296259292,0.8522153502027967,0.3493792228053453,0.6270239263856716,0.2709706355996896,0.7250062269979612,0.1923709656892021,0.607043964174392,-96.81576127893237,82.92706384704049,109.93239132126784,0.018408323938495216,0.031687037459960744,0.022884519903836255,0.1721560145493664,0.14164020659204943,0.21073578257511444,0.1219285539612622,0.7114656819229206,0.03929123015011264,0.6914750485647463,-179.9826471406046,2.8418601403832646,8.83873648719823,0.0008919280931631144,0.1530538432499792,0.1554864834232342,0.2066562269340877,0.6504186333306269,0.26522035048641074,-0.024765398920643632,0.0794444690125232,-1.0003545333446804,0.002746953925352213,-145.8324017720192,6.468427233418609,13.249146308309864,0.13032932493386268,0.18997213606226185,0.1509313639572868,1.0950512309465927,0.6977203591171126,0.2999346133798138,-0.020294787460872658,0.1299323704491269,-0.9453934304776511,0.29600426608723446
0.05,-126.99577554653993,78.13314700463454,164.53946906118748,0.3131353043332314,0.4258108161809266,0.21402365269381493,0.9272419573472089,0.3553493197774674,0.5713870747325763,0.2680288156335864,0.7270828917458892,0.18638008827070562,0.606320686470597,-96.7764116396054,82.98182452546811,110.16524214432144,0.020215717074475247,0.04414095696887485,0.027081790072328544,0.21605602023325515,0.16545859956572445,0.21997049684466594,0.12381553527024075,0.7116181589809684,0.04079991713310508,0.6919848487433738,-180.18851475770026,2.562707162895171,8.793251226976366,0.008007898164729464,0.1870881715182509,0.16473344858687847,0.23698905412311022,0.8307712589813203,0.3095839812262126,-0.022630418500127987,0.07896418184322054,-1.0004804832428429,0.0005177635485122532,-145.97703522779918,6.567540947226239,13.333466277792231,0.16683894677419833,0.24812080021575988,0.1735733607837942,1.2953102497401288,0.8702988354639473,0.3592106981611105,-0.02081538982351158,0.1304201588550439,-0.9466938675418408,0.29508111063524506
0.06,-127.26317558003996,77.72665999092283,164.07255669326253,0.31578703827261917,0.4819903237486719,0.2390848265455469,1.0024440314052872,0.35532590116404217,0.5283789964747219,0.2648485837291331,0.729820816156932,0.17974625398259936,0.6053371559636146,-96.72001549366253,83.02119272146842,110.64861512107497,0.023707047216875908,0.06552758194251379,0.030898355094994275,0.26478607940660337,0.18761051666561018,0.22625685102112175,0.1273402379996411,0.7114788580306487,0.043930481118141185,0.691999100439156,-180.37041596931869,2.279121161472988,8.750035355362733,0.022465759641885255,0.22199653793754587,0.16881708857455888,0.25892812743813187,0.9911338936873314,0.357947193647918,-0.020406666257218705,0.07850687311168603,-1.000583496362198,-0.001452462015433605,-146.07146942246314,6.759747329869654,13.460775554000957,0.20255008782645206,0.31206406825151867,0.19602612936888997,1.463380474751462,1.0071185722692169,0.4245766520023721,-0.021941327388264986,0.13150467751433012,-0.9474764845599698,0.29463461421333487
0.07,-127.62087810047927,77.22213730555,163.60839827301533,0.31640507189196543,0.5423218946092893,0.25784980077188646,1.0762338557704028,0.34937499721177573,0.5000772773783839,0.26147778682922984,0.7333248876992143,0.17241495735017526,0.6039465656459373,-96.6482516093422,83.03643716867937,111.44169566638365,0.029567494763799076,0.09768548609289868,0.03418919953720379,0.3203167315017239,0.2079025649287165,0.2296325447319899,0.1328737208978081,0.7109806721811394,0.04899183299262181,0.6913515576889754,-180.52476295858605,1.998506899421307,8.71582545182834,0.04528866545542419,0.25773122910852436,0.1677674939071161,0.2718172515707454,1.1262221710838147,0.41236283333621737,-0.01815465027209001,0.07812485464099254,-1.000643690778024,-0.0031296950606342537,-146.10730991677082,7.0668235302609865,13.637225812289909,0.23668492728817367,0.38149752293125666,0.21802215276290648,1.594228845225143,1.1041716735955498,0.4971736612886352,-0.023824181029585088,0.13329834576623265,-0.94766451899922,0.29475761588938953
0.08,-128.0738616676758,76.60124386205489,163.16078035729217,0.31441778748488003,0.6071469858902795,0.27083145820891563,1.1462212307386517,0.3382363048185673,0.4875716521631089,0.2580052444785813,0.7376522439970272,0.1643970268688786,0.6019922982407365,-96.56493326282411,83.01779558980087,112.59045751363811,0.0384265819230368,0.14187578198939804,0.036816003053168,0.3841739156589971,0.22623177493413246,0.23047313643296938,0.14069792215326762,0.7100720753791312,0.056186229987929444,0.6898859631047344,-180.64941129640388,1.7310091367457299,8.698906087877779,0.0769497917144394,0.29411786794260014,0.16216773255619787,0.2757100767967553,1.231572040586278,0.4746855742295435,-0.01596228559816118,0.07788221496795343,-1.0006395494873497,-0.004495213506458866,-146.0793110607789,7.505687724846236,13.865713558779595,0.2682609965742341,0.45530824436562833,0.23922493480580712,1.6845432716366167,1.1599920609047596,0.5775058825380203,-0.026586673156433174,0.13587454483088693,-0.9472154333772426,0.2955162927998392
0.09,-128.62207621355623,75.84947661810115,162.7456399865917,0.30934483013373504,0.6763303030973962,0.27906861303531216,1.209420161396673,0.3232676549098558,0.4909227350645106,0.2545422351357738,0.7428154262765722,0.15575440866307705,0.599317225094008,-96.47585938275925,82.95442068373067,114.12502838751087,0.05080375987800641,0.19873442940942035,0.038656191905730754,0.4573658113523524,0.24260822042638813,0.22949151813990065,0.15099091409055723,0.7087219674157427,0.06559483411690806,0.6874610825493924,-180.74350495098363,1.48904245946086,8.70872620791294,0.11725951180677817,0.3308040781197294,0.1530859092429945,0.2713233759489996,1.3038179919254378,0.5462901877012601,-0.013940086282010156,0.0778529966088438,-1.0005494857715769,-0.0055430476278583414,-145.98557059099937,8.08744444412201,14.145770660986521,0.29618534823783416,0.5316249596554283,0.2592395051867057,1.7330197765784263,1.175716950742058,0.6651911436881285,-0.030315896552505158,0.1392640394310745,-0.9461200794662433,0.29694640978868464
0.1,-129.2619860876697,74.95655493053049,162.37867213970117,0.3009198848645216,0.7492431644544157,0.2840201271418807,1.2626148719934334,0.30631250109798885,0.5092020395444443,0.2511990924704518,0.7487889561862111,0.14657955151518912,0.5957748129578139,-96.38845177814942,82.83440518348739,116.05781030655042,0.0670528471514615,0.2682657245891546,0.03961383350367369,0.5403534706455618,0.25716712492156446,0.22770156600009916,0.16381780332751256,0.7069238712324512,0.07717041651261589,0.6839556061248174,-180.80717053841954,1.2865007422910608,8.755312194981924,0.16528788498966435,0.3672154329035189,0.1419578447350483,0.2599284738621027,1.3409231686972756,0.6278069386444941,-0.012213419136822537,0.07811784747613477,-1.0003537260291286,-0.006275903152571643,-145.82749956994877,8.81668636016906,14.473702109600193,0.31937728411331107,0.6079501261121053,0.2776327232295104,1.7405497249098938,1.1549382664398773,0.758790966972784,-0.035057685161480924,0.1434543075031296,-0.9443997009524225,0.29905135862160803
0.11,-129.98840310504158,73.91666564694074,162.07286563379654,0.2891870745498145,0.8247890002080599,0.28740788244145615,1.302848344126161,0.28950909252193874,0.5405820719275236,0.2480607559947117,0.7555178314187788,0.13697227132915407,0.5912406264014164,-96.31118820616332,82.644894118007,118.38250286891535,0.08730765103824382,0.3498749830721915,0.03963139943803966,0.6330451257538426,0.27016162194817755,0.22634683315585555,0.17912808269637276,0.7046989521686952,0.09073765139668608,0.6792725601281528,-180.8411136895409,1.1377105662174916,8.848527733152038,0.2193388740512325,0.4025328352628392,0.13043563479619535,0.24320178755196487,1.3423659453150614,0.7189134755542977,-0.010912483237603939,0.07875925050041756,-1.000036365990398,-0.0067002005928520425,-145.60957992610275,9.691118416291411,14.84295417280365,0.3368991343917639,0.6813613791684145,0.29396005473567943,1.710261762791607,1.1033600578542682,0.8557702970134256,-0.04081259933493187,0.14839177891347247,-0.9421015194386666,0.30180217363970824
0.12,-130.7963023926989,72.7285635977855,161.83638436123047,0.27454523455095337,0.9014668000186349,0.29102527259886274,1.327953920584333,0.2750680272228647,0.5824498720441348,0.24516532167649382,0.7629264833506495,0.1270182310467768,0.5856226803215122,-96.25286596018503,82.3722838399483,121.0741294602325,0.11143212093553251,0.4424358693647366,0.038700691437404615,0.7347850084451785,0.281931082911829,0.22679946266306472,0.19675975417068192,0.7020973613574758,0.1060009332301492,0.6733428361678213,-180.8461927587445,1.0562277321103999,8.997255459891615,0.2769910541197127,0.435703591311838,0.12021835893431691,0.22305618589872603,1.3092920741411123,0.8182077729799749,-0.010160959755876282,0.0798556283284801,-0.9995874000321351,-0.006821167577235105,-145.33894330839564,10.701561441395265,15.244678914645576,0.3480731215376125,0.7487605723818017,0.30779476208626105,1.6473825097341168,1.0283000621454088,0.9526169058824864,-0.047534136766380006,0.15398671165491584,-0.9392936270560732,0.3051394885655312
0.13,-131.68232439794238,71.39551943810707,161.67113780558554,0.25772663458369477,0.9774632523011482,0.2965346195793466,1.3370182716422199,0.2650450622884215,0.6315362190480082,0.2424892021391219,0.7709270189483075,0.11677267797709054,0.5788692176956577,-96.22175622632066,82.00250016560707,124.09012172063093,0.13898012247269675,0.544384182073686,0.03687115190556084,0.84430829390322,0.29284502578487925,0.23043735164999135,0.21645009797609113,0.6991975437736472,0.12255930415635005,0.666127437402427,-180.82304991873096,1.0536027155693592,9.208590252364116,0.3352153842073012,0.46549254157308184,0.11288174899129041,0.20147069846256563,1.2446277023783858,0.9231707860804794,-0.010064496628651907,0.08147480775097736,-0.9990044781713615,-0.006639000646459921,-145.02481874267488,11.832372770979154,15.66844489919197,0.3525645782170044,0.8071424164448151,0.3187577053500979,1.5588973996614264,0.9380791583529658,1.045119087176398,-0.05512976220768233,0.16012021116775169,-0.9360597191779441,0.3089772811795821
0.14,-132.64571902866663,69.92510560774758,161.57225701066852,0.2397117895511217,1.0507601882943858,0.3052790883324298,1.3306615273049485,0.2611328130433873,0.6840715488582989,0.23994150613748275,0.7794259488206033,0.10625196678011317,0.5709728649044762,-96.22473190233067,81.52134458868578,127.37248168146868,0.1691726477377178,0.653824890830858,0.0342545508638715,0.9596505564072983,0.3032320101804823,0.23850988086076103,0.23785265318631182,0.6961033589480573,0.13992788715708965,0.6576180878688896,-180.7718653725628,1.1382555047772878,9.487135340688088,0.39057254366210803,0.4905711221309521,0.10972368115899216,0.18033232540782312,1.153123156129019,1.0302184198627138,-0.010700289579863846,0.08366748130496438,-0.9982941215641411,-0.0061468763480624555,-144.67790091340504,13.062290822624252,16.103029840897843,0.3504175053437551,0.8538530717059897,0.3265467850101336,1.4530186775596248,0.8413422021493748,1.1287688185429274,-0.06346513931838325,0.1666527352180051,-0.932493955046065,0.313208173543162
0.15,-133.68857309968863,68.32882298976436,161.52853623162312,0.2215969113769165,1.1192431531985831,0.3181325650550535,1.3110577009055457,0.26449188293841225,0.7359856801054914,0.23736883724079227,0.7883289892484995,0.0954339298094362,0.5619707014657439,-96.266466311354,80.9149000659085,130.8509869576625,0.2009031234142976,0.7686360889958122,0.031026059502869796,1.07803047526381,0.3133141707272347,0.2520054550142504,0.260559622069328,0.6929390686056995,0.15756498550580092,0.6478360102617096,-180.69227278638277,1.3145974935896885,9.834478864508695,0.439480437514239,0.5096336138740781,0.11164036548043259,0.16130159338755698,1.0412779217585009,1.1348424306865272,-0.012108984369500347,0.08646138355896418,-0.9974721367020819,-0.0053311253094922096,-144.30969022585958,14.365669666067134,16.537221370981037,0.34203742453934954,0.8868120709387451,0.33096209471787347,1.3384999120723788,0.7463607467107425,1.1992381488563555,-0.0723715871939562,0.1734333064469969,-0.9286960721521477,0.31770992913131274
0.16,-134.8152686369504,66.62159517826348,161.52374319839555,0.20444157094906293,1.1808011040027453,0.3354059364983006,1.2816852353091184,0.27563827335794305,0.7831608192947604,0.2345701188541507,0.7975438506946448,0.08426664835626298,0.5519404847590496,-96.34880258436841,80.16999535406607,134.4473012262817,0.2327817433565268,0.8865566169614414,0.027422143004400726,1.1957563761222791,0.3231724792741927,0.271536271975856,0.28412831661480503,0.6898424264663064,0.17490351020891368,0.6368289628253168,-180.58344255635265,1.5825123636492477,10.248901684288764,0.4785296053863427,0.5215235986425268,0.1190435302066988,0.14571112014866516,0.9171002743072676,1.2318450725796624,-0.014289936565703733,0.08985686583100824,-0.9965630235755231,-0.00417340064530788,-143.93185534593022,15.714021275475558,16.960550519593934,0.3281275589108041,0.9046775079503095,0.33191930919181156,1.2238709951281255,0.660382374404393,1.2528742692188792,-0.08165634117048816,0.18030859669155255,-0.9247668480945647,0.32235262120488367
0.17,-136.03123516434664,64.8211835491373,161.53856830528804,0.18912786070708196,1.2334147259728554,0.35682101756868273,1.2468658716512746,0.2943971288342008,0.8217324941689598,0.23131954224279694,0.8069811530778759,0.07268388348199585,0.5409939545574676,-96.47038044212495,79.27473541719918,138.07970592530089,0.2632246812577837,1.0052532037945145,0.023735319760527434,1.3082247221232235,0.3327595683003296,0.2972546962772598,0.3081094999091403,0.6869563126584748,0.1913846577030238,0.6246669625552135,-180.44431241595797,1.937258021942215,10.725332422545835,0.5048147414863056,0.5253514501648788,0.13182301790190099,0.13450278767785334,0.7896835510873389,1.3156755884682585,-0.017200461007275375,0.09382438194347077,-0.9955982865678329,-0.0026543672851968097,-143.55566766084388,17.077736536778197,17.363892029009623,0.3095947747171076,0.9069428923063488,0.32944483858868256,1.1166954642658455,0.5891006562085603,1.2871676165333896,-0.09111475819858625,0.18713110981237413,-0.9208040325887317,0.32700582501827136
0.18,-137.34117074551722,62.9475882065543,161.5528982928596,0.17625796571656666,1.27523624052984,0.381553992978949,1.2111942306870511,0.31992321831593484,0.8484158263882563,0.22739454851265492,0.8165537717834945,0.06062448990736354,0.5292686134974494,-96.62657876683855,78.21911023689293,141.66802823993746,0.2905838279241236,1.122372581881309,0.02030518531966517,1.4100712552288979,0.34195914094614094,0.32881172723410634,0.3320748410652287,0.684419610310417,0.20649109166871632,0.6114374121991493,-180.27392601112456,2.3697870093682827,11.25553023797379,0.5162469246538608,0.5205859685452224,0.14935404129606608,0.12820491664978334,0.6686230513095651,1.3808720009391415,-0.020759091995491474,0.0983041163795861,-0.9946137368152346,-0.0007583475989956405,-143.19154791718444,18.427826615253295,17.739886338258128,0.28744791818944687,0.8939628079773887,0.32365330456734653,1.0229607826161085,0.5363117578223813,1.3011547458469408,-0.10054327008400811,0.1937658931716818,-0.9168988647309697,0.3315452023409297
0.19,-138.74699858031772,61.02248758254349,161.5480765883208,0.16610692206492664,1.3046631843649557,0.40833958698226624,1.1789719891861803,0.3507791764622257,0.8608171407976576,0.22260506397426125,0.8261750877505823,0.04805262147454196,0.5169194688949907,-96.80979232699598,76.99568980366415,145.13826592777946,0.31330119328221606,1.2355888051937993,0.017504813521313483,1.4955040796864556,0.35067274142483484,0.3653636978643498,0.35564052293608467,0.6823582198035943,0.21977663690759291,0.5972405051480376,-180.07182857997768,2.8674217351010416,11.828446875306174,0.5118129547982176,0.5071091614889457,0.17054546988032634,0.12694681270544117,0.5633347148543388,1.4225963530130572,-0.024852236251178182,0.10320767523114593,-0.9936461039665813,0.001521648093918167,-142.84874254194636,19.737527505437694,18.08316583003059,0.2627110172766214,0.8669121807534793,0.31471744434655685,0.9466931014589205,0.5037960160921141,1.2957147636205604,-0.10975175608472229,0.20009549551488487,-0.9131332105080373,0.33585803298621475
0.2,-140.24588255749467,59.068736412991456,161.50884835127903,0.15863524644528196,1.3204057045727529,0.4356182442215403,1.1537450210200444,0.38505643491704294,0.8576792651988028,0.21682009165160904,0.8357568096653629,0.03497547872373421,0.5041118907869739,-97.01001634871315,75.60039326712095,148.42644144718565,0.3300643322358596,1.342654696890812,0.01572193902114249,1.558803932968951,0.358904111383977,0.405628652137,0.37848450738748707,0.6808771009581607,0.23088982993764376,0.5821857053943483,-179.83846174773828,3.414780152883173,12.43070202584906,0.49175352089084096,0.4852307787575259,0.19392520827251697,0.13050474260322428,0.48235520488781103,1.4372255793277966,-0.029343164543277036,0.10842150018154023,-0.9927294826662727,0.004179131500198535,-142.53511371490356,20.983644582429896,18.390395741866925,0.2363676692422367,0.8276895130643206,0.30284705494225983,0.8898435228257128,0.4914248556585908,1.273707999818498,-0.11857415344002471,0.20602319129464577,-0.909577244228254,0.3398475388946344
0.21,-141.82863550601786,57.10990086255672,161.4247677372744,0.15355492104011542,1.3215468097052252,0.46170429070610813,1.1380084050691721,0.42052263622945446,0.839012947606454,0.20998819008372402,0.845207182075511,0.021455765941381738,0.49101611270675916,-97.21567210447236,74.03328426235872,151.48135323161142,0.3399380309174888,1.4414610202676723,0.015335099563161663,1.5949342683980625,0.36681158789889157,0.4479870585104306,0.40035603364184313,0.6800540080786305,0.2395895068168195,0.5663897343446065,-179.57549511872156,3.994833240788705,13.047102092666075,0.45763950433390915,0.4556662159749204,0.21775942478048022,0.1383718491205554,0.4326994515547466,1.4229274649389596,-0.03408214684374699,0.11381148857469521,-0.991892219007148,0.007190300823901573,-142.25699434493401,22.147568617535022,18.6601616016373,0.20934310897822367,0.7787769743606574,0.2882932712106509,0.8524370505434606,0.4974590290840748,1.239900879950352,-0.12687651289347496,0.21147476505225155,-0.9062875145084128,0.3434361253243685
0.22,-143.47881276345578,55.169778064605005,161.29094715685886,0.1504332765432729,1.307597294719017,0.4849532120804225,1.1331012914865148,0.45478369894082,0.8060899226304488,0.2021492151377783,0.8544303694492711,0.007616875367910822,0.47780321103492873,-97.41457737245673,72.29930089390396,154.26608357493868,0.3424525174110051,1.5301008742010718,0.01668592986010457,1.6001730496315023,0.37470890822104236,0.490613750830767,0.4210773014579307,0.679935269502475,0.24575167611974874,0.5499759453322699,-179.28603274654358,4.589983809604344,13.661141638302336,0.41233485884151233,0.41948608056660913,0.2402014953363498,0.1498451760474768,0.4193326655037628,1.3801221452812422,-0.03891662735641511,0.11922821076473847,-0.9911547411393128,0.010511880523189618,-142.01904047454235,23.215949377169423,18.892746504284695,0.1825198200492328,0.7230695100524243,0.2713871791957778,0.8329258405496879,0.5189825792849969,1.2006333931114959,-0.1345621676088648,0.21639932850122762,-0.9033052034897211,0.34656785810481877
0.23,-145.17269018898696,53.271842780168484,161.10813493979217,0.14881378950759247,1.2785466672194825,0.5039085667167889,1.1392707227488308,0.4854562840721427,0.7613049377097184,0.19343583726357616,0.8633275526129034,-0.00636000259795989,0.46464192177267777,-97.59495028532947,70.4087934940899,156.7583072993048,0.3376369250834899,1.6069328424806524,0.020049681729062768,1.5726649390121168,0.383011599645318,0.5316236982516441,0.4405385597340562,0.6805337060203119,0.24936792009354786,0.5330744658633637,-178.9746419612071,5.183077786240169,14.255446577822942,0.3598444200062026,0.3780474440896,0.25946242727241886,0.16412416485121525,0.4447892767450673,1.311718766786307,-0.04370055643773368,0.1245121283637659,-0.9905286101521397,0.01408119694093255,-141.824019477713,24.181049219995703,19.089842832089108,0.1567738194961049,0.6636826494430811,0.25260970757455703,0.8286582242557406,0.552410038031005,1.1632196041831115,-0.1415740439859357,0.2207696414912248,-0.9006544178634305,0.3492105756188086
0.24,-146.88018782277697,51.438595312409284,160.88220336747278,0.14833187991489444,1.2349059585727216,0.5174127036755095,1.1558505187713184,0.5103509104847836,0.707938051918597,0.18406470628804844,0.8717998503729469,-0.02024630037071396,0.4516955985569157,-97.74633314795021,68.3777320374878,158.94957852326317,0.325996044120081,1.6706357078462903,0.02560651691697447,1.5127984807220034,0.39214465375189117,0.5692159532695058,0.4586886685780649,0.6818286320508196,0.25053631109128083,0.5158222300463576,-178.64717402838414,5.758284705239813,14.812144393865125,0.3050548925959644,0.3329159794537278,0.27398798909431915,0.18041414754787963,0.5089499582603861,1.2230360122993051,-0.04830225974368001,0.1294983597525662,-0.990016818528231,0.017818738121599228,-141.67250561821103,25.04080940680183,19.254237661812873,0.13301420052079901,0.6037473517560468,0.2326757055695051,0.8363698868184795,0.5940075681502246,1.135124118969241,-0.1478943347914274,0.22458221308471757,-0.8983404776194726,0.3513579468964698
0.25,-148.56664122441214,49.690842925690944,160.6231991854351,0.14880688801054667,1.1777316194535186,0.5246716382052817,1.1814860260297895,0.5276615208525592,0.6498550407478699,0.17431859001178512,0.8797527139743739,-0.033782241576404,0.4391189840523333,-97.86033364568884,66.22746750479517,160.84384109766916,0.3084372882762891,1.720249273373411,0.03341624012155362,1.4233377997081114,0.40243923852405167,0.6018058501848598,0.4755234986479344,0.683767807833559,0.24944630705714543,0.49836205206745354,-178.31038112656526,6.301806114667272,15.313173915585178,0.2533864712313822,0.2857857483574439,0.28262164793750016,0.19802499147057462,0.6089769639820558,1.1213684004113607,-0.05261045062849172,0.13402079202545916,-0.9896151658136784,0.021633058692189115,-141.56250871275105,25.798650914769294,19.389504766842713,0.11220918135652533,0.5462020793336373,0.2126032333919899,0.8526208957042277,0.6403733068766502,1.1230159695172508,-0.1535418000587574,0.22785717191870902,-0.8963483994351562,0.3530314882305392
0.26,-150.19517888568885,48.04700363170553,160.34414307477792,0.15029622726663325,1.1086185950256453,0.525273594336406,1.2143422418823122,0.5361446576674495,0.591176269103393,0.16452208631285004,0.8871010615904431,-0.046696145104315065,0.42705500133676105,-97.93110565814669,63.983987867442394,162.45542193262082,0.2861626106080638,1.755198315401181,0.04339915245176882,1.3092805939463974,0.4140463087690664,0.6281407570746492,0.4910742944318407,0.6862711499814091,0.2463593627640811,0.4808401570413499,-177.97137754538159,6.802385241470282,15.740569747360187,0.21038025182655523,0.2384004848189181,0.2847302425187487,0.216451563180446,0.7394096162689611,1.0152388929760952,-0.05653813792049064,0.1379156205348649,-0.9893144131155326,0.025427485618826812,-141.4891199021988,26.46301401109849,19.499732272004366,0.09538657600555668,0.4935965143140235,0.19373585265060822,0.8741327467914309,0.6888235965415397,1.131845181310105,-0.15856693382226061,0.23063766984915238,-0.8946420174596058,0.35428211168749263
0.27,-151.72937517640395,46.522544660576,160.0597612901076,0.15310309417468226,1.0296572546608087,0.5191697176740758,1.252259234019898,0.5352584140985102,0.5359367072035304,0.15501427376762097,0.8937742364878606,-0.05872404235364182,0.41563211145523143,-97.95553128763329,61.676691852759,163.8067446846941,0.2605453347927152,1.7752984155517275,0.055325660945657704,1.1774644615852223,0.4268859444671697,0.6473958679238518,0.5053974799846147,0.6892359198494857,0.2415871161701432,0.46340202995987995,-177.6370339368045,7.251600444475651,16.07676958108848,0.18125213452818167,0.1924778933139347,0.2802736011084319,0.235422266785987,0.8924288839519882,0.9134565150888768,-0.06002430292556829,0.14102461153071616,-0.9891028531255454,0.029107689899238422,-141.44429725095938,27.04663446785511,19.589311698516454,0.08360261867330375,0.4479248024799742,0.17769581796369552,0.898012093456656,0.7376372303570707,1.164098251876825,-0.1630452508353714,0.23298852485861424,-0.8931643062884687,0.3551904091141253
0.28,-153.1358388595465,45.12964466962745,159.7852981036143,0.15773550310139114,0.9433568771468894,0.5066296848983092,1.2928505824250767,0.5252282865006883,0.4877630512442761,0.14612171389895448,0.8997199601495726,-0.06962720014082759,0.4049627209106302,-97.93311564747702,59.336795957815426,164.92596173656423,0.23301232879272368,1.780743186627939,0.06881695949261031,1.035983917478356,0.4406399646470882,0.659244553329305,0.5185665338295047,0.692543006054552,0.23546899499614607,0.44618698695380704,-177.3134170951392,7.643935140708598,16.304994210963137,0.17044752485281467,0.1496374901703941,0.26980982719413255,0.25490592686100727,1.058301420063863,0.8241432450154491,-0.06303341650681257,0.1431984772172387,-0.9889689196875792,0.032588903825467766,-141.41691578292253,27.565568313043762,19.66280692986381,0.07787880659184039,0.41050609538196786,0.16626561395778036,0.9218738176359385,0.7861296043201498,1.2193637934353165,-0.16706908138138685,0.23499389727283634,-0.8918393855667947,0.35586478450045483
0.29,-154.38646201622348,43.87711210683361,159.53550318857444,0.16482116352350568,0.8525408475563825,0.4881835480099481,1.3335584679128174,0.5070200571052591,0.44960396824027515,0.13813458294898728,0.904906775051314,-0.07920600117386689,0.39514273306300196,-97.86565573052353,56.995567044427055,165.8446589424912,0.20494668107086988,1.7720737072930874,0.08335833353314404,0.8934993028827423,0.45478514788258356,0.6638984726092202,0.5306657725752597,0.696063851414325,0.2283509334542788,0.42932236618993247,-177.00538320788505,7.976633472325783,16.409740390392464,0.18123347089911565,0.11133282835787578,0.25444104894677666,0.27507463798119325,1.2260041822935612,0.7538924416206841,-0.06555313901493802,0.1443007409891481,-0.988903489804096,0.03580154238787468,-141.39317310893722,28.038005353953146,19.724909886460715,0.07911216511198342,0.38192588906127845,0.16121327209729944,0.9438907686306748,0.8345597768063758,1.2942881272535043,-0.17073846434188464,0.23675391335344048,-0.8905764178193192,0.35643678096127795
0.3,-155.46015716187148,42.77053129089429,159.32382814436187,0.17498822059569408,0.7602167082820557,0.46455797393990256,1.3716793026957002,0.48222395737273305,0.4235515542781874,0.13128768922133766,0.9093248730324296,-0.0873096201457685,0.38625189044851965,-97.75677902895107,54.68260732568071,166.59574959155427,0.17761689685795812,1.7501337859496295,0.09832560194383311,0.7585216676891302,0.4686559519813703,0.6621193668023364,0.5417854145555308,0.6996675737926141,0.2205666002731921,0.4129184749413968,-176.7164002725506,8.249373103475776,16.37740722032977,0.21536571136013571,0.07878981479779444,0.23571459532918956,0.29622871965605124,1.3840133428752128,0.707182090153957,-0.06759076239854986,0.14421238899634006,-0.9889015914344359,0.03869431564433487,-141.35738933126163,28.482940543145766,19.78047750262004,0.08797028490959707,0.3620445446895743,0.1640861822866033,0.9627990827398888,0.8839001682328276,1.3829360659688252,-0.17415188916869231,0.23838023543736653,-0.8892752685175296,0.35705337976419194
0.31,-156.34400597054966,41.81256713168264,159.16181648279456,0.1887261953930562,0.6694242173535984,0.43661349782146514,1.404373744529557,0.452875218070309,0.4107779283488044,0.12574713895998885,0.91298550143252,-0.0938417139806031,0.37835431618120324,-97.61145327005237,52.42439691143239,167.21164362730158,0.1521296207372098,1.7160169402663554,0.11302412006022203,0.6387536452131569,0.4815218563982501,0.6552113747826027,0.5520172681234858,0.7032278734512948,0.2124221422013376,0.39706526823829313,-176.44862711972235,8.463807702671033,16.197049483084314,0.272865998579044,0.05295348765871185,0.21549802920824593,0.31869771342182424,1.521218681359496,0.6861103643782201,-0.06916899488795161,0.14283744810067334,-0.9889633134290835,0.04123449227522716,-141.29318351770826,28.918792271041422,19.834635372509062,0.1047871494589719,0.35007127729646875,0.17600074430572063,0.977878714681304,0.9355104731902257,1.4775081280354958,-0.1773977031526024,0.239990673573344,-0.8878334973130559,0.3578665196677425
0.32,-157.0338033854182,41.00334579378881,159.05864372290904,0.2062457348304199,0.5830696674152799,0.4052888759450362,1.4286891583573438,0.4212427991536549,0.4115853532541832,0.12160274697028253,0.9159192397170154,-0.09876272883109304,0.3714987234444063,-97.43554390155265,50.24323205933118,167.72275089165632,0.1293978569404383,1.6710097092380234,0.12673841517709297,0.54055355995822,0.4926675593245631,0.6450009139878301,0.5614507021822891,0.7066293767306547,0.20418499059446793,0.38183123080027537,-176.2032280613165,8.623045006841744,15.86121918698758,0.35193830568051815,0.03444569371723499,0.19584336000730831,0.34273679076668345,1.627897809518555,0.6904628605866949,-0.07032157255966268,0.14010937836184165,-0.9890938113746256,0.04340556628820168,-141.184954255852,29.362066173642546,19.892926387228062,0.12947728524786972,0.34469417918605466,0.1974557801368917,0.9889162144244202,0.9907581968929295,1.5693110263197987,-0.18054696521361632,0.2417030972669201,-0.8861540609197668,0.35902050989910367
0.33,-157.53400593473316,40.340834718095564,159.0207630862196,0.22735946420844697,0.5037615707071923,0.3715565247927438,1.441640537929165,0.38961256714343573,0.425542641162299,0.11886599599545909,0.9181733873011347,-0.10208942869744794,0.3657180183350514,-97.2354543777587,48.15661534910758,168.15634788335691,0.11011706289700433,1.6165319635088173,0.1387885093448592,0.4685649092256817,0.501470237679944,0.6338006561074232,0.5701689328082196,0.7097731197388639,0.19607683726862865,0.3672643547751407,-175.98086565026097,8.731128510612146,15.366824329732632,0.44904033059740595,0.02353567841903306,0.17884920935038992,0.3684389289490698,1.6966557856759332,0.7180677272816283,-0.07108903570050093,0.13599784805269294,-0.9893024076578198,0.04520299660173089,-141.01954018747045,29.826162986815763,19.9614756796746,0.1614837979109277,0.3442499944326117,0.22819644479286752,0.9961499036127501,1.0506274252357184,1.6498353356642839,-0.18364836801760337,0.24362910182708006,-0.8841530496852212,0.36063836663276655
0.34,-157.85710270489596,39.821162611564205,159.05163200228975,0.2514069383610378,0.4336655300861396,0.3363887165431279,1.4403915118298651,0.3600832532623284,0.4516643745329679,0.11747327883389583,0.9198086220624117,-0.10389203496837397,0.3610283011911094,-97.01784612223089,46.17708693893385,168.53580648026258,0.09474583449902474,1.554073107397869,0.1485866555133868,0.42552341011509015,0.5074702324629448,0.6243442202646611,0.5782458659184512,0.7125809134238781,0.18827052970981134,0.3533947153165151,-175.78229370479374,8.792582217947963,14.715907875484094,0.5591098741551536,0.020125218621635948,0.16652343474070455,0.39567835110095917,1.7232127929134782,0.7653505837019933,-0.07151492999903562,0.13051515751378384,-0.98960088877416,0.046628856743560904,-140.78789291306555,30.320419297785342,20.047136631404328,0.19977143879978573,0.3469117065059108,0.2671503233132329,1.0001986295130476,1.1153595523688826,1.7117689220937238,-0.18672556179503147,0.2458680139837177,-0.8817668317733739,0.3628083819236603
0.35,-158.02244538855555,39.43884530933486,159.15152244672646,0.2772424839975887,0.3743919618654357,0.3007300310583046,1.4225388268430041,0.33439051071374387,0.48858595417596384,0.11729408540690735,0.9208950811918925,-0.104289137923989,0.35742747986075796,-96.78941344239446,44.3124464201996,168.88015582961992,0.08349300612813047,1.485126608271546,0.15568695551218215,0.4122308310305838,0.5104284774371549,0.6196759272668759,0.5857437472440241,0.7149983562538537,0.1808904012926838,0.34023802118378726,-175.60896621659435,8.81206132248014,13.916236654676629,0.6759269142276462,0.023750079044535213,0.16064553805547457,0.42409155812710475,1.7069165568239986,0.8279705971109741,-0.07164267320580033,0.12372139066628883,-0.990001200876981,0.047686179361910844,-140.48656715800382,30.8494511247714,20.157578699883793,0.2428697929754164,0.35086904948914227,0.31244867866698106,1.001978182973328,1.1841726060519853,1.7497856619756218,-0.18977687386726214,0.24850181228807214,-0.8789580755908758,0.3655724165877885
0.36,-158.05461174323648,39.1869155504522,159.3174412202377,0.30329586539017006,0.3269227536674757,0.2654707297236059,1.3864511196662326,0.31377590570447367,0.5346951849453191,0.11814356590663783,0.9215080941953783,-0.1034404500761363,0.35489385203217677,-96.55668447593315,42.56629914820537,169.20393060324403,0.07631604696379553,1.4111311099007797,0.1598212638214375,0.42767177792808203,0.5103599781866398,0.6229839595117063,0.5927117966546247,0.7169962911822877,0.17401544929985208,0.3277995975862581,-175.46357952704153,8.794130864080891,12.981593804180768,0.7925757328800651,0.03360001376413514,0.16262953669632627,0.4530928526466815,1.650874696167091,0.9014139574269402,-0.0715132985864954,0.11572735007085044,-0.9905128284226833,0.0483736191517918,-140.11882749591499,31.412845701737048,20.301277018956675,0.28896416975914563,0.3544791051691892,0.3615362364788095,1.0026088550018284,1.2551038875891338,1.7610083097490237,-0.19277714646239769,0.2515913796019585,-0.8757201745320187,0.3689174621050598
0.37,-157.98142664586877,39.05698757130746,159.54319758680577,0.32770429285137204,0.2915784859990497,0.2314190317195503,1.3315820631563504,0.29891736614186754,0.5881986225023357,0.11979853389322372,0.9217238949373351,-0.10153756256606054,0.3533851201260813,-96.32582650158902,40.93885855095133,169.51725146341596,0.07293563627313604,1.3334280538125018,0.16091720195886294,0.4692410004761699,0.5075324388159417,0.6373722454439117,0.5991859096442403,0.7185705597376728,0.16768477419401367,0.3160784617248312,-175.35046982552868,8.743173010653898,11.931689792419576,0.9019613495778508,0.048559545900173265,0.17339332185265566,0.4819153105487961,1.5616483055424508,0.9814521419803738,-0.07116420675564455,0.10669446646383438,-0.9911402023712268,0.04868093624832065,-139.69518844091337,32.005222498484734,20.48736537465146,0.3360237829151856,0.35637171820378793,0.41136468497317236,1.0033144831385874,1.3250106403749466,1.7451326049522657,-0.19568127466763946,0.25517425648481884,-0.8720795834386461,0.37277189767142405
0.38,-157.83180684982395,39.03931050515333,159.81965429263602,0.34850262387157876,0.26802919693555316,0.1992750670910689,1.2586884304176722,0.2899302395130824,0.6471260128279329,0.12201564505749798,0.9216156788170808,-0.09879307157638059,0.35283834972341316,-96.10244695507264,39.42793433536677,169.8260849789423,0.07286897766939132,1.2532407125448164,0.1590963044232522,0.5330410584322385,0.5024254151788607,0.6655768179282311,0.6051893775227958,0.719740015699285,0.16190471654722605,0.3050713809430284,-175.275792963242,8.663404602347024,10.79164156890466,0.9973326944676146,0.06727093882675539,0.19324696907925062,0.5096675010498751,1.4485211890300285,1.0644306640099297,-0.07062893420890089,0.09683113464342533,-0.991880514631853,0.04858580917409354,-139.2332440917601,32.616663936682066,20.72531974366302,0.3819509702050416,0.35550502442314613,0.45865725136463503,1.0053109986287063,1.3897469374266616,1.704273968091408,-0.198428993540025,0.25926383408980036,-0.8680955812975051,0.37700752961804385
0.39,-157.6336145229248,39.12287010931597,160.13518592961742,0.36384829376712924,0.25535444787671535,0.1696118069792724,1.1699183755991678,0.28643527655958323,0.7093012661455653,0.12455033411939849,0.9212503244261001,-0.09542862699239416,0.35317131808086316,-95.89139595077489,38.030027565417946,170.1326373818973,0.07548110759087383,1.171672180606842,0.1546521961594861,0.6142073193355346,0.4956567552902958,0.7096469569832965,0.6107344141112928,0.7205429372180011,0.15665710289911255,0.2947769324154167,-175.24742132080317,8.558971873911322,9.591010124146003,1.072770275213002,0.08821915072530083,0.2218161806812193,0.5353999624075113,1.3224458370165502,1.1474081141171772,-0.06993780654025568,0.08638527597902745,-0.992722304226957,0.0480525766615063,-138.75670550403393,33.233498040114675,21.02445429567201,0.42473400166987035,0.35117652544718675,0.5002212650901524,1.0096821598616035,1.4445128099600322,1.6426269250361014,-0.2009504879818902,0.2638498099733026,-0.8638571225896952,0.38144791443052206
0.4,-157.41169916989986,39.29558656354565,160.47634815981158,0.37224994371612835,0.2521560229895074,0.1428672103316413,1.0687613402248224,0.2876779387194524,0.7723230561558402,0.12717509271452854,0.9206859865286376,-0.09166254152847046,0.3542855039614949,-95.69658711236636,36.741438153275354,170.43584671174014,0.08005018638324057,1.0897160596245965,0.14801174887515078,0.7072249968600132,0.48789336164875996,0.7706260578772202,0.6158241632529788,0.7210321763121389,0.15190795076673283,0.28519951593854664,-175.27451040344243,8.434079878558075,8.362428641916068,1.1236049366331138,0.10983617371542864,0.2580158977193458,0.5581799571949618,1.1948348779920501,1.228188350179721,-0.06911921333215611,0.07563331403809442,-0.9936451171942454,0.047033529369522924,-138.29365207870794,33.83939507786579,21.39324045172844,0.4625890532261651,0.34300290139960204,0.5332722722278106,1.0172424559134736,1.484342873007725,1.5660119276443232,-0.20317246040991935,0.2688997455152166,-0.8594767666557476,0.3858826635267047
0.41,-157.1862841271312,39.54463335415788,160.82873408332526,0.3727650708421688,0.25671715905627607,0.11934887236303654,0.9598565925611747,0.29267682620790275,0.8335955385774004,0.1296957454887259,0.9199706255267506,-0.08769763456073248,0.3560706844777267,-95.52085679284018,35.55927526821831,170.73194895065618,0.08584004953644828,1.0082742314142685,0.13968628818464385,0.8062185441911655,0.47976682363417006,0.8482747972497681,0.6204548772726666,0.7212695342487284,0.14761594504637982,0.27635302228008646,-175.36672358523927,8.293110940686555,7.139895067389292,1.146742544061636,0.1306188612998304,0.3000835750722767,0.5771748800272937,1.0763836104085236,1.3052810082549215,-0.0682011426752126,0.06486613199806976,-0.9946204155296818,0.045473175282789595,-137.87411670414232,34.41671504469063,21.838500369523356,0.4940810325807958,0.33088603951176954,0.5557224907894304,1.0283928799246926,1.504672313218696,1.4813499617229724,-0.20502437303895177,0.27436163410888975,-0.8550821032087197,0.3900865081698119
0.42,-156.9718182665392,39.8568754690347,161.1779618672392,0.36513307678955614,0.267189976115372,0.09924967346971796,0.8486597137064125,0.3003770900861578,0.8904294412699499,0.13196451273336907,0.9191414011717994,-0.08371005539537238,0.3584107996050739,-95.36587723694217,34.48225397541029,171.01510375259377,0.09217135937287331,0.9281776826280994,0.13022245412553912,0.9052074575863656,0.4718112524657222,0.9408769707704934,0.6246180870970685,0.7213199103260993,0.14374001294058586,0.26826356995937267,-175.53315853001263,8.140690431637237,5.956844700858342,1.140874980194997,0.14925019808336784,0.34567381759505,0.5917422434922319,0.9760736975704929,1.377807954361948,-0.06721256538674045,0.05437295183190422,-0.9956137138391125,0.04331544531354822,-137.52724786936315,34.94801290656411,22.364568281610424,0.5182157220121585,0.3149817729388648,0.566386072498294,1.042982783628011,1.5019009498036635,1.3960798714464688,-0.2064446213695126,0.28016741442193166,-0.8508054962287597,0.3938410264719954
0.43,-156.7763692858033,40.219398964894665,161.5107054002157,0.3498172830087366,0.281783803230106,0.0826708065125695,0.7409846806117631,0.30978574560910316,0.9402036738508567,0.1338888573440558,0.9182247520845326,-0.07983993151009276,0.3611904952468844,-95.23213126229466,33.511169207442684,171.278071430939,0.09848174994572957,0.8502059842148809,0.12016091304322078,0.9983315560140427,0.46443397439623685,1.0451622985628433,0.6283027428360398,0.7212457479936988,0.14024539142632322,0.2609705738999126,-175.78108451285541,7.981669751532743,4.844158692101242,1.1065620625545296,0.16470982288766367,0.39200927827831505,0.6015173582385472,0.9004487605239944,1.445366627968305,-0.06618427824067766,0.044424436560833655,-0.9965876741131574,0.0405131892892378,-137.2783920528013,35.417578061956746,22.972541247849456,0.5344979782582001,0.295680231019697,0.5650680857275239,1.06019714441097,1.4738763052603525,1.3175298304864176,-0.2073863293705038,0.28623729869347186,-0.8467732328000609,0.3969563254531219
0.44,-156.60158559883683,40.620082388945065,161.8156567487674,0.32794475840529563,0.29892554700155205,0.06964698467120688,0.6424706406280177,0.32007112651750635,0.980554173584118,0.13543540908308868,0.9172369288191248,-0.07618472604283633,0.36430162571648317,-95.1189497510775,32.64896689280387,171.51293166637825,0.10436596749707365,0.7750993965506626,0.11000639721669245,1.0800592735740477,0.45792147364307967,1.1563775650676504,0.6314974014301415,0.7211022230213257,0.1371077097980397,0.25452549281684733,-176.11465791694,7.821014738928847,3.8282967293853862,1.046175165638361,0.17635720781784486,0.4360797971117451,0.6064820285006527,0.8531991898748396,1.5078707874399946,-0.0651489148638322,0.03525661463954536,-0.9975056609293155,0.037038721674071205,-137.14647634903372,35.812861842230966,23.65974310119476,0.5429542876007698,0.2735949195627167,0.5525303819866102,1.078493644917648,1.4202274053440034,1.2522686549695516,-0.20782231497356246,0.29248466633458636,-0.8430952177677384,0.39928987706581814
0.45,-156.4432037307461,41.04814788626163,162.0843065546904,0.30115451394131215,0.3173697615330152,0.06016816880741937,0.5580476264830573,0.3306188924267181,1.0095550644020832,0.13662864608077993,0.9161847631322774,-0.07279605757578365,0.36764900591790045,-95.02461094795643,31.900381596093577,171.71182499903168,0.10958996912649763,0.7035574572278341,0.1002075083051763,1.1454041233209387,0.4524735387954689,1.268532791282995,0.634192535387784,0.7209335087725941,0.13431481306017692,0.24898789468501084,-176.5338131751212,7.663610027028362,2.9297566325920408,0.963703711953367,0.18397196674312713,0.4748818613356183,0.6069958816465667,0.8350561387003862,1.5653996703793893,-0.06414001843994195,0.02705735063434794,-0.9983351575456367,0.032893796573963185,-137.1420231948793,36.125643574999465,24.419498882929865,0.5441214398206001,0.2495482684443825,0.5303549392722606,1.0956200335252628,1.3424978821297642,1.2054836459815508,-0.20774867662942106,0.2988211687522917,-0.8398562003866364,0.40076023385811627
0.46,-156.29203148158766,41.49462869645772,162.31145068580412,0.27138501329086534,0.3362474178629002,0.05419349070832118,0.4914804495861548,0.3410473139415111,1.0258740570085043,0.13754448858146828,0.9150665484493932,-0.0696803844810265,0.37115481978221915,-94.94650044084172,31.271171866294086,171.8676840024076,0.11407808040708996,0.6362212969183413,0.0911422216535915,1.19017533325699,0.448250226359303,1.3748295486339241,0.6363829535991888,0.7207703327235573,0.13186631092259984,0.24441891108786054,-177.03351576373947,7.514011195292128,2.1620499943058205,0.8644392776011793,0.18774123869213846,0.5056881188377903,0.6037804953717637,0.8439702112894705,1.6180766509920668,-0.06319032126649099,0.01995695740576845,-0.9990505216699053,0.028117341830178007,-137.2660126979946,36.35280975310128,25.24126989936866,0.5390032064541892,0.22454000689146533,0.50074172254539,1.1087440845919596,1.2440541992639,1.1804520656128092,-0.20718649159966007,0.3051616517898838,-0.8371092271954024,0.40135431852105974
0.47,-156.1352978432028,41.952699068027684,162.49537216136005,0.2406424733075253,0.35505414829182197,0.051655836688939694,0.44505532156850813,0.3511894350175983,1.0288980479229466,0.1382994690811159,0.9138730584217524,-0.06680345724673423,0.37476127334718723,-94.8813283804648,30.767046769606626,171.97490790266627,0.11787771488418988,0.5736429749089128,0.08310581967409399,1.2112707961475875,0.44541378864198533,1.4682424874109565,0.638070210274704,0.7206289195189632,0.12977111224345844,0.24087264377008688,-177.60351301942183,7.376190753943977,1.531336190151487,0.7545650714585439,0.18819375841959807,0.5263267344994298,0.5978612838591629,0.8755348036546041,1.665969577708732,-0.06232961720228183,0.014024165652353777,-0.9996347646204388,0.022789570266288077,-137.5096687402556,36.49666834336468,26.11114598630026,0.5289943480149839,0.1996907851798896,0.46627973595870625,1.1147153968955865,1.1297840772900685,1.1781855362059792,-0.20618128549761233,0.31142852909859386,-0.8348716976523597,0.4011280165446156
0.48,-155.95823177776518,42.41782919843511,162.63769396456323,0.21078973579178534,0.37358889317907645,0.05245844922558387,0.41944677807124636,0.36104983992863593,1.018821785353825,0.13903660399841167,0.9125888709057498,-0.06409796808713353,0.3784312973492723,-94.82539313300498,30.392430082664355,172.02992716847115,0.12110976063927324,0.5162507205838694,0.07630061359865636,1.206990383144793,0.44415309625229654,1.5421891170634865,0.6392647767283657,0.7205113071744269,0.12804346258824137,0.23838654966195796,-178.22863901920488,7.2533261332656265,1.0367786873481266,0.6406872231746659,0.18609216856026556,0.5354347710304004,0.5904843708314959,0.9236018242382618,1.7089871517825932,-0.06158273389898595,0.009268077336847352,-1.0000802635388386,0.017031635099654194,-137.8551258479044,36.564776424737744,27.012644627937885,0.5157711779861639,0.1761620053471132,0.4297220889252377,1.1104474392480868,1.0056417594884433,1.1973168869675388,-0.2048001684479231,0.3175553153167391,-0.8331241568111539,0.40020059175382744
0.49,-155.745715122272,42.88774881489137,162.74293957611857,0.1833850574511394,0.3918619080252852,0.05646665563508783,0.4137709678455559,0.3707441093553275,0.9966818576704529,0.13990945247775843,0.9111941901687088,-0.06147352149525454,0.3821473257239636,-94.77487044971119,30.14924389384705,172.03160626014176,0.12391423669812024,0.46432161292630575,0.07082916000967082,1.177317792106828,0.4446860781805466,1.591203077692747,0.639987709255813,0.7204069283775766,0.12669820706015317,0.23697217192983372,-178.88963928752634,7.147667305102793,0.6715864026069863,0.5293473787718271,0.18230520431289854,0.5326388042403842,0.583028487061781,0.9810211532944108,1.7467637238652935,-0.06096805440045022,0.005645952485493955,-1.000388492380099,0.011000704175558191,-138.27685222107294,36.56931026762557,27.927733744862742,0.5011533869325168,0.15506021318874263,0.39378436480613976,1.0933687169754798,0.8781235007500223,1.2342604491724716,-0.20312680215963727,0.3234891427930874,-0.831811814466738,0.3987439288833934
0.5,-155.48385162586445,43.36222656937582,162.81786853036266,0.1595855949559301,0.40999526261926433,0.06349823258615067,0.4258023575180875,0.3804313188179934,0.9643179050614348,0.1410660765271698,0.9096672226413595,-0.05882791627621974,0.3859083849632732,-94.72610039956461,30.035901562232194,171.9814444568952,0.1264008914754828,0.41797271970242483,0.06669358661967836,1.124098248712544,0.4472390687377093,1.6115238925161575,0.6402715914705562,0.720295269072186,0.12574611194456736,0.2366077147088708,-179.56440051383058,7.060503128196967,0.4245951416497176,0.42655501732436873,0.1776848605736045,0.5186211466945089,0.5769249219234003,1.040416357657237,1.778564669173404,-0.060496851953042836,0.0030757750679318327,-1.0005689666036985,0.004881063949467246,-138.74365423919832,36.5260486302264,28.83797835440844,0.4869499563294234,0.13733975912677032,0.3609731881501513,1.0618577638688778,0.7537541800210357,1.2836241050552348,-0.20125465589802077,0.3291922148512382,-0.830848658674335,0.39696791516773283
0.51,-155.1613074260829,43.84269674315311,162.87067338667057,0.14011571218685728,0.42813737430744186,0.07331563195095482,0.4523090285931241,0.39025105616981176,0.9242556414061869,0.14263464793641395,0.9079869247766135,-0.05605866886059154,0.38972591658734307,-94.67584480489272,30.046674975523043,171.883554468322,0.12861315880476276,0.37717832185275985,0.06380316625039217,1.0510354742312735,0.452000777770034,1.60152411016612,0.6401606281272038,0.7201493508107787,0.12519006463006457,0.2372338038044395,-180.2294196744941,6.992226332024879,0.2821533864171162,0.33737495676987367,0.17296873939435228,0.4950534452908273,0.5735876636201679,1.0949033183618142,1.8032637579195427,-0.06017349004188125,0.0014517055131898096,-1.0006376472404341,-0.0011275447818038975,-139.22105802699474,36.45307477240072,29.72570858164124,0.47480712265637903,0.12372007150791936,0.33344216530101795,1.0155631188546412,0.6386354882164063,1.3388104112462191,-0.19927928743933435,0.33464224318521285,-0.8301238576026672,0.3951035048733922
0.52,-154.77030969087627,44.331787029830956,162.91013213959627,0.1252891916518737,0.4464067565403398,0.08562286761843955,0.48944885955853357,0.400273801250539,0.8795210459635524,0.14471219888370018,0.9061357260374834,-0.05307365277258522,0.3936189087310542,-94.6214943701368,30.171545652253688,171.74442109436973,0.13051126478083633,0.3418137388288554,0.0619907751688722,0.9634549495447461,0.4590498785610643,1.561907715298145,0.6397098537347115,0.7199397305576887,0.12502279835651586,0.23875333681001945,-180.86133699533448,6.942482502456512,0.23002760817612553,0.2656013923417741,0.16871734610187408,0.464410234124825,0.5743466362352685,1.1386780966839516,1.8194177519965304,-0.05999637003720627,0.0006600287693864498,-1.0006150554866253,-0.006822865453292551,-139.673850779805,36.36933054686932,30.575113101335564,0.46607561597069797,0.11463257733176833,0.3128698395800004,0.9555281719537806,0.5380688581949333,1.3927288070337334,-0.1972905692533111,0.33983195808413785,-0.8295099305396262,0.39338512178868384
0.53,-154.3072344063525,44.83281712541303,162.94480550217807,0.1150690151764377,0.4648720204601229,0.10006911673523665,0.5331674434089655,0.4104684431220792,0.8334044903895724,0.14735749532107348,0.904101726315986,-0.049799728429542535,0.39760902276780363,-94.56121284960889,30.396574255446655,171.57246245479558,0.1319767563350509,0.31171614811511006,0.06103665214496017,0.8678336567153883,0.46826330900294927,1.495633853037347,0.6389834606221355,0.7196386713518913,0.1252264459323156,0.24103570035751207,-181.43838335177534,6.91037881249767,0.25504901003077135,0.21354319317459294,0.16528552261592983,0.42969778006412296,0.5803707680798713,1.167435987762521,1.8254132472501705,-0.05995939640926716,0.0005932137910384861,-1.0005243223012759,-0.01201290205716844,-140.06857083523485,36.29317186407739,31.373175289415446,0.46170983281989236,0.11020696768211764,0.3003594480671562,0.8840899650501814,0.456246690753669,1.4385430021854897,-0.19536581588825347,0.3447678135982981,-0.8288719863652662,0.39203395619766357
0.54,-153.77276053285652,45.349342531340874,162.98235321998538,0.10914779943061817,0.48356689922229074,0.11625961839084645,0.579551400640605,0.4206868619432256,0.7891998306562339,0.15058836854316582,0.9018799122763186,-0.04618840010535226,0.40171644139282037,-94.4940129456496,30.70474254916001,171.37743293096588,0.13283657996307618,0.2867447795272158,0.060695789591614126,0.7711587585075371,0.47922439727700555,1.4075571896838774,0.6380522632083886,0.7192241108710783,0.12577378642489312,0.24392494253365096,-181.94163671370353,6.894720585351917,0.3462823254220799,0.18193490527748052,0.1628207055600314,0.39414003394948965,0.5925671812195611,1.1786118545706916,1.8196312050118781,-0.060053664336400026,0.0011601641319214896,-1.000389350961951,-0.01652742068669756,-140.3757599875605,36.241072865031114,32.11038910129523,0.46220720024078354,0.1102987704750005,0.29636735722580143,0.8045826468064693,0.3960097615007639,1.470378359160627,-0.19356465201506917,0.34946808505640453,-0.8280772221949324,0.3912434152666488
0.55,-153.17160884852078,45.884807765835724,163.02902180242032,0.10703379942580496,0.5025310569354314,0.1337725277658376,0.6251137904297166,0.4306650800990438,0.7499485510882923,0.1543832300353712,0.8994721226710379,-0.042217921981901586,0.40595707373679285,-94.4197653681526,31.077150814358458,171.1697212448926,0.13290030584467563,0.26682301773180606,0.06072461708440696,0.6802177731548222,0.4911593804998718,1.3038352881133854,0.6369903330498695,0.7186830461920418,0.12663066581563817,0.24725085195024765,-182.3560240414966,6.894236948679198,0.49559047239969034,0.16997489103424562,0.16127951680216007,0.36085733347696913,0.6114539153277672,1.1714433135851048,1.8005865157304488,-0.060269046247070975,0.002291485685890222,-1.000233215045295,-0.020227475841927578,-140.5718261305027,36.226604646819894,32.78121623700747,0.46759290805848824,0.11455208523540124,0.30067013637961537,0.7209249509077077,0.3586834998287911,1.4839076080309486,-0.19192620282641343,0.3539606422444796,-0.8270038513789979,0.3911676045601821
0.56,-152.51191992933778,46.44234890835567,163.0893314243307,0.10813004341589846,0.5218609704855546,0.15217904807138533,0.6670086870239316,0.4400422204594908,0.7182174542053812,0.1586860005621252,0.8968857561842473,-0.03789182359802606,0.41034149124900826,-94.33914923646147,31.49440625319629,170.9596086854523,0.1320006215755924,0.2519532092625082,0.060903684227559776,0.6009277858125216,0.5029321903762946,1.1912145659856614,0.6358708963489608,0.7180139682101624,0.12775889840365215,0.2508414499450084,-182.67103495602197,6.907755131261051,0.6975745920524464,0.1754792159399949,0.1604569376472372,0.33256485980338735,0.6370251356863789,1.146864789884861,1.767037023574775,-0.06059537178480273,0.003939462479668856,-1.000076858822692,-0.023012597897898612,-140.64040032767008,36.25977660899532,33.384269787260415,0.47745145244099113,0.12248411798014179,0.31237982529456276,0.6371878970591968,0.34401470736421297,1.476735095919052,-0.19046881580756175,0.35828069220020264,-0.8255486820865177,0.39191337467943166
0.57,-151.80435725804995,47.02475374154845,163.16596485278887,0.11179769880086733,0.5417523661281126,0.171064102544536,0.7031785054162839,0.4483990223998025,0.6959255685038409,0.16341336381253196,0.8941314598492103,-0.03323437352459183,0.4148755888923858,-94.25355808694897,31.93802197986071,170.7565579270876,0.13002685961220212,0.24220487145794029,0.06105457743978263,0.5377928686203809,0.5131182086533616,1.0763335969541028,0.6347617053434889,0.7172280269792962,0.12911903680575149,0.2545352720432775,-182.8811345490712,6.934293317160118,0.9489668357511486,0.19513065584455072,0.16002618586336845,0.31131409318033015,0.6686464714892992,1.107251673077727,1.7180904049396293,-0.06102299742656326,0.006073284373222129,-0.9999381184216624,-0.02482550174534227,-140.57310824786111,36.34677976920406,33.92222673235773,0.49100094975816294,0.13357274110588888,0.33001631921803193,0.5572224573560601,0.35022703163442875,1.4485272618971559,-0.18919211368046512,0.362468690071659,-0.8236326975425843,0.3935362094164687
0.58,-151.06104429129527,47.63455826337147,163.25983922620026,0.1173992489722263,0.5625182123557296,0.19004541451560425,0.7324319716514012,0.4553147376221868,0.6842188118228,0.1684631710748089,0.8912201968001361,-0.028283886331026794,0.41956259275004654,-94.1649792146245,32.391661413636626,170.5685990504478,0.12694438979256042,0.23768308079278525,0.061050150707978305,0.49355159144910743,0.520159828546298,0.9651575920338956,0.6337202701015572,0.7163487002864716,0.13067264909380802,0.2581920181992589,-182.98588160099217,6.973066227220579,1.2476268198821623,0.2247980580978458,0.15958966672007224,0.2983011172031811,0.705020851110649,1.056046125557111,1.6533481111836328,-0.06154276603459661,0.008670766110409464,-0.9998310448568243,-0.025654348411969875,-140.36971438567033,36.49011835064456,34.40148154272997,0.5072005466972825,0.1473264222798588,0.3516431056010483,0.48439151350345566,0.3742009320193446,1.4008864488907313,-0.18808083686828805,0.36656846942848015,-0.8212042075048724,0.39604003507885877
0.59,-150.2944540340271,48.27423817712752,163.37032494874956,0.12432158018863464,0.58457392502801,0.20878909490067307,0.7544451861436462,0.46043603181620957,0.6833829286240604,0.17372297407670748,0.888160163616607,-0.023084952663081137,0.4244057890689446,-94.07586294147696,32.842102955205114,170.4018667787205,0.12279747181105181,0.238485950111377,0.060817622474865836,0.46904435547578655,0.5225848785057321,0.8625981469817158,0.632789501874724,0.7154098837906221,0.13238402008556827,0.2617005889352497,-182.98977518575362,7.02342761644515,1.591332772309353,0.25990069330393556,0.15874077124688832,0.29376508890141084,0.744250365006006,0.9973062921122171,1.5731046091450172,-0.062145595286273746,0.011708192988403344,-0.9997654865301703,-0.025532734779489107,-140.03763961993596,36.68906697151691,34.831559791685784,0.5248776037288261,0.163319852895568,0.37506320067756654,0.42141258937352166,0.41176711652423165,1.3370142470663726,-0.1871097248598478,0.3706255165850955,-0.8182394464673249,0.39938083486911313
0.6,-149.51636631004175,48.9464447268891,163.49556530252013,0.13198268145586378,0.6083913801107617,0.22701963315008356,0.7696833049490768,0.46354730088724344,0.6927912956078405,0.17907794409176112,0.8849540236416507,-0.01768069331427932,0.42941130006944,-93.9889928224053,33.279854888348275,170.26032473016332,0.11769770697846653,0.24466044707155338,0.06033501393717135,0.4632955572060936,0.5192496029905319,0.7723118714291406,0.6319943688231509,0.7144525298213091,0.1342213934965576,0.2649840377877425,-182.90186004408662,7.084795724811738,1.9765655020789554,0.29579235044986074,0.15713349490897432,0.29699436326462,0.7839935842173326,0.9352317323079389,1.4785746567945834,-0.06282208504624771,0.015149994279079558,-0.9997468793650909,-0.02453762347307608,-139.59089798050294,36.94035445506683,35.22432043215337,0.5428601378704616,0.18118893191082655,0.3980569062644883,0.3702884952857146,0.45808643480010663,1.2612392094949991,-0.18624862056805755,0.3746852476092073,-0.8147408405524708,0.4034737068931906
0.61,-148.73699494909016,49.65423330479865,163.63284490137397,0.13982789093190878,0.6344319377930779,0.24452227020800224,0.7792537904169502,0.46462984324134504,0.7108965593928541,0.18441770256831963,0.8815968564386896,-0.012106065473066254,0.434590363599832,-93.90736076240199,33.69940811018214,170.14569159677427,0.1118034558802908,0.2561654014898451,0.05962265329705723,0.4737754217788836,0.5095575228082363,0.6966352171260967,0.6313400441621426,0.7135202163879029,0.13615794521602623,0.2680014122944121,-182.73511517296512,7.156611067605211,2.397465353948316,0.3281395382337713,0.154553189039394,0.3064464567996817,0.8216895098702083,0.8737259923618055,1.3720768823043996,-0.06356253157373733,0.018939797703945764,-0.9997761959601151,-0.02278528729399918,-139.04854692139344,37.23895797697036,35.59299229480522,0.5601001880670105,0.20059196264659285,0.41862899993548064,0.3322894513750103,0.5080779323807892,1.1784874520420152,-0.18546704728610386,0.37879115874319974,-0.8107334575376646,0.4082027088516856
0.62,-147.96436635862966,50.40123770316752,163.7789551010466,0.1473225153098659,0.6630735605429504,0.2611365770025553,0.784713974176681,0.46389602111963574,0.7352832292334787,0.1896417548265837,0.8780751151402804,-0.006383080254259358,0.4399607922010275,-93.83404582736576,34.09916305743491,170.05756242625196,0.10529697393338679,0.2728492206105769,0.05873215748086884,0.4967869601109956,0.493608562573045,0.6366071685469189,0.630811785604452,0.7126542573557165,0.13817262927714113,0.270746763668124,-182.50563790250703,7.238359890072015,2.845108568779997,0.353268031331943,0.15097824274120158,0.3199732971242279,0.8548019584245051,0.8160512087517309,1.2570869236898192,-0.06435760332600429,0.022994180176071768,-0.9998500182345648,-0.020425121466296037,-138.43279417047745,37.57889574805553,35.95111297228177,0.5757744232822679,0.2211543135461219,0.4352267118069179,0.30795488331506016,0.5568513412814283,1.0937612411371016,-0.18473768838428947,0.38298281577756893,-0.8062603035652504,0.41343254471713253
0.63,-147.2040004953137,51.1917510500158,163.93051198106878,0.15394768901685038,0.6945463628464968,0.2767416561666836,0.7878612731459358,0.46178399528742264,0.7627984858956638,0.19466331426170577,0.874366748448966,-0.0005184989933968882,0.44554746934315215,-93.77209322380244,34.4811002123831,169.99369719846496,0.09836546771138374,0.29444699620206316,0.05773489126725462,0.5279154258262659,0.47224899831906075,0.5920474688827814,0.6303765248127297,0.7118890635766314,0.1402509299677088,0.2732458186990803,-182.23163172229692,7.329668653941113,3.307205909387264,0.368453031507252,0.14662032050966695,0.3351268095552392,0.881042797385425,0.7646082437227087,1.1380970627537785,-0.06519971606478597,0.027200109709052185,-0.9999607172217418,-0.01763109915182557,-137.76694508558393,37.95393078790608,36.311460824122186,0.5893500247666885,0.24241778089141233,0.4468932079611969,0.29710014493784237,0.6000998425218975,1.0116724386546145,-0.18403847780501056,0.38729380606674463,-0.8013771044298648,0.4190209502734565
0.64,-146.4589050663776,52.03068452406449,164.08419887359932,0.15920562857931597,0.7288845034487242,0.2912354257892745,0.7905363155414936,0.45890296538962405,0.789772841032146,0.19941143082328322,0.8704424940609237,0.00549581683196357,0.4513818141188551,-93.72438973596644,34.85027870528717,169.95043086920475,0.0911900812109451,0.32059733633244797,0.05671084249790818,0.5624796211438384,0.44701623133693086,0.5616791304944864,0.6299859338247316,0.7112483792071275,0.1423854835855923,0.2755509733038884,-181.9322215189556,7.430446566385349,3.7682758241779446,0.37213038837890045,0.14193179251007515,0.3495029993944594,0.8985554380770916,0.7208510965011469,1.0202689700331522,-0.06608488801567672,0.03141663186828849,-1.0000967446337747,-0.014590875004590534,-137.07339618218754,38.35813573555743,36.685086847927586,0.6006077258483316,0.26381414748206805,0.45333288600431476,0.29883280916275323,0.634413768232698,0.9360648388783477,-0.1833533459029965,0.3917499428559356,-0.7961470370258655,0.4248305907256246
0.65,-145.72985064591074,52.923385512837086,164.23692788714504,0.16263826824878888,0.7658947963305748,0.3045124699586782,0.7944666360908548,0.45593104476805657,0.8123325245582398,0.20383154639429452,0.8662682053983312,0.01168014685623245,0.45750014378324216,-93.69353295039502,35.214245989294575,169.92314672327885,0.08394361931591328,0.35087485365603527,0.05573821855640292,0.5959368886040572,0.41999467947322366,0.5432974714326362,0.6295805874712067,0.7107428006289386,0.14457654638710254,0.2777353535731815,-181.6261554917618,7.54103491030259,4.210289708216882,0.3640097360058581,0.1375743235331442,0.36106867986237573,0.9060623099660384,0.6853261637447364,0.9089230626897116,-0.06701463558568387,0.035480822089871376,-1.0002430591583715,-0.011493036639249039,-136.37187484948086,38.78630916737554,37.08055716048593,0.6096198477064104,0.28467777399641075,0.4548815957157615,0.31159647247415245,0.6574879531499084,0.8697528425088914,-0.18267197270955107,0.39636812170942765,-0.7906356271549125,0.4307394152866399
0.66,-145.01585781986103,53.875309006259364,164.3859372426306,0.16385920622547773,0.8051391602859269,0.3164463132593682,0.8011666761593931,0.45348419402624457,0.8267889501727083,0.2078848420684822,0.8618079512590848,0.018062359886891515,0.46394088098140385,-93.68169356229359,35.58242755373287,169.90675020545058,0.0767947202387792,0.38483183498347756,0.054884445925089405,0.6242141309811667,0.3936130506980147,0.5339913305004379,0.6290947496552345,0.7103687421290935,0.14683232124845602,0.27988663842553524,-181.3304984425336,7.66231916485288,4.613733270000813,0.34507645993270347,0.13435101660249393,0.3684116361114454,0.9029838580993379,0.6578142959381801,0.8089553584450089,-0.06799739176089588,0.03921748951970447,-1.0003817220621392,-0.008513574512123746,-135.67809207565443,39.23426737455079,37.50350531574405,0.6166880123900388,0.3043057929649362,0.4523926634521559,0.33326232301882713,0.6682143331317847,0.8143949684461136,-0.18198906261542297,0.40115625123895765,-0.7849058048111467,0.4366486746262421
0.67,-144.314804983745,54.89155140950785,164.52885692212772,0.16259380033103135,0.8459290027993589,0.3268816036951202,0.8118908196133716,0.4519866658669466,0.8300656293873683,0.21154690652388228,0.8570275439747077,0.024672443101044404,0.470740645958834,-93.69047335070272,35.96554528946989,169.89608388714595,0.06991450236256631,0.42204264546471204,0.054200065200470306,0.6439577789046098,0.3704147266735418,0.5304178012761444,0.6284612690802133,0.710108812816601,0.1491691241302892,0.28210117035575155,-181.05945941059156,7.795771393209741,4.958982493983352,0.3174797654444756,0.13311279570762627,0.370869652924437,0.8895216728222555,0.6375414463213582,0.7242944119374308,-0.0690490430898652,0.042451649199662926,-1.000492698221497,-0.005803087956049724,-135.0029217298666,39.69905430681987,37.956565839648945,0.6222514602950193,0.3220655594928006,0.4470641616817886,0.36127909670369657,0.666670514347282,0.7705037825495119,-0.18130361169895257,0.4061146036909001,-0.7790130035287587,0.44248810904699637
0.68,-143.62406249843474,55.976274049187225,164.66377836967288,0.1587180122110707,0.8873316158539698,0.335638594560253,0.8276196307580493,0.4515745661205555,0.8200969027573171,0.2148062361341734,0.8518981282613518,0.03153706148459002,0.4779294417068584,-93.72076643646419,36.375091839525446,169.88623576050207,0.06348202925209387,0.4621451939611304,0.053717231689741206,0.6527101134539754,0.35282259652725606,0.5291215169325159,0.6276160731747694,0.7099334295295381,0.15161126613352385,0.28447869799666553,-180.82351126178364,7.943409914558041,5.227860849079877,0.28431789645547845,0.13465464537737393,0.36852465434409026,0.8666807446275996,0.623413427502579,0.6574991077851754,-0.0701924267631371,0.04502242994285796,-1.0005548879604913,-0.003476427542783756,-134.3521555852741,40.17911372947505,38.43971819971666,0.6267814207892066,0.3375368962352116,0.44024150193386385,0.39287449035911803,0.6540260552873687,0.7375737358566646,-0.1806184449232192,0.4112387414121935,-0.7730002373550044,0.4482181026678409
0.69,-142.94107554620564,57.132062519903805,164.78935232563813,0.15228520920856195,0.9281904325732261,0.3425275285800651,0.8490508760792805,0.45205403187493415,0.7961210794375915,0.21766287219050498,0.8463995019070082,0.03867494179161973,0.4855253568528711,-93.77263710844856,36.822869219843604,169.87271199417995,0.057686601896144794,0.5048737196635249,0.05345369698848162,0.6490266090973845,0.34290621950742417,0.5268765141950367,0.626501799698028,0.7098034023671822,0.1541904283549559,0.28711796249470567,-180.62894043989365,8.107683062508274,5.405229086812878,0.24934491226070016,0.13961780642892083,0.36208274202562585,0.8362022071639184,0.6142297119677971,0.609561966468827,-0.0714558906559543,0.046796927120553125,-1.000547391288119,-0.0016063115361596978,-133.72681465741357,40.674454102401185,38.95101911863918,0.6306792624875147,0.3506639787874986,0.4332304278709931,0.42528377270515966,0.6323894478428971,0.7142933396032213,-0.17994006518037484,0.41652388492845194,-0.7668932370829137,0.4538288871514443
0.7,-142.26384397438576,58.359285468648494,164.9049180638239,0.1435327681736091,0.9671616715387472,0.34736730636681507,0.8765666530729219,0.4529203930474519,0.7588036952984686,0.220127231279872,0.8405229101707734,0.04609355374882635,0.49352942093454083,-93.84523120440801,37.32058531520029,169.851468817377,0.05272664195995515,0.5500768963164864,0.05342143536707914,0.6325475924550759,0.3421558100209208,0.5210183932655567,0.6250702121363648,0.7096731809870791,0.15694428672229657,0.29011323376385245,-180.47791006869588,8.291298040759163,5.480460890430498,0.21663235468611908,0.14841143071917548,0.35268439723211753,0.8003930741103791,0.6088445372210851,0.5799388238785117,-0.07287121101706792,0.047682603678116775,-1.0004509702756883,-0.00022193742756257753,-133.12393183514652,41.1868135058594,39.48764903203699,0.6341960150143483,0.3618832432325779,0.4271484561549228,0.45597311272642044,0.6046132572237702,0.6988018537784149,-0.17927865858601716,0.4219702639814226,-0.7606958885627533,0.45933719251143285
0.71,-141.5912691169408,59.65552870763534,165.01064911037244,0.13286622892462563,1.0027676449488705,0.35000338310700385,0.910158111822969,0.45343199348207586,0.7101607835437102,0.22221906843316477,0.8342731308020025,0.05378724024240881,0.5019213583482363,-93.93673745486795,37.87949368327733,169.81882109749512,0.04880602134864526,0.5977163108244196,0.05363699363091479,0.6040272535010819,0.35127903949092837,0.5097294962108092,0.6232832182505028,0.7094944305657999,0.159914217265785,0.29355178406152305,-180.36903714038274,8.497022429002097,5.448675528468745,0.19022163998233516,0.16116348949088305,0.34169372410555776,0.7618666155411747,0.6062654346875131,0.5667834417222387,-0.07447124938686155,0.047637155359155,-1.0002496303033974,0.0006871982581035929,-132.53766780194434,41.719804998404115,40.04715489244336,0.6373879927870959,0.3721931956374131,0.42283055140090725,0.4828298598023483,0.5740645862204652,0.6889519734130588,-0.1786479681004519,0.42758872843611395,-0.754386324826944,0.464781030920325
0.72,-140.9233504241615,61.015184000434516,165.1076918310396,0.12082481007194333,1.033463478393764,0.3503227060208537,0.9493106037946668,0.4527241573474321,0.6532935123196202,0.22396656480779237,0.8276697329216605,0.06173676907841493,0.5106569347769502,-94.04440977214307,38.510060574422134,169.77126252720763,0.04612897639941284,0.6478424789291589,0.054129147321950476,0.5653108672261231,0.3700530193706566,0.49223976477823733,0.6211125441072698,0.7092196087125024,0.16314206746884016,0.29751217420639764,-180.29839099625778,8.72748527595088,5.311628610040041,0.17379916378573773,0.17770653002941633,0.3305038683906204,0.7232337505118586,0.6056992031687735,0.5673273031780339,-0.07628770247830204,0.04667515777300611,-0.9999321916530532,0.0011630220758085726,-131.9605904884536,42.27899879415332,40.62874312298392,0.6401173705448233,0.38314041218721845,0.42079263393285454,0.5043041134709378,0.5443581887768629,0.6825454155006618,-0.1780646840302958,0.4334057578335522,-0.7479140665909223,0.47021345949180116
0.73,-140.26122347722463,62.42926570023124,165.1982708569192,0.10803506716287449,1.0577134154639647,0.3482654594300594,0.992877315210973,0.449943296895086,0.5919820442407332,0.2254056258511493,0.8207474315001008,0.06991023874669686,0.5196673891455665,-94.16465282599097,39.22164490587448,169.7052418482502,0.04489419768278654,0.7005473974506858,0.05493978124874184,0.5192464975544631,0.3972701909683571,0.4689116785389071,0.6185383558374219,0.7088052346804541,0.16666618216883453,0.30206315145713447,-180.26073655802662,8.984998263821428,5.078197727902974,0.1704179385204655,0.1975987762671173,0.3203776570775247,0.6867997395795465,0.6065645511359019,0.5783168373716059,-0.07834917136401563,0.044871182315358804,-0.9994936763225474,0.0012677896157531395,-131.3849415728446,42.87188389098169,41.23446589898115,0.6420981815444032,0.39671170667678834,0.42124779957441666,0.5194951230546401,0.5190506077445488,0.6775164809573624,-0.17754700418704522,0.4394670074144205,-0.7411985941750338,0.4756961537598465
0.74,-139.60704196181223,63.88551136975244,165.28573304002347,0.09515904264144151,1.0740747948591682,0.3438331008039947,1.0389880673768024,0.44437873198628447,0.530211046279832,0.2265794647959979,0.8135554711507819,0.07826523929974105,0.5288611667262529,-94.2931648869846,40.02217886582651,169.6169412409242,0.045287571992283636,0.755894623880712,0.056116403042800085,0.469523002020999,0.4308069073537941,0.4411900774517675,0.6155472845479825,0.7082145802451965,0.17051704945926707,0.3072629059406053,-180.25079386902686,9.27140732678092,4.764433680388055,0.1822807882225198,0.22017542634970613,0.31232863520172716,0.6543170534107087,0.6084869250865039,0.5964145217414032,-0.08067961307539777,0.04235935553701915,-0.9989362996741566,0.0010723500492926777,-130.8037311803721,43.507653447580715,41.87015132040323,0.6429790841681375,0.41514150159291735,0.4241642810059861,0.5281788131262137,0.5013097956465503,0.6720511592507015,-0.17711208638604536,0.4458386472724177,-0.7341296758000957,0.4812934749731026
0.75,-138.9637235859209,65.36878942261795,165.37449815538713,0.08284175622721955,1.0812877193456782,0.3370909503410956,1.085045386040362,0.435571820350423,0.47170774115615915,0.22753838766925566,0.8061560225258633,0.08675201745811426,0.5381278650748895,-94.42512712992685,40.917839987283,169.5020981743772,0.047472109762905376,0.813831824021736,0.05769797616577181,0.42043697618594944,0.46782105680807956,0.4114146694895777,0.6121303481973303,0.7074195724599004,0.17471302561064878,0.31315839216094565,-180.26428366545494,9.587975054976107,4.393173030037153,0.21059404555282862,0.24462050850295308,0.3070422425662599,0.6268315514207948,0.6112809037582613,0.6184936413844114,-0.08329713089711978,0.03932952023143458,-0.998269842758423,0.0006459135469439537,-130.21154030612433,44.19677561597625,42.54595308779325,0.6424467703752587,0.4406605640299339,0.4293500024135399,0.5307745888833287,0.4935949882713992,0.6646456330082314,-0.17677224817816675,0.452605974898969,-0.7265696828043715,0.48706749182445236
0.76,-138.3346033205704,66.86178680236584,165.4698834493749,0.07166217429122466,1.0783652656866476,0.328163533279061,1.127847279441035,0.4233872010172115,0.41956441581528303,0.22833947138759378,0.7986217238174735,0.0953171214354681,0.5473439930650912,-94.55542798376835,41.91271410959064,169.35590286422945,0.051573465639816976,0.8740968328407224,0.05969796492194623,0.3766003103847532,0.505057990918636,0.3825124438331852,0.6082811921167349,0.7064017915079575,0.17925661804147322,0.3197844247761401,-180.29858210032307,9.935288284853929,3.9932209816806545,0.25549773339379206,0.2700477718791922,0.3048366403041836,0.604643913991498,0.614918851406469,0.6418009636352617,-0.08621304699381113,0.03602020840518813,-0.9975112000344399,4.889022114711034e-05,-129.60496294128362,44.95034075375731,43.276436331022715,0.6403299561292718,0.4752231979775507,0.43654654050031505,0.5282545028512777,0.4973905764942393,0.6541225465496194,-0.17652995829994195,0.45986908776149193,-0.7183579912848747,0.4930741686295878
0.77,-137.72305818022335,68.34589640726288,165.57777568362155,0.062091898456902446,1.0646756383553238,0.3172229001079574,1.1638438903104618,0.4080382848125432,0.37599400312436576,0.22904567340904325,0.791032696469945,0.10390675038618716,0.5563798819227282,-94.67891265141806,43.00846448028976,169.17299249231294,0.0576602766952689,0.9361339067355147,0.06208898798094877,0.3426024994049405,0.5392204535168349,0.35760709722689743,0.6039949235292211,0.7051525815821535,0.18413177803225902,0.3271623555740132,-180.3529023472929,10.313185477914148,3.598119535258724,0.3160759185644376,0.29557955709034567,0.30566252787627657,0.5873922192680364,0.6194848207286217,0.6640077297758801,-0.08943123043378028,0.03270858041531296,-0.9966829603044277,-0.0006705247701337711,-128.9826773607384,45.779211279887,44.080169129941375,0.6366840764045825,0.5202532946106335,0.4455157269563312,0.5220032794035276,0.5130315532114046,0.6396294763561416,-0.17637190480703172,0.46773576101935255,-0.7093173741343348,0.4993607112519517
0.78,-137.13217403904687,69.80219011262955,165.70414154827236,0.054465885911497494,1.0400065462902355,0.3044729751380375,1.1894950831899083,0.3900694451989249,0.34223662624397266,0.22972391142351295,0.7834734679297303,0.11246897822464917,0.5651069739508385,-94.79064903728896,44.20404161865708,168.94755181120888,0.06572016304862867,0.9990382939657484,0.06479278507826658,0.3226401465755877,0.5673443313720851,0.3395974772119855,0.5992676327219687,0.7036724584354714,0.18930257202869397,0.33529834599107794,-180.42802851548734,10.720703386097359,3.244525629310614,0.3904468922402957,0.32041425971874016,0.3091397471855693,0.5742406841912601,0.6251158043778734,0.6831986283421702,-0.09294766681187057,0.029697442576675746,-0.9958109973092862,-0.0014762579550892487,-128.34518912159783,46.693036033162926,44.97884759184636,0.6318403499563164,0.5764460643753956,0.4561048042743596,0.5136416348079711,0.5396447947104267,0.6206394124146231,-0.17626270440555653,0.4763120566889491,-0.6992620303170862,0.5059639172145717
0.79,-136.56451251979695,71.21236377488424,165.8543914869768,0.04896884520929665,1.0046042129269495,0.2901340925460763,1.2016693827010652,0.3703082312854341,0.3186051271701945,0.23044177433895316,0.7760301581726121,0.12095422807485001,0.5734047949443293,-94.88620032512662,45.49548352190717,168.6735176387064,0.07563442237145301,1.061542640851885,0.0676778575383198,0.32012964679499695,0.5871199149832084,0.3307617171915323,0.5940965213171784,0.7019701345406155,0.19471345632739553,0.3441815012697822,-180.52571899610845,11.156048334788503,2.9702488974358703,0.4759268206622717,0.3438754810915571,0.3146272243404408,0.5641349962751921,0.6319345548135386,0.6978517969457606,-0.09675025973503333,0.02729958207684785,-0.9949212270054393,-0.0023416833832748075,-127.69432901310343,47.69922158851779,45.996038163834534,0.6264083708507133,0.6436534579348888,0.46828107210745074,0.5048295053177688,0.5752164891228756,0.5969611901676187,-0.17613909978862133,0.48569155301179257,-0.6880066632238016,0.5129093138650297
0.8,-136.0220112333853,72.5595717706625,166.03263492562257,0.04563929421584942,0.9591832927720065,0.27443037914014373,1.1980208378202866,0.3498058398969306,0.304635495190672,0.23126270363644214,0.7687880754486296,0.12931377847864625,0.5811671364633268,-94.96189053372792,46.875858206625324,168.34487220968734,0.08715657500186512,1.122049964167177,0.07056554815053023,0.33733297616087143,0.5971079534322524,0.33243904356438486,0.588480440002402,0.7000615024026485,0.20029120066971906,0.35378230427965407,-180.64795251584863,11.616600988071518,2.8120437253591812,0.5692537267378605,0.36543960147042914,0.32132216479813047,0.5560646454062299,0.6399804646099393,0.7068424621997375,-0.10081887535615204,0.025820029092143686,-0.9940359121461819,-0.0032456512607611557,-127.03261262180904,48.8019740386465,47.15566627039299,0.621227740114256,0.7208690986980837,0.48213330241281904,0.4970706269537267,0.6167820256774287,0.5687556196479132,-0.1759056893428971,0.49594437154130405,-0.6753759024764496,0.5202108654318726
0.81,-135.5060229174156,73.82911091099886,166.24088309925978,0.044390875326088,0.904906363701032,0.2575804026863665,1.1772889510031816,0.3297798368031196,0.29929740729337995,0.23223972233494725,0.7618296519881385,0.13749655242626696,0.5883072216521223,-95.01504276428486,48.33538609405286,167.95599909218598,0.09990091591031329,1.178709283986737,0.0732439201628555,0.37504275417287936,0.5968215375277465,0.34483054923561174,0.5824206103958932,0.6979687855973062,0.20594831952872888,0.36405178069427574,-180.7962036638182,12.098963611669125,2.803310749754174,0.6668520734871572,0.3847430404684641,0.32838198862171203,0.5492680074610735,0.6491490507228417,0.709471142212109,-0.10512566887155401,0.025537413870778465,-0.9931700889748429,-0.004168540845396204,-126.36257367302174,50.00153140043206,48.48040894032272,0.617271073862571,0.8063141734610901,0.49784272679346475,0.4915427712185293,0.6607216547055824,0.5365467356720176,-0.1754332292092714,0.5071073375424568,-0.6612133851245504,0.5278710629424472
0.82,-135.0174746701392,75.00894555521764,166.47827272407736,0.04504789974848236,0.8433322548238155,0.23979082797879045,1.1394761508337148,0.31156352977027996,0.3012209751874476,0.2334081455890325,0.7552325439622926,0.14544483928406035,0.5947617950697932,-95.04416297236637,49.86175037074192,167.50206827453437,0.113346280546408,1.2295245541474202,0.07548771447843414,0.4323781643211339,0.5866753716952253,0.36694477285823773,0.5759213892568135,0.6957198635779822,0.21158769513841635,0.37492165064768873,-180.97090763007574,12.599055682865641,2.9719235163669264,0.7651123461776836,0.4015743270719229,0.3350563825376397,0.5433335582316324,0.6591536727301903,0.7054929518651004,-0.10963574096943363,0.026686157276430516,-0.992328749165388,-0.005089427902996158,-125.68617296961035,51.293693576169474,49.990155166941356,0.6155079070603205,0.897609907651586,0.5156303831237771,0.4889760194316452,0.7031358934027606,0.5012177722652161,-0.17456028373670912,0.5191765699861778,-0.6453899369859424,0.5358812492817278
0.83,-134.55711134434168,76.09007780788735,166.74040233411097,0.04738969716115192,0.7763344195172734,0.22125398532578258,1.085870121785161,0.29655801061015796,0.3089056334144907,0.23477815107639602,0.7490677378268163,0.1530898484405567,0.6004941180274087,-95.04903994412415,51.44056796610423,166.9794162863996,0.1268575700867876,1.272485202995238,0.07708179962225847,0.506733541271479,0.5678322078515133,0.3966948637075973,0.5689910896617628,0.6933476289213254,0.21710795038029482,0.3863054913886123,-181.1712141994751,13.112257040830784,3.3384311571652994,0.8606562417232436,0.41585732466910624,0.3408089095451479,0.538186608052319,0.6695209663670835,0.6951198143697979,-0.11430814234448564,0.0294415733507815,-0.9915052793486112,-0.005985001817333423,-125.00436176045622,52.669719747173204,51.70067670539821,0.6167462442778787,0.9920074155123638,0.5356904964074941,0.4895943954535461,0.7402681466982717,0.46398363946981264,-0.17309853692301583,0.5321035093468781,-0.6278104812388507,0.5442220416263209
0.84,-134.12577945440523,77.06676317329767,167.01888892605928,0.05119658958089275,0.705994887061743,0.20215171355953737,1.0189027307197778,0.28617919921205437,0.3208906885604131,0.23632844313852533,0.7433975955042774,0.16034808123342328,0.60549579480109,-95.03073916302392,53.05596439617745,166.3858923430277,0.1397244958417671,1.3057060877873905,0.0778449548497088,0.5939016767226196,0.5419906432003212,0.4311343494277804,0.5616430053633443,0.6908892162128569,0.2224090924360924,0.39810077799433313,-181.39505264312925,13.633588021762082,3.9148689168491133,0.9505589217868263,0.42763003655522225,0.3454032367931753,0.5339886073801184,0.6796239236715057,0.6789794978592358,-0.11909717313941501,0.033909826962305406,-0.9906813963324336,-0.006830294969637767,-124.31684765841692,54.11660401440307,53.62260496339782,0.6214746678727969,1.086636452010206,0.5581208854654564,0.493126716318191,0.7689339230635184,0.4263337911151122,-0.17084153980965366,0.5457948802078724,-0.6084195165247239,0.5528636878559636
0.85,-133.72470865480716,77.93656438826464,167.30125705413795,0.05628967960332242,0.6344831407231799,0.18266786788255393,0.9418706950849184,0.28179198361582003,0.335877418570358,0.23800233176948915,0.7382738856037538,0.16711944909614088,0.6097872585900255,-94.99148395885474,54.69118236877292,165.72114925480722,0.15121474003373636,1.3275651879482855,0.07765056533889485,0.6883710535624684,0.5111575876924557,0.46680091250888456,0.5538968013469161,0.6883850168169231,0.22739799253785623,0.4101916259509913,-181.6394535954757,14.157906241081271,4.704324150855,1.032506733886764,0.4370202476568765,0.3489334313228744,0.5309966957937622,0.6887469523640288,0.6580323461877652,-0.12395386333407434,0.04012398535082653,-0.9898285283404138,-0.007600789450127619,-123.62207973876511,55.617670594453024,55.76074871824582,0.6297309325937471,1.1787347322661055,0.5828603189699396,0.4988842218167134,0.7869043120452777,0.38994494446660555,-0.1675761635528963,0.5601164650390975,-0.5872052291069492,0.561766156495242
0.86,-133.35575250985025,78.70023542067597,167.57125753037633,0.06255758821273046,0.5639305197688345,0.1630097467055571,0.8585723270618643,0.2846245111108315,0.35279558497938585,0.2397073253468736,0.7337359510864668,0.17328788177834603,0.6134166721058613,-94.93443658441606,56.32916093029446,164.9868643343047,0.16063729799592572,1.3368284238654453,0.07644085920209584,0.783774229827572,0.47743918946053776,0.5001232611050153,0.5457803005428169,0.6858774717402989,0.23199333997775753,0.4224520990135566,-181.9010245900958,14.680095051674813,5.7012803357479775,1.104880037124571,0.4442175943788689,0.3517912982668627,0.5294290098331961,0.6961689935836775,0.6334591429421716,-0.1288275407534869,0.04804634646203773,-0.9889103590936306,-0.00827521023585334,-122.91744339225266,57.15337025667436,58.11373367902991,0.6410210715490573,1.2658289803961658,0.6096398677734842,0.5058966211245872,0.7931819714306436,0.35657414935223036,-0.16309562594840785,0.5748999934661958,-0.5642025039836809,0.5708787560810658
0.87,-133.02155461118986,79.36143869889689,167.8096730974691,0.06996574425620221,0.4963105312551428,0.1434350338950363,0.7729280554756156,0.2956592461887948,0.3708075276149811,0.24131887425052634,0.7298092125103041,0.17872489211901454,0.616457016612457,-94.86340913888351,57.953045962334144,164.18687859032482,0.1674102388063681,1.3327520183595896,0.07423230789930546,0.8734449873759866,0.44287164591695904,0.5278354457654225,0.5373314529566015,0.6834096683638756,0.23612976628014615,0.4347500216876856,-182.1764647636105,15.195222139246502,6.892642014262476,1.1667624151168343,0.4494425908663091,0.35458089049230807,0.5293653980062728,0.7012473114772717,0.6065396834641527,-0.13366747952505872,0.05757624542497201,-0.987886099385884,-0.00883832610954003,-122.19963674853977,58.7021306209464,60.673917632194815,0.6543059191043458,1.3458537108014812,0.6379524062773636,0.5130926018022754,0.7881140570455831,0.32795362178679793,-0.15721272196972097,0.5899520869023749,-0.5394952028484798,0.580139156332979
0.88,-132.7256098755926,79.92631792941188,167.99560379170686,0.07854702272031605,0.4333351877329405,0.1242773262341133,0.6886467523560558,0.3155064629563886,0.3892514828974809,0.2426882893608136,0.7265041788663362,0.18329621022595258,0.619001298570872,-94.78254588199377,59.54662335186923,163.3272422097097,0.17112539040635436,1.3151537331194576,0.07111222344407137,0.9510266229197657,0.4093006552935899,0.5473394158757867,0.5286000360844043,0.6810237921169564,0.2397608758645143,0.4469512877478529,-182.46302542816042,15.69865588918781,8.259264006783749,1.2178866105469637,0.4529155162948413,0.3580035774750485,0.5306967544704301,0.7034881352085489,0.5785430635302456,-0.13842467486599905,0.06856193813901822,-0.9867139849523925,-0.009283257907546963,-121.46518642883579,60.241124615236856,63.42754016419409,0.6680609470856145,1.4172086553771415,0.6670428987244998,0.5195023863533537,0.7733170741076324,0.30571037993862293,-0.14977186595177622,0.6050641423450306,-0.5132179805250043,0.5894718463238557
0.89,-132.4721972504612,80.40296818981757,168.10814362828347,0.08837541661761748,0.37637655310832135,0.10596161578491876,0.6089786108873715,0.3442780630259934,0.40754526199093294,0.24365419669542124,0.7238160640686851,0.186871165464782,0.6211560769187495,-94.69602196128561,61.094690569377,162.41615184950908,0.17160176142629197,1.2844459444375167,0.06722920115883008,1.0110663758878298,0.37830816855515054,0.5569675435242528,0.5196485310331912,0.6787595373253195,0.24286096520730205,0.458924623777656,-182.75885941427816,16.186137108628458,9.777775191243038,1.2585329381819057,0.45482983842738406,0.3627413242787096,0.5331255948269352,0.7025980912523597,0.5506477954927746,-0.1430537518538452,0.08081495380266691,-0.9853545236041285,-0.009613010782734266,-120.71104806597351,61.74686762393294,66.3550938878386,0.6804033566299451,1.4787670626771285,0.6959217174345319,0.5244497258901969,0.7514334804143193,0.2913223206878031,-0.14065873906304513,0.6200222586533307,-0.4855575783067287,0.5987862569885479
0.9,-132.26617132081682,80.80085752372784,168.12828107569047,0.09952656854520478,0.3264197594478216,0.08900220605885768,0.5365660587263698,0.38148741993398283,0.4250895890122135,0.24405631963600544,0.7217250392650197,0.18933401393413568,0.623033832495025,-94.60779822500379,62.58339450386433,161.46376212254808,0.1689206043804566,1.2416269098353132,0.06278093592287282,1.0495321525574188,0.3511800804731694,0.5561228647950334,0.5105516798301574,0.6766526310758677,0.24542527800498454,0.4705466569670245,-183.06323622389755,16.653810841272676,11.422489295976566,1.289398093334639,0.4553345259985802,0.3693607070551769,0.5362138241784912,0.6985166273358945,0.523900915225154,-0.1475149162851374,0.09412534523058637,-0.9837731318983386,-0.009841129033358122,-119.9352264968976,63.19561591848353,69.43193573378318,0.689270999941025,1.5298534959682617,0.7234028333733115,0.527696658993204,0.7257754014418049,0.28610364024463264,-0.1298066539104938,0.6346166485173972,-0.4567530517498165,0.6079749251846798
0.91,-132.1126145304411,81.13025708532355,168.0408030606278,0.112030609501886,0.28404903619704863,0.07397947139669721,0.47337721642404734,0.4259992770930592,0.4412120330415349,0.2437500497442201,0.7201971119872711,0.1905960082159854,0.6247449595981662,-94.52146005228568,64.0005640502529,160.4818520696974,0.1634370184798475,1.1882312661240828,0.05800181284376883,1.0641921400967311,0.3289069836955618,0.5453019734237734,0.5013943815849826,0.6747336343908004,0.2474687183601467,0.4817070328307742,-183.3766227020269,17.098225761495925,13.167217758501723,1.3114522809993538,0.4545271487100812,0.37825010000558174,0.5394682907218247,0.6914329234134633,0.49921216701951704,-0.15177574958166093,0.10827640096561944,-0.9819419951831165,-0.009991501427211075,-119.13734372217309,64.56359745215069,72.62917511832575,0.6926324753391986,1.5702112484371367,0.7481678193909037,0.5295127085072341,0.6999228190357316,0.29119700075985594,-0.11719911183967105,0.6486502792762135,-0.42709395333576394,0.6169121665373979
0.92,-132.0163646446188,81.40173056789526,167.83597527580463,0.1258239178586103,0.24946357391274407,0.06149741350338577,0.42069161298747276,0.47604427459663284,0.4551746954211401,0.24262025329776185,0.7191855829412109,0.1906068477068045,0.6263902645352387,-94.44015373615059,65.33605660106335,159.48333016539925,0.15576487775925393,1.1262445817172775,0.05315092526961072,1.0548022537606092,0.3122082550902946,0.5260173852129509,0.49226774894925973,0.6730271799158027,0.2490230173406498,0.4923132921047684,-183.70063970949514,17.516306254052928,14.986831236435712,1.3258015508110041,0.4524564863699097,0.38959341409206827,0.5424526365774104,0.6817934566796193,0.47736952439668917,-0.15581256873990398,0.12305755180282243,-0.9798411902699994,-0.010097428892694585,-118.31908137378502,65.82714934509836,75.9148720374156,0.6887056341323377,1.599976479958728,0.7688548361833587,0.5306575858491994,0.677337739043045,0.3075448286015622,-0.10286840152510524,0.6619466610150377,-0.3969153024378008,0.6254537763746707
0.93,-131.98144259054345,81.62572091320551,167.51081027209855,0.14070668131469127,0.22251713125997058,0.05212890748541447,0.37911040423186576,0.5293004539492223,0.46624101284958575,0.2405930209954912,0.7186329566195961,0.18936427974400527,0.6280547669792313,-94.36661903258297,66.58211773255316,158.48157128109273,0.14673397791357629,1.0579886200661153,0.04850002880396398,1.023059638583148,0.30156660007937336,0.5006323717375437,0.483263334910134,0.6715518044421454,0.2501324444471116,0.5022952176536046,-184.0379093350814,17.905295486870415,16.858451127485353,1.3335703273904274,0.4491309686100044,0.4033783952174832,0.5449162290032666,0.670307151148464,0.4590604447623684,-0.15961103292646905,0.1382744226843676,-0.9774592348955009,-0.010200115595198093,-117.48443082771595,66.96285822043664,79.25554952189323,0.6761615094164016,1.6196693789168979,0.7841679155997461,0.5322850287044663,0.6610441030226107,0.3358171120748187,-0.08689046435573196,0.6743567345106349,-0.3665883672294973,0.6334382719775287
0.94,-132.0104176769765,81.81225632535161,167.06979723087932,0.15631242543590337,0.20277465293128438,0.0463579879652232,0.34857936330691935,0.583033330193766,0.4737733384563701,0.23764444453789987,0.7184730969606851,0.18692090458810826,0.6298033452798568,-94.30330174241752,67.73372555966913,157.48959721901488,0.13732143925515614,0.9859857761966974,0.04432078174565117,0.972316224703924,0.29725871581618657,0.4721165535099207,0.4744658225744509,0.670320490777058,0.2508482992260032,0.5116083489697302,-184.39180995975306,18.262660154612615,18.76219292442645,1.335815643305392,0.44452816764084885,0.41943404895076575,0.5469320445392889,0.657948505742745,0.44488678665057724,-0.16316569679167423,0.15375530491807884,-0.9747932349693325,-0.010346768050525526,-116.63970153981377,67.9477951593955,82.61796928617233,0.6542921708440721,1.6302033092643826,0.7929956972749932,0.535789971014766,0.653409321919668,0.37628423269412,-0.06937663001502076,0.6857647362467244,-0.336506879434323,0.6406900525650735
0.95,-132.10376327233953,81.97078086695298,166.52502675923532,0.1720947508662045,0.18957968622089819,0.04452822245935367,0.3284302702545827,0.634279317478378,0.4773259941585273,0.23380581540504483,0.7186333829895972,0.18338748409106795,0.6316784396256826,-94.25251692097369,68.78886622091449,156.5191355302541,0.12856336327762266,0.9128143441459171,0.040871275269223274,0.9071008181613701,0.2993712804984466,0.44373678736391636,0.46594482509100466,0.6693419005589378,0.2512225774768809,0.5202363510454511,-184.76616032639546,18.58594504650813,20.68143695008421,1.333479124306067,0.4386010647973822,0.43748811093787804,0.5490282534396134,0.6459454098310766,0.43536609126965553,-0.16647830635741948,0.16935380221971047,-0.9718487416342543,-0.010588491996400018,-115.79326785579462,68.75990583373948,85.97104072022677,0.623124299786855,1.632902911999101,0.7945229360884236,0.5426285265402314,0.6560447820137836,0.42864050693172223,-0.05046320345067803,0.6960927916529757,-0.30706921502933904,0.6470245617353242
0.96,-132.25927244677328,82.11009861613839,165.89569075107076,0.1873359692354869,0.18212628470436193,0.04680407604114394,0.3174537695034075,0.6800552901298976,0.4767103508289646,0.22916482894561452,0.719036659709533,0.17893222428555147,0.6336997462194028,-94.2166239640988,69.74867872634302,155.5796117219819,0.1214561293986189,0.8409686044533363,0.038382637656224995,0.832544861119532,0.30779987697959726,0.4187126751973355,0.45774670376279203,0.6686220960294463,0.2513013147433564,0.528191973968093,-185.16485854902,18.872572910999985,22.60267097264665,1.3273764266727055,0.43127967291870417,0.4572324265439324,0.5522843894096832,0.635728133652257,0.43091629294298056,-0.16955482427578558,0.18494802723453477,-0.9686393635585255,-0.010978166967650894,-114.9550721199868,69.37856724863835,89.28765346609381,0.5834648328238689,1.6295138326162182,0.7883165381989644,0.5541376359883067,0.6698205059400016,0.4918073430049147,-0.030300222622995854,0.7053038750076193,-0.2786580860256409,0.652255183759104
0.97,-132.47161165056826,82.23840483871365,165.20698111153294,0.20118131042248066,0.17952767080119977,0.053149216045023984,0.3140125338222561,0.7175794288629773,0.47202680365924554,0.22386254670357722,0.7196028785270557,0.1737757098864861,0.6358656608232099,-94.19817164024697,70.61742084276489,154.67714208371166,0.11685823447905687,0.7727363066047027,0.0370466412513898,0.7538191803491655,0.3222375336848431,0.3998780089089936,0.44988732945543974,0.6681664025163861,0.251118132265333,0.5355164508492005,-185.59150744292066,19.11960216296198,24.515021954264903,1.3182185638065467,0.4224717018490598,0.47838372842792926,0.5583544331769168,0.6288211453518923,0.431824388160812,-0.1724014529400095,0.20043736742812873,-0.965186101609463,-0.01156845362833194,-114.13593851467029,69.78527263237875,92.54617589104474,0.5368702212146025,1.6221822633208822,0.7743726098109592,0.5713696756716257,0.6949698213418614,0.5637665884321046,-0.00904091109434934,0.7134027338909666,-0.2516201042715278,0.6562013311721011
0.98,-132.73208627177954,82.36336380664979,164.48846373228,0.21269967896257364,0.18087264512381662,0.06332277131294466,0.3161931136761654,0.7444929456374167,0.463669110610451,0.21808616118144836,0.7202504440075466,0.16818152187462457,0.638156127114027,-94.19997427563241,71.40223433818835,153.8135987014227,0.1154031983339966,0.7101015453290547,0.037004789229871604,0.6756645950000851,0.3421643442817439,0.3893893546038624,0.4423465216046505,0.6679810093284179,0.25068845942525625,0.5422773048118792,-186.04906287721613,19.32347678156546,26.409649751915858,1.3066563459079945,0.41207055672213266,0.5007291725888016,0.569387633926461,0.6266801552604144,0.43820295410313326,-0.1750202372317802,0.21573828126362382,-0.9615162793845985,-0.01241004405332958,-113.3467790357941,69.96437228894065,95.73136353427883,0.4855373674709684,1.6133830802615072,0.7531199865700989,0.5949436538304317,0.7312470939288126,0.6414833448292651,0.013166639964199388,0.7204344302524514,-0.22624796667526886,0.6586970576941598
0.99,-133.02867692687107,82.49218357000564,163.77206246597032,0.220967947647507,0.1852621940353458,0.07689239779523278,0.3219837684026476,0.7590736292609046,0.45230772781158,0.21205802148301126,0.7208973977787962,0.16244303417588607,0.6405364719925096,-94.22508760825849,72.1127152785751,152.98581747508624,0.1174326875715753,0.6546760873474837,0.03833906808976648,0.602058964463577,0.36684782711210734,0.3885104062471356,0.43506466879700423,0.6680739472736239,0.2500048132085062,0.5485646541317409,-186.53954293147055,19.479822098570327,28.279193806315117,1.2933370194147995,0.3999788189364552,0.5241473945613796,0.5878411334608098,0.6304995236954715,0.44994295001769913,-0.1774050591541138,0.2307806467627668,-0.9576618931128386,-0.01355019050033553,-112.59778608358356,69.90378898001431,98.83447220958173,0.43212368676449175,1.605781358648357,0.7253840558676236,0.6249096186216485,0.7780920304431304,0.720969075405667,0.03618421943348292,0.7264802856736433,-0.20276786508371733,0.6595995359381129
1.0,-133.3463845583428,82.63163700522055,163.0898354319021,0.22517188613097994,0.1918242574401585,0.09326189975734721,0.3294572868200065,0.7604256387056679,0.43885701976560937,0.20602176981841164,0.7214626516025938,0.15686730474170343,0.6429617852794175,-94.27666259429931,72.76031626751305,152.18501534511668,0.12295703249605738,0.6076583265830948,0.041064786918801714,0.5360283275859031,0.3953572008929519,0.3974845696388582,0.42794186998269496,0.6684551938981423,0.24903341051209296,0.5544862321118886,-187.06382626544348,19.5833505350326,30.11743450848311,1.278959919547268,0.386148973800845,0.5485963788554834,0.6162019287315608,0.6410251412435327,0.4666750882020472,-0.17953887351042702,0.24550583943348386,-0.9536572559817611,-0.015031432745002014,-111.89770572813806,69.59563973794765,101.85247988273949,0.37951535493967686,1.602022928147769,0.6923187278786941,0.6606332561365613,0.8347479230080181,0.7975134887763506,0.05988381806486077,0.7316512532833556,-0.18133395861486098,0.6587968225690269
1.01,-133.66789702901428,82.78798833506765,162.4717478721176,0.224713160208422,0.1997122579671876,0.11171050713936329,0.336934447935707,0.7486175426120325,0.4244294621482335,0.200226680112141,0.7218675136599935,0.1517572229073426,0.6453814439618691,-94.35766891111889,73.3576213253367,151.3964756692199,0.13164738426971373,0.5698156805325308,0.04512629294198438,0.4795869853473419,0.4265891585054537,0.4154992161880173,0.4208398051074845,0.6691358159591622,0.2477123016338776,0.5601614491248742,-187.62154664783205,19.6279386263515,31.919258530526175,1.2643162155690335,0.37063420069102343,0.5740622660887246,0.6566495854091225,0.6584040439639761,0.4877511678155641,-0.18139284541908046,0.25986708490195737,-0.9495359534633453,-0.0168902953402536,-111.25327331286906,69.0367247078903,104.7865026473155,0.33057271722308107,1.6044636098661411,0.6553143216949071,0.7007266531861849,0.9002900490709435,0.8660809571794309,0.08414356029264337,0.7360791025719233,-0.16203033847418014,0.6562144569534238
1.02,-133.9745562506316,82.96680448952013,161.94363876750623,0.2193078062562238,0.20809860997389537,0.13143975942816913,0.3431066642756522,0.7247325877331673,0.41027676178162076,0.19491139385662976,0.7220377267337269,0.14739316249551968,0.6477434484739067,-94.4704993220534,73.91754137128187,150.5995522953233,0.142860193922916,0.5414832260080812,0.05039648783090717,0.43377900978433986,0.459303206616846,0.4407450985232626,0.4135863922110503,0.6701262350416978,0.24595116625775687,0.5657148624893517,-188.21106372851426,19.606920246287196,33.68092034918731,1.2502984861546274,0.35363594617167504,0.6004701252956463,0.7106984789562841,0.6820948133314729,0.512251031468968,-0.1829277121589151,0.27383189345423425,-0.9453273198048648,-0.019155598271628008,-110.6688683789193,68.2288784416303,107.63970029248067,0.28788631588462954,1.6148611195980396,0.615887469636208,0.7430617345110935,0.9735533593000285,0.9218291688181554,0.10884041090966202,0.7399062105833859,-0.1448791898758013,0.6518205773370804
1.03,-134.24756088838546,83.17265734350129,161.52554768210678,0.20905871906970935,0.21617512152836654,0.15162231114817418,0.34710538645671846,0.6908038644453657,0.397713717851334,0.19028829773280825,0.7219061541837949,0.14401541520970818,0.6499982906506436,-94.61649049073861,74.45248105015789,149.7680327380069,0.1556918137090963,0.5225706801111721,0.056681130929704074,0.39879105591126324,0.4921700617389238,0.4705744234607182,0.40598312423987026,0.6714338682224653,0.24363290735408938,0.5712693762785629,-188.82946848990474,19.51361324936337,35.40049833337786,1.237869766136998,0.3355337890669594,0.6275663883405523,0.7788656246636003,0.710857477282574,0.5390156774633168,-0.1840973353023707,0.2873857263963672,-0.9410528625044975,-0.021846002468361762,-110.14640915030705,67.17920713025721,110.41510357882629,0.253574940825984,1.6340661692232277,0.5755588749700673,0.7848933562858169,1.0529942310634255,0.9606759759515371,0.1338416894002969,0.7432750155318413,-0.129852514909019,0.645629375398898
1.04,-134.46929152759606,83.40875009427248,161.23052129127612,0.19448639014841526,0.22316833420485768,0.17144631280065284,0.34851836265808717,0.6496345456740804,0.38801980874157477,0.18652980244832218,0.721416117420239,0.14180870060739423,0.6521021376905645,-94.79542013819398,74.97352882268494,148.87088668904772,0.16905956488882,0.5125734684139037,0.06372912632009986,0.3741113841937068,0.5238391097506547,0.5017517969663182,0.3978148223106512,0.6730605219708327,0.24061716640244515,0.576939431421989,-189.47257337511184,19.34206163314754,37.07838206349072,1.2279885232908427,0.3168856025783856,0.6547907239550665,0.8604165026953852,0.7428324247768142,0.5667070426582863,-0.18485411630858253,0.30053563716231635,-0.9367232334641203,-0.02496654470097201,-109.68546400108856,65.9002417734104,113.11378572324061,0.22914859728612214,1.6617588824674732,0.5357278878397296,0.8230942433738601,1.1365536854966372,0.979825720205472,0.15899762925209748,0.7463181993841499,-0.11688440360619394,0.6377028246880273
1.05,-134.62460674574183,83.67652261185877,161.06396513226443,0.176509706385931,0.22837170111817773,0.19015085343700835,0.347363458554862,0.6045351890849118,0.3823195596079238,0.18375771160889426,0.7205252227671665,0.1408900501252596,0.6540192221468172,-95.00505795572256,75.48972331091923,147.8734069247551,0.1818046644551038,0.5105898686386809,0.07125004790807793,0.3587151631062241,0.5530236383361948,0.5307754414133697,0.3888613624745826,0.6749999737947572,0.2367457925943716,0.5828244425052643,-190.13484565859133,19.08793661685717,38.71761478539197,1.2214952343697971,0.29839135304038944,0.6811629722757038,0.9532391181654927,0.7757008293283467,0.5938976842581808,-0.18515569758418932,0.3133125682394846,-0.9323363700225671,-0.028504190837825624,-109.28352120937018,64.4100156373286,115.73366867832415,0.21544551025424874,1.6962812573517745,0.4975578219162399,0.8544785016622647,1.2215916107020206,0.9781678541333022,0.1841368030727554,0.7491504788478187,-0.10588142814221313,0.6281506653593687
1.06,-134.7019441010976,83.97530181011557,161.02355541389824,0.15637927476944918,0.2311904378144263,0.20705191269143397,0.344033451148353,0.5590267590475615,0.3814536263931037,0.18203667114737024,0.7192093392267277,0.14130127556085026,0.6557234248225253,-95.24085251469873,76.00744865635407,146.73872617683494,0.19281038773406547,0.5153506012890263,0.07893937030657557,0.35125530921068887,0.5785878762743412,0.554231857467025,0.37891071642442525,0.6772361353561758,0.2318501170373338,0.5890028040128957,-190.8092690646511,18.749501834973184,40.323948058755064,1.2189768258417544,0.2808219039957949,0.7052179730351624,1.053880207028152,0.8069016620809655,0.6191922188917518,-0.18497211129129246,0.32577124721333517,-0.9278772643666625,-0.03242281210846046,-108.9363420567836,62.73203364655631,118.26908261699349,0.21263727834044172,1.73461254331084,0.4618879797035967,0.8761735829982625,1.3049355546402477,0.9564731114158783,0.20906552965567832,0.7518626078894949,-0.09672983627752171,0.6171285838591605
1.07,-134.69407702032515,84.30206202746643,161.09968374158134,0.1355750686480018,0.23119081361845845,0.2215619615474859,0.33921846682304563,0.5165531974464003,0.3858610127464191,0.18137235705312169,0.7174662312073936,0.14300697053526318,0.6571990526243899,-95.49582484179304,76.53000796778146,145.4296661739659,0.2011252966686265,0.5252677247829067,0.08650989638138579,0.3502342729254666,0.599610502048793,0.5691428272229241,0.3677724618197685,0.6797420490194549,0.22575969694222758,0.5955268706894475,-191.48715921104173,18.32851567647331,41.90552887991363,1.22063484979912,0.26492357563687474,0.725023302448022,1.1577506589030993,0.8338730969625734,0.641373135736928,-0.18429230701821733,0.33798711247753654,-0.9233195290653039,-0.03665840049054959,-108.63833079861436,60.89506177185088,120.71104740053256,0.2202852047614782,1.772519535906166,0.42918520293383017,0.8859913856718004,1.3830496915155932,0.9173382662368663,0.23357164611356163,0.7545178965773813,-0.08929936993822674,0.604834458326326
1.08,-134.59842502882265,84.6513482335806,161.27637364126892,0.11568523294655363,0.22814477440630299,0.2332074357872048,0.33380386783609106,0.4802299162606084,0.3954942308864351,0.18171459631930414,0.7153182466647066,0.14589850018285316,0.6584407614535259,-95.76071156458696,77.05741584208259,143.91084465624996,0.20607760790034907,0.5385078253543445,0.09372522920795788,0.3541336957088736,0.6154074297057656,0.5732686229204855,0.35529085043505293,0.6824797747104543,0.21831210450119254,0.6024193485649585,-192.15800152727803,17.83092528438069,43.472215241671705,1.2261882915693996,0.2513172887242353,0.73830612944434,1.2594801784284986,0.8542906364027434,0.6595499334268696,-0.1831289112962321,0.35005028766756924,-0.9186286234169595,-0.04111566168461946,-108.38288202623397,58.93264688175403,123.04813477724124,0.2374262853786402,1.8048887999710739,0.3995419546844484,0.8827450956769243,1.4522987178872286,0.8648739857393029,0.25743232052595794,0.7571512693996857,-0.08344447198016168,0.5915025602171669
1.09,-134.4168814246366,85.01539477935289,161.5325796272732,0.09828267707097124,0.22206293487593637,0.24164652161395309,0.3287416106843766,0.452637731103652,0.4097849075884467,0.18296505945686262,0.7128134501148565,0.14980375279685995,0.6594525562297767,-96.02436154118558,77.5864380516527,142.15093651863035,0.20736506305969296,0.5530913725232728,0.1004289483344658,0.3614903335875271,0.6255190235619339,0.5653398256268689,0.3413565875583659,0.6854010596529384,0.2093633610816969,0.6096714755013387,-192.80940850021102,17.26721047627213,45.03458831928863,1.2348388824910217,0.24041495839073515,0.7426934310319385,1.3533805455692256,0.8662853415936712,0.6732810740752334,-0.18152024323964255,0.3620571828414124,-0.9137663761923142,-0.0456672065300788,-108.16269850285025,56.88229448645337,125.26769566283623,0.26266902663504155,1.8262168606848925,0.3727223087292304,0.8664609753747886,1.5092679031009562,0.8041848834304619,0.2804248822179461,0.7597706489372571,-0.07900425087295633,0.5773957554046334
1.1,-134.15519605705748,85.38444783931507,161.84375722858474,0.08481142289880744,0.2132124066743832,0.2466866301884976,0.32490495191591195,0.43566401818905703,0.427669853500302,0.18498861381608553,0.7100247085623566,0.15450171135310792,0.6602458881932299,-96.27434836143,78.11088769280678,140.12496160674388,0.20510651021719356,0.5670152097291735,0.10656234125914259,0.370924625768876,0.6296852291390566,0.5451967456320488,0.32591663034291835,0.688448604163899,0.1987986971359122,0.6172432194761617,-193.42729206715563,16.652267849149453,46.60278393295541,1.2453147045114328,0.23237300489202095,0.736039485696223,1.4339622556980718,0.8686383910957565,0.6826408783837169,-0.17952901924027978,0.37410071756178703,-0.9086962975670911,-0.05015631681849025,-107.97009632844416,54.784280466464814,127.35720137850812,0.2942856293392575,1.8312037987722614,0.34825172599694015,0.8384447550340026,1.5510971898154537,0.7407392080055142,0.30233906006243966,0.7623602687694584,-0.07580277422713573,0.5627959805625175
1.11,-133.82201738266284,85.74727340647584,162.18357730438646,0.07648829166493734,0.2021182383807015,0.24829849083811642,0.32295000245060124,0.43039394579738116,0.4476779557633002,0.18762700543499292,0.7070464996893857,0.15974032968042878,0.6608370304213329,-96.49772706619439,78.62216244794924,137.81645255552542,0.19984657246801654,0.5783891678557165,0.112164494173261,0.3811444384527881,0.6278328546197933,0.5138194314919206,0.3089814869446398,0.6915577397275191,0.18654333453081184,0.6250655263215306,-193.99631334733724,16.004784844754138,48.185293127154495,1.2559901673780447,0.2270932620002613,0.7167862145946934,1.4964422094459335,0.8609563821188441,0.6882185186392253,-0.17723773506537935,0.38626037638413063,-0.9033890758717342,-0.054403715657198766,-107.79731904891683,52.6801353655479,129.30546337494863,0.33029574591857175,1.8153727409170912,0.3255401643878875,0.8011789293540114,1.5757807448755543,0.6797483248234797,0.3229887779741181,0.7648854013207649,-0.07365102744782323,0.5479934905583875
1.12,-133.42774515813008,86.09180744405339,162.5256522080003,0.0742208921664158,0.18954736917127996,0.24662322065455503,0.3232114978463677,0.43705717040003256,0.4680681865725109,0.19071331222471616,0.7039895710394495,0.1652558753476363,0.661244057960228,-96.68184474165625,79.10998127520028,135.219332670784,0.19251180579262495,0.585573001727326,0.11735145990687458,0.3909534832732132,0.6200857182397072,0.47323870129018103,0.29062960205657495,0.6946583985513729,0.1725728231048437,0.6330444829259884,-194.50061424255415,15.346131906853985,49.78788097086463,1.2650639840939193,0.22426843394867907,0.6842859807499082,1.5371864260740091,0.8438254866939793,0.6910537123272965,-0.1747413000712543,0.39859331195576797,-0.8978275853933758,-0.05821804507864576,-107.63686846878367,50.6108958672978,131.10356239827703,0.36854516349168787,1.7756282819007894,0.30402119625219914,0.758049858992101,1.5823755525583614,0.6256629653729653,0.3422219056039832,0.7672979408581775,-0.07235129463245123,0.533275515896843
1.13,-132.98336422819546,86.40588454179104,162.84514760667088,0.07854170638781356,0.1764732321970467,0.2419701906654132,0.3256520610604183,0.45503318285587835,0.48700065403555587,0.19408560545729178,0.7009739315328186,0.17079184599998587,0.6614838324734807,-96.81511415839498,79.56325737618255,132.33930817735123,0.1843240277765928,0.5872977455459537,0.12227607885461035,0.399288705562363,0.6067924659106828,0.42633548852488,0.27100839152886697,0.69767733923016,0.15692211985124258,0.6410671530204228,-194.9247694513489,14.698883516938622,51.41275186495206,1.270767609546291,0.2234572906191998,0.6390188725573503,1.5540499257230176,0.8189197573051842,0.6925221304954355,-0.17213799202186225,0.4111275348105817,-0.8920107347647318,-0.061409004067227074,-107.48183948304981,48.61525734552502,132.74540968525065,0.4067881940714168,1.7106730145367857,0.2832841103454007,0.712933023665128,1.5710688328273374,0.5818509375515457,0.35992696615269526,0.7695423088328526,-0.07170401355024929,0.518915025526027
1.14,-132.49941851142464,86.67797077362144,163.12017342348236,0.08955931201601612,0.16401946410290777,0.23480561932575075,0.3298710562650165,0.4829124451181417,0.5027170334232556,0.1975984768427936,0.698120894508451,0.1761157323114265,0.6615693868128125,-96.88767517272086,79.97103201831791,129.1945737871194,0.17668236165943252,0.5827563923254562,0.12707581782990682,0.4052948964991618,0.5885570235115252,0.37655826688966837,0.2503314022924001,0.7005406334968052,0.13969224095837107,0.6490087333524801,-195.25484103740723,14.085148452184612,53.058059943075456,1.271576074474197,0.22416725667726176,0.5826576697440526,1.5465914773974414,0.7890148724474171,0.6941845169804213,-0.1695200965083755,0.42385794880962807,-0.8859556095447623,-0.0638014994283577,-107.32623383918883,46.72778228469187,134.22794602431395,0.4427841193143561,1.6212215598447932,0.2631741317139463,0.6696965493949748,1.5430807375889857,0.550469323868357,0.3760364533381006,0.7715612491698491,-0.07151653741015684,0.5051602809796667
1.15,-131.98524818079972,86.89782821974411,163.33287799919108,0.10692952154185274,0.15338316754733905,0.22573246603450967,0.3351684251747704,0.5186051850711826,0.5137062915807616,0.20113150522783502,0.6955449728162655,0.1810322353119552,0.6615080387683366,-96.89189460618647,80.32339060312411,125.81566690233609,0.17102819047660947,0.5716521960957002,0.1318205770659651,0.4084229747674256,0.5662547443808111,0.32760394375878543,0.22887108840324066,0.7031763729811554,0.12105313411027567,0.6567405176437396,-195.4793871011785,13.524929733521228,54.71783275954582,1.2663977498412682,0.2259208023129898,0.5179674881422814,1.5161420675391335,0.7578557380437837,0.6976183999031884,-0.16696563826502137,0.4367457083268603,-0.879697574845301,-0.06524887022637964,-107.1652294960646,44.97732160147937,135.55104159006297,0.4744149640764729,1.5099820167108904,0.2438405547166156,0.6317058367960048,1.5004162142094482,0.5325022964161961,0.3905268782913929,0.773301239068195,-0.07161279155672144,0.49222580976750024
1.16,-131.4485631131212,87.05705199112562,163.4702058756463,0.12985063662649998,0.1457412903787823,0.21546064181348493,0.3406518579726381,0.5594872350704443,0.5188389236018746,0.20459424883952765,0.6933463860820549,0.18539201987469878,0.6613004542333596,-96.82268423217619,80.61228560170119,122.24438112088657,0.1687062175738658,0.5541981257445682,0.13647374879499466,0.4085193168788862,0.5410201731175909,0.28310683029353056,0.20694694251409132,0.7055174592346244,0.10124151159291966,0.6641379896191016,-195.59027986495832,13.03473538301557,56.382346333620944,1.2547244052963946,0.22828867907912148,0.44856144084386956,1.4656999178561687,0.72985213563294,0.7042604691472235,-0.16453239947534268,0.4497211284326852,-0.873288217620206,-0.06564334326900156,-106.99539243479686,43.385788823706235,136.71719020939702,0.49982393839552935,1.3814099288073491,0.225724118677486,0.6014151106173125,1.4455150027814774,0.5279133918748925,0.40341592780977015,0.7747173853937717,-0.07184254409423645,0.48028531595700513
1.17,-130.895372976026,87.14944189187824,163.5243167968308,0.15708797554268353,0.14214730351831162,0.20476445768658902,0.34536873900076775,0.602572474390033,0.5174636834414292,0.20792781856263945,0.6916048292634941,0.189095667513491,0.6609407454378103,-96.67764147891745,80.83219905539896,118.5317442218765,0.17083221980723312,0.531067520644478,0.14087714793288267,0.40586711948116594,0.5141959230023885,0.24636511323508886,0.18490918799801503,0.707504258801799,0.08055277904098818,0.6710882982615025,-195.58322265204055,12.626622089329349,58.03895346552164,1.2367254937654375,0.23088657761210996,0.37855727444323717,1.3996327545419474,0.7096176247952546,0.7152884470917832,-0.16225498762368137,0.46269010383152787,-0.8667911921894461,-0.06492230916320603,-106.81482470455663,41.967392415389455,137.73110065576148,0.5175628846862155,1.2412726165000567,0.20948952090757078,0.5801134251114858,1.3808728356839652,0.5358586879392478,0.4147572749768569,0.7757777141811139,-0.07208893597174397,0.46946687793994385
1.18,-130.33024648693583,87.17119571086907,163.49269813624375,0.1870327721009217,0.14342858617585802,0.1944243533834196,0.3484373159279663,0.6447049463767144,0.5094653911391435,0.2111034389168829,0.6903749819125686,0.19209311112196598,0.6604175459433195,-96.45703528206458,80.98059144756554,114.73516130296329,0.1781764401617451,0.5033033584652519,0.14476454780520648,0.40115261120674367,0.48723692679890657,0.22011622964020916,0.16311877600957791,0.7090868731990014,0.05932685726797874,0.677496458369617,-195.4579073000244,12.307783747791934,59.67331685446919,1.2132723025914094,0.2333463736051728,0.3121895311067703,1.3232025908318021,0.7014055105654038,0.7315594069282708,-0.16014514857037856,0.4755435903608555,-0.8602762368236496,-0.06306965597491801,-106.62323899509303,40.72838430558126,138.59927659160797,0.5267271864308865,1.096085850138706,0.19592041885645786,0.5678604011972036,1.3087133459048355,0.5549186058077451,0.4246337396759734,0.7764666621206054,-0.07227310086820454,0.459850582547823
1.19,-129.75683245237602,87.12093532557847,163.3780299367127,0.21779889155969143,0.15009657012064054,0.18515400542892335,0.34915066793685046,0.6827694010159275,0.4952791264299254,0.21411865896135818,0.689684010186625,0.19437939009627128,0.6597158662803498,-96.16367020723901,81.05810505701837,110.91491254293555,0.19107135880459347,0.47219985355684757,0.14780139353468533,0.39535414486288095,0.46157433968246003,0.20636273830558768,0.14192492473508697,0.7102268138816703,0.03792853614133876,0.683289832907682,-195.21781117495902,12.080709027815145,61.27093334508088,1.185882098752105,0.23528207932700182,0.2534301833298285,1.2419777604934426,0.7085234002294546,0.753607285183755,-0.15819495342613213,0.48816918922283775,-0.85381189652953,-0.0601121624365684,-106.42194014991559,39.66732983641348,139.32964870618127,0.5270524419651403,0.9524972431282286,0.18579928828493775,0.5636101275077223,1.2307766075918014,0.5833211914588722,0.43314964369357123,0.7767874231033192,-0.07235516846005556,0.451468570468377
