0.01,-30.125453367970955,83.9577504872872,5.995754621833449,0.032879702202090785,-0.002276164894365352,0.0009796390210830188,0.007022566602292491,0.019249671063658783,0.18337656208439376,0.496463787179242,-0.49487537497037537,0.5082468431767083,0.5095815828009784,0.007839676240836313,-136.6362378487011,84.69502943348814,176.56982374644105,0.04140142658839127,0.010263494230935056,0.035952988556979405,0.014828346265584104,0.07993424872301011,0.06048848452758129,0.4939552168833889,-0.5001064691943093,0.5065306049708572,0.5046311994923179,0.014885000642655168,-172.11353582578218,3.2522474125870153,6.3779578934026,0.02584033627140978,0.017617306144117557,0.0856325954352397,0.13099556833020284,0.06832714982431409,0.0211982918138987,0.4975364817610475,0.5190365747536023,0.5162857179912096,0.49449525494939156,0.007009499697087246,-155.2567484298535,14.189822935885227,6.801455653257038,0.024818411701134913,0.04419011403097837,0.03512351182153437,0.04405608684714331,0.035146051393513386,0.017672002306159767,0.4904549958393185,0.4942061438945436,0.5113522703849334,0.5071791463775827
0.02,-30.052260576047114,83.94728007517566,6.005406004369806,0.015721461920359156,0.024975189536594396,0.007175003444038597,-0.01014805044309384,0.0555139904566656,0.09765107103370632,0.4869179622131779,-0.48808460543032006,0.49446410651261,0.5014047959094355,0.019754179788904664,-136.561128977549,84.69232560358567,176.5777423847873,0.042392710817638866,0.0021958004581044267,0.006494505659985115,0.011354619804296409,0.09249762519984975,0.057162454876629756,0.5122777933623731,-0.49481390452110247,0.4779364597110652,0.5258633316125173,-0.001427583751071989,-171.98756101352984,3.3064971764399007,6.4612790755083935,0.01268684357087633,0.002071099910462274,0.06696894482331349,0.09175658042644619,0.09884402347578661,0.010088191795678504,0.516299770660778,0.5101262322218993,0.5190156478307403,0.5131552792072287,0.019532937260892128,-155.26701753963482,14.178436837555232,6.741133382669003,0.017117005552487824,0.06634869670286317,0.058987064228521985,0.03851097465283147,0.187262576852774,0.04543920086848852,0.4898169984340039,0.491729576437029,0.5049974751775392,0.5071252297634189
0.03,-30.05861115331886,83.92949896924343,6.010643464440227,0.021477505867539076,-0.00314490792189954,-0.014074846060716519,0.026604838186281256,0.04850003090026128,0.12473364936310777,0.49254310756524705,-0.47776063331018914,0.4955040985633142,0.48388912572156495,0.03071758008601396,-136.5090128495398,84.70156164612419,176.5648383753674,0.04603294171051582,0.012251899974456117,0.012894911819691846,0.029798290497671832,0.10966096973819549,0.013037673147915875,0.5117067879901839,-0.5104036724098863,0.49941509014611307,0.5102319256163799,0.026177916909765384,-171.93433794167356,3.308756162100936,6.4352333900162035,0.013224381903570632,0.009106686791289438,0.07511799255540669,0.09133972603517995,0.13289631059161353,0.019097354404145915,0.499104486573368,0.49274459815134364,0.5079203970624745,0.5028918077937765,0.04443374785663562,-155.19503228818613,14.129762780778465,6.743831600197853,0.04484369265213704,0.05939444970596919,0.017420073734475097,0.024267072780524195,0.17693513536299818,0.0359490205472903,0.5116775197214315,0.5095098546436788,0.5048873276593318,0.5140141876493396
0.04,-30.056200655160612,83.93547997405825,6.0024039394343145,0.021992187993806145,0.0010880839107456027,0.023273972491711738,-0.011340223139927906,0.023439885558995895,0.13535549234119948,0.513623414302348,-0.5002906141976992,0.5017901022995801,0.4898453189476096,0.03751324161808473,-136.4982955174655,84.63266875975889,176.5701375402703,0.04582645686765774,0.026513670636147457,-0.0034331553052695633,0.08142357911398507,0.09754906144361745,0.046125184009619354,0.5185732608233755,-0.5099061544718034,0.4854614083809636,0.5027152122617551,0.03357279159848973,-171.7992065995472,3.2990634581361182,6.451887438027042,0.0004927891266236703,0.012674804269256535,0.07234467542026934,0.07007319195494638,0.1241992206690056,-0.007233804043154235,0.5087200611458497,0.49857156537886527,0.5033299696663944,0.4825610773059201,0.05849331180599557,-155.1956567793366,14.061199197456517,6.668580850281354,0.02579859412331279,0.03818878855512577,0.028777038673107685,0.054997064039052294,0.17553637405869316,0.025774566309918593,0.4926373577432708,0.5182141925609606,0.49111181583007585,0.5118776419582244
0.05,-30.0720111916761,83.94937799077063,5.992820456239881,-0.014255953530691949,0.003130467396861439,0.0030075168146532862,0.017134079178744897,0.006064350600856231,0.11681744773266417,0.4876593722093995,-0.4887870054394322,0.5124835088335631,0.49985848358828294,0.05153788859532319,-136.46465656085326,84.67145620743227,176.5782423994543,0.017548061527524302,0.010415830525600994,0.0055677024559296585,0.053694073231762465,0.10617115241794667,0.03585415307295174,0.5221216317551948,-0.4990836953848807,0.48559717212915005,0.49003564182401316,0.032694572093926316,-171.73936006552015,3.312734168395672,6.4057816306205,-0.00641135555389547,-0.0013406927594584615,0.07595975825180526,0.030008254041531925,0.08543996708196802,0.037200230783654274,0.49573103944774166,0.4978191356788994,0.5068991271358961,0.4890922114556121,0.04665086289065665,-155.18982988912683,14.001410705173946,6.699621680848688,0.009722091665913988,0.04101707674768772,0.04582002398788297,0.10228681523687033,0.11524761785184252,0.05240394340423811,0.4989842583252647,0.5187230219653478,0.49275715999585573,0.5154583863477019
0.06,-30.05862469400191,83.95127793034206,6.0065800406596495,0.013223319963075103,0.03081275789845374,0.0009784817743746944,0.041324994531986334,0.007240575675939116,0.09127109238631596,0.5094506901521393,-0.48860885921464836,0.49493086446756035,0.5010795732385146,0.05555380737734765,-136.4398390740341,84.6907366441179,176.60721552098803,0.023367268939704703,0.05125948059389045,-0.012022959439918069,0.006969939523523462,0.0855355166028862,0.03720043071225465,0.5045680813228808,-0.4924723669731444,0.48869604934653954,0.5067665224498191,0.043643292526946834,-171.68708173699727,3.3115046883976595,6.379347184640183,0.017962175296297324,-0.006193633318514254,0.06717694826523052,0.0007414134267563281,0.08582735528693923,0.05909022569297178,0.4788067779147422,0.49929036483242395,0.49930454509048855,0.496316164712929,0.06954147263352138,-155.25855628929898,13.946297742516162,6.621692062586134,0.0292656399319021,0.04290195211282412,0.057929187720334986,0.13139632613625057,0.09814591838222769,0.07156863112312999,0.48820771473116337,0.4890375999282777,0.5033657636468469,0.5160707609732451
0.07,-30.057521017627472,83.9384472435892,6.016675809525938,0.017375814017160846,0.023925363627773137,0.01037668016057366,0.015181343657511177,0.022566251686913622,0.08809351834446641,0.5104071113432646,-0.509259961338112,0.4942309069002422,0.5248956539792275,0.04330117420840769,-136.36247882703051,84.69132383137958,176.62843468731919,0.043895803561412344,0.006108586750261581,0.012720263033589932,0.14815174515500443,0.03685775732382578,0.18951028657667174,0.5100310263649015,-0.5010919986909461,0.4720454809792996,0.5061197258600054,0.07259764971228265,-171.5478581122616,3.3081328108580115,6.381421593317557,-0.0020552769771825224,-0.0005038871710488543,0.07606129164810049,0.006905562202748933,0.02347566762207367,0.09103941665784122,0.4861495090768755,0.5183270506003066,0.5033251291962072,0.5072276767665754,0.06330840430720985,-155.31138787298005,13.939390150839497,6.630175500739469,0.04414859684469454,0.02492023149053272,0.06095993821492667,0.18356146013979247,0.1613901826065877,0.03516700618185955,0.49045239018239106,0.4986885800829461,0.4996013288271307,0.5166918065150815
0.08,-30.06026082460231,83.94922827278536,5.960468965549398,0.02039426972332169,0.038128961208571545,0.02193278288251429,0.040084073483712894,0.0005678516284055198,0.11512167240696476,0.4942704473720004,-0.48342590208737496,0.5136600813400966,0.5239403423493646,0.08210217484802969,-136.3642253022092,84.69963702187319,176.6460105308867,0.017805374746973458,0.013879945767133396,0.018482185956254706,0.3009125630723292,0.008855893597406597,0.002782776647184102,0.5064295576321419,-0.5117991134618615,0.4770980601972307,0.49304253826145467,0.08775952794925813,-171.47850406178753,3.302266951208591,6.383741589928235,0.012977533257564889,0.01817867311816174,0.09650989216878766,0.02890132330121044,0.009642401564588841,0.055857417524008045,0.5105155738508905,0.5040786050195144,0.5087118207524353,0.5003235420148023,0.060307380381437216,-155.42470556504009,13.881725294431444,6.559551532791912,0.05207569348814704,0.04037045884221776,0.08552715405323441,0.07789828063301446,0.12663606286845744,0.046466238863125384,0.5018775694748969,0.50576102310427,0.5198684023247636,0.5103177402434048
0.09,-30.07568623897488,83.9512848626448,5.940897659476012,0.01156055762559952,0.01957852775226355,0.02362545008534558,0.07345946587649452,0.01652578911681629,0.10126773988567006,0.5162388984877314,-0.4915157312966156,0.49862102418306276,0.499134226015269,0.10399123030012401,-136.36517382587377,84.75056317440132,176.6355338180047,0.03512728150018761,0.07302120694498923,0.0007466148687156303,0.02718257080220672,0.022255592584750142,0.2469983632822673,0.5126310003334256,-0.5032540348297633,0.472833457696698,0.5029723176753866,0.10502757276714264,-171.37714828014396,3.3089999973542468,6.361744549261445,0.00968986328173898,-0.02444622861816106,0.12501665232077094,0.07493552228572244,-0.005078083250957278,0.02921121600512013,0.48003561060661776,0.48588908936755426,0.4969329643384741,0.49069631181148593,0.09329462278952229,-155.56604507028874,13.885290024560716,6.559763893985018,0.06461610165801446,0.026639541437733352,0.11928035351537966,0.15662652564601443,-0.002073337532901197,0.023632735495850456,0.4774721227163501,0.49000227159798565,0.47689808990062904,0.49894239680058244
0.1,-29.996620350383022,83.99978841124248,5.936475883134007,0.035166627451566596,0.03012304719493781,0.027709392502806705,0.0659435087990037,-0.0041898436112277546,0.04143813867660404,0.4955183898952715,-0.5048347580840451,0.4909375278673848,0.5060339978649707,0.10171322708488656,-136.44891575706995,84.75171489781455,176.6286213149507,0.016032032162096144,0.011197851812376043,-0.007320139556949423,0.02927797005493272,0.16550539842899614,0.2519276558811475,0.5016449193573774,-0.4975006087841714,0.47506063453818725,0.5010546242842582,0.1017917935391646,-171.1905120995651,3.3741688885748293,6.374031952579879,0.009972701447491494,0.009097999850153336,0.12466114048260665,0.07328946079568009,0.03532943302315829,0.16814155917976417,0.4937556757819897,0.5079638659400115,0.5213807234821248,0.49252500578099967,0.09848998578334396,-155.7648311492852,13.807700374154523,6.567526939700964,0.05732705177482881,0.011428489061629138,0.16108857299373158,0.1673580109744102,0.11337079545166526,0.02505254440275522,0.5010604706506827,0.4981400858873733,0.4978240916450975,0.507019601240401
0.11,-30.063204895165235,83.98947352530533,5.863544435626025,0.0668637850575999,-0.007151150935711665,0.021377519868621908,0.09984891820388456,0.05317384507864522,0.01901468999585259,0.4872636967963311,-0.5056741464024016,0.5164718731553947,0.5133357296046219,0.10020666188749972,-136.45911626789186,84.75767995582541,176.63236845775964,0.02581277244676397,0.049443973235539465,0.01350487616140447,0.2367210629034667,0.14710296418498295,0.15140005205017282,0.49840479207487887,-0.49794701904899785,0.4912794919257888,0.4913170471449254,0.11447086688180733,-170.99534644325763,3.369922343649571,6.3617522405258695,0.03934646369709917,0.02741283515643312,0.1960889944106667,0.039830459606478255,0.0692214030177923,0.10876003205709159,0.497183147669698,0.5122414611042819,0.527646130787715,0.481961837563141,0.10215834223515136,-155.86462316189122,13.81298859442511,6.501185109424045,0.06783945094765849,-0.0023001741956338757,0.11754442800212855,0.15550264214390055,0.14862871102305575,0.006607456301891839,0.4871640424781485,0.4926873378523895,0.4762960790656255,0.48904438487193347
0.12,-30.120220303787423,84.12347079654869,5.812875348037456,0.05284854713601948,0.03258123117714747,0.025709800780286923,0.10831791320478444,0.017427091701219755,0.03986254138628109,0.4814121412970367,-0.5008725015745635,0.4903563377981573,0.49754802513076946,0.13043011948164135,-136.41459963283174,84.9570534385627,176.57402321913187,0.010431830381949683,0.1426988675790157,0.013623782351277832,0.0827758155282641,0.07990424241625733,0.12259566217517309,0.5134227531738987,-0.506642571644481,0.4797716946782688,0.4992244887946488,0.12383090159122709,-170.67700803414886,3.4832856438902433,6.435040392895305,0.05478581095445935,0.05843850257811925,0.15635331376408945,0.1627696720364551,0.01130267474359434,0.11077050890451161,0.49693306562563855,0.5229439545369009,0.5270680362636819,0.4822796011543617,0.1400958524540482,-156.05928970175285,13.810484291453132,6.4271321469197975,0.08334075809130348,-0.006061395433504831,0.041979601398611496,0.19665872088246972,0.1433407929848067,0.00732357741765635,0.49601273891388764,0.486447167332226,0.5121580393103041,0.5306014347164916
0.13,-30.128465323667285,84.12291229806424,5.81096742513128,0.05886395241137439,0.006886014647971076,0.02770270438928147,0.06218590672208259,0.044702562215465244,0.08388798826938196,0.48597196316687635,-0.48919447598677823,0.5230079171475882,0.5062861236996432,0.13986498998775773,-136.42917999980864,85.0607002790834,176.56631196475914,0.04427557313076994,0.1351629697750949,-0.018254410627245886,0.18211583651901692,0.030971764412436778,0.29455424468176644,0.5166886647814721,-0.4824196416395435,0.47618692276405106,0.5194499434986232,0.15611455406771965,-170.49872311964808,3.552244232412521,6.510217265153748,0.03870802245481238,0.023199217833380734,0.11616916678073265,0.025829385818386733,0.06665448540899599,0.16095035159068302,0.486700901194602,0.5191556003354588,0.4868390522316431,0.48083839647167886,0.13191622741788275,-156.06348266782393,13.879529525862823,6.435321662136057,0.05964411154353643,0.0016227015893474413,0.009676491637723892,0.30588279728387213,0.09264114973667024,0.03645271307107015,0.49642107916117884,0.4804218249658989,0.49380662320555146,0.49147331400055805
0.14,-30.189356266016503,84.19901261440518,5.750490708996672,0.03872275037742573,0.027898472678298827,0.019396284608002547,-0.008206024595801447,0.15817375076708884,0.012818865522262936,0.4862379095025016,-0.4869817543504704,0.49870947320496095,0.5153138527977307,0.14196674305077198,-136.46740644865494,85.18568943678817,176.57730215640834,0.04267645536848759,0.16519324577891134,0.021477915100229585,0.21131457397345169,0.08717741332422399,0.14048712020041995,0.5083772453718461,-0.5217621730423803,0.4829308236050922,0.5096803168945273,0.15475891410254292,-170.4489181216345,3.607437911679228,6.48879360884365,0.03089748829643374,0.05371154804000122,0.05431156223384422,0.30008613158241243,0.02072516455866194,-0.001333024607402332,0.4848342063222687,0.5011950933113202,0.4987302969148057,0.48812137770298275,0.14148137705792402,-156.12427724594139,13.861333113602303,6.372403310592933,0.06771036886036542,0.0056661872305912905,0.004482238879890542,0.1616656244089043,0.3266736577305374,0.03075934533836306,0.4909619695395812,0.5033109735120547,0.49619242272906744,0.5044560160921009
0.15,-30.177250607844282,84.21731539012423,5.718448232196913,0.0427297634554549,0.018247466420776026,0.02391539635881243,0.039497669807777136,0.09214166723326202,0.053843605697855325,0.5089696753934954,-0.47212593100007394,0.497278308659988,0.519119304538511,0.16530143060985047,-136.5159824843531,85.30687877914535,176.5683280479733,0.0054942723201627346,0.16992940238343057,0.0033739691660680656,0.2388886706903496,0.12327928165639251,0.011936622250053978,0.5152683792728853,-0.5073580682833775,0.47540276773095497,0.5220752583927053,0.1612217182898604,-170.37947867030385,3.715272677814902,6.501312415585679,0.03823730281695933,0.06812386276622037,0.08361553867077531,0.26529545894726586,0.2347973619881339,0.11229250928304248,0.48842085978800215,0.5110741144810576,0.5182894236926742,0.4865371580213388,0.16645443010783711,-156.12217627151983,13.941685006433591,6.305252800326475,0.06551420505689386,0.013214799281966895,0.056907874145195124,0.08098788091139372,0.23417596196468246,0.06339050737374674,0.5103559659429381,0.4961258051700966,0.4991025933842761,0.5042057431932173
0.16,-30.191288881277003,84.25904697253357,5.684831157130593,0.056063795991313385,0.02982092614247983,0.01935780514984889,0.11920541903429782,0.017260193870477586,0.09253790173572507,0.49220637293200936,-0.48988638675406354,0.5274815588780558,0.5179391310009506,0.15121886297743,-136.4952443441544,85.44652049827829,176.5568432382972,0.016461522601763166,0.20495798907407384,0.015296992789624767,0.286240720961016,0.13534719188753533,0.031284422214047106,0.5173357961442206,-0.4934250060064161,0.48967366762892983,0.5036005961661281,0.19074399508177037,-170.38773711380162,3.8045132763241054,6.507983928527878,0.021141897493732055,0.12108081464525901,0.09235541615106856,0.22467248230398013,0.4227087025224635,0.1960664667160419,0.5037544416001071,0.508509607094,0.49937105066798715,0.478644678551889,0.13877538422216795,-156.06120346880124,13.932317583694406,6.322561376760034,0.04687639737404184,0.024263643245596076,0.09545939279814876,0.12020391942333462,0.17035936160334778,0.1570648752877845,0.4798665837482067,0.4821529087999459,0.4921453871593133,0.5130332991443113
0.17,-30.18539414813255,84.24874569919228,5.6970535410307255,0.038669272672245646,0.0238272425657185,0.015247249472207094,-0.005537971128831503,0.0204935845148352,0.23807226426548644,0.47860880653035476,-0.508839108242509,0.5133995804030618,0.49561337307621284,0.19513749256570095,-136.4865451301114,85.58554583760399,176.58221876541955,0.023745746960969275,0.24740345081020948,0.0178903014200387,0.29121709484470587,0.1078065385539849,0.1224040554874029,0.49803641717956576,-0.49904416159382897,0.5105801078273792,0.5050376345003497,0.1700684244202479,-170.1900205555153,3.999885123263013,6.4313703056400415,0.05466503371458041,0.12451353416553623,0.17062850734730556,0.12853039183735523,0.5358730781890755,0.18023773024048784,0.4840124485079491,0.5235959929529956,0.49936876370373595,0.4740536467800899,0.1868714497686802,-155.94060795531203,13.996768543889656,6.250820158505688,0.05751349091557203,0.024477528134004008,0.10097928776270657,0.04372453869540696,0.18251129075859623,0.001029348270979387,0.4966725150755329,0.49967211609700884,0.48877392672148307,0.5023768450388602
0.18,-30.171326189508594,84.25878389638127,5.6277254858165335,0.04779375953228867,0.05313723036870061,0.011213105317490164,0.02868512791260573,0.0181608734599885,0.36190884403650353,0.500423804736101,-0.49658608322910525,0.49517248606099573,0.5041456625996622,0.17773902833640892,-136.44596327042197,85.74918284442298,176.57849698998604,0.018532263553143573,0.30555444266702503,0.016329080010296565,0.29530999803924723,0.10226490162108672,0.2339479562236536,0.5095480250015967,-0.512310393718632,0.5182014200421683,0.5141784426553173,0.1860897247857454,-169.87895642699817,4.120283827741518,6.318616596771099,0.12007484332430053,0.08260527370759838,0.38614896790188635,0.07693499623343844,0.5097121894464155,0.16836634007292875,0.4868549342737539,0.5201975105348591,0.5024415827756631,0.49153095338446906,0.19838407836567878,-155.84728229560125,14.064166256449226,6.194983761343662,0.02776439081214149,0.05372086157624445,0.10959654635547825,0.11737674924601428,0.25652561001530827,0.05052514599701579,0.500586308367899,0.4999701748738003,0.4856005064302748,0.4886131752801701
0.19,-30.242041071468098,84.2623021325944,5.6177206987198,0.01011612660556067,0.025804135483124154,0.018305207400663114,0.018749438131254154,0.11396534327963645,0.5397482004570212,0.5080495358260019,-0.47677500760489094,0.47254000714907324,0.5067914233635273,0.195669519720531,-136.43484724964773,85.861288758,176.57501884150153,0.040605560560884935,0.3630688631309137,0.020000133670058977,0.4311526896822479,0.11771307511845812,0.3857834663810332,0.5104823485725436,-0.5203204180483831,0.4827055119267421,0.48532727698594313,0.198070678344228,-169.4440517516033,4.250418594482212,6.186129879026729,0.13299080855931444,0.04589099303766875,0.4294493029583526,0.18178878063205872,0.39602526235013585,0.04324288166184681,0.4838859391489971,0.5118777067525309,0.5103994780131299,0.4810467122348351,0.19322238363858293,-155.70969027656352,14.14312720341829,6.117625067335097,0.009552452208956995,0.0244186759628453,0.16581677549301577,0.024879670754067586,0.18897399015166985,0.002291270598929685,0.4929513583248196,0.511212036994264,0.48262751567712936,0.49614008386077385
0.2,-30.254542065550787,84.3043967880685,5.622748223881609,0.028244620927119823,0.05988660467784701,0.013853644736923073,0.14792937942976914,0.04988372351406675,0.38204536205340395,0.49762722838397305,-0.5055136767772922,0.49082098595912577,0.4990290356987123,0.22278693171545236,-136.38657999253937,86.05711583933007,176.499216892234,0.020933207344360497,0.3875382955411949,0.013800564237816356,0.5180207555243237,0.17455481676964096,0.2274016960943151,0.5060410145561753,-0.5036089016785195,0.49138077333219427,0.4748214560748359,0.2152378901291266,-169.0069343296925,4.367422860674035,6.048835712214769,0.15069364848669692,0.07436984370744489,0.4329941287565654,0.1313626992297426,0.15229684421566358,0.2896111543164231,0.4857958640887457,0.5122465499544031,0.5110845126802498,0.47719211717304394,0.2136129483785187,-155.504286783187,14.17938270316399,6.0738642445301405,0.01999177058681003,0.02552590596403402,0.20017018428731428,0.008415107860460085,0.23332410933749403,0.02428136748109488,0.502481713859343,0.4963292954936116,0.5088510026768382,0.5065543183195237
0.21,-30.25733812907918,84.32067939211149,5.611584996273664,0.0035960445601768798,0.07324668804236392,0.023911959417706862,0.38329143432564716,0.02910585665797498,0.3138876622421618,0.49549012152035193,-0.5150267047688217,0.5052597154326631,0.5063505736638743,0.21708287837298312,-136.30094787544925,86.24039206943814,176.50434951026426,0.06406687077917789,0.5379263272516596,0.03697483685535599,0.601169415101444,0.051823421329013186,0.012042935288932265,0.5263655294206953,-0.49690227664481335,0.4873368168596617,0.5076178097230383,0.2242159563308897,-168.4908920089958,4.502599163231744,5.868294617405995,0.19340472413995982,0.07676043300348447,0.44430751919765665,0.12055977783228575,0.19686154071078352,0.44176168992762826,0.4848788749116335,0.533782627848453,0.5096418124973905,0.4652207351990842,0.20755576750328705,-155.25989919022925,14.310419539276472,5.992621266153953,-0.000195097567382653,0.03527616067571291,0.24625463690890226,0.06775004242408666,0.10281559680984126,0.12408727898024831,0.5021285429515018,0.4822127287051042,0.49773013558545726,0.5013179647848751
0.22,-30.314354715784997,84.22527029410105,5.700370958897902,0.022072837705217403,0.14379437866679098,0.04908274781802405,0.40787703870332187,-0.0032321004353215717,0.3298611905111986,0.47896938790239163,-0.49102957213847903,0.5115720290773058,0.5111645583080252,0.235447763558531,-136.2516050900708,86.37035482521394,176.43916330777034,0.069228029990185,0.6170907431559557,0.047170453631227516,0.5108956495941032,0.09114257413895806,0.10917580686027226,0.5144088495107273,-0.5001549396601864,0.48317478427297456,0.4855722489313214,0.22960961467944715,-168.15442048599792,4.60180217377397,5.614920623610205,0.16302619963051865,0.07924092429565874,0.3752445301590124,0.07488919614777537,0.12822483325906495,0.479324750599461,0.49168886433348313,0.5241918355713138,0.5254343163749263,0.48198545433859763,0.21805586963416623,-154.99859090452344,14.368645708485904,5.930042385238571,0.023120165808646627,0.03125748808934572,0.2665667945263376,0.06387730138506431,0.08846229369241072,0.08438239303327598,0.5199436580121509,0.508578759158218,0.4962713390519552,0.5229805423372913
0.23,-30.42894494124242,84.1275684218264,5.609128239719395,0.018797554547025763,0.21209682803636037,0.0761827433631383,0.2395535146649358,0.1792102859717158,0.48348313625713646,0.5083945342478994,-0.49486677751147673,0.5080704133952112,0.5143167372253461,0.23315755783746375,-136.20616494482093,86.1957030348384,176.48982675696973,0.02251301895391046,0.7794060125325983,0.08646742090257939,0.4892595143507153,0.060828370775479035,0.3167100911899298,0.5020512596551979,-0.5006212314673827,0.4809245523725526,0.486702594866153,0.2575561483370851,-167.3620744886528,4.889474746685844,5.19368312057853,0.15255127826255135,0.0955766259399254,0.3099391663105097,0.18521607011466845,0.13699017808043998,0.619580334906675,0.48603627773276004,0.5358656889700422,0.5155205175095061,0.47793681771467617,0.2423673165894128,-154.39529906697325,14.513016844451379,5.867265129983422,0.020250354778300027,0.03635013396743208,0.26611281630448425,0.10817748760143366,0.040031770557336865,0.09476212338474102,0.48622309536985503,0.5099256762947203,0.5169488084534835,0.4888023891694262
0.24,-30.47458104380094,83.99755186254134,5.560786509378766,0.07363839034374944,0.2436719136292977,0.0800443599333395,0.38857162403721834,0.2087405042122985,0.30746743795810394,0.4888809893620365,-0.5046008384778076,0.5051993995684163,0.5175241158777997,0.2613770026145534,-136.18517283734724,85.8039229735715,176.64317093307798,0.031256255517285024,0.9004162404537969,0.06556447811257488,0.8546595046780752,0.05965757230086914,0.11388670706935244,0.49500102118364164,-0.4946068764179475,0.4947515529914704,0.5135613606680077,0.254589050242962,-167.07473624721658,4.967708330270978,5.022474530708144,0.17305680305321222,0.07241895298756364,0.25263088306444176,0.08233377595737013,0.20840990497817305,0.6799668059897362,0.4827117054118727,0.5360725340127394,0.5049210815236287,0.46917013152761006,0.2583079898240115,-154.11989093760022,14.566263172629915,5.811056182361083,0.050118569119650215,0.02674562731747833,0.24243007066261343,0.15983416799472985,0.09616792567844701,0.04943364339917295,0.47554404305915476,0.5208118058501395,0.48694938206156524,0.5138788949172926
0.25,-30.50035822855743,83.86902054561666,5.506098059392082,0.12035065261562983,0.2794645952562634,0.07438906869851909,0.541397793125245,0.24436700247489018,0.17824166747888506,0.5060225876873432,-0.5008533328931165,0.5013318605501713,0.5112733801877145,0.2696861990639868,-136.24888083268021,85.10966816787275,176.68842950441544,0.09277366752409905,1.0168231323579142,0.08927242750794274,0.8094875123005079,0.02384055983904204,0.06468964372552603,0.5084099559322696,-0.508452124529567,0.48210070561373564,0.4964097655272687,0.26133312737635384,-166.8210427879012,5.071820382511188,4.866612572353949,0.17333263963714346,0.03710081179998323,0.23767412218737774,-0.00829544521139137,0.2926007611207831,0.7732384696862908,0.4734266537755247,0.5152097761201998,0.5008028027346512,0.475536901784393,0.2673523758735944,-153.94623334702482,14.621512228485477,5.839853368399544,0.056445588932200454,0.04207005200620946,0.1954550754143715,0.16251384609911593,0.11911715510553406,0.10892149760898798,0.4977508158491433,0.5242593600014493,0.5001596789114191,0.49304231614178456
0.26,-30.439791591791195,83.74153592063546,5.370477270779282,0.13395127701454382,0.3567961672233675,0.07132582218295803,1.1770813766568953,0.31253290440173676,0.1507961970922449,0.5014273163824512,-0.5003486294130387,0.5089364515244047,0.49257563146729705,0.2674599781933156,-136.22305603642755,84.14794624446826,176.80385075392758,0.036770062060255466,1.0707032358839963,0.08693390119230344,0.9246397723269356,0.04871924519467291,0.10224421711235422,0.49668300792813924,-0.49933953930482344,0.48410311130015254,0.5228604089625553,0.2636726899611179,-166.6765588210986,5.048414674052078,4.733868877769546,0.21526770983582835,0.023854000732048453,0.22917914622902782,0.1723784286637894,0.2379527055640782,0.8572754002714993,0.47908250359395194,0.5222060476778474,0.501788517077985,0.4661913663221486,0.2725674521074571,-153.712444128419,14.685957070275458,5.744604922335642,0.06130623514985211,0.019268303149844193,0.234254230688907,0.19194682559724735,0.11171349968050755,0.06767211889578846,0.4928236477950471,0.49539244018708567,0.4929271574728602,0.49858978143507693
0.27,-30.438861066733974,83.56358816057775,5.307809508032426,0.13047498896240653,0.4818778322697363,0.08004765035415251,1.2266059254029742,0.3320467862613831,0.20230804392633897,0.47735914827093157,-0.5102996609525066,0.5197228241307847,0.5110795713122349,0.2874828753878457,-136.18896091938788,83.18158707787032,176.93378881705854,0.04503671226195416,1.1863217620942246,0.11215585767624911,1.0466272646412669,0.05285277604358028,0.19760192113880334,0.5200834417738964,-0.4916332034303141,0.47550184639236476,0.49032098213572495,0.2952492288480529,-166.2608922150721,5.1547541794867655,4.228420096529728,0.257284757403748,0.021400054720458955,0.24194823911810764,0.07541553710952141,0.18295106486362228,1.3197332970952442,0.4925271259801071,0.5233431419205046,0.507262573598897,0.47851813806025645,0.3177982352713904,-153.4380253550961,14.686852230541382,5.741397531910878,0.06241007640436574,0.009512695544016648,0.19572463524390565,0.2499927827300126,0.12185980128355095,0.03796686545675319,0.49899017025214043,0.5020925796241372,0.4920279548790466,0.5039127643185439
0.28,-30.435757771632215,83.24697966477437,5.2587721440102255,0.12713838923518528,0.6525375915603298,0.05592632808844506,1.2135965511659406,0.2791311174823982,0.17388288197953775,0.47512965960259473,-0.4952878390486896,0.4997438458224995,0.5272650570991196,0.31844042177193915,-136.0530730382695,81.98218378836594,176.93980222218286,0.0717069494234913,1.2778119491756383,0.12111611059313451,1.171650170189422,0.008394049015940645,0.13567673979313186,0.5093677969392609,-0.48861425548682214,0.47965595878299655,0.5082633129454406,0.29451615855299135,-165.81632446889685,5.228282601802994,3.6907087151398077,0.28756821722781034,0.031465774319076316,0.27424600958203793,-0.001953537981925948,0.11223117535952358,1.7744109546657958,0.4559676186336994,0.5344073836184375,0.5156537285813944,0.4478004593604687,0.3025811098370619,-153.2452503630256,14.751723042600538,5.73778408804078,0.057661502054025995,0.019402714012109704,0.20097144543066842,0.19240041116338202,0.1702603984052599,0.04565466194989294,0.4913565740705323,0.5288720240228,0.5208101200131073,0.5068675540448286
0.29,-30.360771106208873,82.81065606654037,5.255682722364087,0.1690530734726807,0.772174710630647,0.0560705481101976,1.4954131103605603,0.49040811751450697,0.15783944094689553,0.4899092056922672,-0.5047927788191106,0.5008403521395736,0.5042892947241399,0.30522321454609597,-135.8791270854959,80.62092267544189,181.3718324535403,0.07672942026013707,1.3508155441213738,0.1833687379341038,1.4632495606654192,0.17045193957208443,0.33363498779530293,0.5348813671676829,-0.49407046727043363,0.4329719228104033,0.4730414432339563,0.31405331606371506,-165.49644323940777,5.180364103118581,3.3145266132956976,0.3300605957200275,0.11660730108280311,0.25942706343896754,0.038705799791992596,0.1336507026597628,2.055303564790429,0.4637880122101094,0.5457838991700658,0.5138609046987632,0.47772548789668756,0.31907618919114,-153.0025426164282,14.757285433705931,5.725783107606643,0.04910732142634511,0.016288370209606655,0.15820830826583002,0.3289985292484382,0.1449021404877788,0.05738338552178632,0.4854320085981829,0.5081562694974249,0.5009480413370878,0.4887450983581843
0.3,-30.242379049991364,82.31439952198141,5.24147580378071,0.2882778082254697,0.8227969914322052,0.034346372859312274,1.7978009737501757,0.5815967142512889,0.16600337646373328,0.49738319641873124,-0.5045562191499492,0.5048377941869303,0.48843843669913134,0.32844373492881657,-135.7110422090735,79.17170763110713,184.99997704175945,0.006843204307619618,1.477632648023845,0.20059885046920078,1.533877699417057,0.22363847704388562,0.0063876744035911565,0.5823404033707406,-0.505931349908738,0.4208371413679688,0.47727340325972095,0.3367300345379303,-165.22990938506024,5.0762132909045565,2.9363302677597423,0.3055019564337806,0.11433192116017933,0.20019214392407852,0.04447497597661901,0.12968568386286347,2.5807677801774327,0.45316382705065,0.5505232976903519,0.5146655733657256,0.46832979554318904,0.3181509200622559,-152.81949016835063,14.757812487419658,5.770876821863921,0.03907922530385119,0.004435096855710625,0.1521137037487814,0.17074894081035996,0.18760000104589733,0.12232484430165763,0.48893863576800567,0.5195548571192875,0.5084213322289527,0.4855192878728496
0.31,-30.039177452252865,81.63311647262428,11.127394853959816,0.31390201522897293,0.9785753369262368,0.03139583381863895,2.1268342930953126,0.2833806676233685,0.3327041828986909,0.5118742722226208,-0.5297349435629781,0.49498601620117294,0.4789063294374597,0.3311630184667657,-135.30696382604356,77.55175351967746,187.9906123484637,0.19771588045343502,1.5786994198104145,0.19335242638121877,2.021896573507632,0.39569322434850007,0.10088769312828423,0.5929736083994145,-0.5304236208063738,0.38091908198415037,0.46654753959034645,0.33538857916925613,-165.1085193998707,4.952166648368804,2.580396806732869,0.32682342631155586,0.1466666029499094,0.1548713590598019,-0.016141484687487495,0.13103185608244913,2.9739210189820646,0.4690554575100346,0.5318073062161636,0.5148652000257627,0.4863301375886425,0.30057435876200345,-152.67294217647043,14.692641039162135,5.729660053266587,0.03669606961944111,0.0232632957651815,0.10104729090055502,0.15183569831365543,0.16906352895719107,0.1409707578133577,0.4868748162860114,0.507629304594304,0.49996727868530344,0.4953786006372249
0.32,-29.93364959470038,80.77064811075938,16.931944804171685,0.2696998957764042,1.1632854468727032,0.08193227490241865,1.9460718395952072,0.20849969689640177,0.48811793958184657,0.5150386875459582,-0.5685829256907029,0.45923904069919963,0.4317122952934195,0.3318650679688362,-134.81195775268162,75.73466006629383,190.3882346893081,0.339411922708236,1.6742410555191525,0.18398066935591811,2.495883041633683,0.08861848016649201,0.5312878567312258,0.5966026810428723,-0.5340465330293955,0.38661244689153035,0.4626804482932114,0.33162545510684976,-164.88940361097994,4.752635020507309,2.1985613573882024,0.36297149756573627,0.1618426638420874,0.2116059733917157,0.10338334917898788,0.07241098539712186,3.0093389860986997,0.45457364160559766,0.5652759890548046,0.5102357411352155,0.4702102074444378,0.3525714134383835,-152.56267118633957,14.682914550142865,5.738993977911897,0.05258645055678489,0.03708925594036806,0.11372051403645532,0.10331334713668337,0.1064212085900813,0.1084803981463489,0.49567888792858733,0.5093716304154787,0.5095235427184118,0.5000747095665491
0.33,-29.82316608673777,79.6215560816693,21.760056294498916,0.2945966094030879,1.196001135425368,0.07419156776357873,1.1270717795593577,0.32010650238388644,0.23290352890920105,0.5412928611186687,-0.5713520238980194,0.4504187141190937,0.41433176975020947,0.3438867793948109,-134.30543211859822,73.93165972979465,192.3744776441377,0.19269548943845538,1.643299399327852,0.22147181175333855,2.456080039249523,0.12105754698755447,0.2145636502511687,0.6174479129665906,-0.526496666847665,0.3515132116523604,0.4521163101081344,0.3398937607617746,-164.62329455092137,4.587128252704422,1.6970947223705302,0.42721711504500604,0.1512158657685525,0.28220682522852963,0.16762871576031083,0.000227342421217306,2.9264255601119875,0.4388672384918006,0.559669859502342,0.5075657773049894,0.4836076307229279,0.3671129769343481,-152.42731045006084,14.619006132032473,5.73852674677087,0.03084648813067554,0.013733133763662982,0.10047004495616932,0.23335381669010627,0.08859091547692292,0.10673234154938906,0.4897915906345518,0.5222570589228638,0.5157839922262756,0.4801118352124796
0.34,-29.67697127584435,77.66629809740618,29.057974018719758,0.13071117511544866,0.9463802892800071,0.057534235230661014,0.5488205377939844,0.3045739480182716,0.49427779285119733,0.5402277224323732,-0.6142816758083409,0.4178907246620039,0.37283267566381334,0.388026674681582,-133.81511208704828,71.36860543798986,194.30177831038407,0.06805108816492335,1.533867023740801,0.1995069808476848,1.5825772340942028,0.33416532553475425,0.2536681373483747,0.6440034929080631,-0.5067555272151012,0.3430900187330326,0.4615223564027636,0.3523280053164991,-163.7903390032205,4.349421661401215,0.932588790119018,0.22026179579201027,0.11717872173212492,0.42594220458719,1.31318316286188,0.3938377029322744,1.8679242631521558,0.43146497325519995,0.5679505843166012,0.5194453871773236,0.4788838675311491,0.36760248460089445,-152.24838180950726,14.62376463449108,5.753894335842062,0.018674968334811134,0.058702178289187,0.09391734257911827,0.021556364150094293,0.1415074922140155,0.04594069518486083,0.4767584653629435,0.49582520778456024,0.5016560594383984,0.4795835463779609
0.35,-29.62504726879386,76.94289120838837,31.56368081406931,0.057282463829868686,0.7898231792798363,0.08588170491257946,0.4854403292794315,0.040984461592919186,0.4501843600332778,0.565398482734394,-0.6243170274986563,0.400692418099054,0.3595063055029588,0.3746000334626834,-133.49977855181277,69.68546765569783,195.30229227329127,0.0936743705807765,1.5341743111697794,0.1750885790066501,0.9542769817085158,0.2748896496172384,0.06995987830931487,0.6416368061499526,-0.512055986838318,0.31607171216035873,0.4376013890204729,0.3769359538461579,-163.31097382262212,4.241248169877366,0.6743478559385411,0.08262300926026761,0.07498121301336506,0.4396265184705765,1.7848323802285357,0.4225733589209571,1.582833449067164,0.443299986325237,0.5598708129492952,0.50167198481989,0.4794823162135489,0.3936702094590776,-152.12675682465866,14.55658435672983,5.7144301941558115,0.005277306880540674,0.0534358461783859,0.06345229850025043,0.003344851083150289,0.18086138855797565,0.02277552989431134,0.4853648153007722,0.5122794746329747,0.526371181274091,0.4694886948183015
0.36,-29.644335052139372,76.19102689418938,33.551259260642944,0.0016279204315911289,0.7657168182712258,0.07649800543707638,1.1382070727237754,0.1732015578553511,0.4589048309438876,0.5520752067596164,-0.6444989248493123,0.3752713405544364,0.35510918032398275,0.3800484149864886,-133.2044367190136,67.99656778232156,196.19924314644987,0.060644827683287585,1.6266598407861463,0.2150568987613078,1.0141497992100297,0.19027003486416255,0.45420056040213763,0.6659229006988392,-0.483124240077443,0.32451231885813697,0.4730781114597317,0.41084066086407806,-162.85729168000492,4.0694350006974025,0.6914814849455843,0.06439975550647735,0.2180041141605386,0.3390045683217393,1.462955743318615,0.6436701361348164,1.7199916110808844,0.43575150148694153,0.5511025897894545,0.5199328908586552,0.4708329719693855,0.3807913849570637,-151.9976166036888,14.51025534250443,5.7097462930420315,0.0036294395510428987,0.029077262859686863,0.04177457815796175,0.007989121139381583,0.2122101050720718,0.013421770421261806,0.49616631141736434,0.5082776570075566,0.4904528561724008,0.49109334235925073
0.37,-29.638481300197423,75.81731305260948,34.418174913189816,0.03349169743482372,0.8330481918858472,0.10312561767786595,1.3039981429171137,0.10546671558076262,0.7022486018528615,0.5544499513003195,-0.6619414688422227,0.3844411839154698,0.3507577276051436,0.39034524494517453,-133.00451300865703,66.17757512372903,196.87702261100372,0.051686922722378695,1.7100106218965714,0.17913562152562307,1.2261234256696716,0.126552568480246,0.6699405236941638,0.6774388071806394,-0.49035223236401604,0.28578743126548,0.4463138566317409,0.40655290907480995,-162.74105114207478,3.7291978545503697,0.7526345476230153,0.10856486157862476,0.29089773484026754,0.04137168752754734,0.15267831263266649,0.8963339903854745,2.0350441395416534,0.40212421190829795,0.5505984301001001,0.499198529335206,0.4698560284861221,0.39984088118948585,-151.99438811610318,14.509266645246282,5.625648075384226,0.005750791984667491,0.04377456127096299,0.04491098918313687,0.07103757735898236,0.14428193329549277,-0.0007990778182333973,0.47549064069511204,0.5327289393776885,0.4989881552626922,0.4876515303852533
0.38,-29.670814758883687,75.01876548469858,36.247689236013755,0.05116688626685361,0.8557268535680337,0.09188509272285787,0.9508029247106411,0.19289410125800163,0.982827194605779,0.5788886434610024,-0.6597776952357659,0.37539603815151756,0.3203891083059042,0.4263101083186418,-132.991364699108,64.25068365014455,197.2432369531099,0.12483075059527522,1.7766962661372896,0.15397227742031608,1.293080959896866,0.0031835934549912263,0.32510229571422905,0.6809090177491153,-0.4716585781864889,0.29828867423583016,0.48567443741041566,0.4094380627426499,-162.87705416907158,3.4415906202405444,0.9485925513284589,0.2028142927320544,0.17925929725763756,0.3072920665799583,0.22906068457170659,0.8726697086511085,1.7906294459224832,0.43546721107820086,0.5674738222242247,0.5291860732345839,0.4771982667560445,0.4045689256392258,-151.93743987103346,14.44332491728752,5.561121630190702,0.018772758213089914,0.02182265663173839,0.022222693864618448,0.09661350408510824,0.12954041067152688,0.03691894976744467,0.5028205249972849,0.5021035173516346,0.4983510558877439,0.46595018061381044
0.39,-29.816230978932115,74.19761075601926,37.82901193334252,0.1408202551525378,0.906649362597433,0.04554853257829329,0.23605079805232465,0.22274427490159274,0.8686816693542101,0.5555820873184973,-0.6691453646313338,0.36781351190565115,0.3195153446934378,0.41758534402576236,-133.07694662392717,62.31495224382316,197.54144956424997,0.10186866309253367,1.7450048000747076,0.16029566575629273,1.1786201408288122,0.45576335210775604,0.07625855833008635,0.7088030467157539,-0.4513643056622609,0.27028410591937413,0.4615846312405494,0.40801133320187466,-163.2542593117506,3.3151893758212103,1.1982017132815694,0.25569737237030643,0.11782239704043412,0.40290128584206236,0.46767255851929457,0.8429254139167189,1.6567410039118595,0.4343820083113542,0.5722382874310036,0.5184877812819528,0.472643613005185,0.4201978118166155,-151.87220877903792,14.42898874879643,5.561462137873937,0.025487150311381504,0.04867900076343616,0.02031787706537053,0.08681800387771856,0.17181388215147006,0.042014497194154496,0.47264129475004313,0.5222934508150238,0.513252668670143,0.4797639825803865
0.4,-30.189183524586433,73.24751609745547,39.00988217113504,0.1977429583621186,0.7988605775969341,0.03590736209169326,0.52132234639307,0.03835948030661334,0.587809580197842,0.5479325600595933,-0.6611468479069358,0.3717154762564013,0.30875577746203875,0.43878015461572717,-132.86846414017518,60.50791305100848,197.94004823401852,0.01806963537175895,1.6083558538125928,0.17533680774288576,0.862009620442115,0.15680450221984887,0.11404216827277576,0.6783699784286564,-0.45676151228776296,0.26192921214644865,0.46374035168757105,0.4359207092637127,-163.79607813658782,3.1034480140808913,1.567029048501058,0.3182989463010812,0.10918317368214848,0.5205390215145074,1.156352476603888,0.7003097124902414,1.349618264604256,0.416348863351076,0.5459254755829659,0.5445156813957188,0.4969986203045238,0.43596615438348324,-151.8508832491738,14.377575348601324,5.518465417918033,0.016627008279214824,0.04019261906460664,0.03744004386213155,0.09100467118272754,0.1648803957668622,0.07367044214806402,0.49565559030629214,0.5216409836365986,0.5035055853291783,0.4975837256435739
0.41,-30.63481749202137,72.43517668357202,39.67716597312788,0.18184495018760904,0.7395552133124698,0.004539457772867093,0.9279484469894571,0.16832063398235578,1.0430678096181611,0.5346545341238179,-0.6972602274253183,0.3587398176797063,0.30732943307570065,0.4334991568866408,-132.6989506299245,58.800496945018345,198.2620949045678,-0.005685774287945728,1.4399740807997614,0.16367859980005528,0.8370155185099947,0.26027988743497604,1.0214071380384504,0.7138173612950831,-0.4580522981326214,0.24519523406096802,0.46701492156653857,0.43313495907736843,-164.30378507624647,2.8791727028628786,1.9315148672849192,0.3119054286262599,0.22949388013327598,0.47482225924086563,0.8622125396729404,0.7867866180466945,1.0300703648836815,0.4334112681122563,0.5505681176336245,0.5278374087940026,0.4935644998934274,0.434255649595431,-151.87622111553034,14.389621232045855,5.427715461088017,0.05441681037724683,0.012835607467827208,0.030099886086394613,0.018209461096083075,0.054116842442791406,0.01805747158048478,0.494612171570005,0.5137515275039213,0.512794372687335,0.4939750904417421
0.42,-30.9423420359006,71.73417246744518,40.36922148433166,0.17182544615714324,0.6481298546050137,0.04099098787228299,2.2370583837680402,0.651530344951299,0.9520182863004064,0.5429834455783759,-0.6964753183640661,0.3744270803454059,0.29846452489415615,0.42883339967321077,-132.99073864162293,57.00722602749771,198.33412725977936,0.3719789509364559,1.7429877964191351,0.23913274182588806,0.5236226350647176,0.337888867541746,1.7980855582783042,0.7217718890660766,-0.4403233122574259,0.24466872802328296,0.4752903327768517,0.44546379870996755,-164.87414168112744,2.64254043979672,2.1875435994461756,0.15491949468885052,0.21444027043031982,0.4665413098515826,0.23227611825537642,0.8507886156287452,0.8130197051879425,0.44584180649943794,0.5452362295838789,0.5264538142620921,0.48739463778007297,0.44695973814470763,-151.86828226894852,14.357607086161643,5.360905672809435,0.016992685193125717,-0.007797467168967016,0.04018432765204736,0.07147976946884523,0.07049948989343963,0.10246015086676236,0.49411105617859785,0.5326201905302431,0.5160961346514377,0.48967136926613547
0.43,-31.073352097511577,71.06959162272989,41.36649354322218,0.09314168427463246,0.9809272525823869,0.13163725866701753,1.6140671138407712,0.5041115842809408,0.36462428215897263,0.536029468166175,-0.7004509936524435,0.35332305101018385,0.3008941425600581,0.46585955372751864,-133.50421594537687,54.98658443179758,198.2454977077644,0.29415152486288504,1.781102075661907,0.13852056928675396,0.2659775985823394,0.17011577591148755,0.764947257123903,0.7240627662142788,-0.4183784897470365,0.23212297572283733,0.49553287456389583,0.4588408098182861,-165.35555614307557,2.3606406660891177,2.158148669271855,0.1269299129728622,0.21980038216400058,0.3984606707979308,0.19769253810603185,0.7109706450718722,0.5801732901624561,0.4408533883758894,0.5334043923231263,0.5252292856263951,0.4821651163031751,0.461178888762672,-151.92989822995426,14.373505253796033,5.383472670076243,0.051031929025800137,0.01730106617656896,0.005658972211532886,0.06579847498058272,0.02921850384040414,0.0071852205667504235,0.4730279436007307,0.5094077296912287,0.5156219329010464,0.4803701269936209
0.44,-31.314178753406065,69.92990589952448,42.65786533809807,0.1411643877290302,1.151029781994044,0.13497016989920962,0.5349854910997633,0.4760514813494593,0.13561883543008327,0.5415252395925529,-0.6888564681924896,0.3499545807447221,0.3068965340036355,0.4727750807640464,-133.69772404847117,53.24031521490064,198.18095919923704,0.07969295671602813,1.4483338620301476,0.0456804369786616,0.44734202109878285,0.15689344192873556,0.0049789343956261846,0.729515616967956,-0.4142734523037797,0.23403748840856564,0.48894915852715476,0.46764713087991877,-165.79329387321974,2.126170971067775,2.118213588542285,0.10726063332728214,0.21264221295145078,0.3041185092962787,0.14601229944396987,0.5696112157760833,0.37750304920461975,0.438355203359566,0.5427594168252521,0.5159560051001826,0.51215276312347,0.4667087411891358,-151.85433685824114,14.38451922780991,5.307245297848793,0.0470242857776511,0.008934342525945015,0.046691880223556415,0.11196273471355368,0.03498284343641944,0.006250051686384605,0.4823226837404008,0.5096318103147169,0.5089517624588237,0.48553427010225736
0.45,-31.817822728034557,67.5697063516247,44.84986080406851,0.07375592207121118,0.9977831218950609,0.1072713251424192,0.9619830402950325,0.4559126335433007,0.7823572651816824,0.5039389315884386,-0.7333811068309867,0.3433368656263605,0.2900400068846172,0.4831984694057742,-133.77130765268535,50.642538491403066,198.24829308125697,0.04887921416337242,1.2784600711422367,0.049000439777230405,0.33038709542313555,0.15711881476227438,0.4778006270020352,0.7292753380380473,-0.39630588243477627,0.22584081616191165,0.4950994396269957,0.4863993436881873,-166.02913247450144,1.5791664911885326,1.8381302002094975,0.16374068269964584,0.20710455150428358,0.11031593438038924,0.09555194948210269,0.7851159009101871,0.23801769958409988,0.44519835183577894,0.534697484819774,0.5143773977328031,0.4926717946400312,0.4962329501810032,-151.76376217051546,14.435755231211562,5.2049879584835805,0.021770492570202672,0.011717894832421628,0.06158266130898964,0.1625452892470475,0.020314196178823574,0.09113014813604323,0.4785014615638026,0.5226596817134747,0.5150059721745036,0.4812821615459269
0.46,-31.939289885780884,66.59755828555218,45.756157145907856,0.030913132047089245,0.6907608826888187,0.1393388782753968,0.4954273989052181,0.5216365752346986,0.7176111209414541,0.5140901585114901,-0.7372270238585947,0.3499241425137809,0.29335951009247285,0.4989930161693918,-133.81840437281235,48.82446098439643,198.3127767953218,0.04161356019509268,1.7306439738442276,0.14747416039455838,0.7178323607012378,0.08868395059382517,0.09137443360487144,0.7414270557161908,-0.4015120664299512,0.22031685983211832,0.5092762406140758,0.5146866145074391,-166.11560926262976,1.3702884107824265,1.688493238781899,0.1668436575745,0.16925831223931773,0.14828912326342025,0.17039011528574194,0.7884692261865821,0.05719074952844247,0.44873822873360497,0.5374179266285699,0.5104956898271543,0.5108822175735545,0.4967856416917537,-151.75227030743372,14.43551057780099,5.124955223639763,0.050021789577809214,0.004948175275073495,0.039015999453268266,0.08003718842203711,0.11454550682380418,0.02395148288310502,0.46447443324728055,0.5130768507708495,0.5230711846923599,0.49318683685790216
0.47,-32.07858473258723,65.74584236849702,46.56417017852637,0.18003700512606438,1.0411350036111542,0.055438731383728984,0.020508332433218698,0.16888167579665217,0.31843796684666287,0.5195176078328626,-0.7453734134188592,0.3515408456267067,0.2846009613857864,0.5081291493308299,-133.67576116264104,46.95947363237563,198.20260991770797,-0.0037656406438435104,1.6224377312024787,0.14395696885422435,0.9147008158836075,0.051866056043195774,0.11214101650600584,0.7580639960343439,-0.37802240471400655,0.1924097218264549,0.5111031248621017,0.5030659653725394,-166.30635539352468,1.191740877682225,1.4865748931331217,0.18026684435013177,0.1103827664317145,0.10779712416440801,0.06697935407926965,0.6943641717100262,0.22953283259585838,0.4452199933913503,0.5380298865848955,0.5373707454994083,0.4882914667717367,0.5140730649466466,-151.6844816451396,14.439245684404872,5.046347802893061,0.03983127772807538,0.009438519410363942,0.07022274023059946,0.14892321955775034,0.4025795829364423,0.1974081179761167,0.46603976869540376,0.5256916468465888,0.5224258177120668,0.49638457886759696
0.48,-32.50835293667841,64.62683433082655,47.05061223130621,0.1771291822125732,1.0852060553505007,-0.0074737463473227485,0.31312774806439025,0.07034654932300584,0.26726732050636054,0.5192466977321475,-0.7239996401217317,0.34958373849928015,0.2698934400711139,0.5406296574507341,-133.4919823411162,45.43386927470244,198.06841602071958,0.013924610546494187,1.2501001693595368,0.08993643567059198,0.22995602681883656,0.006868168369413496,0.03548414238399089,0.7626003499876092,-0.37032994197737296,0.20984263933246508,0.508083421997108,0.5245134486505121,-166.43489971912075,1.0614277404442376,1.250920896932227,0.19133183598367196,0.1021430512928488,0.04725502913151617,0.04383719926290087,0.5184482477213282,0.23943465522045637,0.4345508763982313,0.5310712794931729,0.5168741873186963,0.5021403219848449,0.5456741228149844,-151.49784737554185,14.418887587913371,5.022850464159536,0.01708009822646634,0.027940528317131164,0.12185616391978782,0.49678440023064935,0.0964163818672566,0.0116079492272008,0.5009041105390808,0.5260898866419679,0.5090254408779998,0.48591813855848326
0.49,-33.12858578624925,63.496597859161604,47.1993081104263,0.16570801674517,0.9494596956395105,0.11115868636057305,0.4583884113596813,0.11717125778318074,-0.012160594999863494,0.5017545689290042,-0.7437353378283208,0.33454147165736586,0.27436104378136694,0.5352198336925985,-134.19663352703625,44.07469681236108,198.01839734492935,0.07748176199522606,1.2590316141583533,0.07935139769251988,0.3695347701284296,0.24061133912415833,0.10485029018489522,0.7537399658526778,-0.34948416880106875,0.2187338598103156,0.5056640119653879,0.5147532062489253,-166.36492530427677,1.0058817862522822,1.0116273638477336,0.2659040338961742,0.03816402436400554,0.027569926210076798,0.1922739883100423,0.33885685363966983,0.34306137114127544,0.42118002893362466,0.5143858483703423,0.5228475922235901,0.5036675155879462,0.5203828849767941,-151.37484113534856,14.498549305081418,5.0092663970009665,0.015674539365734902,-0.0074723887556015535,0.170990563788609,0.2706762742718357,0.32228569349762837,0.07150346766383889,0.4960550871605851,0.5079520061642977,0.5073753332504576,0.5007395976069566
0.5,-33.637549124372065,62.61895413263095,47.204526134094905,0.09750654345153162,0.6376769659481324,0.056766884273587365,0.38438484517679117,0.0916363190777739,0.007943740958796184,0.5081636042995104,-0.7375339881034766,0.34736528038438325,0.2854515779955785,0.5383131190337801,-134.43429772086367,42.50363774408663,198.19520202310434,0.31774202965581516,1.4795556840776056,0.1527772501043529,0.6969067915636254,-0.004169014783630451,0.4236227317733394,0.7538927466813323,-0.3489175384697074,0.1793245991924813,0.5154755296134322,0.5392380661807527,-166.36458493889717,0.99216072247885,0.6781034309823905,0.3212028032235254,0.033784501579593174,0.011858648503774027,0.13476584324833615,0.2550622486787048,0.38804934417074466,0.4401484654240201,0.5399305048250052,0.5087570347164148,0.5051411397845393,0.5536223356534387,-151.18016534653765,14.567816145361283,5.009292691948643,0.014153036357348827,0.03510629767493209,0.13636541429081037,0.27305177279717613,0.3855814122009001,-0.011709470578507662,0.4720927409754551,0.5261287027422406,0.5095080596353332,0.4884092313186772
0.51,-34.00908680495951,61.92260205394014,47.254037712236936,0.08715593560445624,0.5969619199256393,0.022557288738352454,0.1139590158935361,0.4279696535833903,0.3722162789206962,0.47223698065694614,-0.7322078820769052,0.3382194719674509,0.27347673720004334,0.5632404988912078,-134.68581941652297,40.74599520689446,198.32824635338793,0.19689934158316758,1.6018074045044497,0.1164570795047803,0.4311029674668367,-0.003195429119798196,0.13101201135756804,0.7630795260215897,-0.338542674829654,0.1804096135332708,0.5246706856016595,0.5583780776668023,-166.28849991583647,1.052434031668094,0.3170461265520332,0.3406223259540302,0.04156981758395717,0.03101890607226112,0.000993387305516645,0.09224997304982743,0.7211740038193614,0.45866107460272776,0.53028246385368,0.5060959147419111,0.4996993558254232,0.5344142131294208,-151.11238403656893,14.640401402722043,5.009646468379811,0.02693424662685564,0.062474835858581504,0.11645620175737283,0.1606379152280848,0.44771439616505526,0.10407705227212194,0.47345632540814697,0.5176219772535042,0.5054062548172746,0.49741064689458875
0.52,-34.26012721471146,61.259725466083594,47.61969375284354,0.0883043493295929,0.7332478567221258,0.07610043430967808,0.333532391274728,0.09174846365843425,0.9586773936148499,0.4847778974786748,-0.7491964980835996,0.3361264526287271,0.28521492242928437,0.555657828949282,-134.74583960960769,39.941374033920184,198.3110597887596,0.17123577840370835,1.4078789765943007,0.05077570306408334,0.8225142992488895,0.3548729620950454,0.028065174247746686,0.7579205781434052,-0.3387625865601927,0.1635262669282708,0.5276705882625135,0.5529695186404506,-166.1260908291744,1.0055780871604967,0.0487814349014488,0.3679511480668798,0.044266138488952264,0.22787592896323622,0.1534849028837444,0.2291512266653764,0.5544193206687738,0.44285254920341577,0.542419186993825,0.513739024195112,0.4936555722213,0.5667915651486141,-150.99192212386706,14.690791971435791,5.053090043852044,0.07287370136623092,0.05273415107753584,0.09640650199369963,0.3892834328196644,0.17930386225637202,0.010766457105004783,0.46705952951533086,0.517849483714554,0.5048194619857848,0.4834458308506582
0.53,-34.49628356730724,60.49447798442146,47.967519300826766,0.08499715299660633,0.6398936792423037,0.06958741239027592,0.23887818294517932,0.42464686125388384,0.9279807499973258,0.4719010537987229,-0.7675606897535652,0.3378882929918458,0.2596347447145026,0.5752589540151586,-134.75989989655946,38.36419009625812,198.28676072029697,0.11305889315199683,1.453151111335737,0.03450619933581202,0.7997717513053555,0.27603311115678647,0.05860588987810552,0.7732065370603821,-0.3322810237496214,0.15985373294656777,0.5477802907007485,0.5619379976725878,-165.75363336094873,1.0159885368733386,0.4481120685319217,0.29699247166019627,-0.010600153720817502,0.32096440723448866,0.10352831966453842,0.01608007409534633,0.2789150158810623,0.4302046285213216,0.5287522312064771,0.5059471426483966,0.5043863893304169,0.575010405935109,-150.95639823518755,14.818814847015954,5.198433367567937,0.08701307442760513,0.0767365219794634,0.05564251335761371,0.32676122768605564,0.5396284356110961,0.06457486354066638,0.4764468403597677,0.5136941255455155,0.5137549753222808,0.47201631339041417
0.54,-34.740534219755226,59.73746590160996,48.30603187588233,0.10177843273394906,0.5238698548635394,0.049848602285878674,0.15814312787407167,0.733584319881915,0.8631910650538607,0.4759719811676785,-0.7694852838164028,0.3384366939433155,0.27647800991536176,0.5863425136508915,-134.81305043334143,36.802136642582454,198.26287288548437,0.027459416735630342,1.4735847052151023,0.040700832876810165,0.7790684153673944,0.18384982688374296,0.07454061026031947,0.7585197777717058,-0.30212457494823114,0.14466992898802244,0.5359506539493005,0.5878150851971863,-165.50106167850655,1.0191840679592084,0.6309342198787713,0.11229334601660938,0.03699680680167039,0.2749037520673062,0.3505378766348238,0.47907360531968957,0.8050891053714433,0.43680903574729435,0.563550559807187,0.5311954474275713,0.5240508528291896,0.5706479519809012,-150.8199762746556,15.000009538047669,5.37787849134129,0.13771184853644972,0.10020179296829484,0.0770711040515894,0.1255891878273632,0.23086447082755168,0.27856795407258705,0.5035884175031615,0.5284527696386967,0.5195212956017832,0.4571065813467857
0.55,-35.07459650865968,59.248792686013964,48.36799297102621,0.1430142581788068,0.43155594299156763,0.0002758889172592323,0.713910123929903,0.013335646054620074,0.6843102707382526,0.466829302847861,-0.7772592831402576,0.36211880246203487,0.27359486673488054,0.5798106578236847,-134.86498359585886,35.191310180865486,198.24677332705903,0.07430103822393516,1.369751262628027,0.10377021915794847,0.29385818772570993,0.014646557685677207,1.305147138237338,0.7779344046174002,-0.3052231715445854,0.1396097103984685,0.5377710452306425,0.5752193096282772,-165.11072820110496,1.0690953917963104,0.74707633982922,0.1845750812835131,0.08013584708533893,0.28876043076169566,0.4312362948146106,0.35949189820442257,0.12268303548821026,0.4351603512158403,0.5385424568508257,0.5278294272064226,0.5104066292751889,0.5923886136896113,-150.68834813359578,15.182936996461633,5.562020229396186,0.14165195827102478,0.09643311875066479,0.16805157337495605,0.22801363168464084,0.40011872207590443,0.40001783861673645,0.4796871942793554,0.5353448028183198,0.5007513794299839,0.48343412735708335
0.56,-35.570078802729405,58.81117030058942,48.495359088082935,0.11836609757746382,0.075083002561928,0.17614239711721277,0.8621137230539417,0.9827821175707856,0.029990045888086417,0.45147613072324855,-0.7739099396793685,0.35352653990687716,0.26509198427573455,0.615248614672978,-135.06192465551783,32.447404735144524,198.31933623401702,0.05438111803461258,1.2224910139482932,0.009581549169347597,0.7078969946947989,0.11461511723694673,0.41881426998527577,0.7695609689917142,-0.2876443810856518,0.13160981492085702,0.5473598064734375,0.6147151343230818,-164.02262188957744,0.8711881966584354,1.6963917274521028,0.5016600648498923,0.09787131477999493,0.5438347791583598,0.45075646420542864,1.0831582571094853,0.8010110909354087,0.42823008375637944,0.5392316869756515,0.5318771183652334,0.5066029832134841,0.6187569546168558,-150.1783265571711,15.503258716631365,5.7513649607411175,0.19046000557417275,0.14414010645725878,0.2276894004613774,0.010384230357350279,0.27678298934428,0.36700791313835723,0.4742614533438519,0.514945257566846,0.5160320315735054,0.4771161226827143
0.57,-35.30418936157103,58.762405026102684,49.12058849244684,0.07316459794922622,0.23549029021290585,0.415474012195354,1.3169465586686224,0.23428543137856314,0.022034245474112892,0.46835550368036616,-0.7763245455778742,0.33727842936403124,0.25314624687902565,0.6097866054526623,-134.9955159942459,30.729923547814625,198.25205600748905,0.1124871601036133,1.582993336613841,0.049161644457940516,0.32485285548286597,0.29349313140608124,0.18901043887478608,0.7809081090592302,-0.27352416415499187,0.14031099521509477,0.5428253829659744,0.612107710639239,-163.5538463974537,0.9505072999396434,2.1214956115201375,0.40916781213361947,0.0705024837067359,0.29578236785129464,0.055266190989990076,0.5827069435264272,0.07093140831280419,0.4298699809881119,0.5449456080312658,0.5596245879951413,0.48004583885638197,0.6074943331592897,-149.87186830865014,15.68884773929956,5.956439797188039,0.23841777067840694,0.17988717560262563,0.226536965717161,0.02217643849277233,0.06200239244855657,0.32005254396314065,0.48063509051713,0.5358530035822194,0.5089807842262242,0.46961282306592816
0.58,-35.61982781392094,58.37300531183052,49.49977307213642,0.2991492037500476,0.3826499208493473,0.3302357230316136,1.0365589224676124,0.32441480165769176,0.7898375735434153,0.4617838843333664,-0.7909919768640242,0.3497901271108992,0.2676720405737048,0.6315880012255654,-134.9977774531432,29.056744382330546,198.19281122004617,0.056954125898948264,1.2560363634277056,0.02968039355723169,0.1220860023799492,0.1089399204367997,0.34171906624483994,0.7875195215034778,-0.26335357694380196,0.11861796101748832,0.5416456414292752,0.6409066739314896,-163.35816261501787,1.061664363867811,2.508725508954948,0.27378776196167703,0.1993622555551027,0.18106135931692863,0.23201524202798346,0.06609271010209487,0.20769046534795418,0.4175090952620551,0.5339350616881422,0.5278525201206237,0.469139026768084,0.6309352775164984,-149.61354910156118,15.936199779395132,6.114262681750516,0.18920958126392973,0.1773362931428051,0.19319436509263296,0.052706733285215676,0.1395208683022614,0.2436056419953667,0.46335327329451115,0.5084504579853216,0.505484619922802,0.4692592624732205
0.59,-36.24251070985502,58.22293119117258,49.302012785378615,0.2815671349588585,0.21229169313288543,0.18880708130165128,0.653292347356905,0.6489797795518958,1.0092929681952947,0.4513601335874626,-0.7694379360140706,0.3505836123717584,0.2876251222011705,0.6483460658207991,-135.07736480266394,27.79859635703133,198.1000788968575,0.14935412148973892,1.1813683260123558,0.04872228260912412,0.6623741697065249,0.09234075218338915,0.39341493349884527,0.776769583216144,-0.2470134745991679,0.12272123749555122,0.5637530624124583,0.6422798603119019,-163.13006114285625,1.2568277184723937,2.811451627470908,0.2770663958439769,0.1564375395214682,0.3318342156556625,0.6807799720356917,0.24356019683963406,0.6939936759193114,0.4442374185461293,0.5491390300653676,0.5363409049625757,0.4759200866728426,0.6324856361781137,-149.43667160034659,16.113234618131717,6.315611961444184,0.19193871526358594,0.19510203939815626,0.14966713821915906,0.3759032780970243,0.13746752650235128,0.6030125303243569,0.47228596326769706,0.5376848463077488,0.5236168434671478,0.4397561597503429
0.6,-36.89970900650154,58.04998017464271,49.12119935327081,0.24629329346078518,0.05002660136308039,0.06997876584999146,0.2723707792970066,0.9532300279862997,1.2696883950264237,0.45172153809696125,-0.7653020595453894,0.33471755799328506,0.2768258163559373,0.6390243560331302,-135.12336177745527,26.50004284116782,198.01667045262076,0.22173661170662984,1.1013224078539874,0.07298487694905494,1.243024573900987,0.10504336432780495,0.4394552969907016,0.7828297212013385,-0.2326136990984986,0.12017654295947103,0.5680596112287623,0.6546373632497624,-162.454037404942,1.3162725794934267,3.056549492411051,0.2099811083046987,0.046052446039357126,0.7070573504206609,0.9348293718247013,0.9211549340832901,1.4263332907708968,0.44383814145378336,0.5554297019217882,0.5404104137015309,0.47034829350119445,0.6529673164424363,-149.33283595181993,16.37965945521559,6.506978555762372,0.2062564703844301,0.18125147585216997,0.08610578382984557,0.308594292741955,0.012875107447637892,0.6836659982305433,0.48834818788132367,0.5116834529235204,0.5195019873657947,0.4530297277154356
0.61,-36.68387510481232,58.16596988942815,49.49048375391268,0.03855375286422022,0.10084877487180319,0.258625606208778,2.215779140240871,0.22915572773239828,1.9800830488660912,0.4585375598901221,-0.7576195897846887,0.350940134343298,0.27603552540763554,0.6689256795037196,-135.2599061272146,25.247420461847373,197.76211622177482,0.3146317658613152,1.156228565361897,0.03650054455654518,2.348155653639856,0.4563032478654037,2.4120251411746962,0.801509585030648,-0.21562271010744347,0.11781676903134047,0.5414719063503711,0.6576785781668739,-161.6044688666106,1.372857052844264,3.2381794043777363,0.0767049440818827,0.10232410539348545,0.6844386555760958,0.7501790945635427,1.0197413088365237,2.6848679687791157,0.41948801652288115,0.5396167260001461,0.5466717000008503,0.4556466506484152,0.6497372709739957,-149.24504473994443,16.479306633655764,6.754525144238206,0.23365634252656264,0.13388829034406985,0.017166348576374845,0.4145602183969866,0.09488145412678908,0.9962780363852596,0.491518015051444,0.5102540504394222,0.5299950908203799,0.4495317959319404
0.62,-36.12330217855927,58.14298525978024,50.19972002034265,0.1720045398580827,0.1923317604908409,0.2728176266840408,1.5630868286945905,0.22264652811671382,1.6133497923566602,0.45507200711759654,-0.7772196407205708,0.3386143829468822,0.2735356836161016,0.6581656094112166,-135.36414504229114,24.18206062501598,197.43817914444713,0.27318287604379465,0.8641095599925906,0.05770344363523593,2.54403324566431,0.5786609762795184,1.4765810986452732,0.7909747763943994,-0.21787344210586584,0.09733563445694061,0.5610549899681307,0.6647725582227505,-160.9442482669467,1.269647036975249,3.4382378821867334,0.19417502475175616,0.17167351658176888,0.6625892603529847,0.5244844852874053,1.3365037048325084,1.5454242863445484,0.426821999048356,0.5317662818564758,0.549577124635348,0.4649587411928486,0.6807360833538731,-149.24654638902769,16.631082982934522,6.999692071547163,0.22842853103953736,0.10141763809457266,0.00014141098769282316,0.31284738478340474,0.17559793107713106,1.0621458479207282,0.48370159535468293,0.5220331173575895,0.5196026294365991,0.466312864977762
0.63,-35.89179796082358,57.50315437121359,50.80531183192812,0.036796727111979656,0.7601499151937708,0.1554007210159161,0.5505911823387104,0.14655193725615603,1.5917342148375486,0.46455372044834614,-0.7892996674868331,0.3258846206875865,0.27115364506806033,0.6615060936229576,-135.4388499697894,23.749228506731303,197.32490490597598,0.091060910502048,0.09910085476658789,0.040287106566473385,0.7075937744897668,0.17871989926568818,1.2385145106026587,0.7822285442010921,-0.2269162952739152,0.10603640727183812,0.5758694112957731,0.6808313637191274,-160.25747597759394,1.1763067072172928,3.6112112927591276,0.28648955945394083,0.23426398794735315,0.6176553908598631,0.3089197660442885,1.692401477961722,0.40939052430698125,0.4249299380882279,0.55605594203357,0.5521327239121013,0.47666697201542924,0.6905052028695015,-149.2064560416655,16.753579549332517,7.268718198330513,0.2114533802858156,0.12329681957992573,0.005054470937634094,0.3849123630658038,0.10377544625786382,1.5914747201094273,0.4736290857247061,0.533391051848712,0.520139081414948,0.4492844502329112
0.64,-35.8215704241783,56.44871201131932,51.4398774052225,0.05050520179459402,0.9901772735298697,0.22878810563032917,1.4434533764435533,0.8618311281067074,0.15021207800318534,0.4604673747909503,-0.7812129662228692,0.32904059567628874,0.26301107965563936,0.6920216781772047,-135.36596795843084,23.581623666239874,197.1792263699626,0.10820269644447042,0.21228193678879556,0.07764313792466174,0.4418508387467193,1.0387416101044211,0.8373098201928851,0.7898177750288314,-0.21037649206438533,0.11905772669888229,0.5843359129725197,0.675071350785191,-159.6397146759664,0.8718675038931548,3.8692398952472407,0.19388020147827123,0.1609446713217486,0.2540158882428779,0.6502104121518073,1.8705216072179531,0.9335190801413049,0.42122311149725616,0.5340944587841835,0.5581096625381465,0.462152311115216,0.6988380977910016,-149.0549207136592,16.79182067973775,7.506016605989387,0.26079137903247906,0.0608288967800693,0.14102072707758723,0.6875173611210893,0.2965569254821036,1.8511756996472144,0.47744662590947456,0.5185983911852606,0.5182041365554203,0.4589379762708347
0.65,-35.37403958477742,55.50583405993883,52.2388277269292,0.2074783301493311,0.804602932037458,0.2877747133280056,1.205446722314903,0.6643765663072289,0.607766037989708,0.4449713051946418,-0.7959849447280439,0.3312812962287293,0.24697642225579625,0.6968055656211294,-135.37722879130052,23.012749783596266,197.1380092471247,0.022437691753928245,0.573401052993682,0.027420122311894453,0.632338271343266,0.2916609490457401,-0.005561652050286017,0.7897912535417807,-0.20686617150816053,0.0886555350870538,0.5558636037859848,0.6812352138489546,-159.13090741555513,0.7999840980735916,4.087647206605078,0.11242031505796354,0.07061764705930904,0.02377633304218291,0.720959587983208,0.6545116000419603,0.7152168501351513,0.4102811808812607,0.5691777293908085,0.5649147608629549,0.4684492286900533,0.7143100703197502,-148.85258032971456,16.899851109926797,7.7689500678467205,0.2621746111997884,0.04616070666391753,0.12651635448521767,0.6908691659099847,0.19059774795941423,1.9562763379474792,0.48190870704072913,0.5241327419874854,0.5244805585665535,0.45510094198384654
0.66,-34.80632647637087,54.72684882117506,53.05096736722755,0.1798970009123753,0.7777793119184453,0.24474836148858936,1.4492589139308096,0.11506739071303443,0.8673347864834255,0.45718225515744254,-0.8011633243770587,0.30702706429886145,0.2554389638033913,0.7144843063909331,-135.39256667933503,22.37745751379435,197.311560796385,0.12379319303101836,0.492614061634334,0.014586006370606048,0.4263181845538693,0.09674835304213633,0.3631572004718274,0.7766865527735842,-0.19571378642487466,0.0897600230523677,0.5560602474030957,0.7110697834471247,-159.1082271920229,0.9525955064517053,4.191828166000784,0.13920541457232438,0.19516353105727582,0.20600182625762137,0.2728023914797164,0.705885296597477,0.7894358535831809,0.44361261352921316,0.5323938294681663,0.5670848616561754,0.4720199774320419,0.707437150803399,-148.69847531302267,17.005549609199992,8.00275367343693,0.2733684139116748,0.03367461246857177,0.11478381698235549,0.7163263920537759,0.10270047573031746,2.0708390405098887,0.50376645232746,0.5329089975551287,0.5174776245286299,0.4593913575422004
0.67,-34.23485062930849,52.795435212822035,54.16569129083492,0.13557681009266126,0.8021830318598929,0.2235843289446486,0.40202677442407436,0.4627580890222188,0.5432252293232877,0.43297329954617514,-0.8213482963553743,0.3075358170369506,0.23226009612017692,0.7383343347217175,-135.26455658756393,22.556875745600184,197.1929033395491,-0.002102128268500182,0.225906258655114,0.16491403349786263,0.5117033898197834,0.13677535205766392,0.5844157322330377,0.7810788511574559,-0.21852345767088158,0.10052307144140317,0.5667562789784281,0.7222754034122643,-157.75961580022107,1.1228063872114984,4.723373942171383,0.33453748861778887,0.060449345367959845,1.0786232720358495,0.35798344011516203,0.31880972749150255,0.7953309297656866,0.42921549411328724,0.5403882413973843,0.5705959599416889,0.4383668461331092,0.7312778857098974,-148.4221081047914,17.178835871660063,8.559001417470553,0.31824944781713055,0.09698873439445715,0.08984893841549624,0.8193411162121965,0.2726896726416332,2.6541962031079698,0.49853612913647843,0.5302961041331219,0.5578515503570697,0.42774044669402134
0.68,-33.86228355453292,51.94958572635998,54.82180610894759,0.10497104365228299,0.8464068308425083,0.2401001128827378,1.3987626345771271,0.9271964027892038,0.16621855831083918,0.4375904952294057,-0.8217764698391198,0.30094591479021376,0.2111239154011214,0.7238343934716513,-135.06626531674695,22.629169467997425,197.08571029970352,0.052831331725479554,0.05212987330766791,0.17664092304926388,0.8841780881206039,0.4803358805090684,0.5972412507473518,0.7901894140340088,-0.20363223484599394,0.1117627112865539,0.5821077985584016,0.7524629945869397,-156.55805752748867,1.0485624853608217,5.122121027332128,0.1713103852707083,0.06882902539674,1.1000398115436605,0.9075285799506452,0.035723559635687435,0.4306938577237323,0.42977851555622143,0.5624933647475785,0.5789510391907505,0.44142050168115393,0.7492168193894558,-148.31609027977305,17.234599212792883,8.90160256332219,0.3926608340163599,0.09186832640544743,0.05706934711141648,0.7676561205193911,0.1050156486799644,2.718819125217105,0.485231010856406,0.5133262689715588,0.5404871506115693,0.4463274113426034
0.69,-33.82784473134454,51.05637080616998,55.12446077063841,0.009822458883848873,0.6228355325486025,0.18844019008879173,1.8828283655963725,0.20428613997169595,0.8892394517682485,0.4271628456041945,-0.8226681077443686,0.2987675111757066,0.22809840218173913,0.727022056023335,-134.91757165107566,23.179683566756342,197.25606660680208,0.1619366342724605,0.5148754669387565,0.10556879514026951,1.0262483242330003,0.33190470947669615,1.6090571181524638,0.789998555598133,-0.21651938941685978,0.09122512334471859,0.570111118605863,0.7631032000058081,-155.24992702674393,1.068921455065499,5.296738654527121,0.1144025210081332,0.04005714923511655,1.0081814678904009,0.5894656366087099,0.7768715612830039,2.0684461005659927,0.38976668896277616,0.55437077394005,0.5750214286594221,0.4608763231455607,0.7524718522947584,-148.11415552780818,17.371330464493433,9.256799405450169,0.39093511978759066,0.10055919122173583,0.10630810892412441,0.7317378014182269,0.02695781800612823,2.562259048904866,0.4962704001318846,0.5214026582464044,0.5367434143816215,0.43642704526206055
0.7,-33.74797200670607,50.802767424752425,55.376453805044186,0.022538289805244402,0.4481437785687927,0.19522231905131746,2.252514491681034,0.7422006612426735,0.682712700515183,0.4295183214502695,-0.8266464450769506,0.2996083641807394,0.21179926738644483,0.743870843715856,-134.73896541179812,23.74279888086908,197.41837646745725,0.3044786241250352,0.9762963060333214,0.06370717918775416,1.192959408604117,0.21674187937129935,2.6011690141812074,0.7951361455807088,-0.23027382465518537,0.10519586194823526,0.5697238683785643,0.752785700968169,-154.43643808400955,1.0672066480542213,5.435009545185255,0.2302074338263746,0.09080386964280553,0.46289221700683203,0.3301853443194689,0.52485531077346,2.286600487588136,0.41165291090525713,0.5577833726579172,0.6025193080878178,0.42381084046598894,0.7789760523325097,-147.9167571010948,17.494003603039456,9.695416152481705,0.38603719312279233,0.07179774481199293,0.12266759807123868,0.473251514424116,0.006622850049729364,1.4459817964694404,0.503577670251459,0.5380314636246878,0.5391627901834003,0.42399616859215195
0.71,-33.495616446465405,50.435517028753644,55.743977628030365,0.11123431642015714,0.3607494382737163,0.2170552378843804,2.0924892521167955,0.28689258007129503,0.5142599891339086,0.43086856616330194,-0.8198351775549,0.29303006199470405,0.22390384393149662,0.7770978521155439,-134.5639980787393,24.671982936265408,197.70213579883892,0.3403468707952053,0.8939775958015117,0.15764619312111627,0.8235705563518075,0.07472181755354618,2.2924371160633736,0.783830425134323,-0.24734208739978092,0.11822336480675608,0.5705974841348737,0.7679947671724366,-153.97678080740815,1.1122402385431456,5.713078898866251,0.22986742714663916,0.114920437369564,0.3487699767160366,0.897443270203341,0.43721522040954075,1.4879618103211718,0.4029432243120027,0.55876064055224,0.5892983629306875,0.43927765600646845,0.7663118038599436,-147.69680815446392,17.611385014978772,9.995573958067475,0.28951771772118273,0.19253452516734992,0.1618736363827526,0.6891472278357169,0.41317019614107203,1.1249927961823762,0.514409829293385,0.5280796350536283,0.515722413760358,0.4289594101123708
0.72,-32.370769664231936,50.120067468788285,56.562912317188754,0.3193123141545522,0.2519082061028408,0.2907204129437162,1.8588384130472524,0.4513216324730542,0.6225113375673911,0.43311612362933377,-0.8338452085786695,0.30011536214942,0.20223981271831704,0.7856493254907877,-134.2600783398976,25.324279243239328,198.08897439405754,0.4646491320582506,0.37835561517933014,0.19014367640974777,0.9375595756521466,0.2200441219569255,1.10702520815554,0.8033338729866718,-0.24155509136406328,0.10863650821184068,0.5531445183648986,0.7949241073428955,-153.67443082078907,1.104920594110701,5.869484590898614,0.05869506897609025,0.05320122449812044,0.16394458779693627,0.41636540463480265,0.6286312206583339,1.10497811514193,0.39332469591112423,0.5409112780731807,0.5833642378467903,0.4323324810156405,0.7585147129935275,-147.49547247343637,17.81209614579755,10.339807336099275,0.27618430404483296,0.16409406032603502,0.04664420544818191,1.0886612479594147,0.7112722049612176,1.7468556961777288,0.5058573089813698,0.5015491339559591,0.54233444575138,0.4389919706336924
0.73,-31.373932573013093,50.09215004731822,57.2949214472556,0.19543353317083756,0.02658758408332086,0.29833687469219927,1.5016640165128121,0.6332789988549458,0.3089488897289571,0.4393346541233959,-0.8430962353758501,0.27783896078412385,0.19741225053709452,0.7864986575300337,-134.045356702776,25.939468261131726,198.18933182044606,0.40963870448950795,0.6409916451816119,0.06558480340647596,1.6052532206934131,0.14658523714599064,0.47535903968233095,0.7919233439621409,-0.2344082216864852,0.10904157411955759,0.5565342096525216,0.7990348735934286,-153.65693606786672,1.1841359724161113,5.747107429212037,0.10998238608387609,0.04060118256627006,0.09117410478188223,0.7054602817893354,0.8594126959554306,1.7595039737395497,0.40306823609385156,0.5635084698326558,0.5823338365785957,0.4287014070749988,0.7863315914086124,-147.64038857556432,17.95128419766737,10.633635576317795,0.33387410742111384,0.08955434476455983,0.26412251814251997,0.7828603492740716,0.002320101874464453,1.805977441053394,0.5006085678029897,0.5055650613422339,0.5469572961191702,0.4134694715431319
0.74,-30.87449172118305,50.259847697821584,57.66782474288617,0.1189313854687213,0.12347720925447588,0.21112761064081695,1.962376937889518,0.30325667315063953,1.2306998779338663,0.44507947125670766,-0.8257176427041628,0.25500607962963584,0.18619189631105681,0.8260487584469748,-133.87172291558804,27.2021546603878,197.57459725147606,0.6461376722179947,1.4370783495514199,0.009339849612034943,1.4763427250606531,0.05248750982285398,1.1250207859485926,0.7841663153884559,-0.24924307491375833,0.10843265485545191,0.5505158774578249,0.7996294433473607,-153.61320545623113,1.2376844774950064,5.6318320895648215,0.1701958680606504,0.013713625450349824,0.005477106025483587,1.0103199702024395,1.044135830937347,2.404261778293004,0.3898330745900629,0.5497679687253938,0.5811009440899783,0.42961951564923895,0.8057623794184725,-147.8128102568049,18.000582348245057,11.132126103107662,0.3560636965212935,0.08233286445771536,0.23455239827869187,0.5093919365376657,0.2579958913639079,1.1984975603460706,0.4944014136679684,0.5234413668127647,0.5435296611346291,0.4150140053681027
0.75,-30.598248016867384,50.309625462828,57.859812253193155,0.19687795294168353,0.14254367768430143,0.18105293490970112,2.3214940045258277,0.005256245553664156,0.7193503016296668,0.43068205732419795,-0.8389573373504134,0.2598244832661438,0.18595810041153252,0.8056663677363853,-133.87155617351897,28.119759152577522,197.0055364397269,0.467108652655843,0.8325150682909263,0.07352187847135253,1.2844774229228555,0.21593723564169973,1.9985764074894283,0.7776579743414963,-0.2720222728101674,0.11171434513065347,0.5561523750485329,0.8075376396125177,-153.29916354750588,1.0615811925393974,5.4466631982923825,0.17001836934466547,0.20896203567363397,0.36808379400139035,0.42418111021168675,0.09918996957184971,2.4140615671107324,0.4002563736024812,0.5398035330709309,0.5872123785529852,0.4386537482669078,0.8103436247797918,-147.95988862388083,18.00911152763438,11.56063660195047,0.35964081833144773,0.07562207260279197,0.037105530482376185,0.3649335566686926,0.3175802175769161,0.3447312969830112,0.5032556956648483,0.49609399248198655,0.5497184903688274,0.4111084364302823
0.76,-29.85790683349839,50.17813319027965,58.37577657783371,0.29255704683464384,0.2749255040509375,0.16795737997747595,1.672175562806958,0.11055350112300073,0.43699136505454317,0.43802580636769023,-0.8420441869706787,0.2772620305908294,0.1868854392629409,0.8207873901587379,-133.85493989424185,29.010067437177838,196.5045418255167,0.45037111203424385,0.9058071998933689,0.08681292489734559,1.1531956737447226,0.2674000299232098,1.4449002721199697,0.7991850411595167,-0.251747182123088,0.12072545769888839,0.5631642837376934,0.837577542255408,-152.76014055698178,0.61972147783205,5.245842540875985,0.16392072667295582,0.32533461785097695,0.4962947873001641,0.11538278502847961,0.6330345733072344,2.30799201009696,0.39158895966481305,0.5584243808595949,0.5790730850917282,0.4219003648417333,0.7984930187130985,-147.75111699842753,18.121851229412975,11.92853181020873,0.30827368518062664,0.08554127781770908,0.261735239344136,0.4618459585828314,0.019803257054995447,0.44472896227384917,0.5109801809886925,0.5079969820081582,0.5584615278394496,0.45013335665930554
0.77,-28.996431427213967,50.50312887209875,58.91529804785911,0.2931104830324641,0.3106310737557511,0.09359282750662196,1.588582425484831,0.33171446461696485,0.19441352113821975,0.4539068905508166,-0.8536294249743008,0.2615651225129993,0.1815707982507136,0.8352069114342715,-133.86690128290456,29.683904470322222,196.00094282012154,0.32173237304985874,0.46264371256236514,0.08724965267927492,1.154410661498138,0.44691487519021383,0.35507723992921614,0.7604685075666973,-0.25611942703950813,0.1308988693263728,0.5692319141079915,0.841788349395512,-152.26430420331667,0.31325148071429104,5.057391847662567,0.18623328008970297,0.2515445883984527,0.10548182979906016,0.2720443542331492,1.0757181501917588,1.7512560347035087,0.3834177060898958,0.5411916021516592,0.5930545263465699,0.438915989995045,0.8275728778135689,-147.31299865873748,18.29294173224375,12.19848433218611,0.29000932161781107,0.086767229599129,0.3355777937164987,0.5897807781708608,0.02343128376238072,0.7346784654016834,0.49502688135280243,0.5109073133011912,0.574935346302476,0.4198762626081671
0.78,-27.871944263813713,51.39088078971285,59.50407249289966,0.16290886983964498,0.3968862289680428,0.021635412752655264,1.3245693455584153,0.09971546703977935,0.26613165307295344,0.45404089908060913,-0.8373495321338185,0.24855545457174785,0.16176332574488056,0.8599387126281102,-133.8520443242014,30.976603610710043,195.12333390217725,0.3249732255469344,0.5656415229730315,0.06252894438683868,0.8004336773204505,0.2646983635984787,0.5775733248082476,0.7643654886933555,-0.2750229239904091,0.1210440041019301,0.5736473787797656,0.8483872698978971,-152.86986926395574,0.06569026622768909,4.511567074253431,0.2785716649725387,0.09241676792530892,0.41185613427426543,0.25150774624089317,0.6845924214137586,0.9799558010478522,0.37839229961312126,0.5470575888859963,0.5877795188732101,0.44177015076659193,0.8303044542925275,-146.42253748732935,18.5651566952788,12.743868703020572,0.3941110609652439,0.052551577136522074,0.2905756524277703,0.5378270806689469,0.22962664178634368,0.05774525810166285,0.4960626901762417,0.5163876213312706,0.5496330842299573,0.41108873064639045
0.79,-27.364990985802457,51.81471629067343,59.75124002482959,0.233051426458001,0.4161599259135855,0.025993422311083942,0.7843673162385995,0.14624611821879158,0.7156112483314464,0.45178706171359945,-0.8495140102044424,0.2611777498837238,0.1618307684194552,0.8524484790794526,-133.80439351796142,31.56342109943824,194.65912256042512,0.374004260864767,0.5708287167963206,0.07905103993292253,0.5898846410866264,0.12565736530910399,0.42020167478628145,0.7506454069219828,-0.2975099211737251,0.13022721842300855,0.5602661869279636,0.858322095433292,-153.1170008418145,0.07012900089234962,4.207218503184577,0.28935730738793114,0.22632508609645166,0.0958262832863867,0.8346737023908402,0.7823373428133992,0.8327036981464949,0.37245502036351313,0.5631209208882612,0.5784723795227689,0.4238130434979101,0.8530730508865126,-146.1341796786714,18.674802463747362,13.172491497576914,0.42279271432710197,0.06426308301758411,0.2491710617705547,0.5183162915519046,0.09944835163241171,0.019217106186735042,0.4980887932876917,0.4935053033922555,0.566099062252764,0.4046684870036447
0.8,-26.824111628144433,52.282232778175505,60.00227297437774,0.25609497605028936,0.24352200788031042,0.036816890689967144,0.1441218898178974,0.2589342570839532,1.4080661145855358,0.46432352638244057,-0.8399938904229333,0.2405639520251036,0.13317624387779148,0.8568025091371059,-133.8052866156039,31.70634644974052,194.3099954301386,0.22929632276067427,0.09961061670948698,0.06603905743102806,1.112505920980189,0.05896580055132075,0.4623742454043994,0.7719232133479454,-0.28140818409594837,0.13218130075933335,0.574093503192219,0.8782966534544477,-152.856435805789,0.5474598529967765,3.8723744045133985,0.3203243810528911,0.3789513791065376,0.08576907252372057,0.4266502769466945,0.9795571549137395,0.6954399562335535,0.36744387138408724,0.5628873992236497,0.60964584889764,0.4317755527697206,0.8639373166240625,-145.80156627537292,18.81509014657149,13.561203903465254,0.42054551703587484,0.08455478676976368,0.17148998226603113,0.43907224267248113,0.01241576051941223,-0.0019199685170696308,0.5105418763925595,0.5311608106115007,0.5517484644539055,0.40266614419406266
0.81,-26.242868593333807,52.425703023493405,60.26918007141112,0.31416674082859025,0.11987226632148688,0.05173232696780296,0.38394812917792576,0.5821052566879957,0.6570167542108707,0.4644556126165904,-0.8402408451278097,0.24005387748859264,0.140910967820977,0.8853127716018034,-133.79336948243466,31.92951356867123,194.11220832126358,0.23893408560948973,0.10490696968591584,0.04851716592685041,0.633888538517364,0.15119255874860787,0.4416973807457847,0.7517180289707068,-0.26636865911226565,0.12998810044243755,0.5626984007854126,0.882019454400861,-152.57026464173873,1.0598024830702237,3.559215289684826,0.32103461215180357,0.5043095388847691,0.1207680377902979,0.06553346013946995,1.1514933229913786,0.5590422300570522,0.36528912332875113,0.5723116780763289,0.5848448600042947,0.42396208028918503,0.8824153765526466,-145.55265580576008,18.95696069947241,13.924475696367978,0.39741825015369864,0.04561100139072508,0.21131555878408798,0.339047084119493,0.23903903286903103,0.2434979768045346,0.49744685774569636,0.5097679686382113,0.5581562475741699,0.3999832925929497
0.82,-25.749070451186533,52.51336705003345,60.104222811462265,0.1425412749092103,0.016271369462640576,0.036172500323215374,0.9705961369272229,0.12116848831064495,0.5227111235616251,0.4609986764134381,-0.8161272846951287,0.25576350196699177,0.13791355990895646,0.9022346901772648,-133.80747213991282,32.128488540660825,193.875565687182,0.2768328054194185,0.13051061895464644,0.042010723008459996,0.17733882102788373,0.26820616883474246,0.40455754459660614,0.7541029707208721,-0.27206415245481813,0.15067764251077273,0.5606925036891093,0.8951626005020656,-152.85995828098459,1.476960684470635,3.1243385917224566,0.4081171291501108,0.39801792865113683,0.4092107351543738,0.5549276845129858,1.3696627365442104,1.13701468644473,0.39083494274359826,0.5708250736124799,0.585352472350911,0.4384890509671667,0.8821080103360807,-145.25486108894378,19.01886773812555,14.317101423064667,0.35336794423995893,0.021555223991548647,0.17721301913089058,0.500209388951666,0.41410000079960896,0.08917920719423628,0.5216668551489175,0.5084867069981184,0.5764406018190084,0.39162030080590365
0.83,-25.434863989625637,52.49131505949622,59.996808121283514,0.2099263949353396,0.033149306279801005,0.04693666978559109,0.6444556972215386,0.3482998335184224,0.42194932873708324,0.45188503922445505,-0.8382363658766221,0.23269774660183046,0.14629982659313653,0.8928838967331555,-133.81151917602094,32.201975129937296,193.67752893341404,0.22058483609836999,0.19953597533514797,0.09961513735577716,0.12640250265624006,0.30409216997345123,0.631856979971017,0.7571462226956882,-0.27407136047219155,0.13662774910602296,0.5930441451004681,0.9093454903113578,-153.84172757697868,1.5505577326396307,2.610426193731475,0.4312134863935677,0.21522801900540223,0.6038573490739377,0.42596500647889274,1.1764629990635056,0.8545367829611544,0.3869196853035573,0.5829055008333862,0.566665255418472,0.4347202913317939,0.8752920804650977,-145.0041759353422,19.061273902625388,14.626205403941347,0.3180048479145954,0.00945754039892174,0.09236503723808163,0.2636884712266421,0.12711229271644683,0.10291611502958528,0.4962084309121,0.48392459617595834,0.5798622969447453,0.3973024278362606
0.84,-25.108590552803733,52.61967244613279,59.85648234976288,0.06245447786394404,0.1324103048969513,0.027540452630870953,0.22820196267931603,0.23046825545397662,0.34843194445727466,0.4567895363831097,-0.8324194834215357,0.227206886857371,0.12871758019975219,0.8958462378952985,-133.8698690915978,32.06032243348139,193.31601439996334,0.2035167846062777,0.11839621318439864,0.1594217272624631,0.19250454803075995,0.034435845407380435,0.6999918413471005,0.758074177759056,-0.2815991915388224,0.14264437485159934,0.572977305321429,0.9075719542621971,-154.81141556717887,1.6432041956077885,2.1258755379664254,0.43018825443839503,0.031388010455759445,0.8286162871248703,0.33392393829829026,0.9647803953282222,0.562126622566814,0.390432930520231,0.564900546868552,0.5521030487027877,0.45460026519336794,0.9206702269245423,-144.93637289315595,19.07814320404506,14.9858099438517,0.34084800842944324,0.011968271739213797,0.0032370885732071718,0.16279401873578983,0.17252136235908966,0.34339999366331064,0.5071221495450344,0.5069025700106228,0.5691377205125162,0.39283758807811087
0.85,-24.937222284220468,52.81487528297449,59.746124390810344,-0.002229707571668505,0.13976740864382903,0.006079932701278685,0.3123328933515635,0.05620949035645445,0.1913439037127526,0.47637321460949816,-0.8351735340602514,0.23273365267532842,0.13943038413044426,0.9126483162148439,-133.9468682939343,31.928200288023827,193.00875292673018,0.2249130576674392,0.01818117661514959,0.10592035959288966,0.22379700083932125,0.18113752340684824,0.7346937244098845,0.7445792432335697,-0.2823389097506529,0.14342859051444518,0.5662724754680405,0.922921719360587,-155.57025237561334,1.6440387535530843,1.6997544473236748,0.37415072745670697,0.07188749749936983,0.5482031270419516,0.3529278453432391,0.8761280630725736,0.9331546608984311,0.38495809281520843,0.5630462313941533,0.561964598952718,0.44538545216733066,0.9185488777628249,-144.92521233053395,19.066980780223066,15.4469599423665,0.3882987498576964,0.00960810952692842,0.07933954651913415,0.17524350861864033,0.05787247314442327,0.35382272772360623,0.513674945460699,0.4995003974024399,0.5776682615412558,0.38196973064092726
0.86,-25.06269838808166,52.944273307419415,59.81443980449433,0.03236361086498554,0.12199160838158431,0.010654054838765102,0.46392845746249445,0.18602643879548172,0.31516276448845937,0.4783702373968996,-0.8216412532385419,0.26039561250749665,0.14494541241384998,0.9269784619102284,-133.9880799039852,31.98412394909111,192.61992212792882,0.13859297862819253,0.07452792812547931,0.08561617876764605,0.04465611141154637,0.2600978537328781,0.33043510479151805,0.7444458632657378,-0.2688613498545385,0.15093282785550394,0.5860286787582648,0.9279379186529136,-155.48408592021133,1.802146793273715,1.3600326910862772,0.28410506027526894,0.20692846572538093,0.053202115956465394,0.22286432502505507,0.6069642287082495,0.11475945671240013,0.3700945479571623,0.5790449465028111,0.559342377914974,0.4327870346686767,0.931631072071505,-144.89179471992495,18.97997149197423,15.895635881150119,0.3881388985807592,0.01693150473825935,-0.0034035281841109117,0.18238517314734973,0.027756713102258246,0.273756362435237,0.5198798604672691,0.4842231877139441,0.5741857185542464,0.37406888345642325
0.87,-25.371689950184095,53.043273076087225,60.00203479242669,0.16198714094977693,0.11344589970331219,0.0636353182009018,0.5921561084135148,0.17027791959520433,0.6540672201396626,0.47562092665147726,-0.8108592606035055,0.23794206789570535,0.13873988048737107,0.925585020400056,-134.05279998836116,31.98407930404674,192.43641563182558,0.07749602063960812,0.03671510145610877,0.09404072242351015,0.21082515928226458,0.23853625269981552,0.25478612775415616,0.7341696490157281,-0.26331935150927455,0.15267681526306953,0.5767333903222572,0.9562630045297877,-155.07001085303781,1.9955295649044034,1.0455223341167443,0.25524456692767444,0.07820394407227631,0.583166097013154,0.2406998647653076,0.012601711840254076,0.47421255421184316,0.39283309218757917,0.574530702704097,0.5571358725569938,0.4569452667818491,0.9337586885193958,-144.69775973493174,18.996391819762707,16.261170849074723,0.34233050249267727,0.07240503782493884,0.1405272692757239,0.042884615639139714,0.0158921406577915,0.06656485111229551,0.5256961127208218,0.4972202639498614,0.583370089538669,0.3683511005533318
0.88,-25.694327480297037,53.24883232220055,60.1923535841574,0.14284345987893515,0.15096066969087435,0.017477093891461543,0.5332246782110555,0.0790279156562096,0.4768771263779615,0.4697761103244177,-0.8452759432954817,0.2252679193927269,0.1388868572837288,0.9555855804757598,-134.10578159420567,32.24815145241452,192.19623227403656,0.09765153139098917,0.24432270671962347,0.10223212739058096,0.20391015137867885,0.1007956608990956,0.11655619096087001,0.7494848316210133,-0.26593141260087566,0.15286198101582368,0.5615513372825273,0.9579798046470984,-154.1991049524941,2.0461172813766892,0.766037948064337,0.22749895897690775,0.0476347319931729,0.6209839365288956,0.21114476211833644,0.3370314845981822,-0.014678278592456866,0.36527495347825606,0.569846730797972,0.5676614085482673,0.4400577358038153,0.938517173637187,-144.361626623529,18.931953542275437,16.422970556527034,0.25450912805298903,0.11226166035900204,0.2447420891670129,0.08281541190374861,0.2075580711086435,-0.01321636424805719,0.49779866797490674,0.505086557174222,0.6083743002521969,0.36775819705895857
0.89,-26.25633524109979,53.74401119463912,60.11835794112049,0.12094190600573675,0.2352948809628898,0.0008901225375834657,0.12874128875441065,0.07902303069745395,0.6120814095699971,0.4548780102485372,-0.8372125039378139,0.2525219113201505,0.14850950572485758,0.9720466392432965,-134.2899160209982,32.93944371500685,191.8811620285233,0.02207060993843277,0.2834980987391094,0.06369485505358013,0.16824283408696236,0.22871340139511123,0.7611904215422176,0.7541843224302051,-0.2758243773068825,0.16011016744532414,0.5748519272886363,0.9718681184120216,-153.42068385003952,2.1275213964132758,0.2983328666475677,0.19739643781261657,-0.009992716646995423,0.031153583521557622,0.8378240379178349,1.1114403332250664,0.6118353485571097,0.388045497085893,0.5837857528602383,0.5561781927293764,0.4483736174471735,0.9593443433842229,-143.6815734349633,18.876008190097476,16.689235299410043,0.21143197376692566,0.12966852641592205,0.17227943698527584,-0.009730514464115513,0.5837721501585524,0.307889801026735,0.48510398182739856,0.490785226287627,0.6042108348005838,0.39002263071656945
0.9,-26.556220309789325,53.9584978283955,59.997552305532,0.1600584488878918,0.2003473173291084,0.020915639940380863,0.21268151050535705,0.1968054365744504,0.6553346775794998,0.46943313926606234,-0.8267688327912787,0.245018871344729,0.1643169790214379,0.9795021310407825,-134.30541486816455,33.379387623765545,191.82461935131252,0.005417626386052925,0.30330251292886423,0.032748068504245234,0.14153593215913982,-0.006055781683608006,0.5189077237003493,0.7298964024725846,-0.28347425457764025,0.15054448672807116,0.5785719071276773,0.9836244423358167,-153.70013245170065,1.952516207143176,0.16985025580524982,0.18566683087861333,0.080541707832848,0.12490913893150035,0.6448801896438396,0.5838571798454443,0.33123672777236873,0.39500006096423224,0.591518536165988,0.5674320296198612,0.4481094744501069,0.9852793253645666,-143.56900124003357,18.74401171801027,16.87829564444829,0.1899941716455447,0.14769299586846202,0.03195628968177926,0.1376490110654837,0.410375018013822,-0.007379936981755065,0.5210148706746833,0.49036549128356716,0.6058369869641133,0.37362524487982474
0.91,-26.886001431151293,54.12352814831885,59.84906525372089,0.15778870882497353,0.18461800693164193,0.020080066753959736,0.23747047145850175,0.11588422354266864,0.5178562549176565,0.47421426515058196,-0.8312952408422634,0.24087972668693372,0.1488066761366048,0.9941911614610777,-134.3704625268178,33.75035524618575,191.63056378685897,0.0441034773450739,0.23638282720716272,0.047981578571610256,0.16122979438059268,0.10432900779075129,0.34874049751021396,0.7573842907737914,-0.2937768962602388,0.15295715220668687,0.5980798163015232,0.992928887943235,-153.93345856467894,1.7887278031104241,0.0721784684473592,0.1727875089771338,0.17895753492745842,0.1996698619939526,0.44993534068305113,0.0195344029421431,0.09402415988483477,0.37794642989111316,0.5953405686315816,0.5421797608718284,0.4492576642287147,1.010545902579621,-143.5751913983865,18.599729170496843,16.93246063187044,0.11080614711576499,0.11062882621586707,0.05614271527571253,0.11498554263031278,0.26786191502979445,0.49113088321326653,0.5164910233796517,0.48416927189636777,0.5846998074900238,0.35590400572801245
0.92,-27.185581016419327,54.32123185690913,59.687606955702336,0.16378489121841053,0.14901016856245858,0.022512921676903747,0.2654831188997631,0.03536336706887312,0.38821553496473066,0.4772659021786063,-0.8223318729006034,0.23946714086209628,0.16187934066081855,1.0052775234447475,-134.44544104197365,34.139834184880506,191.4343630589517,0.07140296205432699,0.20928035905993717,0.04410045445378638,0.15351140794851686,0.1987739939343704,0.1966144912000362,0.7321534562737863,-0.2883945700602958,0.1452994846608865,0.572231077937947,0.9982390585807004,-153.93817031310067,1.7077838782793229,0.1702284796303037,0.14130392050780194,0.08963398833484079,0.08214509848704177,0.5294612019818274,0.16409792105736407,0.20941509490140092,0.3807812523291942,0.5749934078787188,0.5634611666538499,0.4406604192111296,1.0119412509148296,-143.5458107145458,18.434832871516505,17.01431340828469,0.002932726849495561,0.07657764726596665,0.06012842499679218,0.11559807105263675,0.11169668877138224,0.9926223649059734,0.5146472983975017,0.5153259895845087,0.5939715929167935,0.3781341714008069
0.93,-27.305039855256286,54.61827585893493,59.615996328994036,0.08122839292579019,0.15238255587337265,0.03833253324709599,0.19717665158860892,0.04015259311207563,0.6544904367973,0.4914174528379905,-0.8150680220378482,0.2342462904430876,0.15325560978357428,1.00840752052548,-134.44621681966035,34.39137390482117,191.13054210617767,0.37451530571032604,0.2964100935998703,0.0279744183015669,0.2875329352295266,0.018821045047180792,0.06114964703824779,0.72448562675065,-0.27458006336873436,0.17688432527406295,0.5838949699460664,1.0043309010139034,-153.622207386912,1.6100611435568386,0.24004628117291602,-0.0030966626245900425,0.04742773986134509,0.3009718483265106,0.3206839470641037,1.1038963270828586,0.1251218215595917,0.35746806585826274,0.5862146780500567,0.5602757661582008,0.4469253970432526,1.025826472908886,-143.62765614860191,18.364802086010737,16.99541289838374,0.06856373305045492,0.06133663045648774,0.22240665411765304,0.37864288157919723,0.057295569346327326,0.26104508307166163,0.5134744396747397,0.49944207112580236,0.6028484845796669,0.3710105046478829
0.94,-27.508085650971523,54.80906675103005,59.562929718703785,0.13333739267086703,0.06731024777988576,0.03415021888307124,0.7448433757936717,0.07033765711882756,-0.0023717262809349153,0.4872303847347116,-0.8102925221898896,0.23808731330002036,0.14862769250069624,1.01161801496962,-134.50523654258993,34.69426504935673,191.07004053865552,0.007966091648421155,0.27226377959981257,0.027532120078088772,0.23092807775361554,0.04258662228114955,-0.007174131906751188,0.744342943659295,-0.2997248675956449,0.17166217640285714,0.5898717263835584,1.0262725206241137,-153.19521088719216,1.6221158883710824,0.1859198119495039,0.14480850292158146,0.033986608147168154,0.441213738492494,0.01045342186499836,1.039348777998688,0.10622293080673587,0.36579248417144933,0.5762561542946236,0.5631131254475422,0.44683038300613076,0.9910161257025566,-143.9018969356824,18.241003842447487,17.305000669895474,0.22242402665136687,0.08150162541782743,0.24543991737841445,0.2707341879919485,0.04692321372061348,0.13897781930550215,0.5045988044671088,0.49320570019627397,0.5856742800090416,0.36797774809362754
0.95,-27.563033945379825,54.958295606239865,59.567870071968656,0.03399073287389445,0.10514104822498423,0.01162510459582705,0.8218333896278621,0.06193713938042678,0.22254831029947286,0.4927310485516545,-0.8270754790823792,0.25879019692348143,0.14882619490674734,1.0275045049812284,-134.49772612087128,34.90694996053728,190.88364152632613,0.07182607590747622,0.15740785057605253,0.026145812158072813,0.08104467796334547,0.15133846287821356,1.0399857545264126,0.733584636205889,-0.3033048983285207,0.17125679354912052,0.5911885217764442,1.0228924710694767,-152.55657931074617,1.6877628910114035,0.1650332521270713,0.10739037394586096,0.13226516966228108,0.4875955983788392,1.0208562887431916,1.785064270546903,0.3466943761715021,0.3659686661751436,0.6083928218853609,0.5680194111205229,0.415347606701896,1.0512985240115917,-144.18135886830203,18.1217694709927,17.612126580212802,0.3652283682669036,0.11198351869525042,0.29085780319646803,0.15665991188181613,0.05273601352855925,0.014518321637334027,0.5100408821489796,0.49281502804702193,0.6058855862766512,0.3555975204612607
0.96,-27.559801259577995,55.06587060069555,59.493000036298,0.024389103589409187,0.1393591436147644,0.01716976746037567,0.6668925083662768,-0.004790652750199194,0.00890336392702417,0.4723554942084525,-0.8378029665516894,0.26194690436848134,0.16522059326214514,1.029309334919984,-134.4460771816911,34.94187119398681,190.55607443700345,0.2745013685796884,0.08021225859484521,0.03936868277443521,0.4966498272083635,0.5077998438019622,1.3789438055695002,0.7496937844768814,-0.2833731637347989,0.1717301292576329,0.5895266318110762,1.0392486531540919,-152.17913831366832,1.8651046026023015,0.13099565725032064,0.13970946836064768,0.15446719964273833,0.3401318907604859,0.6457356979378652,1.4688999342417817,0.35919190758441216,0.3936262529965324,0.595041534704937,0.5713029688276434,0.41879119411962584,1.0358148378111127,-144.4393813689117,17.876718025477192,18.122547638732016,0.3972983884805852,0.16832759010261436,0.13570907359044218,0.010427808874997883,0.9470723809485965,1.3024674950135962,0.5063503729602017,0.4990568252288249,0.6159380011396332,0.3641592136210198
0.97,-27.563578449600584,55.18705971638139,59.48094160668921,0.026471234332174215,0.09164322257563315,0.002249729498779083,0.823640320853843,0.08428757681944994,0.09180351125553252,0.48829470822148074,-0.8279780593910973,0.24928869924524458,0.17849706109648114,1.0412049426295495,-134.4365913363219,34.994966463786945,190.58131124279745,0.10255311025489973,0.05175067432041424,0.04199249006916631,0.5736300783903207,0.5810816500198394,0.8296118024590334,0.7335874216368785,-0.27589436569097414,0.17190058981410788,0.5862065012544154,1.063336921748863,-151.80848211996147,2.006628675198838,0.35311613419836074,0.2224128946362361,0.05911636854684761,0.2561433452023814,0.5957424969738235,0.9453416741128635,0.37962598587457125,0.376213843812087,0.5967696982766826,0.5659878952632145,0.44183119705298746,1.0484552945620267,-144.37410273952213,17.76138880335042,18.562497373688768,0.36714933259133486,0.06296468420489923,0.2898115151196888,0.139736023448771,0.46265165665548263,2.0970701370594345,0.5138782658898526,0.48020313182283936,0.5947424822982121,0.3752683548153346
0.98,-27.363148085028282,55.39424372486642,59.70563077674448,0.09665366418985363,0.13124613330567966,0.03388025028886797,0.9830957254336535,0.11994703021053191,0.26988441242186734,0.49922192883341343,-0.8314130753778788,0.23392479114237227,0.17121465066194677,1.0390774533788272,-134.44272420508662,35.07003865068293,190.3433576678781,0.14726566622689266,0.13803322896758882,0.04799094751537262,0.4367395367533893,0.5257919678897572,0.5090469676618901,0.7524797205157395,-0.3075690581237875,0.18200291259730653,0.5930873761051255,1.032523619265581,-151.63414847455093,2.0985541727324044,0.6365734538136564,0.22775213254265184,0.1698408958169276,0.16343262150351487,0.4155979158641326,0.2179334319988305,0.806407380301501,0.39058655763846234,0.6067482819831722,0.5737215154084617,0.42089304704032776,1.0539001253153961,-143.94879619888636,17.811396288113794,18.81507418976835,0.3338453292524858,0.005149868978888257,0.3470725370083048,0.29992200301852445,0.5307275066490518,1.2203950503381384,0.5080715511220442,0.4917959132799413,0.6172918039588794,0.38459917351656986
0.99,-27.315689112166503,55.54583373524681,59.745097918513956,0.05506023026132329,0.09038250551579874,0.03571767161486034,0.8048081569057096,0.09440365200645846,0.2052616553043416,0.474594083080658,-0.8211827280179427,0.23165800259331062,0.14480283501837693,1.0731263361277665,-134.45312128372828,35.13036830680128,190.14178913701312,0.19333475271000328,0.24171817816227406,0.05472928524075116,0.30100224185060964,0.5069142738070314,0.19969596566562856,0.7173666679650489,-0.28489801012272037,0.16985259872135844,0.5954738261660973,1.053349214737037,-151.30146074860883,2.3858552211394954,0.8122541129982068,0.10865789363535022,0.21928038143538334,0.34492947042460737,0.7648895992637544,0.34246480379176114,0.3360647423329559,0.3738050357737482,0.6099829743854832,0.5662863156493153,0.41708857436275204,1.0634716672865339,-143.50875284566862,17.94688578973051,19.125069017814678,0.43456374663086406,0.01359619234870431,0.05585139318134311,0.20985385853675953,1.219576607679273,0.6815928666189942,0.5143210735251529,0.49037874387440394,0.6171759442513157,0.3760892687477049
1.0,-27.06627323828244,55.75774636338043,59.9440559525848,0.06092639330718302,0.03376408397896732,0.09294717059108838,0.795229941576997,0.04532482507287331,0.15392934764796246,0.4609825162760555,-0.8139267178636987,0.2339533133264508,0.14351144226735676,1.1059280005379704,-134.3132952107921,34.745423816353316,189.66377952975796,0.20827316301375537,0.1062983900415075,0.02555074445057598,0.23253931463630015,0.12395731787885336,0.36900008588169014,0.7337851626083649,-0.2942686079235324,0.16668934857683387,0.6076615815995304,1.0928025957009668,-150.88409824518445,2.758832779921558,0.9944873658906636,0.03953507739439536,0.3836278914200054,0.014695239321511152,2.097469912181654,2.3287654826701742,0.9534258351370495,0.362781937006446,0.6031757135031189,0.5711574082082477,0.40567792544568637,1.092380452059892,-143.98304841481055,17.625267761534758,20.508287621279738,0.6050926272848764,0.02505530131237478,0.5897978096552734,0.10994302488729334,0.19492305252985045,0.1354400162853413,0.5172203691129367,0.48011950739465337,0.611832478224618,0.37267992104107883
1.01,-26.72879130082065,55.8110785615354,60.043900565073244,0.07722956322519817,0.03210772714024511,0.04540063346027288,0.6376286969972397,0.0274532470774892,0.1270492365929411,0.48581757895871736,-0.8234932394005852,0.23945644560244056,0.15687607729605532,1.1018487509966637,-134.18406316400356,34.562226487309744,189.37749295057966,0.18151146371624435,0.0114505781029576,0.012002300924800475,0.04032509908000133,0.1033033711436119,0.03137384497338558,0.717192910335093,-0.28845149405772214,0.1691743020206772,0.610874861134153,1.105033113071452,-150.87487248007847,3.2416027727372043,1.0064931570878901,0.17645191911513344,0.4466837935354966,0.16492851775995,0.688723510416817,1.9239000370799686,2.0182790948424763,0.3690353380661606,0.5917755058145284,0.5831768524158337,0.4277995797182305,1.095033420498814,-144.54549510403774,17.376910122478144,21.43405627321955,0.7205949885512372,0.05505257457875945,0.5089104558823654,0.1784093641674871,0.2518699704434934,0.11925987640731255,0.5239262888830019,0.45475697263791176,0.6203269363152466,0.3673068514617852
1.02,-26.368561496827684,55.88319169181286,60.11449487053564,0.09082967466087553,0.001042514991532977,0.014136005096545032,0.499563431654038,0.019052285052742788,0.05807145581034517,0.4966240353631102,-0.8324819520478346,0.25451374034831403,0.15789305695793313,1.1141126215761104,-134.12367498838466,34.572985859369595,189.12751067540268,0.1958564256966538,0.022712647040441684,0.03272285908917774,0.2345476793942881,0.10460565993413418,0.10830398902233614,0.7243587467202066,-0.2934598564827007,0.17294728230502474,0.5978398904251557,1.1165286222205184,-151.20089252220583,3.6275233247804923,0.7501866551904658,0.022233196142076965,0.05926307507912935,0.6867258044146309,0.1730646989872282,0.6739914954994205,1.619730744983379,0.37807989267335523,0.6107802095453494,0.5816567540786659,0.43214944160037877,1.1032806128241364,-144.86226336490182,17.126315395732643,22.355428423043104,0.7198981674167159,0.051682803939155406,0.3582724138664383,0.17179038508977615,0.4792590673661726,0.04923390180816037,0.5245133404843904,0.45493038594091273,0.6316377489208795,0.3653340604650263
1.03,-26.30905727929629,55.934798760192066,60.05277809275689,0.062217648375267845,0.005816020151190973,-0.005230384670475364,0.41960434764406646,0.01424612662523968,0.07300786931371224,0.4812395972417787,-0.8367875842997146,0.24778133182144405,0.14041407946347628,1.1184819134846324,-134.05975500133167,34.24971104641423,188.8792978008673,0.3314824398873057,0.285105025244597,0.04818816923542628,0.3625171384441298,0.03543178151973296,0.769236371761259,0.7359819587801769,-0.2941842829141611,0.17470178795632868,0.6095022007801403,1.1261650686494895,-151.97541837630445,3.701507444942188,0.7639057047507446,0.09620535105770056,0.029288207379143283,0.891052229335202,0.46970352227437717,0.20246939907572487,0.07749605404471938,0.3975706064353397,0.6055728261381355,0.5755118037900189,0.43249039637145076,1.112067742792741,-144.93915502497146,16.954569217995495,23.1941676290479,0.7300559587456231,0.1500203916300407,0.08540711621693106,0.12783897560995813,0.4756244328409495,0.31503230759925627,0.5273738804890963,0.45225600744385464,0.6157867054228995,0.3754751425099033
1.04,-26.12661532320355,55.939957211741216,59.98525073263665,0.08721134257408562,0.054410859749073566,0.04360399283190158,0.3582583714723857,0.007593891956867609,0.014456487167945786,0.49067129204590215,-0.822838035102128,0.24876262938940671,0.13671767300065119,1.1208996787399637,-133.99583024512145,33.98228891113857,188.56644781515183,0.3183976934791315,0.13927109110975314,0.0347772285419107,0.2781084316479686,0.1759124649242674,0.3682574963199391,0.7316440379573732,-0.2833620317104123,0.16175146702827706,0.6129464376924322,1.1272706406588147,-152.9306307751107,3.6119094180267957,0.7510830641404802,0.006404184481487352,0.08069478359526377,0.7772922048552687,1.035703155807904,0.334671029719489,0.3747016962885567,0.3761154525444773,0.5876024529882028,0.5555962369922339,0.41359265262898837,1.1246087710825905,-144.73848709491372,16.85949498227822,24.00586203878152,0.758451454144978,0.12119117303795372,0.11631153644790486,0.3707545108902485,0.6131285788399612,0.2265360548115761,0.533828698954996,0.4439006624431507,0.6007800951729597,0.353401383244222
1.05,-25.99580788483267,55.81158825029708,60.01563582058672,0.06823281988252819,0.11047916810250322,0.061255644325401024,0.36097333559986433,0.04062742108587654,0.17500711521652332,0.48372246368206523,-0.8303824512807095,0.24681212372020694,0.15998670783239946,1.138091677903711,-133.93728292587224,33.81074135174083,188.18424889194586,0.2576364720091356,0.1932272128494011,0.028876628215357213,0.1618610411491067,0.4745251405655825,-0.012737590868578423,0.7215034435622579,-0.2776406345647091,0.16314923058580838,0.6067187538236524,1.1462611902087052,-153.74685989291515,3.5046836170459734,0.6991826458001861,0.0658804543407162,0.23068207918609163,0.5854451113218987,1.12164503571982,1.5634255600934257,0.09609618061101248,0.38033809756290954,0.5844942260481344,0.5547177607681928,0.4371753005934285,1.1457403626628906,-144.58438768981912,16.769348147326365,24.81867033364899,0.8198307270106586,0.11451595692033048,0.1363109463673135,0.6088585741069079,0.7977424114579,0.10952373680855357,0.5162396130857171,0.4450688890793392,0.618793929408573,0.3476101088752315
1.06,-25.94956467995932,55.75967350106208,60.01044107076245,0.10888791673046752,0.03939770372324049,0.06150944087513098,0.2339354723860305,0.5508523173952276,0.4296573165580831,0.5050411280839483,-0.8221002645511283,0.23524562771626503,0.1587980775659411,1.1384786942372216,-133.8717389158224,33.68039874049219,187.6839395121619,0.612859779018551,0.2411008500625716,0.11974298204685652,0.17278616214053144,0.17390771237030161,0.8408677205650459,0.7315186148837397,-0.2732336014059372,0.19062418364548717,0.5985149389292858,1.1537413306012505,-154.23052899248924,3.251052978627108,0.5489912558621284,0.060579736165516145,0.24734536188165496,0.37992663561226364,0.021710921147763976,1.7685947794891441,0.7413480149469823,0.38351732327021504,0.593966747062276,0.5786767517056929,0.4220800422273178,1.1451524503349895,-143.94530402400383,16.760466022064108,25.559417146131132,0.7742083451248064,0.15108699921869959,0.48337325276987475,0.8807424263944803,0.6693146333883581,1.6661995514551962,0.5354593257322343,0.4259667288679984,0.6177320387012739,0.34614633131732436
1.07,-25.7705697746103,55.70611077503284,59.93587163677991,0.09820627013281766,0.12644431474718776,0.023461048849984675,0.182965563903055,0.2572829869507086,0.30032877047351575,0.4987578077234891,-0.8304410282141265,0.2512741027683104,0.1374647902071921,1.1742743590901947,-133.75149257230734,33.439176412893566,186.88790038663802,0.7435374590828266,0.13711116136531876,0.10132418462872926,0.2565852256348089,0.01632727375935132,0.44644773100245794,0.7309519962352458,-0.2602452098850038,0.15711969323634414,0.6102874384242708,1.1667318879318993,-154.18354212246322,3.1891858434660203,0.43722251371489024,0.17095784478794837,0.030301951268330213,0.18494505941199127,0.1676979751213648,0.29465109587969857,1.559867742888396,0.38039302472805553,0.5762448749126872,0.5380677220945725,0.4350299792648761,1.1754204837312978,-143.0156594878683,17.0759148738194,26.072044065421345,0.665207193927312,-0.007046797725283675,0.8185164453655712,0.40181709584068187,0.4290318654153747,1.7179269465576787,0.5287292112453441,0.4565421068069014,0.6639742274506545,0.33930559455524567
1.08,-25.50225739428614,55.405692144712695,59.83053639384487,0.15254183336586993,0.20813189831519935,0.06716925557241735,0.7599341202225676,0.3162895430583026,0.7247013676337575,0.47084751151433824,-0.8197220031586007,0.23566577841940656,0.12143689071808918,1.1789488017162144,-133.48989738478016,33.18348445747719,185.9313206977957,0.8472239965874363,0.2696505437494911,0.02101690012675571,0.022211653396625397,1.3452521095471908,1.5049407552208303,0.716248180785601,-0.26493952023661316,0.17707698355822207,0.614015911410738,1.1835471194390377,-153.935620603451,3.307557950252021,0.2696877169349255,0.13019774143657178,0.06608803923383978,0.19636061172994407,0.2788580213409314,0.3616347534050366,1.2009428592055336,0.3795891697238609,0.588824631566512,0.5493553169596433,0.435351764558971,1.1739159936694927,-141.98287357564993,17.554168103004443,26.558710942296692,0.632179901046235,0.1008574740035573,0.717022142514693,0.4920382961674479,1.3579469110088929,1.5608842776146346,0.5156352836982901,0.449380767237228,0.6738302343348829,0.3361616216020995
1.09,-25.247531418827734,55.13513614412493,59.74834198620191,0.2200329166570446,0.3343251996559874,0.06423455654623321,1.3476151376421017,0.3821870178383421,1.2034544407242764,0.49632908388833397,-0.8242932114433429,0.24197206436344243,0.14019645350969545,1.1843228360369027,-133.17767261206293,32.55161020027218,185.06109711440266,0.9067320186842208,0.5481302874841253,0.013394385279309386,0.39118859345066825,1.6304954268550849,2.241711145806937,0.6938976384833646,-0.2722167684319428,0.16194800357312092,0.6227650256372761,1.1795520834113253,-153.80854808927614,3.3663956696522233,0.12832919101395607,0.07764130025650419,0.05822045616069123,0.07727449337455536,0.18919830574542432,0.36200749845604674,0.0672296792354995,0.3884321413137831,0.5878984579910829,0.5644098255495115,0.42632850350010626,1.1795507976326929,-141.56019874425138,17.885620640821198,27.242144885440197,0.7170610107558226,0.13483922226795902,0.18237203696226842,0.25551093908693273,1.254533332049027,0.9825578324926264,0.530668096072587,0.4432068359481896,0.6512386501022149,0.3207215263073564
1.1,-24.555895938308282,54.63410437525048,59.48551767084152,0.39468296570853223,0.5185842094558213,0.13781638752005496,1.844919463077437,0.9952333367881598,1.27881357461276,0.4860952316810561,-0.8211059976483224,0.24675140982350288,0.13153817489237143,1.1793478832961222,-132.9503252313385,31.68441017907264,184.38355364669786,0.7750545105066837,1.003199819323083,0.12234484837037367,0.1440059155284495,0.9616096816743357,0.570532917925612,0.7181754455424136,-0.26665831989360433,0.12790799529591923,0.6252772360188804,1.1996229438094375,-153.9937385756465,3.3215719445600205,0.1391656420641651,0.06494182332691024,0.15873420233419705,0.2687932570244419,0.7624027926877257,0.469726788750251,0.9658351915566307,0.39188395589773556,0.5982735489499975,0.5537371632262088,0.4294213647561172,1.1913249638605163,-141.68829421853567,17.892314552264086,28.19821182681014,0.7305213304083378,0.1237426927569765,0.29005347208592624,0.13728448179398473,0.6638919296819842,1.464009221526532,0.5494051710343112,0.4386807941043864,0.6517029937998148,0.3099803008254018
1.11,-22.54694541241925,53.74637484707995,58.74291252110326,0.44123234801288985,0.4015855451751643,0.11844236243582146,1.1635822617956035,0.4467718554869453,0.5459968121946531,0.4798565746530677,-0.8253546664283767,0.25003661818745987,0.13565436410772025,1.201109209491388,-132.37597455320764,29.748586816622577,182.50663577648896,0.8220818370924851,0.9646999319388327,0.09394821673945308,0.04189705768684158,0.5494331929101565,0.9131840831865352,0.696937411286385,-0.24643195041575533,0.1488418315138729,0.6439474556146515,1.1887627820969184,-154.90953153523964,2.910909704294588,0.38037087582565726,0.1681498040191007,0.2516354933217138,0.4881519690452246,0.6879547783799583,0.23512858412874094,1.7796473154134151,0.40044297376777327,0.5836311442111091,0.558549207352081,0.46317915785284075,1.222800093596327,-141.93867829418645,17.80407908701068,29.483770715603026,0.5464438722786866,-0.004936570569054628,0.005308394452894108,0.09437374329325562,0.8272849215808398,1.6138719451315942,0.5221943742661703,0.4171767308546846,0.6461062346076807,0.3167683716583646
1.12,-21.74240935262175,53.18327882327676,58.43814581128021,0.3748679886748702,0.6499860676583844,0.12446015145232925,1.2766271086480354,-0.0033662154678193667,0.8678206694768742,0.48630644602858775,-0.824568280683472,0.23471464397097014,0.10160864834152507,1.23574935313316,-132.04836508229357,28.56413357782887,181.6934396133766,0.6307361041673851,1.242994915822571,0.1123575790020638,0.13610363488306007,0.7578330095410222,1.6934952536758243,0.6988824416482697,-0.23857941542280686,0.1397504543140906,0.6733139160740723,1.2049033430906617,-155.49635469757027,2.6804701450241546,0.5605009788745206,0.23396786559404079,0.3809284866062468,0.6900056306521478,0.884746319865346,0.2718761193706876,1.837281130903077,0.4098564479332638,0.5830451472853528,0.559403061930358,0.4486562119591766,1.224839539127823,-141.78817730707252,17.76069457995095,30.193565690940183,0.6134131656191035,0.09488238825269438,0.037574060715738565,0.09121352325633204,0.2096683560988703,1.2811254421450529,0.5292730699225704,0.420847694126659,0.6797793572082694,0.31947733451850674
