0.01,0.00,0.00,0.00,3.77,6.02,6.98,0.09,0.03,0.18,33.69,4.06,77.56,0.00,0.00,0.00,0.00,0.00,0.00,0.00
0.02,24.25,2.37,12.25,0.45,2.02,9.65,0.01,0.01,0.03,1.00,5.87,50.50,0.01,0.07,0.02,0.97,0.11,0.00,0.21
0.03,24.25,2.37,12.25,0.42,2.00,9.63,0.00,0.00,0.01,1.37,6.25,50.56,0.05,0.04,0.07,0.97,0.11,0.00,0.21
0.04,24.25,2.37,12.25,0.38,1.90,9.61,0.01,0.00,0.01,1.37,6.25,50.56,0.03,0.17,0.03,0.97,0.11,0.00,0.21
0.05,24.25,2.37,12.25,0.38,1.96,9.61,0.01,0.00,0.02,0.06,5.50,52.19,0.02,0.11,0.04,0.97,0.11,0.00,0.21
0.06,24.31,2.37,12.25,0.39,1.98,9.65,0.01,0.00,0.02,0.06,5.50,52.19,0.02,0.09,0.08,0.97,0.11,0.00,0.21
0.07,24.31,2.37,12.19,0.39,1.93,9.66,0.00,0.00,0.01,0.06,5.50,52.19,0.01,0.14,0.08,0.97,0.11,0.00,0.21
0.08,24.31,2.37,12.19,0.42,1.90,9.64,0.00,0.01,0.00,0.56,6.25,49.75,0.01,0.17,0.06,0.97,0.11,0.00,0.21
0.09,24.31,2.37,12.19,0.44,2.07,9.69,0.01,0.02,0.02,0.56,6.25,49.75,0.03,0.00,0.12,0.97,0.11,0.00,0.21
0.10,24.31,2.37,12.19,0.47,2.13,9.70,0.01,0.00,0.02,0.56,5.50,52.19,0.06,0.05,0.12,0.97,0.11,0.00,0.21
0.11,24.37,2.37,12.19,0.40,1.99,9.67,0.00,0.00,0.03,0.56,5.50,52.19,0.00,0.08,0.10,0.97,0.11,0.00,0.21
0.12,24.37,2.37,12.19,0.45,1.92,9.61,0.01,0.00,0.01,0.56,5.50,52.19,0.04,0.14,0.03,0.97,0.11,0.00,0.21
0.13,24.37,2.37,12.19,0.38,1.93,9.62,0.00,0.00,0.01,0.19,5.87,50.56,0.03,0.14,0.04,0.97,0.11,0.00,0.21
0.14,24.37,2.37,12.19,0.39,1.97,9.62,0.00,0.00,0.01,0.19,5.87,50.56,0.01,0.09,0.04,0.97,0.11,0.00,0.21
0.15,24.37,2.37,12.19,0.39,1.99,9.59,0.00,0.00,0.01,0.56,6.25,51.00,0.01,0.06,0.01,0.97,0.11,0.00,0.21
0.16,24.44,2.37,12.19,0.44,2.01,9.57,0.01,0.00,0.00,0.56,6.25,51.00,0.00,0.04,0.00,0.97,0.11,0.00,0.21
0.17,24.44,2.37,12.19,0.41,2.04,9.62,0.00,0.00,0.01,0.56,6.25,51.00,0.00,0.01,0.04,0.97,0.11,0.00,0.21
0.18,24.44,2.37,12.19,0.54,2.06,9.64,0.01,0.01,0.01,1.00,5.87,50.06,0.13,0.00,0.06,0.97,0.11,0.00,0.21
0.19,24.44,2.37,12.19,0.43,1.90,9.69,0.02,0.01,0.01,1.00,5.87,50.06,0.02,0.16,0.11,0.97,0.11,0.00,0.21
0.20,24.44,2.37,12.19,0.36,1.85,9.67,0.02,0.01,0.01,1.00,5.87,51.75,0.05,0.22,0.07,0.97,0.11,0.00,0.21
0.21,24.44,2.37,12.19,0.42,1.92,9.65,0.01,0.01,0.03,1.00,5.87,51.75,0.00,0.15,0.07,0.97,0.11,0.00,0.21
0.22,24.50,2.37,12.19,0.38,2.03,9.65,0.01,0.01,0.02,1.00,5.87,51.75,0.03,0.03,0.07,0.97,0.11,0.00,0.21
0.23,24.50,2.37,12.19,0.45,2.09,9.61,0.00,0.00,0.01,0.56,4.75,50.56,0.03,0.02,0.03,0.97,0.11,0.00,0.21
0.24,24.50,2.37,12.19,0.44,2.00,9.61,0.01,0.00,0.01,0.56,4.75,50.56,0.03,0.07,0.03,0.97,0.11,0.00,0.21
0.25,24.50,2.37,12.19,0.47,1.99,9.57,0.00,0.00,0.01,0.56,5.06,51.75,0.03,0.09,0.02,0.97,0.11,0.00,0.21
0.26,24.50,2.37,12.19,0.41,1.91,9.59,0.00,0.00,0.01,0.56,5.06,51.75,0.00,0.15,0.01,0.97,0.11,0.00,0.21
0.27,24.50,2.37,12.19,0.39,2.09,9.59,0.01,0.01,0.02,0.56,5.06,51.75,0.02,0.02,0.01,0.97,0.11,0.00,0.21
0.28,24.50,2.37,12.19,0.51,2.08,9.62,0.01,0.01,0.01,2.50,5.06,50.56,0.10,0.01,0.04,0.97,0.11,0.00,0.21
0.29,24.50,2.37,12.19,0.49,1.95,9.65,0.01,0.01,0.02,2.50,5.06,50.56,0.07,0.11,0.08,0.97,0.11,0.00,0.21
0.30,24.50,2.37,12.19,0.45,1.90,9.66,0.01,0.01,0.01,0.56,5.50,51.25,0.03,0.19,0.11,0.97,0.11,0.00,0.21
0.31,24.50,2.37,12.13,0.41,1.87,9.67,0.01,0.01,0.02,0.56,5.50,51.25,0.01,0.17,0.09,0.97,0.11,0.00,0.21
0.32,24.50,2.37,12.13,0.37,2.06,9.68,0.00,0.01,0.03,0.56,5.50,51.25,0.04,0.00,0.10,0.97,0.11,0.00,0.21
0.33,24.50,2.37,12.13,0.51,2.08,9.65,0.00,0.01,0.01,1.37,5.06,51.00,0.09,0.01,0.07,0.97,0.11,0.00,0.21
0.34,24.50,2.37,12.13,0.44,1.97,9.61,0.01,0.00,0.01,1.37,5.06,51.00,0.02,0.09,0.03,0.97,0.11,0.00,0.21
0.35,24.50,2.37,12.13,0.45,1.95,9.60,0.00,0.00,0.01,0.56,5.06,50.06,0.04,0.10,0.02,0.97,0.11,0.00,0.21
0.36,24.50,2.37,12.13,0.41,2.06,9.61,0.00,0.01,0.00,0.56,5.06,50.06,0.00,0.00,0.03,0.97,0.11,0.00,0.21
0.37,24.50,2.37,12.13,0.44,2.03,9.62,0.01,0.01,0.00,0.56,5.06,50.06,0.02,0.02,0.04,0.97,0.11,0.00,0.21
0.38,24.50,2.44,12.13,0.46,1.90,9.63,0.01,0.00,0.01,0.56,4.37,50.06,0.04,0.16,0.06,0.97,0.11,0.00,0.21
0.39,24.50,2.44,12.13,0.47,1.90,9.62,0.01,0.00,0.00,0.56,4.37,50.06,0.05,0.16,0.04,0.97,0.11,0.00,0.21
0.41,24.50,2.44,12.13,0.49,2.05,9.65,0.00,0.01,0.00,0.06,4.75,49.25,0.07,0.00,0.07,0.97,0.11,0.00,0.21
0.42,24.50,2.44,12.13,0.47,2.04,9.64,0.00,0.02,0.00,0.06,4.75,49.25,0.04,0.01,0.06,0.97,0.11,0.00,0.21
0.43,24.50,2.44,12.13,0.49,1.95,9.63,0.01,0.01,0.01,1.00,5.87,50.50,0.06,0.10,0.05,0.97,0.11,0.00,0.21
0.44,24.50,2.44,12.13,0.44,1.91,9.61,0.01,0.01,0.00,1.00,5.87,50.50,0.01,0.14,0.03,0.97,0.11,0.00,0.21
0.45,24.50,2.44,12.13,0.44,1.90,9.60,0.00,0.00,0.00,1.00,5.06,50.50,0.00,0.13,0.04,0.97,0.11,0.00,0.21
0.46,24.50,2.44,12.13,0.43,2.00,9.65,0.00,0.00,0.01,1.00,5.06,50.50,0.01,0.05,0.07,0.97,0.11,0.00,0.21
0.47,24.50,2.44,12.13,0.40,2.01,9.66,0.00,0.00,0.00,1.00,5.06,50.50,0.02,0.04,0.08,0.97,0.11,0.00,0.21
0.48,24.50,2.44,12.13,0.48,1.93,9.63,0.00,0.01,0.00,2.06,5.50,51.37,0.05,0.12,0.05,0.97,0.11,0.00,0.21
0.49,24.50,2.50,12.13,0.50,1.97,9.62,0.01,0.00,0.00,2.06,5.50,51.37,0.08,0.08,0.05,0.97,0.11,0.00,0.21
0.50,24.50,2.50,12.06,0.50,2.07,9.69,0.01,0.01,0.00,1.00,5.06,51.75,0.08,0.02,0.11,0.97,0.11,0.00,0.21
0.51,24.50,2.50,12.06,0.49,1.96,9.67,0.00,0.01,0.01,1.00,5.06,51.75,0.06,0.09,0.09,0.97,0.11,0.00,0.21
0.52,24.50,2.50,12.06,0.34,1.85,9.69,0.01,0.00,0.03,1.00,5.06,51.75,0.08,0.19,0.11,0.97,0.11,0.00,0.21
0.53,24.56,2.50,12.06,0.42,1.92,9.62,0.00,0.01,0.04,0.19,5.06,51.00,0.00,0.09,0.03,0.97,0.11,0.00,0.21
0.54,24.56,2.50,12.06,0.44,2.01,9.60,0.01,0.00,0.00,0.19,5.06,51.00,0.00,0.02,0.01,0.97,0.11,0.00,0.21
0.55,24.56,2.50,12.06,0.44,2.00,9.59,0.02,0.01,0.02,0.56,5.06,51.00,0.06,0.10,0.01,0.97,0.11,0.00,0.21
0.56,24.56,2.50,12.06,0.48,1.94,9.60,0.01,0.00,0.00,0.56,5.06,51.00,0.00,0.08,0.03,0.97,0.11,0.00,0.21
0.57,24.56,2.50,12.06,0.44,2.02,9.60,0.00,0.01,0.03,0.56,5.06,51.00,0.01,0.03,0.02,0.97,0.11,0.00,0.21
0.58,24.63,2.50,12.06,0.45,2.04,9.64,0.00,0.01,0.02,1.37,5.87,51.37,0.01,0.00,0.06,0.97,0.11,0.00,0.21
0.59,24.63,2.50,12.06,0.46,1.95,9.68,0.01,0.01,0.02,1.37,5.87,51.37,0.03,0.09,0.10,0.97,0.11,0.00,0.21
0.60,24.63,2.50,12.06,0.43,1.92,9.69,0.00,0.01,0.01,1.37,5.06,51.00,0.00,0.12,0.11,0.97,0.11,0.00,0.21
0.61,24.63,2.50,12.06,0.45,2.00,9.62,0.00,0.01,0.01,1.37,5.06,51.00,0.02,0.05,0.04,0.97,0.11,0.00,0.21
0.62,24.63,2.50,12.06,0.44,2.03,9.65,0.00,0.01,0.03,1.37,5.06,51.00,0.01,0.02,0.07,0.97,0.11,0.00,0.21
0.63,24.69,2.50,12.06,0.47,2.07,9.59,0.00,0.01,0.04,1.00,5.50,51.37,0.04,0.02,0.04,0.97,0.11,0.00,0.21
0.64,24.69,2.50,12.06,0.48,2.04,9.57,0.01,0.01,0.01,1.00,5.50,51.37,0.02,0.02,0.00,0.97,0.11,0.00,0.21
0.65,24.75,2.50,12.06,0.43,2.04,9.61,0.01,0.01,0.00,1.37,5.87,51.00,0.02,0.03,0.04,0.97,0.11,0.00,0.21
0.66,24.69,2.50,12.06,0.48,2.01,9.62,0.00,0.01,0.01,1.37,5.87,51.00,0.02,0.05,0.04,0.97,0.11,0.00,0.21
0.67,24.69,2.50,12.06,0.42,1.96,9.65,0.01,0.01,0.00,1.37,5.87,51.00,0.01,0.08,0.07,0.97,0.11,0.00,0.21
0.68,24.69,2.50,12.06,0.48,1.99,9.62,0.01,0.00,0.01,1.37,5.50,50.19,0.04,0.05,0.04,0.97,0.11,0.00,0.21
0.69,24.75,2.50,12.06,0.45,1.99,9.60,0.00,0.00,0.00,1.37,5.50,50.19,0.02,0.05,0.02,0.97,0.11,0.00,0.21
0.70,24.75,2.50,12.06,0.44,2.03,9.59,0.00,0.00,0.00,1.37,5.06,51.75,0.00,0.01,0.01,0.97,0.11,0.00,0.21
0.71,24.75,2.50,12.06,0.49,2.06,9.58,0.00,0.01,0.01,1.37,5.06,51.75,0.05,0.01,0.00,0.97,0.11,0.00,0.21
0.72,24.75,2.50,12.06,0.41,2.01,9.62,0.00,0.00,0.01,1.37,5.06,51.75,0.02,0.04,0.04,0.97,0.11,0.00,0.21
0.73,24.69,2.50,12.06,0.51,2.01,9.61,0.00,0.01,0.03,0.56,5.50,50.56,0.08,0.03,0.03,0.97,0.11,0.00,0.21
0.74,24.69,2.50,12.06,0.46,1.89,9.68,0.01,0.02,0.02,0.56,5.50,50.56,0.03,0.16,0.10,0.97,0.11,0.00,0.21
0.75,24.63,2.50,12.06,0.43,1.82,9.65,0.01,0.00,0.01,1.37,5.50,51.00,0.00,0.22,0.07,0.97,0.11,0.00,0.21
0.76,24.63,2.50,12.06,0.42,1.97,9.62,0.01,0.01,0.01,1.37,5.50,51.00,0.00,0.07,0.05,0.97,0.11,0.00,0.21
0.77,24.69,2.50,12.06,0.46,2.03,9.61,0.00,0.00,0.01,1.37,5.50,51.00,0.02,0.01,0.03,0.97,0.11,0.00,0.21
0.78,24.69,2.50,12.06,0.47,2.07,9.63,0.01,0.00,0.01,1.37,4.75,50.56,0.03,0.02,0.05,0.97,0.11,0.00,0.21
0.79,24.69,2.50,12.06,0.46,2.02,9.57,0.01,0.00,0.02,1.37,4.75,50.56,0.02,0.03,0.00,0.97,0.11,0.00,0.21
0.80,24.63,2.50,12.06,0.42,2.01,9.63,0.01,0.01,0.01,1.00,5.06,51.00,0.00,0.03,0.06,0.97,0.11,0.00,0.21
0.81,24.63,2.50,12.06,0.41,2.07,9.60,0.01,0.00,0.01,1.00,5.06,51.00,0.02,0.01,0.02,0.97,0.11,0.00,0.21
0.82,24.63,2.50,12.06,0.49,2.06,9.62,0.01,0.01,0.02,1.00,5.06,51.00,0.05,0.01,0.04,0.97,0.11,0.00,0.21
0.83,24.63,2.50,12.13,0.43,1.93,9.67,0.01,0.00,0.02,1.37,5.50,50.56,0.00,0.12,0.09,0.97,0.11,0.00,0.21
0.84,24.56,2.50,12.13,0.42,2.00,9.66,0.00,0.01,0.01,1.37,5.50,50.56,0.01,0.05,0.08,0.97,0.11,0.00,0.21
0.85,24.56,2.50,12.13,0.39,2.05,9.63,0.00,0.01,0.01,1.37,5.06,51.75,0.03,0.00,0.06,0.97,0.11,0.00,0.21
0.86,24.56,2.50,12.13,0.49,2.15,9.55,0.00,0.00,0.02,1.37,5.06,51.75,0.05,0.09,0.02,0.97,0.11,0.00,0.21
0.87,24.56,2.50,12.13,0.47,1.94,9.60,0.01,0.00,0.03,1.37,5.06,51.75,0.03,0.11,0.02,0.97,0.11,0.00,0.21
0.88,24.56,2.50,12.13,0.48,1.89,9.57,0.00,0.01,0.04,1.69,5.06,51.37,0.05,0.16,0.00,0.97,0.11,0.00,0.21
0.89,24.50,2.50,12.13,0.56,1.97,9.62,0.00,0.00,0.01,1.69,5.06,51.37,0.13,0.08,0.05,0.97,0.11,0.00,0.21
0.90,24.50,2.50,12.13,0.53,1.94,9.67,0.00,0.00,0.01,1.69,5.50,49.75,0.04,0.06,0.13,0.97,0.11,0.00,0.21
0.91,24.56,2.50,12.13,0.45,2.03,9.75,0.02,0.02,0.06,1.69,5.50,49.75,0.00,0.00,0.06,0.97,0.11,0.00,0.21
0.92,24.63,2.50,12.13,0.41,2.12,9.59,0.02,0.02,0.06,1.69,5.50,49.75,0.01,0.05,0.01,0.97,0.11,0.00,0.21
0.93,24.69,2.50,12.13,0.43,2.08,9.58,0.01,0.01,0.04,1.37,5.50,51.75,0.09,0.00,0.02,0.97,0.11,0.00,0.21
0.94,24.69,2.50,12.13,0.33,2.06,9.62,0.01,0.02,0.00,1.37,5.50,51.75,0.10,0.06,0.09,0.97,0.11,0.00,0.21
0.95,24.69,2.44,12.13,0.31,2.20,9.74,0.01,0.03,0.01,1.37,5.50,51.75,0.05,0.23,0.28,0.97,0.11,0.00,0.21
0.96,24.69,2.44,12.13,0.43,2.26,9.88,0.01,0.07,0.03,0.56,4.75,50.19,0.04,0.11,0.36,0.97,0.11,0.00,0.21
0.97,24.75,2.31,12.13,0.32,2.15,10.01,0.01,0.10,0.10,0.56,4.75,50.19,0.17,0.15,0.53,0.97,0.11,0.00,0.21
0.98,24.94,2.25,12.13,0.24,2.38,10.07,0.00,0.11,0.16,1.37,5.06,51.00,0.11,0.34,0.39,0.97,0.11,0.00,0.21
0.99,25.19,2.12,12.06,0.28,2.31,9.89,0.05,0.16,0.21,1.37,5.06,51.00,0.16,0.24,0.33,0.97,0.11,0.00,0.22
1.00,25.44,1.94,12.00,0.12,2.66,9.85,0.13,0.20,0.23,1.37,5.06,51.00,0.21,0.62,0.27,0.97,0.11,0.01,0.22
1.01,25.75,1.75,11.81,0.23,2.69,9.55,0.17,0.23,0.24,0.56,4.75,50.56,0.06,0.67,0.03,0.97,0.10,0.01,0.22
1.03,26.31,1.37,11.38,0.19,2.26,9.15,0.22,0.23,0.28,1.00,5.87,51.00,0.43,0.32,0.45,0.97,0.10,0.01,0.23
1.04,26.75,1.19,11.12,0.01,3.02,8.80,0.21,0.24,0.40,1.00,5.87,51.00,0.22,1.41,0.86,0.97,0.10,0.01,0.23
1.05,27.13,1.00,10.88,0.06,3.51,8.74,0.18,0.23,0.29,1.00,5.87,51.00,0.24,1.65,0.87,0.97,0.09,0.01,0.23
1.06,27.37,0.75,10.75,0.20,3.45,8.73,0.07,0.31,0.21,0.06,6.25,50.56,0.42,1.36,0.71,0.97,0.09,0.02,0.24
1.07,27.62,0.37,10.75,0.27,3.21,9.04,0.02,0.39,0.18,0.06,6.25,50.56,0.03,1.52,0.39,0.97,0.09,0.02,0.24
1.08,27.87,0.00,10.88,0.20,3.49,9.39,0.11,0.45,0.20,1.25,7.00,51.75,0.21,1.63,0.23,0.97,0.09,0.02,0.24
1.09,28.12,0.50,11.06,0.13,3.06,9.23,0.15,0.48,0.10,1.25,7.00,51.75,0.00,0.95,0.43,0.97,0.09,0.03,0.24
1.10,28.19,1.00,11.19,0.33,2.76,9.10,0.14,0.50,0.02,1.25,7.00,51.75,0.15,0.85,0.51,0.97,0.09,0.03,0.24
1.11,28.25,1.56,11.38,0.58,2.58,8.91,0.19,0.49,0.01,1.87,6.56,50.25,0.31,0.64,0.69,0.96,0.09,0.04,0.24
1.12,28.38,2.12,11.69,0.43,2.13,8.39,0.26,0.57,0.07,1.87,6.56,50.25,0.42,0.39,1.53,0.96,0.09,0.04,0.24
1.13,28.50,2.75,12.00,1.03,1.51,7.82,0.29,0.54,0.10,4.19,6.25,51.75,0.56,0.52,1.75,0.96,0.10,0.05,0.25
1.14,28.75,3.25,12.37,1.14,1.60,7.80,0.32,0.52,0.17,4.19,6.25,51.75,0.58,0.48,1.76,0.96,0.10,0.05,0.25
1.15,29.00,3.75,12.75,1.33,2.08,8.18,0.32,0.49,0.20,4.19,6.25,51.75,0.68,0.07,1.36,0.96,0.10,0.06,0.25
1.16,29.31,4.19,13.06,1.38,2.29,8.49,0.28,0.45,0.21,4.75,5.06,51.88,0.65,0.08,1.03,0.96,0.10,0.06,0.25
1.17,29.63,4.56,13.38,1.84,2.16,8.84,0.21,0.40,0.26,4.75,5.06,51.88,1.05,0.09,0.66,0.96,0.10,0.07,0.25
1.19,30.12,5.00,13.62,1.11,2.33,8.21,0.08,0.26,0.22,6.19,3.87,51.06,0.23,0.01,1.27,0.96,0.10,0.07,0.26
1.20,30.37,5.25,13.75,1.00,2.46,8.14,0.00,0.18,0.01,6.19,3.87,51.06,0.08,0.14,1.33,0.96,0.10,0.08,0.26
1.22,30.06,5.56,13.62,1.21,1.89,8.19,0.05,0.04,0.39,7.00,3.87,50.69,0.24,0.40,1.28,0.96,0.10,0.08,0.26
1.23,29.63,5.75,13.50,1.34,1.08,7.87,0.05,0.04,0.37,8.50,4.37,50.25,0.34,1.19,1.60,0.96,0.10,0.08,0.25
1.24,29.25,5.87,13.44,0.74,1.31,8.09,0.04,0.03,0.27,8.50,4.37,50.25,0.26,0.95,1.38,0.96,0.10,0.08,0.25
1.25,29.00,5.94,13.38,0.68,0.90,9.43,0.01,0.07,0.13,8.50,4.37,50.25,0.34,1.35,0.04,0.96,0.10,0.08,0.25
1.26,28.87,6.06,13.31,0.87,0.65,9.28,0.15,0.09,0.01,7.37,3.56,51.56,0.15,1.76,0.51,0.96,0.10,0.08,0.25
1.27,29.00,6.12,13.19,0.91,0.42,8.79,0.22,0.09,0.22,7.37,3.56,51.56,0.28,1.78,0.82,0.96,0.10,0.08,0.25
1.28,29.31,6.19,12.94,0.70,0.50,8.76,0.24,0.09,0.27,7.37,3.56,51.56,0.34,1.28,0.28,0.96,0.09,0.08,0.25
1.30,30.12,6.12,12.31,0.80,1.16,10.54,0.51,0.04,0.35,7.25,4.37,51.88,0.29,0.93,0.73,0.96,0.09,0.08,0.26
1.31,30.56,6.06,11.75,0.82,0.78,10.24,0.57,0.00,0.30,7.56,4.25,51.69,0.37,1.38,0.76,0.96,0.08,0.08,0.26
1.33,31.19,5.75,10.50,0.73,0.51,11.97,0.60,0.15,0.30,8.38,5.37,52.00,0.23,2.24,2.37,0.96,0.07,0.07,0.27
1.34,31.62,5.56,9.88,0.38,0.27,11.67,0.68,0.09,0.47,8.38,5.37,52.00,0.57,1.90,2.05,0.96,0.07,0.07,0.27
1.35,32.19,5.56,9.13,0.09,0.19,11.39,0.71,0.04,0.45,8.38,5.37,52.00,1.04,1.69,1.74,0.96,0.06,0.07,0.28
1.36,32.69,5.44,8.38,0.03,0.15,11.34,0.71,0.11,0.47,8.56,6.87,52.00,0.01,0.40,1.99,0.96,0.06,0.07,0.28
1.37,33.31,5.31,7.69,0.90,1.28,10.84,0.75,0.08,0.51,8.56,6.87,52.00,0.00,0.04,1.16,0.95,0.05,0.06,0.29
1.38,33.88,5.31,6.87,1.04,1.02,10.91,0.74,0.06,0.48,8.56,8.75,52.00,0.42,0.27,0.59,0.95,0.04,0.06,0.29
1.39,34.31,5.25,6.12,0.31,0.91,10.58,0.68,0.10,0.32,8.56,8.75,52.00,0.60,0.04,0.77,0.95,0.04,0.06,0.29
1.40,34.75,5.06,5.44,0.49,0.82,10.83,0.65,0.21,0.33,8.56,8.75,52.00,0.35,0.04,1.10,0.95,0.03,0.06,0.30
1.41,35.06,4.81,4.69,0.01,0.65,10.66,0.68,0.24,0.28,8.88,10.19,51.56,0.73,0.22,0.69,0.95,0.03,0.05,0.30
1.42,35.38,4.44,3.94,0.30,0.54,10.02,0.57,0.41,0.47,8.88,10.19,51.56,0.96,0.11,0.62,0.95,0.02,0.05,0.30
1.43,35.94,3.94,3.37,0.04,0.10,10.41,0.52,0.42,0.51,8.88,10.19,51.56,0.57,0.54,0.56,0.95,0.02,0.04,0.31
1.44,36.50,3.44,2.87,0.04,0.07,10.15,0.43,0.43,0.57,8.06,11.69,52.00,0.29,0.00,0.39,0.95,0.01,0.04,0.31
1.45,37.19,2.94,2.44,0.32,0.08,9.97,0.33,0.41,0.64,8.06,11.69,52.00,0.60,0.21,0.52,0.95,0.01,0.03,0.32
1.46,37.88,2.50,2.12,0.18,0.09,11.16,0.30,0.40,0.68,8.06,13.75,51.19,0.18,0.96,1.72,0.95,0.01,0.03,0.32
1.47,38.69,2.19,1.81,0.68,0.60,11.79,0.31,0.12,0.70,8.06,13.75,51.19,0.21,1.15,1.51,0.94,0.01,0.02,0.33
1.48,39.44,2.31,1.50,1.25,0.47,12.04,0.37,0.15,0.55,8.06,13.75,51.19,0.13,1.25,2.03,0.94,0.01,0.02,0.34
1.49,40.12,2.50,1.19,0.86,0.87,12.08,0.17,0.15,0.73,7.06,15.00,52.88,0.08,2.14,2.15,0.94,0.00,0.02,0.34
1.50,40.88,2.69,1.12,1.36,3.04,11.93,0.04,0.19,0.55,7.06,15.00,52.88,1.39,2.31,1.51,0.94,0.00,0.03,0.35
1.51,41.44,2.94,1.06,2.08,1.10,11.04,0.09,0.19,0.40,8.75,15.88,51.37,1.74,0.34,1.55,0.93,0.00,0.03,0.35
1.52,41.69,3.00,0.94,2.08,0.19,11.73,0.18,0.04,0.04,8.75,15.88,51.37,1.83,0.01,2.06,0.93,0.00,0.03,0.36
1.53,41.56,3.06,0.69,1.76,0.29,11.36,0.28,0.10,0.27,8.75,15.88,51.37,0.43,0.46,0.48,0.93,0.00,0.03,0.35
1.55,40.06,3.25,0.31,0.35,1.74,11.00,0.41,0.04,0.61,7.00,14.38,51.00,0.94,1.61,1.30,0.94,0.01,0.03,0.34
1.56,39.44,3.31,0.81,0.31,1.14,11.05,0.41,0.06,0.51,8.19,16.19,51.00,1.03,1.01,0.97,0.94,0.02,0.02,0.34
1.57,39.06,3.37,1.31,0.28,0.90,10.90,0.44,0.03,0.31,8.19,16.19,51.00,0.81,1.17,1.65,0.94,0.02,0.02,0.33
1.58,38.75,3.37,1.81,0.59,1.38,11.93,0.43,0.02,0.28,8.19,16.19,51.00,1.21,0.84,1.83,0.94,0.03,0.02,0.33
1.59,38.56,3.44,2.25,0.05,1.29,11.35,0.34,0.06,0.09,6.50,16.87,50.56,0.64,1.13,1.12,0.94,0.03,0.02,0.33
1.60,38.63,3.56,2.56,0.01,0.43,10.93,0.18,0.05,0.14,6.50,16.87,50.56,0.46,0.31,1.39,0.94,0.03,0.02,0.33
1.61,38.75,3.56,2.75,0.28,0.37,11.44,0.20,0.02,0.02,7.56,18.00,48.56,0.11,0.42,1.74,0.94,0.03,0.02,0.33
1.62,38.56,3.56,3.06,0.66,1.39,11.01,0.31,0.00,0.18,7.56,18.00,48.56,0.01,0.58,0.99,0.94,0.04,0.02,0.33
1.63,38.44,3.62,3.44,0.35,0.64,10.75,0.27,0.05,0.15,7.56,18.00,48.56,0.27,0.05,0.98,0.94,0.04,0.02,0.33
1.64,38.31,3.69,3.69,0.17,0.62,10.43,0.22,0.06,0.09,8.06,18.37,48.69,0.89,0.77,0.35,0.94,0.04,0.02,0.33
1.65,38.06,3.69,4.00,0.12,1.55,10.23,0.28,0.03,0.23,8.06,18.37,48.69,0.77,0.64,0.66,0.94,0.04,0.02,0.33
1.66,37.88,3.75,4.25,0.39,1.02,10.75,0.19,0.09,0.13,8.50,19.25,48.25,0.27,0.20,1.49,0.94,0.05,0.02,0.32
1.67,38.06,3.94,4.37,0.60,0.90,11.38,0.25,0.18,0.15,8.50,19.25,48.25,0.11,0.70,1.59,0.94,0.05,0.02,0.33
1.69,38.44,4.56,5.12,0.34,0.44,9.65,0.35,0.27,0.19,7.00,19.56,48.25,0.70,0.74,0.11,0.94,0.06,0.02,0.33
1.70,38.63,4.81,5.37,0.12,0.19,10.09,0.16,0.16,0.23,7.00,19.56,48.25,0.20,0.12,1.07,0.94,0.06,0.02,0.33
1.71,38.88,5.00,5.56,0.68,1.09,9.73,0.20,0.17,0.24,8.56,20.06,47.00,0.19,0.04,0.29,0.94,0.06,0.03,0.33
1.72,39.13,5.25,5.75,0.88,1.15,9.30,0.06,0.23,0.33,8.56,20.06,47.00,0.33,0.22,0.10,0.94,0.06,0.03,0.33
1.73,39.56,5.56,5.69,1.24,0.37,10.17,0.04,0.31,0.42,8.56,20.06,47.00,0.59,0.47,0.51,0.94,0.06,0.03,0.34
1.74,40.00,6.00,5.56,1.90,0.73,10.12,0.09,0.39,0.42,8.69,20.50,47.00,0.98,0.25,0.04,0.94,0.06,0.03,0.34
1.75,40.44,6.50,5.37,1.57,0.12,9.34,0.16,0.42,0.38,8.69,20.50,47.00,0.41,1.02,0.35,0.94,0.06,0.04,0.34
1.76,40.75,7.00,5.12,1.49,0.52,9.70,0.20,0.41,0.21,11.69,20.56,46.50,0.44,1.33,0.30,0.93,0.06,0.04,0.35
1.77,40.88,7.44,4.81,1.19,0.60,10.26,0.42,0.40,0.16,11.69,20.56,46.50,0.27,1.02,0.73,0.93,0.06,0.05,0.35
1.78,41.00,7.87,4.31,0.89,0.01,10.25,0.46,0.33,0.13,11.69,20.56,46.50,0.73,0.32,0.40,0.93,0.06,0.05,0.35
1.80,40.94,9.38,2.56,1.14,1.56,10.40,1.16,0.45,0.74,13.50,16.56,48.87,0.49,1.00,0.74,0.93,0.01,0.08,0.35
1.81,41.69,9.81,4.00,1.72,1.62,9.10,1.15,0.39,0.65,13.50,16.56,48.87,0.01,0.82,0.51,0.93,0.00,0.09,0.35
1.82,42.13,10.13,5.31,2.30,1.21,8.95,1.05,0.28,0.31,12.25,14.25,48.06,0.95,0.31,0.58,0.93,0.01,0.10,0.36
1.83,42.06,10.50,6.37,2.49,0.67,8.99,0.92,0.42,0.03,12.25,14.25,48.06,0.66,0.49,0.56,0.93,0.02,0.11,0.36
1.84,42.00,11.00,7.37,1.90,0.77,9.52,0.84,0.43,0.10,12.25,14.25,48.06,0.34,0.36,0.02,0.93,0.03,0.11,0.36
1.85,41.81,11.50,8.25,1.47,0.88,9.06,0.79,0.52,0.10,14.06,10.50,49.38,0.01,0.24,1.19,0.93,0.03,0.12,0.35
1.86,41.94,12.06,9.19,1.79,1.21,7.77,0.86,0.48,0.20,14.06,10.50,49.38,0.73,0.01,1.50,0.93,0.04,0.13,0.35
1.88,42.25,12.81,11.25,1.09,1.97,9.43,0.86,0.42,0.27,14.87,7.50,48.06,0.83,0.33,0.42,0.92,0.05,0.14,0.36
1.89,42.50,13.19,12.31,1.68,1.32,8.62,0.80,0.39,0.29,14.87,7.50,48.06,0.03,0.37,1.11,0.92,0.06,0.15,0.36
1.90,43.00,13.56,13.38,2.30,2.53,7.64,0.88,0.38,0.51,16.50,6.25,48.06,0.05,0.48,1.14,0.92,0.06,0.15,0.36
1.91,43.44,13.81,14.50,1.80,3.01,8.64,0.90,0.33,0.32,16.50,6.25,48.06,0.56,0.53,0.53,0.91,0.07,0.16,0.36
1.92,43.75,14.06,15.69,2.32,3.10,8.83,0.95,0.33,0.37,17.19,4.06,48.87,0.19,0.83,0.24,0.91,0.08,0.16,0.37
1.93,44.25,14.31,17.06,2.50,3.54,8.14,1.08,0.30,0.43,17.19,4.06,48.87,0.04,0.66,1.03,0.91,0.09,0.17,0.37
1.94,44.56,14.50,18.37,2.48,3.29,9.14,1.08,0.27,0.38,17.19,4.06,48.87,0.02,0.29,0.13,0.91,0.10,0.18,0.37
1.95,44.88,14.69,19.75,2.22,3.60,9.02,1.14,0.33,0.39,18.69,1.75,48.87,0.56,0.46,0.17,0.90,0.11,0.18,0.37
1.97,45.38,15.00,22.56,2.71,3.62,7.95,1.19,0.27,0.39,20.19,1.19,48.50,0.12,0.37,0.24,0.90,0.12,0.20,0.38
1.98,45.63,15.13,24.06,1.67,4.79,8.31,1.27,0.31,0.32,20.19,1.19,48.50,1.12,0.42,0.23,0.89,0.14,0.20,0.38
2.00,46.13,15.19,27.25,1.81,3.17,8.42,1.27,0.23,0.62,19.50,5.25,49.38,0.04,1.19,1.25,0.89,0.16,0.22,0.38
2.01,46.81,15.13,28.87,3.10,4.19,8.57,1.21,0.47,0.92,19.50,5.25,49.38,0.54,0.49,0.34,0.88,0.17,0.22,0.38
2.02,47.75,15.13,30.50,2.55,4.98,8.84,1.17,0.53,0.87,20.56,7.06,46.88,0.52,0.53,0.22,0.87,0.18,0.23,0.39
2.03,48.63,15.06,32.06,3.22,5.79,8.40,1.19,0.50,0.87,20.56,7.06,46.88,0.95,1.42,0.60,0.87,0.19,0.24,0.39
2.04,49.44,15.00,33.56,2.53,6.45,7.23,1.11,0.41,0.70,20.56,7.06,46.88,0.39,0.52,0.49,0.86,0.20,0.24,0.40
2.05,49.69,15.06,34.88,3.46,5.00,7.97,1.11,0.36,0.53,20.56,11.56,47.69,0.65,0.31,0.13,0.86,0.21,0.25,0.40
2.06,50.25,15.06,36.25,3.30,6.97,6.85,1.08,0.49,0.56,20.56,11.56,47.69,0.75,1.27,0.70,0.85,0.22,0.25,0.40
2.07,50.81,15.13,37.69,3.34,6.54,6.10,1.10,0.45,0.53,22.06,13.75,44.50,0.47,0.04,1.61,0.85,0.22,0.26,0.40
2.08,51.25,15.13,39.19,3.05,5.69,5.89,1.21,0.39,0.44,22.06,13.75,44.50,0.47,0.17,1.11,0.84,0.23,0.27,0.40
2.10,51.88,15.19,42.31,2.22,6.62,6.51,1.23,0.22,0.25,22.00,17.06,44.88,0.64,0.32,1.18,0.83,0.25,0.28,0.41
2.11,52.06,15.00,43.81,3.67,7.65,5.81,1.35,0.05,0.14,22.00,17.06,44.88,0.66,1.51,1.30,0.83,0.26,0.29,0.40
2.12,52.00,14.87,45.38,2.58,8.02,5.35,1.39,0.08,0.13,22.75,20.50,43.56,0.46,0.73,1.55,0.82,0.28,0.29,0.40
2.13,51.63,14.75,47.00,1.96,7.09,6.56,1.54,0.20,0.02,22.75,20.50,43.56,0.39,0.31,0.12,0.82,0.29,0.30,0.40
2.14,51.56,14.44,48.94,2.55,6.96,7.36,1.76,0.12,0.29,22.75,20.50,43.56,0.10,0.19,1.12,0.81,0.30,0.30,0.39
2.15,51.69,14.13,50.94,1.81,6.79,7.70,1.78,0.01,0.36,23.06,23.38,41.06,0.71,0.53,2.13,0.81,0.32,0.31,0.39
2.16,51.63,13.88,52.88,2.70,7.39,8.08,1.65,0.10,0.23,23.06,23.38,41.06,1.09,0.10,1.93,0.80,0.33,0.31,0.39
2.17,51.50,13.62,54.50,3.59,8.21,6.63,1.44,0.08,0.13,22.37,27.19,39.19,1.27,0.45,1.10,0.80,0.34,0.31,0.38
2.18,51.19,13.69,56.13,3.34,9.04,5.06,1.54,0.02,0.07,22.37,27.19,39.19,0.45,0.02,0.28,0.79,0.36,0.32,0.38
2.20,50.06,14.31,59.31,2.58,7.00,4.85,1.41,0.12,0.33,21.56,30.50,37.19,0.16,1.16,0.00,0.78,0.38,0.33,0.37
2.21,49.63,14.69,61.00,2.23,9.09,5.81,1.54,0.36,0.25,21.56,30.50,37.19,0.06,0.38,0.00,0.78,0.39,0.34,0.36
2.22,49.19,15.13,62.75,1.91,8.55,4.02,1.51,0.23,0.35,22.06,32.00,35.50,0.65,0.14,0.30,0.77,0.40,0.35,0.35
2.23,48.56,15.56,64.31,2.74,8.40,3.81,1.45,0.05,0.37,22.06,32.00,35.50,0.11,0.10,0.27,0.77,0.40,0.36,0.35
2.24,47.75,15.94,66.00,1.85,9.88,4.41,1.56,0.06,0.39,22.06,32.00,35.50,0.83,1.26,0.58,0.76,0.41,0.36,0.34
2.25,47.06,16.25,67.81,2.81,9.86,4.21,1.71,0.09,0.32,24.00,34.88,31.87,0.06,1.15,0.66,0.76,0.43,0.37,0.33
2.26,46.19,16.69,69.62,2.66,8.56,3.47,1.70,0.03,0.45,24.00,34.88,31.87,0.15,0.24,0.21,0.75,0.44,0.38,0.32
2.27,45.19,17.12,71.44,3.75,9.92,3.34,1.73,0.10,0.45,25.37,36.19,30.25,0.85,1.04,0.37,0.75,0.45,0.38,0.31
2.28,44.63,17.37,72.37,3.07,11.57,4.47,1.77,0.13,0.62,25.37,36.19,30.25,0.09,2.62,1.79,0.74,0.46,0.39,0.30
2.29,43.31,18.06,74.19,3.47,9.48,3.56,1.65,0.03,0.70,25.37,36.19,30.25,0.36,0.49,1.17,0.73,0.47,0.40,0.29
2.30,42.06,18.81,75.94,3.07,8.65,2.90,1.56,0.04,0.62,26.56,39.06,27.37,0.12,0.02,0.37,0.73,0.47,0.40,0.28
2.31,41.06,19.50,77.69,2.91,10.59,2.91,1.69,0.11,0.66,26.56,39.06,27.37,0.42,1.55,1.10,0.73,0.48,0.41,0.27
2.32,39.81,20.31,79.56,3.13,10.53,3.01,1.72,0.19,0.79,26.19,39.69,24.56,0.35,0.20,0.41,0.72,0.49,0.42,0.26
2.33,38.56,21.25,81.25,3.30,7.47,1.21,1.45,0.18,0.47,26.19,39.69,24.56,0.00,2.44,0.22,0.71,0.50,0.43,0.25
2.34,37.81,21.69,82.94,3.79,7.23,0.81,1.48,0.13,0.16,26.19,39.69,24.56,0.01,0.83,0.73,0.71,0.50,0.43,0.24
2.35,37.25,21.87,84.62,4.04,9.55,1.45,1.41,0.25,0.19,27.69,39.69,20.88,0.20,1.25,0.59,0.70,0.51,0.44,0.24
2.36,36.63,22.50,86.25,3.18,10.82,0.81,1.29,0.44,0.70,27.69,39.69,20.88,0.51,1.60,0.18,0.69,0.52,0.45,0.23
2.37,35.69,23.25,87.81,4.22,7.84,0.02,1.19,0.31,0.71,27.69,39.69,20.88,0.42,1.73,0.95,0.68,0.52,0.46,0.22
2.38,34.88,23.94,89.19,3.67,7.75,1.09,1.09,0.32,0.56,29.00,41.06,17.06,0.74,0.15,0.36,0.68,0.53,0.46,0.21
2.39,33.81,24.81,90.75,3.41,11.40,0.63,1.23,0.22,1.15,29.00,41.06,17.06,0.44,1.74,0.56,0.67,0.53,0.47,0.20
2.40,32.19,26.06,92.19,4.32,8.31,0.18,1.10,0.21,1.14,31.06,41.19,15.88,0.05,2.42,0.16,0.67,0.53,0.48,0.19
2.41,30.88,27.06,93.50,4.46,6.46,1.22,1.26,0.26,0.65,31.06,41.19,15.88,0.40,0.48,0.73,0.66,0.53,0.49,0.18
2.42,29.87,27.69,95.19,3.87,11.27,0.67,1.45,0.36,0.50,31.06,41.19,15.88,1.21,3.72,0.50,0.66,0.54,0.50,0.17
2.43,28.62,28.44,97.00,2.99,11.83,2.04,1.31,0.25,0.89,33.06,41.00,11.38,0.67,1.28,1.54,0.65,0.54,0.51,0.17
2.44,27.00,29.50,98.44,5.66,5.08,1.42,1.16,0.13,0.74,33.06,41.00,11.38,0.50,3.90,0.90,0.64,0.55,0.52,0.15
2.45,25.69,30.19,99.94,3.79,5.72,1.01,1.27,0.27,0.56,34.38,39.19,9.75,1.07,0.75,0.53,0.64,0.55,0.52,0.15
2.46,24.69,30.56,101.75,3.79,9.38,1.60,1.37,0.37,0.45,34.38,39.19,9.75,1.13,1.07,0.02,0.63,0.56,0.53,0.14
2.47,23.38,31.31,103.50,3.31,8.65,1.96,1.26,0.34,0.83,34.38,39.19,9.75,1.78,0.51,0.00,0.62,0.56,0.54,0.13
2.49,21.19,32.25,106.63,5.02,5.37,1.99,1.16,0.26,0.05,38.25,38.75,6.87,1.02,2.31,0.01,0.61,0.57,0.55,0.11
2.50,20.56,32.19,108.06,4.40,8.26,0.14,1.17,0.31,0.08,37.88,38.06,4.00,0.82,0.37,2.43,0.60,0.57,0.55,0.11
2.51,20.06,32.13,109.87,3.86,10.61,1.65,1.27,0.49,0.21,37.88,38.06,4.00,1.99,2.85,0.60,0.59,0.58,0.56,0.10
2.52,18.75,32.69,111.56,4.83,7.92,2.85,1.12,0.37,0.86,37.88,38.06,4.00,0.47,0.25,0.18,0.58,0.58,0.56,0.10
2.53,17.31,33.44,113.12,5.88,4.51,2.29,1.02,0.32,0.73,40.06,37.69,1.19,0.47,3.00,0.92,0.57,0.58,0.57,0.09
2.54,16.44,33.69,114.88,4.71,9.28,1.93,1.17,0.57,0.42,40.06,37.69,1.19,0.07,1.92,0.89,0.56,0.59,0.58,0.08
2.55,15.69,33.69,116.69,5.98,8.61,3.62,1.09,0.57,0.39,41.19,36.56,1.69,0.53,1.33,0.04,0.55,0.59,0.58,0.08
2.56,14.75,34.25,118.25,4.65,5.29,4.15,0.74,0.62,0.90,41.19,36.56,1.69,1.17,1.78,0.15,0.55,0.59,0.59,0.07
2.57,13.81,34.69,119.75,3.10,6.10,4.22,0.81,0.44,0.69,41.19,36.56,1.69,2.47,0.89,0.22,0.54,0.59,0.60,0.07
2.58,12.69,34.94,121.00,2.32,7.57,2.50,0.86,0.21,0.26,40.69,35.88,3.56,3.29,0.68,1.63,0.53,0.59,0.60,0.06
2.59,11.88,35.19,122.06,4.70,4.07,4.17,0.52,0.30,0.64,40.69,35.88,3.56,0.62,3.43,0.12,0.53,0.59,0.61,0.06
2.60,11.31,35.38,122.94,4.54,3.97,3.77,0.47,0.28,0.22,41.37,33.56,6.87,1.13,2.72,0.57,0.52,0.59,0.61,0.05
2.61,11.19,35.19,123.69,4.74,5.80,3.56,0.45,0.37,0.04,41.37,33.56,6.87,0.85,1.03,1.32,0.52,0.59,0.61,0.05
2.62,11.19,35.19,124.31,4.08,5.51,3.89,0.19,0.37,0.32,41.37,33.56,6.87,1.56,1.10,0.62,0.52,0.59,0.62,0.05
2.63,11.25,35.19,124.81,5.44,4.97,3.82,0.09,0.39,0.18,42.69,33.19,7.75,0.21,1.59,0.75,0.51,0.59,0.62,0.05
2.64,11.75,35.00,125.06,4.64,6.29,4.39,0.06,0.33,0.01,42.69,33.19,7.75,0.39,0.37,0.31,0.51,0.59,0.62,0.05
2.65,12.19,34.88,124.94,5.00,5.32,4.75,0.19,0.06,0.03,43.69,32.06,9.25,0.60,1.26,0.14,0.51,0.59,0.62,0.05
2.67,12.69,35.50,124.06,5.10,5.41,3.24,0.58,0.15,0.07,43.69,32.06,9.25,0.59,1.19,1.22,0.52,0.58,0.63,0.06
2.68,14.13,35.00,123.75,6.62,7.15,2.73,0.38,0.53,0.34,44.38,32.50,9.38,0.99,0.48,1.73,0.52,0.58,0.63,0.06
2.69,15.56,34.44,123.44,6.24,6.57,4.42,0.45,0.36,0.20,44.38,32.50,9.38,0.68,0.16,0.03,0.52,0.58,0.63,0.07
2.70,16.25,34.38,122.87,5.73,7.79,5.46,0.53,0.00,0.03,43.69,33.25,8.50,0.19,1.00,1.06,0.52,0.58,0.63,0.07
2.71,16.37,34.50,122.69,6.38,9.04,2.56,0.35,0.00,0.43,43.69,33.25,8.50,0.79,2.25,1.78,0.52,0.57,0.63,0.08
2.72,16.31,34.88,122.50,5.26,8.51,3.17,0.24,0.06,0.42,43.69,33.25,8.50,0.37,1.75,1.13,0.52,0.57,0.63,0.07
2.73,16.12,35.25,122.44,5.76,7.64,4.14,0.23,0.19,0.63,42.75,33.25,7.69,0.98,0.10,1.15,0.52,0.57,0.63,0.07
2.74,15.25,36.13,122.37,5.83,4.91,3.84,0.21,0.32,0.58,42.75,33.25,7.69,0.00,1.75,0.36,0.53,0.56,0.63,0.07
2.75,14.63,36.69,122.06,5.04,4.40,2.71,0.28,0.31,0.31,42.75,33.25,7.69,0.93,1.84,1.84,0.53,0.56,0.63,0.07
2.76,14.87,36.88,121.50,6.33,6.18,2.03,0.47,0.08,0.01,43.06,32.56,7.69,0.58,0.35,1.97,0.53,0.55,0.63,0.07
2.77,15.44,36.69,121.25,6.58,7.03,3.00,0.10,0.08,0.03,43.06,32.56,7.69,0.45,0.82,0.29,0.54,0.55,0.63,0.07
2.78,15.50,36.69,121.13,6.67,5.21,2.76,0.10,0.07,0.08,43.50,31.75,6.50,1.66,2.86,2.05,0.54,0.55,0.63,0.07
2.79,15.69,36.75,121.00,5.65,7.35,3.42,0.19,0.12,0.04,43.50,31.75,6.50,0.62,1.86,1.27,0.54,0.55,0.63,0.07
2.80,15.81,36.81,121.06,6.74,9.40,3.67,0.08,0.11,0.30,43.50,31.75,6.50,0.86,2.68,0.37,0.54,0.55,0.64,0.07
2.81,15.06,37.63,121.19,5.47,6.85,3.83,0.19,0.14,0.94,43.06,32.19,5.69,0.92,0.72,0.57,0.54,0.54,0.64,0.07
2.83,12.56,39.69,121.13,5.48,8.12,2.67,0.10,0.40,0.60,43.06,30.69,6.50,0.97,0.84,1.48,0.55,0.53,0.64,0.06
2.84,11.88,39.88,121.44,5.90,5.56,3.25,0.35,0.12,0.20,43.06,30.69,6.50,0.42,2.14,0.05,0.54,0.53,0.64,0.06
2.85,11.63,39.75,121.56,5.74,4.60,4.11,0.28,0.07,0.24,43.06,30.69,6.50,0.52,1.81,0.16,0.54,0.54,0.64,0.06
2.86,11.69,39.56,121.69,6.41,5.50,3.50,0.13,0.04,0.17,46.06,29.87,6.06,0.00,1.17,0.40,0.54,0.54,0.64,0.06
2.87,11.50,39.56,121.94,5.72,7.29,3.40,0.30,0.07,0.05,46.06,29.87,6.06,0.66,0.46,0.33,0.54,0.54,0.64,0.05
2.88,11.06,39.63,122.31,5.71,4.60,3.62,0.31,0.03,0.06,45.69,30.69,4.87,0.21,1.49,1.46,0.54,0.54,0.64,0.05
2.89,10.88,39.50,122.50,6.58,5.82,3.19,0.23,0.01,0.18,45.69,30.69,4.87,1.38,0.54,1.02,0.54,0.54,0.64,0.05
2.91,10.44,39.63,122.94,6.98,5.44,3.30,0.14,0.12,0.21,44.50,30.00,6.00,0.25,0.70,1.02,0.54,0.54,0.64,0.05
2.92,9.69,40.06,123.06,5.84,8.32,3.25,0.11,0.19,0.38,44.50,30.00,6.00,0.79,2.36,0.76,0.54,0.54,0.64,0.05
2.93,8.63,40.69,123.38,7.52,6.18,2.88,0.21,0.20,0.59,45.25,29.56,6.50,1.12,0.02,1.20,0.54,0.54,0.65,0.04
2.94,7.31,41.31,123.69,7.22,5.13,3.79,0.32,0.45,0.34,45.25,29.56,6.50,0.40,0.63,0.68,0.54,0.54,0.65,0.03
2.95,6.12,41.75,123.81,8.56,7.19,1.55,0.41,0.37,0.09,45.25,29.56,6.50,2.03,1.11,2.51,0.54,0.54,0.65,0.03
2.96,5.19,42.06,123.94,7.28,7.74,3.21,0.26,0.35,0.14,46.00,28.50,6.87,0.70,1.70,0.84,0.54,0.54,0.65,0.02
2.97,3.94,42.62,124.12,5.98,6.19,3.02,0.40,0.44,0.33,46.00,28.50,6.87,0.16,0.35,1.90,0.54,0.54,0.64,0.02
2.98,2.44,43.25,124.44,6.01,6.01,1.86,0.43,0.48,0.35,46.37,28.06,6.50,0.70,0.13,2.17,0.54,0.54,0.64,0.01
2.99,1.25,43.75,124.69,7.41,4.78,2.49,0.36,0.32,0.26,46.37,28.06,6.50,0.05,1.24,1.77,0.54,0.54,0.64,0.01
3.00,0.37,44.00,124.75,6.53,4.30,1.86,0.29,0.32,0.02,46.37,28.06,6.50,0.27,1.48,2.16,0.54,0.54,0.64,0.00
3.01,359.81,44.13,124.81,7.22,5.17,3.01,0.23,0.26,0.05,46.37,27.69,4.37,0.39,0.59,1.00,0.54,0.54,0.64,0.00
3.02,359.31,44.25,124.81,7.47,7.25,2.82,0.21,0.18,0.02,46.37,27.69,4.37,0.49,0.77,1.30,0.54,0.54,0.64,0.00
3.03,358.75,44.56,124.94,7.38,5.45,2.49,0.14,0.19,0.22,47.06,27.25,4.37,0.50,0.26,1.51,0.54,0.54,0.64,0.01
3.04,358.13,44.88,125.06,7.43,4.54,2.88,0.12,0.17,0.18,47.06,27.25,4.37,0.51,1.13,1.10,0.54,0.54,0.64,0.01
3.05,357.69,45.12,125.19,7.04,5.60,2.71,0.03,0.10,0.26,47.06,27.25,4.37,0.09,0.04,1.27,0.54,0.54,0.64,0.01
3.06,357.25,45.50,125.31,6.81,4.75,2.18,0.06,0.06,0.38,46.50,27.56,4.87,0.18,0.85,1.78,0.55,0.54,0.64,0.01
3.07,356.94,45.81,125.38,6.93,5.25,2.13,0.05,0.09,0.26,46.50,27.56,4.87,0.10,0.31,1.81,0.55,0.54,0.64,0.01
3.08,356.69,46.00,125.44,6.96,6.71,2.86,0.03,0.00,0.22,47.88,26.50,4.87,0.09,1.17,1.09,0.55,0.54,0.64,0.02
3.09,356.19,46.31,125.87,7.14,5.63,2.89,0.11,0.07,0.40,47.88,26.50,4.87,0.05,0.15,1.07,0.55,0.53,0.65,0.02
3.10,355.81,46.56,126.31,7.34,5.16,2.37,0.08,0.12,0.30,47.88,26.50,4.87,0.22,0.26,1.61,0.54,0.53,0.65,0.02
3.11,355.56,46.69,126.69,7.31,6.34,2.61,0.08,0.13,0.25,47.50,25.75,4.37,0.17,0.96,1.40,0.54,0.53,0.65,0.02
3.12,354.94,47.19,127.06,7.52,6.52,2.40,0.02,0.06,0.68,47.50,25.75,4.37,0.32,1.21,1.61,0.54,0.53,0.65,0.02
3.13,354.50,47.56,127.31,7.11,5.39,2.15,0.07,0.08,0.75,48.56,25.75,4.37,0.16,0.18,1.84,0.54,0.52,0.66,0.03
3.14,353.69,48.25,127.69,7.61,3.99,0.94,0.00,0.05,0.47,48.56,25.75,4.37,0.27,1.13,3.04,0.54,0.52,0.66,0.03
3.15,353.25,48.63,127.94,6.83,4.19,1.63,0.08,0.05,0.09,48.56,25.75,4.37,0.53,0.90,2.35,0.54,0.52,0.66,0.03
3.16,353.06,48.56,128.19,6.39,3.89,1.77,0.24,0.19,0.14,49.75,24.00,6.50,0.52,1.72,3.08,0.54,0.52,0.66,0.03
3.17,353.25,48.19,128.50,9.63,1.93,0.33,0.19,0.39,0.55,49.75,24.00,6.50,1.22,3.68,3.30,0.54,0.52,0.66,0.03
3.18,354.06,47.44,128.50,7.16,1.58,1.42,0.15,0.23,0.77,48.50,24.00,6.00,1.29,2.84,2.78,0.54,0.53,0.66,0.03
3.19,152.12,46.56,128.12,5.82,5.51,1.67,0.30,0.09,0.66,48.50,24.00,6.00,0.84,0.30,1.98,0.13,0.54,0.65,0.52
3.20,152.44,46.00,128.06,6.51,4.65,2.59,0.23,0.01,0.36,48.50,24.00,6.00,0.52,0.71,1.61,0.13,0.53,0.66,0.52
3.21,152.56,45.69,128.00,6.07,2.19,1.91,0.18,0.07,0.40,48.06,24.69,6.50,1.42,4.21,2.60,0.13,0.53,0.66,0.52
3.22,153.06,45.19,127.50,5.53,0.54,1.49,0.08,0.10,1.02,48.06,24.69,6.50,1.15,5.25,3.21,0.12,0.52,0.66,0.52
3.23,154.44,44.19,126.62,6.38,2.58,1.97,0.15,0.09,1.19,48.06,24.69,6.50,0.09,1.67,0.80,0.12,0.52,0.67,0.52
3.24,156.44,42.94,125.75,6.57,4.91,4.16,0.18,0.10,1.32,47.69,25.50,7.69,0.42,0.54,0.14,0.11,0.51,0.67,0.52
3.25,158.06,41.88,124.50,5.09,5.18,3.73,0.48,0.47,1.25,47.69,25.50,7.69,1.72,1.35,0.59,0.10,0.50,0.68,0.53
3.26,159.50,41.13,122.75,4.69,4.34,3.45,0.68,0.65,1.20,46.19,28.50,5.69,1.49,2.05,0.78,0.10,0.49,0.68,0.54
3.27,160.63,40.69,120.44,4.96,4.74,2.20,1.01,0.92,0.89,46.19,28.50,5.69,1.40,0.01,2.43,0.09,0.48,0.68,0.55
3.28,161.56,40.56,118.31,4.95,6.72,1.08,1.08,0.86,0.50,46.19,28.50,5.69,1.42,0.17,2.44,0.09,0.47,0.68,0.56
3.29,162.31,40.69,115.81,4.47,5.65,0.45,1.46,1.05,0.44,43.19,30.69,4.37,2.54,2.93,1.61,0.09,0.47,0.67,0.57
3.30,163.44,40.56,112.37,3.82,3.14,1.52,1.93,1.53,0.82,43.19,30.69,4.37,2.12,3.89,1.39,0.09,0.46,0.66,0.59
3.31,164.69,40.31,108.63,4.59,3.42,0.84,1.93,1.42,0.84,44.56,31.56,0.37,2.11,2.48,1.33,0.08,0.44,0.65,0.61
3.32,166.25,39.75,105.00,4.01,5.06,0.62,2.20,1.34,1.10,44.56,31.56,0.37,2.36,1.94,1.24,0.08,0.43,0.64,0.63
3.33,168.06,38.88,101.00,3.58,5.61,0.47,2.36,1.45,1.19,44.56,31.56,0.37,2.57,1.87,0.98,0.07,0.42,0.63,0.65
3.34,169.81,37.81,96.69,4.01,6.05,0.04,2.55,1.63,1.19,42.69,33.38,5.75,1.49,1.50,0.78,0.06,0.40,0.62,0.67
3.35,171.37,36.75,92.37,4.60,6.68,1.03,2.59,1.52,1.04,42.69,33.38,5.75,0.85,1.19,1.89,0.05,0.39,0.61,0.69
3.36,173.13,35.50,88.19,4.41,7.07,1.98,2.79,1.47,1.19,39.25,34.88,11.06,1.28,0.90,1.74,0.04,0.37,0.59,0.71
3.37,175.12,33.69,83.56,3.98,6.26,1.42,3.21,1.79,1.58,39.25,34.88,11.06,0.96,1.86,0.51,0.03,0.35,0.57,0.74
3.38,177.19,31.69,78.50,4.80,7.78,3.62,3.60,1.87,1.50,39.25,34.88,11.06,0.34,0.39,1.96,0.02,0.33,0.55,0.76
3.39,179.38,29.81,73.69,4.60,9.71,4.61,3.73,1.22,1.40,35.75,35.69,19.25,0.27,1.54,2.22,0.00,0.31,0.53,0.79
3.40,181.56,27.87,68.81,2.18,8.78,4.42,4.03,1.58,1.32,35.75,35.69,19.25,2.43,0.93,1.69,0.01,0.29,0.50,0.81
3.41,183.00,25.88,63.38,2.62,9.25,5.84,4.19,2.07,1.06,31.69,33.75,25.75,1.65,1.36,1.89,0.02,0.27,0.47,0.84
3.42,184.31,23.62,58.31,3.77,9.91,7.56,4.01,2.04,1.16,31.69,33.75,25.75,0.16,2.27,2.85,0.03,0.25,0.44,0.86
3.43,185.94,21.50,54.00,2.47,10.20,8.14,3.71,1.46,1.26,31.69,33.75,25.75,1.12,2.82,2.78,0.05,0.23,0.42,0.88
3.45,187.75,17.87,45.00,3.08,8.80,8.32,3.46,1.81,0.57,25.50,30.25,36.06,0.06,2.19,1.72,0.06,0.19,0.36,0.91
3.46,188.50,16.06,41.25,1.93,9.00,8.78,3.18,1.54,0.69,20.37,24.25,41.69,0.78,2.79,1.70,0.07,0.17,0.33,0.93
3.47,188.81,15.13,39.44,2.49,8.53,7.85,3.21,1.56,0.60,20.37,24.25,41.69,0.07,2.74,0.32,0.08,0.16,0.30,0.94
3.48,189.31,13.38,35.75,2.45,8.24,9.53,2.86,1.60,0.66,20.37,24.25,41.69,0.34,2.86,1.61,0.08,0.14,0.28,0.95
3.49,189.62,11.50,32.63,2.03,8.56,9.65,2.66,1.46,0.74,14.56,17.19,46.06,0.12,3.84,1.09,0.08,0.13,0.27,0.95
3.50,190.31,9.81,29.75,1.61,8.45,8.14,2.45,1.08,0.58,14.56,17.19,46.06,0.05,3.84,0.36,0.09,0.11,0.25,0.96
3.51,190.81,8.50,27.00,1.74,8.22,7.77,2.47,1.07,0.41,14.56,17.19,46.06,0.10,3.73,1.31,0.09,0.10,0.22,0.97
3.52,190.75,7.19,24.31,1.46,7.87,10.65,2.37,1.23,0.19,12.25,11.56,49.88,0.33,4.20,1.82,0.09,0.08,0.20,0.97
3.53,190.94,5.94,21.94,1.31,8.50,10.65,1.89,0.97,0.14,12.25,11.56,49.88,0.07,5.23,0.62,0.09,0.07,0.18,0.98
3.54,190.88,5.00,20.00,0.71,8.46,8.97,1.57,0.94,0.17,7.75,5.87,49.88,0.35,4.94,0.14,0.09,0.06,0.17,0.98
3.55,190.50,4.06,18.31,0.56,7.81,9.93,1.24,0.94,0.33,7.75,5.87,49.88,0.16,3.05,0.84,0.09,0.05,0.16,0.98
3.56,189.87,3.25,16.94,0.95,5.33,10.08,1.20,0.86,0.59,7.75,5.87,49.88,0.38,2.48,0.71,0.09,0.04,0.14,0.98
3.57,188.69,2.44,15.50,1.29,4.65,10.36,1.20,1.06,0.98,5.75,1.37,52.38,0.46,1.94,0.18,0.08,0.03,0.13,0.99
3.58,187.50,1.50,14.25,0.85,4.52,9.63,0.97,1.39,0.97,5.75,1.37,52.38,0.58,2.33,0.27,0.06,0.02,0.12,0.99
3.59,185.94,0.19,13.31,0.82,4.61,9.75,0.70,1.39,0.78,2.87,2.25,51.00,1.15,2.61,0.11,0.05,0.01,0.12,0.99
3.60,184.87,1.00,12.56,0.75,6.03,9.95,0.59,1.42,1.26,2.87,2.25,51.00,0.09,4.13,0.11,0.04,0.00,0.11,0.99
3.61,183.06,2.19,12.00,0.68,5.84,9.13,0.62,1.39,1.60,0.56,3.87,50.69,0.29,3.12,0.27,0.03,0.02,0.11,0.99
3.62,180.25,3.12,11.50,0.16,2.09,10.18,0.55,1.27,2.08,0.56,3.87,50.69,0.44,1.11,0.93,0.00,0.03,0.10,0.99
3.63,177.62,3.94,11.19,0.26,0.11,11.12,0.34,1.19,2.15,0.56,3.87,50.69,0.09,2.13,1.81,0.02,0.04,0.10,0.99
3.64,174.75,4.75,11.00,1.32,0.89,11.93,0.36,1.19,2.01,4.37,6.19,50.69,0.38,3.07,2.73,0.05,0.05,0.09,0.99
3.65,172.62,5.69,10.75,1.11,1.55,12.21,0.47,1.18,1.72,4.37,6.19,50.69,0.01,3.44,2.52,0.06,0.06,0.09,0.99
3.66,170.94,6.62,10.25,0.82,1.54,11.88,0.62,1.09,1.22,4.37,6.19,50.69,0.61,2.93,2.05,0.08,0.07,0.08,0.99
3.67,169.81,7.50,9.69,0.24,0.72,11.24,0.63,0.84,0.66,6.75,5.75,51.06,1.07,1.72,1.27,0.09,0.07,0.08,0.99
3.68,169.31,8.13,9.06,0.42,0.54,10.42,0.61,0.64,0.25,6.75,5.75,51.06,0.53,0.05,0.35,0.09,0.08,0.07,0.99
3.69,168.94,8.81,8.44,0.83,1.58,9.85,0.59,0.58,0.05,10.19,7.69,50.56,0.66,0.15,0.26,0.10,0.08,0.07,0.99
3.70,168.69,9.31,7.81,0.58,1.81,9.53,0.63,0.48,0.21,10.19,7.69,50.56,0.89,1.05,0.33,0.10,0.09,0.06,0.99
3.71,168.19,9.88,7.12,1.02,2.42,9.06,0.71,0.55,0.39,10.19,7.69,50.56,0.65,1.22,0.51,0.10,0.09,0.05,0.99
3.72,167.25,10.44,6.37,1.34,1.89,8.95,0.75,0.56,0.51,12.75,8.75,49.50,0.43,0.81,0.62,0.11,0.10,0.04,0.99
3.73,166.56,10.94,5.62,1.48,1.25,9.14,0.79,0.53,0.51,12.75,8.75,49.50,0.38,0.30,0.43,0.12,0.10,0.04,0.99
3.74,165.75,11.44,4.75,1.74,1.03,9.31,0.90,0.48,0.44,13.50,10.69,49.06,0.20,0.22,0.26,0.12,0.10,0.03,0.99
3.75,165.19,11.88,3.75,2.56,1.59,9.04,1.04,0.45,0.43,13.50,10.69,49.06,0.54,0.95,0.52,0.13,0.11,0.02,0.99
3.76,164.44,12.50,2.62,3.13,1.19,8.84,1.19,0.60,0.52,13.50,10.69,49.06,1.00,0.74,0.71,0.13,0.11,0.01,0.98
3.77,163.87,12.81,2.00,2.81,0.30,9.05,1.35,0.64,0.57,15.00,11.38,48.25,0.57,0.07,0.48,0.14,0.12,0.01,0.98
3.78,163.06,13.50,0.62,2.78,0.12,9.25,1.50,0.58,0.61,15.00,11.38,48.25,0.43,0.13,0.26,0.15,0.12,0.01,0.98
3.79,162.19,14.13,0.88,3.03,0.04,9.42,1.53,0.52,0.54,16.50,13.69,47.88,0.58,0.03,0.32,0.15,0.12,0.03,0.98
3.81,160.75,15.06,4.19,2.95,0.74,9.17,1.68,0.45,0.37,16.50,13.69,47.88,0.35,0.09,0.24,0.17,0.12,0.06,0.98
3.82,160.12,15.63,5.94,3.02,0.58,9.18,1.71,0.45,0.36,17.25,17.06,46.06,0.30,0.61,0.14,0.17,0.13,0.07,0.97
3.84,158.87,16.75,9.50,3.59,2.16,8.94,1.71,0.51,0.26,18.50,20.25,42.88,0.79,1.04,0.27,0.18,0.13,0.11,0.97
3.85,158.37,17.31,11.44,3.72,3.06,8.90,1.89,0.54,0.05,18.50,20.25,42.88,0.79,1.24,0.15,0.18,0.13,0.12,0.97
3.86,158.12,17.87,13.56,3.66,3.20,9.33,1.90,0.45,0.31,18.50,20.25,42.88,0.60,0.83,0.32,0.19,0.13,0.14,0.96
3.87,158.25,18.19,15.88,3.45,3.04,9.39,1.81,0.23,0.66,20.69,24.06,41.25,0.29,0.12,0.60,0.18,0.13,0.16,0.96
3.88,158.75,18.19,18.12,3.16,2.75,9.62,1.72,0.02,0.81,20.69,24.06,41.25,0.01,0.35,0.71,0.18,0.13,0.18,0.96
3.89,159.37,17.87,20.25,3.00,2.66,9.39,1.66,0.06,0.86,20.69,24.06,41.25,0.00,0.56,0.64,0.17,0.12,0.20,0.96
3.90,160.12,17.37,22.31,2.32,2.62,9.50,1.53,0.08,0.98,21.37,28.19,38.38,0.63,1.04,0.81,0.17,0.12,0.21,0.96
3.91,160.88,16.87,24.25,2.34,2.60,9.32,1.51,0.01,0.92,21.37,28.19,38.38,0.40,1.38,0.61,0.16,0.11,0.23,0.95
3.92,161.69,16.50,26.19,2.53,2.71,8.81,1.54,0.04,0.83,19.06,32.38,37.19,0.11,1.12,0.14,0.15,0.11,0.24,0.95
3.93,162.12,16.37,28.19,2.58,3.41,8.20,1.63,0.19,0.49,19.06,32.38,37.19,0.29,0.83,0.08,0.15,0.11,0.26,0.95
3.94,162.19,16.50,30.06,2.34,4.04,8.34,1.61,0.31,0.17,19.06,32.38,37.19,0.44,0.67,0.20,0.15,0.11,0.27,0.94
3.95,162.12,16.75,31.81,2.09,4.81,8.68,1.46,0.31,0.09,18.00,35.56,33.56,0.71,0.06,0.75,0.15,0.11,0.29,0.94
3.97,162.12,17.00,34.88,2.07,5.96,8.22,1.18,0.20,0.19,17.56,37.88,32.00,1.02,0.64,0.45,0.15,0.11,0.31,0.93
3.98,162.37,16.94,36.19,1.71,5.88,7.86,1.06,0.11,0.42,17.56,37.88,32.00,1.22,0.03,0.44,0.14,0.11,0.32,0.93
3.99,162.69,16.69,37.44,1.89,5.48,7.65,1.00,0.06,0.47,17.56,37.88,32.00,0.92,0.22,0.20,0.14,0.10,0.33,0.93
4.00,163.00,16.44,38.69,2.12,5.58,7.49,1.00,0.04,0.31,17.69,40.06,28.69,0.42,0.25,0.07,0.14,0.10,0.34,0.92
4.01,162.94,16.44,39.81,2.50,6.10,7.17,0.99,0.12,0.09,17.69,40.06,28.69,0.35,0.24,0.01,0.14,0.10,0.35,0.92
4.02,162.75,16.62,40.88,2.40,6.55,7.10,1.00,0.15,0.20,16.56,42.25,26.69,0.39,0.57,0.05,0.14,0.10,0.36,0.92
4.03,162.31,16.94,41.94,2.67,7.03,6.75,0.94,0.13,0.29,16.56,42.25,26.69,0.12,0.84,0.21,0.14,0.10,0.37,0.91
4.04,161.94,17.19,42.81,2.78,7.29,6.65,0.78,0.08,0.17,16.56,42.25,26.69,0.11,0.92,0.21,0.14,0.10,0.37,0.91
4.05,161.81,17.25,43.56,2.69,7.13,6.68,0.62,0.07,0.07,18.06,43.38,25.37,0.21,0.68,0.10,0.14,0.10,0.38,0.91
4.06,162.00,17.12,44.19,2.63,6.92,6.52,0.50,0.06,0.26,18.06,43.38,25.37,0.18,0.25,0.25,0.14,0.10,0.38,0.91
4.07,162.31,16.81,44.81,2.56,6.61,6.16,0.42,0.02,0.38,18.50,44.50,24.19,0.28,0.00,0.49,0.14,0.10,0.39,0.91
4.08,162.62,16.62,45.31,2.43,6.55,6.06,0.39,0.02,0.26,18.50,44.50,24.19,0.33,0.18,0.37,0.14,0.10,0.39,0.90
4.09,162.69,16.56,45.75,2.51,6.53,6.36,0.36,0.08,0.08,18.50,44.50,24.19,0.28,0.20,0.18,0.14,0.10,0.40,0.90
4.10,162.69,16.62,46.13,2.64,7.29,6.46,0.30,0.10,0.04,17.50,44.75,21.75,0.17,0.52,0.03,0.14,0.10,0.40,0.90
4.11,162.56,16.81,46.44,2.37,7.68,6.45,0.27,0.09,0.06,17.50,44.75,21.75,0.45,0.88,0.00,0.14,0.10,0.40,0.90
4.12,162.44,16.81,46.75,2.40,7.55,6.20,0.23,0.05,0.04,18.19,45.19,22.19,0.44,0.71,0.22,0.14,0.10,0.40,0.90
4.13,162.56,16.75,47.00,2.42,7.40,6.10,0.20,0.02,0.17,18.19,45.19,22.19,0.40,0.53,0.29,0.14,0.10,0.40,0.90
4.14,162.75,16.56,47.25,2.68,6.95,5.97,0.20,0.00,0.21,18.19,45.19,22.19,0.11,0.04,0.40,0.14,0.10,0.41,0.90
4.15,162.88,16.44,47.50,2.72,6.83,6.19,0.21,0.02,0.13,17.50,44.75,23.00,0.05,0.10,0.15,0.13,0.10,0.41,0.90
4.16,162.94,16.44,47.69,2.58,7.05,6.33,0.20,0.06,0.01,17.50,44.75,23.00,0.19,0.09,0.01,0.13,0.10,0.41,0.90
4.17,162.94,16.50,47.88,2.57,7.26,6.40,0.16,0.06,0.02,16.25,45.50,21.37,0.21,0.27,0.11,0.13,0.10,0.41,0.90
4.18,162.94,16.50,48.06,2.40,7.48,6.35,0.12,0.05,0.02,16.25,45.50,21.37,0.38,0.48,0.08,0.13,0.10,0.41,0.90
4.19,163.00,16.50,48.19,2.36,7.41,6.36,0.09,0.02,0.11,16.25,45.50,21.37,0.42,0.39,0.11,0.13,0.10,0.41,0.90
4.20,163.12,16.44,48.38,2.40,7.35,6.38,0.08,0.00,0.16,17.06,45.50,19.19,0.38,0.18,0.20,0.13,0.10,0.41,0.89
4.21,163.31,16.25,48.50,2.28,7.11,6.38,0.09,0.01,0.14,17.06,45.50,19.19,0.44,0.04,0.15,0.13,0.10,0.42,0.89
4.22,163.44,16.06,48.63,2.28,7.04,6.37,0.11,0.00,0.11,17.06,45.50,19.19,0.44,0.02,0.14,0.13,0.09,0.42,0.89
4.23,163.50,16.06,48.81,2.29,7.09,6.35,0.15,0.02,0.04,17.06,46.19,20.88,0.39,0.02,0.16,0.13,0.09,0.42,0.89
4.24,163.50,16.00,48.94,2.29,7.11,6.35,0.16,0.04,0.01,17.06,46.19,20.88,0.36,0.18,0.16,0.13,0.09,0.42,0.89
4.25,163.50,15.94,49.06,2.31,6.84,6.38,0.15,0.02,0.01,16.25,46.56,19.69,0.38,0.28,0.21,0.13,0.09,0.42,0.89
4.26,163.50,15.94,49.25,2.13,6.58,6.30,0.14,0.02,0.01,16.25,46.56,19.69,0.59,0.60,0.09,0.13,0.09,0.42,0.89
4.27,163.50,15.94,49.44,2.07,6.47,6.14,0.15,0.03,0.00,16.25,46.56,19.69,0.63,0.68,0.01,0.13,0.09,0.42,0.89
4.28,163.25,16.06,49.63,2.27,6.31,6.09,0.17,0.01,0.10,17.50,47.00,20.56,0.44,0.86,0.01,0.13,0.09,0.42,0.89
4.29,163.00,16.25,49.75,2.62,6.56,6.21,0.18,0.04,0.29,17.50,47.00,20.56,0.06,0.44,0.16,0.13,0.09,0.43,0.89
