0.01,-124.57032959390818,46.70625242623588,198.93734703760444,0.04003375623817218,0.1733743896691676,0.0327095265707413,1.6743971726096867,0.28784342628914517,0.16958682079695273,0.4799865260465191,0.7699958935449023,0.31996274023386234,0.2801359833908849,-115.2751999986317,34.51474830736909,209.1535579940539,0.09241148043453154,0.08618809388340937,0.029831363385992626,1.4316718175126986,0.6043727330102387,1.2683556672409266,0.5597885051714077,0.7402766239960104,0.35995300035528527,0.10975927011410663,-152.70252724996448,7.253351977680184,7.84066015768801,0.41041695585370735,0.05220483337158094,0.380812949523179,0.5199744522210598,1.8935021112132058,1.8788793126469523,-0.05014174440193456,0.07979970909794651,-0.969983375225458,0.2398323435764882,-127.95058237140825,18.192459338208053,8.776825055259597,0.22486979046110483,0.48223293463460365,0.2771161312092319,0.2157674940637209,0.15198470654240984,2.2289790199230897,-0.10999246564525669,0.1401941968919652,-0.8800580551618459,0.439993278032035
0.02,-123.88842659255522,47.06001216391421,198.51307095563567,0.06008773483954345,0.18630065893901512,0.040942540484923115,1.5498654179876223,0.29939510034488664,0.2735670471832744,0.4831703897761687,0.7669567797569268,0.31976909683626703,0.28169273134122985,-115.31790360680635,34.74952176036131,209.1872953885745,0.08618062427950164,0.13133770177831455,0.035316027869183794,1.4481837440825365,0.5662982735140177,1.296626686935626,0.5594961982729164,0.7397481860542572,0.3604768712961889,0.11231013578361106,-153.23016746733322,7.274168701081069,7.683800428980548,0.3605174763487482,0.07987713534134475,0.37106286993820214,0.5080859326247581,1.8091268182602696,1.848466070310221,-0.049905881789786756,0.07818532878284679,-0.9697163400425208,0.234979649369979,-128.3368298754828,18.744522632553327,9.310775306056795,0.28143312797804665,0.5013805345135509,0.27994583148156904,0.2053780565555348,0.2642754665362869,2.2743025077420063,-0.1124564996967191,0.14510679342858548,-0.879750520416155,0.4382144261791126
0.03,-123.23028564273734,47.41127839871519,198.1008031448617,0.07920322311314103,0.2001631793080288,0.0489695173353473,1.4285114399006325,0.3097577094712496,0.37138793966629086,0.4862058859571683,0.7639884413201805,0.3196002262574583,0.28327189203736897,-115.36089334606481,35.001366649980355,209.21316850048797,0.0813194210243571,0.1758438939011837,0.040855180383638105,1.4599013465700672,0.5362095496747307,1.328733875791183,0.5591858544205898,0.7391757150373672,0.36101826233190143,0.11499814129893904,-153.7400918828009,7.2876255294504455,7.534915086548271,0.312633992142643,0.10609062492940051,0.3604293672420992,0.4946504709530872,1.7233143298138807,1.8245727910336305,-0.04962067267482016,0.07664412035045656,-0.9694750410455878,0.2302916830566378,-128.71928782403504,19.298098187622458,9.857852384193977,0.3363045847090348,0.5193324710648004,0.2831472833609453,0.20435774724132233,0.3833986588067052,2.311430229964735,-0.11490090470900025,0.1501645203343275,-0.8793926803028494,0.43646323059901937
0.04,-122.61815850024394,47.75956189010167,197.70929722027734,0.09645126351144011,0.21517301676522207,0.056580260238612165,1.316065574028872,0.3185005349742032,0.4598082079061434,0.4889528343879985,0.7611644695462787,0.3194705350863319,0.28491959678910067,-115.40685467753333,35.27846865076054,209.2255806076667,0.07870389078061005,0.21844680973164818,0.04648239829722335,1.463215185469413,0.5203262372116199,1.3670687476816659,0.5588287049301649,0.7385424020645492,0.3615903253314005,0.11788494118080163,-154.21705776163878,7.286711373085983,7.398024532444777,0.2685310367558714,0.12960239395626336,0.34811015883571733,0.47875428221266614,1.6344594857914538,1.8116521655769353,-0.049246020516225106,0.07521027644529972,-0.9692830058109358,0.22590237601419885,-129.0977577102783,19.85151253379667,10.432805778935823,0.387550891847689,0.5344865024846159,0.28666861095215573,0.21598966291468172,0.5147216278126443,2.332469109897384,-0.11727768308129691,0.1554972891613403,-0.878952522247145,0.43473625433123025
0.05,-122.07028747533397,48.10467499169995,197.34525367508357,0.11114848827129149,0.23135353946044018,0.06359676720746667,1.2173562376042364,0.32556314446903745,0.5361369533289809,0.4912958861196052,0.7585462548191684,0.3193893795437858,0.28667936049839465,-115.45802838460693,35.58566137058206,209.2197915823606,0.0789593360844772,0.2578343700515378,0.05217797754117698,1.4552159913860625,0.5229353873933316,1.4133553244051031,0.5584028345559807,0.7378415861382902,0.36219847703265545,0.12100552028432406,-154.64826661259033,7.265783047542276,7.27547491863259,0.22974382936637422,0.14933597238138013,0.33357212838767797,0.4598801535818886,1.5415485764160906,1.812789287893416,-0.04875041757177079,0.0739043063479245,-0.96916305816729,0.22192528161160663,-129.47259587066793,20.401273582775065,11.047425226713539,0.4332393677366407,0.5452696390830435,0.2904754540918733,0.24212448673268133,0.6620433700354639,2.331336842987442,-0.11953203490515155,0.16120060675583048,-0.8784080444238616,0.43302457219060403
0.06,-121.59953045459665,48.44673802722052,197.01276780471966,0.12292195579609483,0.24851406886594316,0.06989238122246902,1.1359120020659355,0.33128895584805806,0.5984965807505783,0.4931534533791077,0.7561782238733767,0.31935990887525423,0.2885895508698321,-115.51602794220634,35.92344943810821,209.19229476937454,0.08240890157798987,0.2926742328564232,0.05785539476747945,1.4339407287684987,0.5458791027433781,1.4683457413299088,0.5578953588806875,0.7370802791793238,0.3628376880993507,0.12436105538991551,-155.02427375094453,7.221098310935098,7.167486606584011,0.19748246304212796,0.16444673306478644,0.3166224147049781,0.4380295204676255,1.4442970804803443,1.8293376317404624,-0.04811469854638857,0.07272971450953739,-0.969136703701823,0.21844623853634765,-129.84474201014777,20.941698486719822,11.709373980125935,0.4715197120618805,0.5502244319523519,0.29454464577216694,0.28315315923947587,0.8267664386257677,2.3045820751168433,-0.12160276490013085,0.16732427942420977,-0.8777503269413974,0.4313134341842793
0.07,-121.21264073283547,48.786098951892114,196.7131227477304,0.13171710889093163,0.2662328401412,0.07539951913624865,1.0737991714453112,0.33637872739000896,0.6460416129790795,0.4944826591173665,0.75408527125637,0.31937887612569454,0.29068077786389457,-115.58175452219868,36.287488174985114,209.1411339180454,0.08905274982702173,0.3216775124231916,0.06336210584246858,1.3985766360032443,0.5883573744186652,1.5315805654187942,0.5573033722362183,0.7362810432018545,0.363491293156901,0.12791494859237465,-155.33957400418518,7.151139067033333,7.0720218149935175,0.17255194638470775,0.17436995540166053,0.2974149658443701,0.4137760458017821,1.3431258908310537,1.860764257361945,-0.04733464476428348,0.07167196476014437,-0.9692232096766851,0.21551844470611894,-130.21565635608016,21.464907376075306,12.421436538821785,0.5007362279268484,0.5481171124586746,0.2988319749257385,0.3380535250270186,1.0073637214863795,2.2518728385054305,-0.12342459582345579,0.1738662065286982,-0.8769851766120141,0.4295825866903242
0.08,-120.91026432807234,49.12317333605492,196.44495439446925,0.13775698608914014,0.2838602115841059,0.08010818022996254,1.031686359308049,0.34177921160260866,0.6791140734744837,0.4952799395430615,0.7522726405577972,0.31943735127320805,0.2929733332656069,-115.65541602741345,36.6686026920794,209.0661315858433,0.0985778274570859,0.3436904234284001,0.06849491826085115,1.3496095824344023,0.6470639535819437,1.601278797836628,0.5566335072266765,0.7354818389217036,0.3641315968441926,0.13159269822619768,-155.59280783592192,7.056699079698965,6.9849823567656575,0.1552990349188316,0.17885285117902436,0.27640071296595947,0.3882253732225835,1.2390045701753378,1.904701422403276,-0.046422127679762816,0.07069983827472259,-0.9694383849518414,0.21316027682355138,-130.58712517443337,21.96121052125115,13.181227561675062,0.5195621526590982,0.5380585696944364,0.30322211994420123,0.4045081527534803,1.199221605139245,2.1761002801272333,-0.12493229676686962,0.18077167308571943,-0.876133059720274,0.4278076983351855
0.09,-120.68759833061736,49.45823707695953,196.20474960572653,0.1414667829889751,0.30055345686724844,0.08405922844921589,1.0090806795470049,0.3485309441813021,0.6993164098242971,0.49557764537437315,0.7507280555626634,0.3195221068357643,0.2954749854010581,-115.73664107243208,37.053372032414465,208.96900126426863,0.11039537593275332,0.3578025172313843,0.07302691721263542,1.2888819575597865,0.7166317589936533,1.674411226272309,0.555900116742167,0.7347336894579074,0.3647223253245076,0.13528600615933759,-155.78657610970401,6.940742106347735,6.900690669492636,0.14559348328252206,0.1779715062599345,0.25424046024193053,0.3628792233791661,1.1332456483036306,1.9571875659357652,-0.04540462086662773,0.0697689205669652,-0.9697931409555273,0.21135595014574654,-130.96091316695887,22.419860527206435,13.981364894978295,0.5271400870726131,0.519621621561138,0.3074783002018467,0.47909886126980245,1.3948996769949331,2.0830871152801236,-0.12606623662972197,0.18793800046622292,-0.8752272095202277,0.4259632527940911
0.1,-120.53555495720244,49.791222604003174,195.98758477752284,0.14337970523907587,0.31534938069035584,0.08733620235066339,1.0046476579744759,0.3576016263317557,0.7094849047698575,0.4954375515550439,0.7494255093640096,0.3196173953761653,0.2981795273782724,-115.82466360445358,37.4252362197713,208.85332156098775,0.12370188211357493,0.36345342410746523,0.07674024701542997,1.2195125740146577,0.7903319891954013,1.7469743822219859,0.5551223069685816,0.7340962980946861,0.36522268793091767,0.1388610634416649,-155.92689762118516,6.8080643203024405,6.812563082497883,0.1428472709163245,0.17213135129190263,0.23170329560629668,0.33943093864706464,1.0273346218667607,2.013078596564089,-0.04432311082323254,0.06882666878522838,-0.9702919909535137,0.21005888333431802,-131.33828410092437,22.830087614501096,14.810079036286284,0.5232075587435281,0.49293297319429286,0.31121336181621595,0.5575881989401915,1.5847930536097052,1.9809262746463654,-0.12677872491423584,0.19522402339191178,-0.8743100296427555,0.4240269219278274
0.11,-120.44222205867962,50.12157411344785,195.78798214540328,0.14404086529889332,0.32727140952104367,0.090057698932194,1.016517399276338,0.36972993062313614,0.7135519582284887,0.4949424565292379,0.748329934957812,0.3197068657734769,0.3010664199551871,-115.91854160674177,37.76601147675454,208.72436291911353,0.13755814242182204,0.36051570144423695,0.07945800702537127,1.1456471115433176,0.8609458068792653,1.8144280058408724,0.5543202952431555,0.7336320999605693,0.3655924969889898,0.14217032476389885,-156.02238579406628,6.664814933801595,6.713861146402104,0.14607267158268855,0.1620479382480018,0.20957027963838912,0.3195368665328828,0.9228359342757142,2.066602131945739,-0.04322868434169325,0.06781833289775392,-0.9709317107595863,0.20919738958624934,-131.71946381201226,23.182289933036962,15.652209100660887,0.5081854863347212,0.4587176163378211,0.3138999207801922,0.6352915039060272,1.7581200804746668,1.8790131501000935,-0.1270402973222268,0.20246354529597052,-0.8734281929300242,0.4219849052795862
0.12,-120.39440356036205,50.44820587439283,195.6007580679976,0.14392540500226622,0.33545667818055025,0.09237039042876964,1.042501013455101,0.38529953343347834,0.7162954307560716,0.49418704560878607,0.747402004954868,0.3197754156395023,0.3041016945578955,-116.01736664837723,38.05763590228348,208.5887719110176,0.15097948986154905,0.34933379349593335,0.08106935601753755,1.072053526389322,0.9217021778108959,1.8722081905921688,0.5535117676329215,0.7333995335021188,0.36579752672270144,0.14506645676502858,-156.08325406922324,6.517939506639427,6.59840693307183,0.15397723913653086,0.1487047939120871,0.1885561068636879,0.3046064608691501,0.8213668794726046,2.112000986579413,-0.04217829652070667,0.06669292953263214,-0.9717004270564684,0.20868208639697056,-132.1031580309507,23.469218789835157,16.49051055118369,0.48320998703582785,0.41827889188350614,0.31492629776537817,0.7075249292324947,1.9040999338220654,1.7868834654888237,-0.1268450053717696,0.20948156743672497,-0.8726270858186118,0.4198372343611108
0.13,-120.3790479199319,50.76958224748309,195.4217535120283,0.14338322555130312,0.3392803545579948,0.09444156891305983,1.0801892921032654,0.40425652177196847,0.7229873169447381,0.4932690393931499,0.7466024318051171,0.31981082466185023,0.3072400791466837,-116.12042136352103,38.28393543509227,208.45412918235766,0.16302824536818564,0.33071097565406576,0.08154390335116751,1.0036251917390295,0.9671501658976712,1.9162101862075978,0.5527089629243283,0.7334464719017512,0.3658141908343937,0.14741676836416176,-156.1202767673817,6.374612216102834,6.461168057830966,0.16508872667900099,0.13328713682220975,0.1692543094374737,0.2956395615081332,0.7246038903776812,2.1441780561644412,-0.04123032719334204,0.06540849189672693,-0.9725774061508066,0.20841426400412813,-132.48624047339095,23.68698942546849,17.307165568768134,0.45009420392390603,0.37340919630593844,0.31369174510119996,0.7700917592709655,2.013153773128102,1.7130170515771388,-0.12621384180079562,0.2161116751451783,-0.8719453649509454,0.4176018445755168
0.14,-120.38441375867686,51.08390614394322,195.24836346790497,0.14261584838167957,0.33845281929881316,0.0964499200707981,1.1269557230401595,0.42607740778693254,0.7389674078518856,0.4922814453378989,0.7458952882341843,0.31980505298624584,0.3104281435546129,-116.22724954459173,38.43220977301387,208.32840303791326,0.1728984237369396,0.30585234094667996,0.08093391380598489,0.9448748290913999,0.9938238099457275,1.9431590008188522,0.5519170612567995,0.733804690195431,0.36563274738845836,0.14911642716774579,-156.1438277263603,6.24171754482124,6.298651035922604,0.17789635132553128,0.11709410337082916,0.15210667717269458,0.29312351215460924,0.6342810574604176,2.1592384062991856,-0.04044046464839796,0.06393594470751982,-0.9735337724280289,0.20829440706065916,-132.8636897635222,23.835767789349163,18.08534692880766,0.41121606892971496,0.3262413496354775,0.30972348731678856,0.8197492811804312,2.077969743293328,1.663789012959668,-0.12519565839693306,0.22221262219440133,-0.871410320505584,0.4153164333892617
0.15,-120.400873310219,51.389373926664504,195.07981471619752,0.14168343629985655,0.33307096936924296,0.09857342470401949,1.1799123101202067,0.44979023592454,0.769172141072722,0.4913064815056966,0.7452500515880398,0.31975512048125027,0.31360813819353917,-116.33761843538578,38.49448084284037,208.2193269545103,0.17998314100111765,0.2762820341480917,0.0793655436128046,0.8994930646530143,1.0005838906522042,1.950832790648976,0.5511341650349455,0.734485999068753,0.3652585562364774,0.15009905459987244,-156.16309269024407,6.125429037515547,6.109079939505091,0.19098990419881084,0.1014369684088169,0.13739424730923158,0.2969929852570993,0.5521545287271998,2.1548411908181153,-0.039858270210084104,0.06226118181679002,-0.9745342785724032,0.2082301107099247,-133.2287928546438,23.920031286980404,18.810657410715276,0.3693393730182334,0.27906315851591146,0.30279237248044993,0.8545866980697445,2.0943054488205,1.6427269558243984,-0.12386524260588432,0.22768207318700762,-0.871034531784789,0.4130376489539366
0.16,-120.42131551444895,51.684436478962574,194.91717898037646,0.14053444363875883,0.32361480587885555,0.10097351380580935,1.2358679421198155,0.47404703852678015,0.8176447787307102,0.490411444596446,0.7446423260267915,0.3196635086997231,0.3167221106609685,-116.45137427677206,38.46830184439803,208.13374207176574,0.1839165237805414,0.24375254575135258,0.07702270895234171,0.8700249229231835,0.9885885290888161,1.9381455168559236,0.5503528390597602,0.7354803435415189,0.36471131923768546,0.15034369636130127,-156.18551130353904,6.030914191335536,5.892374237148781,0.20317792591158518,0.08753478275001862,0.12524462576768222,0.3066505802492119,0.47993000480956527,2.1303149917788287,-0.03952458176688902,0.06038523946963787,-0.9755400705207745,0.20814274078750414,-133.57357388873737,23.94836781981463,19.472270301809928,0.32738702664343544,0.23412280955420606,0.2930037990695357,0.8742442803890544,2.0614466628624997,1.6501709864473268,-0.12231857434109257,0.23246577656340467,-0.8708140582327374,0.41083775224386737
0.17,-120.44117584293457,51.968000552433004,194.7631478965795,0.13904812071616457,0.3108907067041642,0.10377516900761978,1.291333190813829,0.4972423155420228,0.8870531473102179,0.4896465020802931,0.7440534957365494,0.3195380505148614,0.31971582309630775,-116.56821666090684,38.35707985814486,208.07696299435491,0.18458469860721147,0.21015766627520702,0.07412833875763376,0.8576943128633054,0.960929630895573,1.9051170370727144,0.5495629053062191,0.7367558241478591,0.3640226377956652,0.14987759418691352,-156.21646356831585,5.962173672969077,5.649969061723642,0.21357104410445815,0.0764200957494671,0.11564953224343201,0.32104149232824736,0.4191686050687859,2.0865356094165795,-0.03946977777272408,0.05832279560757402,-0.9765121566567505,0.20797233336891793,-133.88936971898252,23.932849521531754,20.06364076945299,0.2881936323158471,0.1934499802324474,0.2808448883634789,0.8799189987672436,1.982291040791452,1.683352590398719,-0.12066567087367452,0.23656112481773353,-0.8707282014821948,0.40879936106256276
0.18,-120.45817548344706,52.2395107636719,194.62162984253723,0.13708111288277186,0.29593182367424875,0.10704415353051645,1.3426107189734198,0.5176684263220394,0.9782553773210081,0.48904416020554403,0.7434698254284258,0.31939129644432385,0.3225419545182229,-116.6874382268235,38.169918196075564,208.05223710446603,0.18210601435838278,0.1774546290503685,0.07092736795227415,0.8623784644647351,0.9220383246241197,1.8527622319386987,0.5487549927181883,0.7382603270971326,0.36323253745566686,0.148774674119272,-156.2591847462989,5.922004860717717,5.384537725721983,0.2216246104299159,0.06886577401321196,0.1084879987241026,0.3387688350614875,0.3711882145225098,2.025603897103871,-0.03971285786378926,0.056099488071712555,-0.9774150746879503,0.20768039564570043,-134.16745992428662,23.88808088849825,20.582730055139056,0.2542675092183581,0.1587105328674064,0.26717673615218934,0.8741382594979059,1.8630710565616517,1.7368380409219963,-0.11902179907309804,0.24001494583749045,-0.8707407155264335,0.4070091321018311
0.19,-120.4718840716273,52.49887034355777,194.49724773185093,0.13451215501809205,0.27987404978615593,0.11076491814286875,1.3859968968454186,0.5336926745280455,1.0899754874410341,0.48862001974404634,0.7428816336267408,0.31923937552632936,0.3251620814326795,-116.80768723016423,37.92103561448264,208.06036504614517,0.17678828484451367,0.14759673461618028,0.06767431329669803,0.8827055237396644,0.8769896055946793,1.7829256839502092,0.5479242273534802,0.7399243324928676,0.3623857387938321,0.14715022448926898,-156.31487576857702,5.9120675073093505,5.099677185379981,0.2271427261612183,0.0653405614333931,0.10355296128232655,0.3582294725104921,0.3369681697397418,1.9503905479368602,-0.040261285802399974,0.05374866785753765,-0.9782201577290233,0.2072504511811597,-134.39966430744127,23.83006270935114,21.031761956162278,0.2275906255254099,0.1311054883884596,0.2531702324923171,0.8603395236710567,1.7127595381863918,1.8032447078446554,-0.11749810534872862,0.2429162421061337,-0.8708022221178324,0.4055512891889379
0.2,-120.48322385870638,52.746187670439475,194.3948180972,0.13128115984633504,0.26383159738855333,0.11482475165604406,1.4180889736146431,0.5439334243329789,1.2186625162775573,0.488374377100183,0.7422830598053959,0.3191004059792394,0.3275470485181191,-116.92680885530888,37.62886097101975,208.09953281451982,0.16907668019317065,0.12247509101836215,0.06462615586427228,0.9162313726057967,0.8308268546087769,1.6980842233412181,0.5470734132831558,0.7416645318529199,0.3615283585142851,0.1451527355795138,-156.3829698032142,5.933023312474706,4.799604341444585,0.23025080791458113,0.06599717339838775,0.10057985786078044,0.3777462281006934,0.3170587925767036,1.864032295512059,-0.04111156081079241,0.05130818301215771,-0.9789078882492412,0.20668636849687197,-134.57883802394832,23.77502647450437,21.416596090634076,0.2094795770675129,0.11131962125817439,0.24019280986376995,0.8423468489617748,1.5422195004152228,1.8741308485407644,-0.11619282180958151,0.2453852718001953,-0.8708534929040892,0.40450181232282834
0.21,-120.4940173976049,52.98137224359362,194.31888014056008,0.1274195745141531,0.24879602798374312,0.11900998373637448,1.4361510964523974,0.5474094448798956,1.3585977441593566,0.4882942483995721,0.7416726813403162,0.3189925597329632,0.3296756084265129,-117.04180871869319,37.31492367379226,208.16538093594536,0.15950608332615587,0.10386695254270352,0.06203905659446133,0.9596536857529745,0.7879937613881528,1.601140356014747,0.5462151006154681,0.7433880459765665,0.3607054734886052,0.142954134481593,-156.4615135620291,5.984720298240714,4.4888913924314675,0.23134509308424925,0.07069312772471747,0.09927505234648154,0.39567423793181267,0.3114995668865982,1.76946651588674,-0.042250507345632154,0.048817642165925684,-0.9794690423688449,0.206008725037351,-134.6992186859147,23.738379783294526,21.74584591453723,0.20052229770088068,0.09952105748578978,0.22966085808291817,0.8238538776259329,1.3631864578592805,1.940955561137234,-0.11518413891321648,0.24756074225128286,-0.8708291804712617,0.403923897784781
0.22,-120.50665569495915,53.203640319769306,194.27332662865328,0.12306840292486111,0.23557445402143193,0.12301811538007937,1.4384616812153235,0.5436425329346117,1.502282224894805,0.48835547358743503,0.7410549204331094,0.3189319470795051,0.3315315824324789,-117.1489630387219,37.002657708287465,208.25131025671251,0.14866574594332377,0.09338768366740498,0.060165806021768416,1.009036284297361,0.7519204598222958,1.495232894249355,0.5453720652619987,0.7449971592773589,0.35995969409664785,0.1407395987749692,-156.5476207185308,6.066396714244808,4.172249646837005,0.23102594124147643,0.07904179380264377,0.09934108257666847,0.4104702009795664,0.31975393681153613,1.6690796446271499,-0.04365727193058863,0.0463163733387728,-0.9799045629782605,0.20524967526450194,-134.75660668995238,23.73386861580741,22.02988810767899,0.20059448843784988,0.0954092471261619,0.22287829868963382,0.8079979829959608,1.1872064618443046,1.99599275443979,-0.11452558969534327,0.2495869356052424,-0.8706615324564971,0.403865038777604
0.23,-120.52393079569198,53.41101836287282,194.2611690481346,0.11848051537504845,0.22476861825376385,0.1264864484609964,1.424560861912161,0.5327055408365813,1.6410846169786406,0.4885246798737734,0.7404418978282709,0.31893055952596433,0.333100157183767,-117.24407802841763,36.71621580663119,208.34899911993125,0.1371750757518261,0.09244267552567072,0.059250344176644265,1.0600320013994544,0.72477737456086,1.3835892105366296,0.5445759371714004,0.746394487007768,0.3593306564342885,0.1386978486399422,-156.6379549628765,6.176887460973231,3.8543580859377204,0.2300192543864252,0.09048939907766541,0.1004962292914319,0.4207309944398061,0.3406680128085838,1.5645223695738952,-0.04530596289891811,0.043842065212653845,-0.9802242881431129,0.20444696850633623,-134.74838529566483,23.773016628098677,22.2799041086729,0.20894846334846745,0.09830367878943595,0.22088394618561244,0.7970655294848953,1.0246701558247397,2.033077889653088,-0.11424438138373397,0.25160233795159237,-0.8702836537179759,0.4043558406346136
0.24,-120.54903235776227,53.599946043170284,194.28444464697273,0.11400576912282273,0.21678268355641522,0.12903417064732495,1.3953397915758525,0.5152178161293838,1.7660681090192205,0.48876103230989265,0.7398551913482936,0.31899456537401155,0.3343641716457595,-117.32287867279804,36.479362642886684,208.44908369485344,0.12566220588313248,0.10217567857842978,0.05951635512715935,1.1081014750533857,0.7073910249744834,1.2694299817773764,0.5438640068681915,0.7474883605692301,0.3588551846040107,0.13701246501070558,-156.72920271996983,6.314826657398834,3.5397266846514333,0.229088526002255,0.10441206230710409,0.10248733853637756,0.42522181012829874,0.3724569883978796,1.4567118654719335,-0.04716876287469412,0.04142995052256519,-0.9804447844257941,0.20363785178572347,-134.67340746305246,23.864853507305263,22.507067813621326,0.2243571060173697,0.10726026328737538,0.22432779471574443,0.7923328730003485,0.8840594166694806,2.048091683014098,-0.11434260372150298,0.25373086243216436,-0.8696320245440752,0.40541049784274064
0.25,-120.58565704188416,53.76507650609317,194.3442433675957,0.11006029710966761,0.2118405739076627,0.1303116025088965,1.3529498091462726,0.49229335611221,1.8688704678529855,0.4890178542664702,0.7393268990369969,0.3191232391659762,0.33530130484059856,-117.38148687595,36.31449166756591,208.54193458473145,0.1147355276925494,0.12341298494617706,0.061148733025343335,1.1487317232134673,0.6993065923308903,1.1559161220216916,0.5432745863219915,0.748198030736165,0.3585677950774752,0.13585451504748783,-156.818498950441,6.478849208633429,3.23258329571382,0.2289402567983514,0.12022422354475545,0.10509578963582616,0.4229140731507186,0.41272207611569506,1.3460015042829334,-0.04921923523091622,0.03911236966751461,-0.9805866009851643,0.20285358179500745,-134.53179069602515,24.015900600037018,22.721952291293412,0.24528891953606716,0.1211983340289612,0.23339137990715103,0.7940326281695643,0.7714657127418325,2.0391410078349805,-0.11480075453961933,0.2560761561705231,-0.8686481905299499,0.4070286717046894
0.26,-120.63814032435924,53.899347818635185,194.44080680269906,0.10708356583062635,0.20999640928388247,0.13004799985255086,1.3005474388814058,0.46544812553894027,1.9425097345963531,0.48924432495805,0.7388995206835598,0.3193086868646591,0.3358829489334016,-117.41693416167072,36.24179251845074,208.61845303924815,0.10494323397160821,0.15660823878525562,0.06426911805807263,1.1776644478446765,0.6989745196324904,1.0461096347539125,0.5428416178562788,0.7484581715630569,0.3585012074750989,0.13537664221862475,-156.90377193542733,6.667798706143115,2.936773634988809,0.2301280094040873,0.13748625638141976,0.10813644036202305,0.41304285621152925,0.45850342525048987,1.2324643081284687,-0.05143551882928339,0.03691855515197382,-0.9806712814779815,0.20211516615110114,-134.32466798021457,24.230348786116828,22.934181419920492,0.27008842373981756,0.1390206877724126,0.24776192606338973,0.8014321654691615,0.6903779299963003,2.006459830889726,-0.11558267749542181,0.2587189145207669,-0.8672797156374163,0.4091983179334101
0.27,-120.71150992273078,53.99435805145989,194.57364006982067,0.10548779488580212,0.21113125349789738,0.12808887354173468,1.241924225893387,0.43647804565112375,1.9820266987666626,0.48938749325583303,0.7386244008441495,0.31953635347537607,0.3360752689939716,-117.42764703250955,36.27858408182457,208.67081191050264,0.09672404994924044,0.2017973582472128,0.0689089592234554,1.191146100728792,0.7040300579856893,0.9429133363890245,0.5425893978277321,0.7482221953287698,0.3586865784834146,0.13570873206923278,-156.98397592715622,6.8809477416340235,2.655664185549208,0.23296399023707068,0.1559963343229691,0.11144947428625485,0.3951837057314209,0.5063787977660916,1.1162227248750822,-0.05380319117276616,0.03487445005847579,-0.9807184579576329,0.20143076151744288,-134.05394107861656,24.51034715025629,23.15230881341884,0.2971395480794777,0.15971276250668542,0.2666639481193147,0.813009195592137,0.6416990986135903,1.9520956729304724,-0.11664090724113865,0.2617167312148822,-0.8654805956833344,0.41189891523844047
0.28,-120.81138078161524,54.041027289193345,194.7415849549681,0.10560481264823612,0.21494076366096337,0.12441596907479913,1.1810896134975977,0.407326404828264,1.9849197776467369,0.48939474895157026,0.7385587066125617,0.31978617369608137,0.3358425456587728,-117.41384458317394,36.438820609447845,208.69307850881773,0.09035909175851121,0.2585746142176391,0.07498517264481544,1.1862043843811287,0.7116296798424278,0.8489631624783416,0.5425282461151125,0.7474640353440318,0.3591532726918844,0.136955182197892,-157.05918808699036,7.118231110989051,2.392037608353132,0.23744989704645822,0.17585208771767413,0.11488681458899433,0.3693458528487671,0.5526208970557366,0.9977666165523298,-0.056317705365662045,0.03300236188369646,-0.9807433138127808,0.2007949000857981,-133.72207232265828,24.856324462021192,23.38387379848917,0.32499652447195093,0.18241370924968897,0.28894500807251045,0.8267012702668609,0.6239419820985572,1.8794609324459322,-0.11792158667490683,0.26510583936728094,-0.8632113962985132,0.41510459418496987
0.29,-120.94365147066186,54.03048616404202,194.94282398982568,0.10763643990668935,0.22092705491399783,0.11914723548754678,1.1218731109341278,0.3799600786707667,1.9513523472986571,0.4892167181544354,0.7387610819522102,0.3200341986772629,0.33515243135007367,-117.37779750243952,36.732773143393956,208.68167361238702,0.0859370206762495,0.326098921031683,0.08228415461203098,1.1609385007476025,0.7188106516221177,0.7664701768993628,0.5426517515101967,0.7461782453554088,0.359928107001725,0.13919365816532336,-157.130561124486,7.380484988033152,2.1479715119294402,0.243239579326082,0.19747218489299712,0.11829776338519557,0.3360785793493415,0.5934236045785866,0.8782226965091414,-0.058986368337940534,0.03132033063478023,-0.9807546491832503,0.20018945413174244,-133.33193574524378,25.267285787188058,23.63556610660256,0.3524747610474132,0.20645907288767745,0.3132055209769244,0.8401946725769653,0.633559892034199,1.7928223422045833,-0.11936846909921814,0.2689040985092208,-0.8604394126311584,0.418786800366161
0.3,-121.11400560743972,53.95510072805582,195.17481167249383,0.11161579253007775,0.22841174365934805,0.11251861532195116,1.0675916973396993,0.3562631264938172,1.8841207532902156,0.4888104127777886,0.7392862479970654,0.3202545663027163,0.33398234036246355,-117.32391329016556,37.166884925613594,208.63563712952117,0.08334221284266635,0.4031348441849026,0.0904593141321235,1.1147901287588298,0.7228456137221451,0.697037374150611,0.542935952866255,0.7443784621905497,0.36103413173118776,0.14247510564410218,-157.2001444774466,7.669678354364148,1.9246966207495533,0.2496442508671993,0.22157493525955255,0.12152057542902796,0.29658353034681834,0.6251945034428733,0.7595580740247964,-0.0618298091036123,0.029841244871995125,-0.9807537182052561,0.1995860329197352,-132.88673264647042,25.741055796696966,23.91342665030774,0.3787012167836468,0.23139945884557764,0.33795715888099487,0.8512122040860863,0.6653772548629058,1.6967882004628934,-0.1209259025243246,0.2731146735478816,-0.8571390989670629,0.4229162644626728
0.31,-121.32725974241743,53.80952926566743,195.43415363121403,0.11738710366942796,0.23658485705409196,0.10485278025463353,1.0208018160564594,0.3379414119678361,1.7883796224590691,0.4881424249794311,0.7401789408630253,0.3204217233449994,0.3323259845120254,-117.25863154565326,37.74379772721828,208.55668282522595,0.08227058821171235,0.48812735908083,0.09904527961683478,1.0487487389198618,0.7215641024692551,0.6414963505652777,0.5433405385677778,0.7420944750417368,0.36248911627266983,0.14682480378428514,-157.27060969029714,7.989117468047543,1.722440944336403,0.2556863610837592,0.24911690876866077,0.12438630965678951,0.2528178706274524,0.6448895972988783,0.6447100905068285,-0.06488285321654887,0.028571873438465296,-0.980733937103458,0.19894935673826147,-132.38996429681822,26.274469294469693,24.22301789528394,0.4031285140443164,0.2570007229843499,0.36179088151061534,0.8577629449947534,0.7130899992193759,1.5958392254111426,-0.12254100747519676,0.27772997513742215,-0.8532928725535321,0.42746417644356816
0.32,-121.58662782391536,53.59170586949773,195.71647307607967,0.1246101140434306,0.24459667528877008,0.09652134553667137,0.9831366317296664,0.3264261199867269,1.671141105374734,0.4871919739576179,0.7414676976025685,0.3205128297795969,0.33019912958667447,-117.19013303857461,38.46254620883845,208.44903229889138,0.082272214207825,0.5793045758684469,0.10748902895686155,0.9654453270668887,0.7136073205146234,0.5998138902889207,0.5438118725132632,0.7393683081248975,0.36430396190251185,0.15224434696397263,-157.34493293215417,8.343598254327963,1.5402825764127395,0.2602012506516541,0.2811972835185035,0.1267391860154985,0.2075675689684021,0.650346954551203,0.5376345683354914,-0.06819471243372498,0.027512025459942118,-0.9806814884443471,0.19824106956138876,-131.8454468293231,26.863530564353447,24.569509630938533,0.42551921139525706,0.2832293916189634,0.38353443119872715,0.8583246638452476,0.7698085481776125,1.4939387950003788,-0.1241654534974869,0.2827355495799544,-0.8488922319294574,0.43240257652451125
0.33,-121.89299217317986,53.303654843892346,196.016314709342,0.13279221740289285,0.25168850130200005,0.08790679472694969,0.9552259273944306,0.3227718700527512,1.5405985331919738,0.48595359984923453,0.743159094190442,0.32051027486578865,0.32764389426947654,-117.127885597937,39.318917776473334,208.31902460291664,0.08281495247429009,0.6747991106625651,0.1151951042251006,0.8691051504707852,0.6985817998414069,0.571106197384337,0.5442873742551345,0.7362497941049851,0.36648124221878187,0.15871453391611928,-157.42609406092495,8.739473217807308,1.3760536220639412,0.2619779395524051,0.3189340844465991,0.1284752373654346,0.16447134854523426,0.6405724015156379,0.4432605177586195,-0.07182837221985958,0.026654043525685407,-0.9805767718971321,0.19742343268062182,-131.2573495159559,27.503572352002468,24.957640532452498,0.4459073505482229,0.3102242888625361,0.40238135756910576,0.8519364546881488,0.8286143329256336,1.3942514532114458,-0.12575729227052815,0.288113680043506,-0.8439390239321569,0.43770405709566196
0.34,-122.24428205751136,52.95205586857413,196.32713865252285,0.14134762976011417,0.2573465451378229,0.07936895862881688,0.9367018344736368,0.3275578568319112,1.4053619665285044,0.4844392243618392,0.7452330751404076,0.32040421408549896,0.32473116780222844,-117.08206794459046,40.30597264265676,208.17450524458658,0.08335983647623717,0.7727764910157967,0.12157929049437771,0.7653573464459529,0.6770902880426802,0.5537722754602716,0.5447005072365873,0.7327920847520746,0.369013967369203,0.16619918486672453,-157.51684649478213,9.184590227963156,1.226357046724517,0.2599239253854924,0.363319186135477,0.12959876945298487,0.1279808981697552,0.6159442751081016,0.3673373235777633,-0.07585896727711915,0.025982861738249256,-0.980396577619124,0.19646238710672503,-130.63023561432058,28.189443919699503,25.391531279828467,0.46454486794515537,0.33825439156168585,0.4179790768699772,0.8381892261024251,0.8830955211624446,1.298988952148514,-0.12728320931025244,0.2938464766042919,-0.8384466386139876,0.44334090398429216
0.35,-122.63506073888225,52.54850006223646,196.64144960525044,0.14967757280931843,0.2614534739653099,0.07121895071689656,0.9262937920619335,0.340807271948307,1.2737121404892275,0.4826792329806504,0.7476399608487643,0.32019500078916985,0.32156089392685605,-117.06292788338781,41.41470987168525,208.02400846535798,0.08343714972827625,0.8715578688248268,0.12612342147898142,0.6609245187608913,0.6506399282755062,0.5457281247748929,0.5449854305020535,0.7290474883723626,0.3718845262470664,0.17464990373626346,-157.61959897918697,9.6880561611129,1.0867692370520319,0.2532353213464568,0.41506135364208524,0.13029343848294098,0.10324558355642285,0.5783216509600659,0.3161640341392732,-0.08037081744327905,0.025476952458353366,-0.9801167875052063,0.19532958629260463,-129.96908266563156,28.91575198649467,25.87434352246233,0.48184113258469075,0.36766503521930954,0.43046998993849495,0.8171203672203805,0.9278248128103512,1.2093871060622143,-0.12872133309305706,0.2999182332296542,-0.832440851094168,0.44928383280553774
0.36,-123.05640542640707,52.10940029159817,196.9510879847235,0.15725928544179835,0.26440752386595645,0.06370148728646147,0.9220049107798108,0.3619395157403568,1.152966318409169,0.4807222893925303,0.7502995657931478,0.3198953436090411,0.31826010168394964,-117.08014046572374,42.634848407420826,207.87576067456953,0.08271243595100257,0.9697238543804695,0.12842428777284395,0.563228314828834,0.6214469867170509,0.5446999569112742,0.5450803508353959,0.7250640124028671,0.3750636603736858,0.18401173042191576,-157.73643368827345,10.25978557779714,0.9522945149320686,0.24155337339269012,0.47442999604856306,0.13100093914840574,0.09590955108245441,0.5310463555309133,0.2961999771024246,-0.08545276011794312,0.02511057108450248,-0.9797153458862871,0.19400318603577754,-129.27925473504754,29.677175562618153,26.407804752771728,0.49830403363022935,0.39881861565097587,0.44048529174335016,0.7890452330211322,0.958745326426394,1.1257993189159106,-0.1300644676454845,0.30631688698256704,-0.8259599398518516,0.455500564078636
0.37,-123.49613048149423,51.65554393127412,197.2476816471528,0.1637268977767358,0.26718133355059465,0.056985324927340306,0.9213489293397852,0.38976706736356836,1.0490119299471634,0.47863377286488135,0.7531026493044045,0.31953197907720504,0.31497872677288025,-117.1422309960686,43.95566800042668,207.73655155903975,0.08103343956498306,1.0661857986534586,0.12823183799686025,0.4799484588275419,0.5921670411561988,0.5485206840280692,0.5449288294299557,0.7208830041935161,0.378509311633414,0.19422944226799715,-157.8692670635665,10.909816126092391,0.8181073236271604,0.2250903392401601,0.5411151856218207,0.132495737889229,0.11181082276365042,0.47882533073600647,0.31356949792894856,-0.09119155772681914,0.024857660426550316,-0.9791751904747066,0.19246741831257907,-128.56639315637076,30.468876980139044,26.991652156887643,0.5144895684954449,0.4320393131276839,0.4490951389184863,0.7543836003004986,0.9734395726729937,1.047881658262333,-0.13132340551621208,0.3130345699259091,-0.8190536192763891,0.46195464792395785
0.38,-123.9393584558449,51.21130209433985,197.5232243799831,0.16892687564663653,0.2713013991277945,0.051161579013372864,0.9216216634790765,0.4225476246277548,0.966022339767629,0.4764929173020373,0.7559147257953601,0.31914661789842025,0.3118834581266156,-117.25611497510792,45.36682836039414,207.6105417636863,0.07845196353601279,1.1602112306791663,0.12547440784863614,0.4185681785864342,0.5655817332554811,0.5553707139494466,0.5444787007768465,0.7165382469895386,0.38216525218336467,0.20525397724961797,-158.02014031131884,11.647404985694164,0.6805647741885533,0.2047106001662273,0.614120936448935,0.13594079251866661,0.15657930393938305,0.42748254687123044,0.3734885392645645,-0.09766349791183536,0.024697521386152783,-0.9784868041692535,0.1907112050801885,-127.83618914652415,31.28703048415742,27.62308176015306,0.53096361517844,0.4675721465813218,0.45772152125344645,0.7135512174476182,0.9712689593438748,0.9748419654187948,-0.1325298935250092,0.3200674652515526,-0.8117802799026405,0.46860511019334156
0.39,-124.36939620696525,50.803537192091824,197.77071712013662,0.17293596258920887,0.2787415822563195,0.046250218804826694,0.9201804701989087,0.45809931440069,0.9063404590104812,0.4743888387919872,0.7585821117299394,0.31879591219930264,0.30915003113233824,-117.42678350694582,46.85906607656135,207.49809786884458,0.07521852364223836,1.2513938586375126,0.12027011080823627,0.38593080408904146,0.5442739381593068,0.5639161597605208,0.5436787492935392,0.7120567317480255,0.3859595196213524,0.21704818464777406,-158.19160624054095,12.4799567451344,0.538407928142444,0.18195658555168903,0.6917083194228282,0.14290868453369762,0.23514287275053902,0.38358773395654117,0.47965470125321447,-0.10492473948429645,0.024621937756846214,-0.9776500486381223,0.18872619267320384,-127.09400712043734,32.129478050706496,28.296313180224878,0.5482759322262093,0.5055648378885822,0.46802208071727225,0.6669747701210583,0.9533800505051045,0.905726875260071,-0.13373881573734567,0.3274153759160694,-0.8042020834981854,0.4754075052048867
0.4,-124.76883340609561,50.46028120235057,197.98478434463865,0.176038182083266,0.29173781210834143,0.04221481878395237,0.914704152333625,0.49397893025136885,0.870506143858841,0.47241568893269564,0.760939931765871,0.3185502075806817,0.30695456271930505,-117.65713397068592,48.42466978732928,207.39476095820717,0.07175132969405516,1.3395668488695036,0.11292368058314452,0.3878212675716643,0.5303256761628805,0.5733263754651463,0.5424737731894691,0.707461089752592,0.3898028178449045,0.22959101922375383,-158.38716054478078,13.411864197737803,0.3940115847868564,0.15901441420464618,0.7714023482916232,0.15535518641878668,0.3511657527614029,0.35399229381241326,0.6336532389707136,-0.11300132030007536,0.024642984426096373,-0.9766749832356629,0.1865045709245428,-126.34434665012273,32.99649498025341,29.002389042459743,0.5669439523194071,0.54607794888888,0.48175416001546584,0.6152541202542263,0.9225724347016789,0.8397189582029058,-0.13502912764141403,0.3350814975509446,-0.7963776551466091,0.4823167470070759
0.41,-125.12075410418868,50.20928647409742,198.1621643015084,0.1786659962545692,0.31254467887795934,0.03898433110792495,0.9034053092340677,0.5277110374026034,0.8574070833500264,0.4706672037860627,0.7628216026535459,0.3184908929161536,0.3054646767691116,-117.94792099540719,50.05765968272249,207.290461140416,0.06858361423716101,1.4246690108630629,0.10390792916849449,0.4285757481864906,0.5250746570080073,0.5831883571816872,0.5407990628904518,0.7027733765593263,0.39358717443574504,0.24287943730290454,-158.61165111699123,14.443363956494075,0.2545052611183814,0.13862108873163642,0.8500718815071014,0.17553650499113485,0.5064597151165989,0.3453132238657527,0.8344388263840019,-0.12187991714668371,0.024800396403931876,-0.9755814711026838,0.1840369558081897,-125.5901661717475,33.891606391218126,29.729320151779536,0.5874427111020839,0.5891254609829594,0.5006277984149878,0.5594521684485905,0.8830196347968232,0.7764102762357084,-0.1365029774671818,0.3430728050878518,-0.7883524652939307,0.48929168703092424
0.42,-125.40994149101091,50.076571060114155,198.30197042278496,0.18131683564850276,0.34316677891731084,0.036479018214783825,0.8851724472023665,0.5570422506926853,0.864536807977798,0.4692309056055302,0.7640690972242409,0.31870624332831293,0.3048312772720312,-118.29778984278107,51.753641024160565,207.16908719069332,0.0662953399605372,1.506583278321272,0.09382958128809307,0.5107184707202986,0.5289604278801741,0.5933618972672184,0.538575544452262,0.6980196172839691,0.3971852491349878,0.2569275448097824,-158.87159006175276,15.569517117070085,0.1325822350646219,0.12392193050908931,0.9240857343091539,0.20586632909352287,0.7004252238225787,0.3634000353229757,1.0779576719548618,-0.1315004196010877,0.025167258825070215,-0.9743975384046959,0.18131056547532895,-124.832138600589,34.82234728145413,30.46266376654053,0.6101966041160244,0.6347439317507927,0.5261546522546927,0.5014559139604153,0.8398466385298662,0.7160149157082598,-0.13828233948500296,0.35140120978955863,-0.7801474551469018,0.496300926122893
0.43,-125.62396107147775,50.08508359759176,198.40563423627833,0.18445946851356276,0.3851055197626392,0.03463668231332777,0.8596335725947696,0.5801835488262933,0.8883377516402969,0.4681821245844117,0.7645431333415774,0.3192857627860985,0.3051818586025713,-118.70335476063748,53.50935018002562,207.00850913279064,0.06543783684899562,1.5849733566177282,0.08338093824776192,0.634630461891782,0.541477799088872,0.6038263234634517,0.535706839513859,0.6932343302816938,0.40045075671809693,0.27176288086383127,-159.17529198958064,16.779423900482996,0.04684082696746391,0.11829117419113812,0.9895409031188586,0.24871495789791315,0.9295945873809808,0.41281077930635535,1.3569738121036394,-0.14175120727388216,0.025852944162819576,-0.973156668910021,0.17830793017349453,-124.06795450582743,35.800816470112665,31.18658511523315,0.6355685888020194,0.6830829909071987,0.5594986978502375,0.44433050061851437,0.79859850624451,0.659487467183452,-0.14050246821806867,0.3600852948245561,-0.7717469215797802,0.5033289402463722
0.44,-125.75402467455511,50.25359621704164,198.4764669236032,0.18844548572959272,0.4391614040073728,0.033435272167509744,0.8271543718416957,0.5960000508893517,0.9245933849571433,0.4675778869595707,0.764132385348343,0.32031316059449877,0.3066161474773576,-119.15929513669417,55.32195562265653,206.7811322883703,0.06646220135048816,1.6591473106107286,0.07328122649585173,0.7982702157097825,0.5612380366623091,0.6145584746650541,0.5320792907110031,0.6884641762376947,0.4032204942729953,0.2874200540711403,-159.53277271264528,18.05577419381411,0.02155680010417872,0.12512862136333314,1.0425500605846045,0.30616093774024034,1.1873590991271699,0.4963246595430121,1.6611517792225912,-0.1524677865273902,0.027002604375462237,-0.9718944183728792,0.1750063837146732,-123.29181515734116,36.843853404883795,31.885405713768215,0.6638434696598295,0.7345039632891275,0.6013351145384269,0.3925826754116771,0.7646660542326623,0.6085261850641822,-0.14330163445189154,0.3691521505810948,-0.7630870305784755,0.5103813889218488
0.45,-125.79556269915295,50.59590241975024,198.51881471555896,0.1934400363411728,0.5053208785988016,0.03290855455781578,0.7888018091364281,0.6041171451567067,0.9688207323137751,0.46745065262200375,0.762760921763019,0.3218582211539628,0.3092046074164917,-119.65845857802336,57.18821006747383,206.45503398167426,0.06966253540902256,1.72797508930237,0.06421371313380403,0.9969864251534754,0.5861232276151263,0.6254606883727816,0.5275656401362742,0.6837699415117969,0.4053184514657432,0.30393226035723003,-159.95536711381976,19.37482454377129,0.0858565062367736,0.14764192402127382,1.0795662204893974,0.3797149769759101,1.4639628134378242,0.6145291018026924,1.977426934011329,-0.16343521453977028,0.028792994595055077,-0.9706448218036402,0.17137853395417818,-122.4942546344067,37.972676603102315,32.54559080142557,0.6952039018448255,0.7896687157908967,0.6517253847894219,0.352258810592193,0.7427476462667596,0.5654560587998458,-0.14680692698880585,0.3786387423788187,-0.7540465109319919,0.5174885115267742
0.46,-125.74846186117689,51.120359322615975,198.53682911542563,0.19938318372734506,0.5827396884257694,0.03315230126129857,0.7463053450666891,0.6049310903279209,1.016614800417239,0.4678019287259298,0.7603933437130928,0.32396792479311987,0.31298993019495014,-120.19197941564487,59.10356965931186,205.9956984450523,0.0751426129409672,1.7898791073624503,0.05676579206656153,1.2234800900580098,0.6135085551999064,0.6363357528080202,0.5220325817121623,0.679226264130869,0.4065624298300843,0.3213214465601994,-160.4550615679264,20.706873300680076,0.2723332792570034,0.18862077468826122,1.0977144934184013,0.470044070730519,1.7468328481776794,0.7655278070312274,2.2906723532989366,-0.17439452852861304,0.031424857279564296,-0.9694369948773429,0.16739380507703225,-121.6623982161004,39.21186400603073,33.158075100705226,0.7296997708960372,0.8495990902356122,0.7100182956429794,0.33081922029057537,0.7364172477634024,0.5330070813447131,-0.15111637005721612,0.3885923459703731,-0.7444410865700667,0.5247057423593945
0.47,-125.61695809868861,51.82977857966562,198.53292276569564,0.2059885755793844,0.6698181072543596,0.034319247756076886,0.7020314950875495,0.599531109307428,1.0639139905191708,0.46859592594713034,0.757037447116259,0.3266572406556124,0.31799119080119925,-120.74943877985362,61.06139874103615,205.3683200207383,0.08281014226163655,1.842904350025819,0.051378847907238484,1.467975256438794,0.6405203137216309,0.646891001079933,0.5153519032628537,0.6749188263659942,0.4067734556298664,0.33958799427868513,-161.04357822133596,22.017274483581645,0.6152116080982425,0.25020910343750474,1.0950953935508771,0.5767285537496966,2.0212856392124614,0.9448176411520622,2.5846476618706027,-0.18505317508709296,0.03511246794971004,-0.9682921594633587,0.1630210098976844,-120.78071386947407,40.587620455207066,33.720771686926774,0.7672130997067174,0.9156889249766137,0.7747874257583303,0.33674951104456524,0.7478460637054738,0.5140220514300331,-0.15627817426126098,0.39906976016715606,-0.7340230573008141,0.5321109799856124
0.48,-125.40920640409448,52.72164161666533,198.50603165855597,0.21277897724988168,0.7643511882523684,0.03660246273343608,0.6589652856377677,0.5895508827739041,1.1071799789856638,0.4697536224073309,0.7527445144473219,0.3299000757859892,0.3242099636111308,-121.31910169369392,63.05236390057519,204.54058737825312,0.09239763559001347,1.88486066260634,0.048313118678094936,1.7186350639409917,0.6642952547392504,0.6567530827090072,0.5074144450314392,0.6709391070841392,0.4057879770392529,0.3587007876444167,-161.73128777217826,23.26798570310829,1.1482060489518926,0.33368463494717404,1.0710220570586801,0.6980855320041083,2.2715995544657828,1.1453792071877418,2.843181624255048,-0.19509916062648658,0.040071185609962506,-0.9672211657503047,0.15823177264404814,-119.83225678079889,42.125354713124956,34.24105464530207,0.8074221382642783,0.9896550853635216,0.8438158790878656,0.3788938788472712,0.7776958307399349,0.5111385064495899,-0.16226854755555167,0.4101351598212754,-0.7224871617375344,0.5397982655685278
0.49,-125.13657964072961,53.788591381913086,198.44985083889685,0.2191498138961455,0.8637289500621717,0.04020901002890499,0.6206770645942351,0.5769708188696376,1.1435026175776424,0.47114781163217473,0.7476074900740539,0.33362098843662497,0.33163743986854505,-121.88826293607879,65.06409191987265,203.48579266904514,0.1035040026104478,1.913518221934382,0.04763059258440562,1.9622176172254928,0.682213238599597,0.6654865618287109,0.49814565930209137,0.6673771455790926,0.40347237969002936,0.3785884498441351,-162.52605750817344,24.419589065389594,1.9022424218040803,0.4392597754787363,1.0261561595635975,0.8310887704651883,2.4823840934684243,1.358019427935979,3.0514932661112626,-0.20421829774274017,0.04650392710840173,-0.9662225180926507,0.15300451518224462,-118.80035001202785,43.84667067939545,34.73795714436803,0.8497701930051285,1.073420389987483,0.9141394098692668,0.4655313901777736,0.8251709051340681,0.5264868300429597,-0.16897007341824824,0.42185657437876256,-0.7094834699796327,0.5478679783752507
0.5,-124.81277599043862,55.01913064992841,198.35124983331684,0.22444602825077403,0.9651559863826455,0.0453280152583202,0.5912479991361771,0.5638938046977844,1.1706473722106507,0.4725998904999796,0.7417573478622593,0.3376884636047757,0.34026142616653215,-122.44371697587944,67.0811292184019,202.18603509731037,0.11564732202635752,1.9268302671014403,0.04919655750102052,2.1849255847679054,0.6920906319374858,0.6726195370684114,0.4875212039745889,0.6643130763112792,0.3997387934719061,0.3991324619785003,-163.4321575542952,25.433663098813625,2.9032115469736195,0.5659217715409324,0.9625153141448588,0.9714072939616198,2.64011543660996,1.5719852690977414,3.197507393137615,-0.21211351198043576,0.054587419301226195,-0.9652809588264569,0.14732865479350038,-117.67058863519644,45.765961686409035,35.243789260849276,0.8934460886991927,1.168929206399084,0.9821596746099652,0.6032633865313641,0.888191012580899,0.561433250088455,-0.1761531437125615,0.4343010744689703,-0.6946375413897331,0.5564140628397015
0.51,-124.4528347967025,56.39843424440355,198.18909885861206,0.22803758127567778,1.0658575503045606,0.052098222528063724,0.5751299167557656,0.5523188321819252,1.1870643321480565,0.4738792504294383,0.7353579812628928,0.34191072255892896,0.3500720020769954,-122.97234262732579,69.08520330840734,200.6352192836966,0.12831762211214187,1.9231562455931828,0.052698153307480775,2.3733850270056807,0.6923371904983902,0.6776776957852745,0.47558080427312166,0.6618084224973351,0.39456059695022294,0.42016286702261946,-164.44934845671645,26.275327320708126,4.169917652630692,0.7113328124468327,0.8833386392427708,1.11357350098465,2.7346543570414084,1.7758252000893653,3.272991807597392,-0.21852475505171254,0.06445898665975713,-0.9643667947771776,0.14120861907375662,-116.43300199729501,47.886879053944234,35.80486260556895,0.9373826828361647,1.2779050906528333,1.0438372576786352,0.7958282976178627,0.9636369756543032,0.6163788389768524,-0.1834632305766802,0.4475288191938788,-0.6775774176972281,0.5655092081868304
0.52,-124.0721651533591,57.90916564261398,197.9337382542964,0.22938394067075094,1.1632415897248218,0.06057960494271862,0.5769229399957106,0.5439361736026218,1.19187675046076,0.47470613799394507,0.7285999420804118,0.34603511277438254,0.36106461632994663,-123.4617665663853,71.05575599779158,198.84149981892872,0.1410193745118478,1.9014611059383737,0.05767678441091392,2.5156894161056615,0.6820827815559408,0.6802215836257618,0.4624386080314529,0.6598982567161887,0.38798557210355206,0.44145728886474817,-165.57225897544959,26.915739163293647,5.712370600387302,0.8718117254744583,0.7928165477824077,1.2512789228618297,2.7605232725095137,1.9584147442763529,3.2743551237062896,-0.2232477578175446,0.07620462678282186,-0.9634362795552899,0.1346672493698833,-115.08416544714888,50.19901845849721,36.48102204443731,0.9802776493098093,1.4015687347655081,1.0949662885847706,1.042998954899013,1.0476309893140918,0.6906138008316466,-0.19041682044054772,0.46158618313930283,-0.6579662341191753,0.5751892478871602
0.53,-123.6856765043434,59.53219063362801,197.54729449139816,0.22808407612406326,1.2549956388286019,0.07073233495369494,0.6010648494952012,0.5399618865393324,1.1848641134728997,0.47475873087479314,0.7216932954728503,0.34975208907144933,0.37323963234205304,-123.9010476891172,72.97069564670701,196.82881059092318,0.15329698556002727,1.8614681269315874,0.06357084105413358,2.602436503233506,0.6612719466114565,0.6798829338072728,0.44828842856299483,0.6585853310605264,0.38014444754188154,0.46274396401300966,-166.79013805219037,27.334305690110824,7.530554850155859,1.0424161708677695,0.6957138583995615,1.3777828452890166,2.7177112746046315,2.110011426238215,3.2029972476562545,-0.22614977313988466,0.08984921187948085,-0.962433374156316,0.1277481579314044,-113.62902634188426,52.67522030542658,37.34373914902645,1.0206379338412763,1.5403433605829933,1.1315198210387882,1.339738713977335,1.1358303305081123,0.782227805073269,-0.19640855695174017,0.4764982931241837,-0.6355384168129077,0.5854383257497763
0.54,-123.3070698150557,61.24711064518622,196.98498496835504,0.22391265005644015,1.3391132313206662,0.08240507052038618,0.6514366278310845,0.5410209485709576,1.166447567671113,0.47368493084745755,0.7148597352501703,0.35270464939611296,0.38659786804410134,-124.28131148003793,74.8073015101027,194.63715284108633,0.16474238205642147,1.8037434268858752,0.06976529442587656,2.6276508629676223,0.6307137759710036,0.6764025800028262,0.4334025837065447,0.6578371546804983,0.37125270285712014,0.48370929844425503,-168.08703101995192,27.520387409663545,9.613784980919299,1.2171360829092441,0.5969378320568668,1.4864038563592334,2.611820867022085,2.2231903544857214,3.0651786707012874,-0.22718066207365104,0.1053496949831545,-0.9612930390457656,0.12051666566293781,-112.08220345551368,55.26990367486728,38.47262388019281,1.0568468534072728,1.6935821652237508,1.150041091947333,1.675787979482907,1.2237229216020442,0.8880885421524969,-0.20073150776075066,0.49226147092580885,-0.6101366731403988,0.596176573846678
0.55,-122.94831215485844,63.03258995775471,196.19746531966706,0.2168440247985759,1.4138619664786094,0.09533308911331949,0.7309008487908969,0.5470828350098712,1.1376729472430447,0.4711190257076914,0.7083239642688786,0.3545037644678096,0.4011324188741319,-124.59626252069874,76.54320808772772,192.32140325701664,0.17498997761341525,1.7296954458934646,0.07564455671692037,2.5894454789238734,0.5920686752145072,0.669671926781992,0.418123487689061,0.6575867581364742,0.3616040462027613,0.5040101117584151,-169.44238534971507,27.474319632485724,11.940722091352855,1.3891971125678197,0.5011172728646095,1.5710464451666462,2.453477383891517,2.2935358414784317,2.8714408594779655,-0.2263781414046298,0.12259207870135308,-0.9599459168533463,0.11305911625195743,-110.46853599032848,57.91883616166147,39.95036002158318,1.0872514396403514,1.8593562219127426,1.1480426193458495,2.035817431706386,1.3069098073641314,1.0039104202116038,-0.202611478585724,0.5088362494039754,-0.5817463184698923,0.6072520810551532
0.56,-122.61928874008026,64.86650846908593,195.13416616728534,0.20706418983749714,1.4777189273926348,0.10914538955767263,0.8408071319587013,0.5574534755872478,1.1001779947772605,0.46670293892499554,0.7023042795202611,0.3547497717653275,0.4168178031437803,-124.84251322338486,78.15740146709375,189.9485413860556,0.1837084491916475,1.6414854892307296,0.08064447274629528,2.4902763094097184,0.5477532064844282,0.6597703249626248,0.4028477568839461,0.6577375024184275,0.35155490852737686,0.5232902527682042,-170.8320354332708,27.207650355275927,14.480076422321591,1.5514609529581722,0.4122575448057894,1.626699942296079,2.257071036561551,2.3200025668874407,2.6356476648884413,-0.2238666548027068,0.14139263975280164,-0.9583239597531544,0.1054806474994637,-108.82270226536355,60.54066874271117,41.85625737743045,1.110267776390762,2.034340195260274,1.124364594292956,2.4002226458176006,1.3813538379715733,1.124434600585053,-0.20125497098791983,0.5261417513682319,-0.5505230283698924,0.6184387179367842
0.57,-122.32761060817961,66.72602008289569,193.74745066939923,0.19496930165460397,1.5293050830049972,0.12337915074770624,0.9805204215057121,0.5708303983243052,1.0561355254035265,0.46011127154197534,0.6970023797323623,0.3530589369188186,0.43359803469105446,-125.01968565953885,79.63116830593749,187.59338124856583,0.19059950782383003,1.5418621686670295,0.08429902427483049,2.3367073712757453,0.5007519172427003,0.6469848422667294,0.38800338646575094,0.658171740370067,0.3415005431673834,0.5412006935089136,-172.22945829564244,26.742578033500486,17.191965848422853,1.6968995642691305,0.3335173285095294,1.6498459093814413,2.0390426622719104,2.3048924439416467,2.373730803064211,-0.2198500253758446,0.1615035858333499,-0.9563663269685482,0.09790183112802969,-107.18780415498729,63.04042167518471,44.25882287929684,1.1245029934923072,2.213827155646047,1.0794389389503765,2.746556928210648,1.4435803551317,1.2437301023409202,-0.19590874196277097,0.544052268835964,-0.516810053532535,0.6294409319826019
0.58,-122.0785508609765,68.58762439807562,191.997309658066,0.18114969893663993,1.5673471119243059,0.13750030574838118,1.1470443493552216,0.5854263682066271,1.008174760809132,0.45107874597737696,0.6925926470676469,0.3490935832037521,0.4513754897330783,-125.13026969820626,80.94894625082341,185.33311094435447,0.19541106725405305,1.4339465096261363,0.08627769083180684,2.1387102103619715,0.45434396505572394,0.6318049449807677,0.37402149924181277,0.6587624805098203,0.331844700447068,0.5574215955300312,-173.60715228708185,26.11065288482631,20.029848855375196,1.819110837482542,0.267123002395274,1.6387293174249984,1.8160072972710157,2.2534259561775487,2.102241864308039,-0.21459866235628205,0.18262301689374377,-0.9540247676678281,0.09045480769601037,-105.61292255287378,65.31489221208197,47.207961128626145,1.1288912506629607,2.3918914521023362,1.0154084984747511,3.0515117248994907,1.4908340916731238,1.355607917856599,-0.18592703443328173,0.5623968277531096,-0.4811414550774596,0.63990600531808
0.59,-121.87508335195976,70.4273560626878,189.85621118120102,0.16635881908116534,1.5906840910795421,0.15092986380968312,1.3348123726440682,0.5991555544565421,0.9592825198577076,0.439428049168066,0.6892114944873768,0.3425935178313737,0.4700023589591387,-125.17925303882095,82.09903218707112,183.24115652118329,0.19796626252012567,1.3210011916868007,0.08641045666239348,1.9086236343914822,0.41177657010503027,0.6148947504510426,0.3613050774049541,0.6593866080726343,0.3229660540592954,0.5716843409842205,-174.93798799061793,25.350871172754342,22.94291287371848,1.912832746987938,0.21440632968909604,1.5934829504309689,1.6030132806249102,2.1729377067557345,1.836858668960102,-0.20843255684997686,0.2044087950614207,-0.9512677336308432,0.08327949824002419,-104.14978479469109,67.25968397681062,50.727595587487066,1.1228342011138346,2.5616987938969653,0.9360639739959064,3.293256007052381,1.5212049678556598,1.4541174172468843,-0.17084058593205534,0.5809623193509847,-0.4442290624944419,0.6494435270526155
0.6,-121.71800209406427,72.22115952774644,187.31365047602466,0.15146678082698128,1.5983221982703577,0.16307608708741764,1.53570211229956,0.6098593301572792,0.912674823668654,0.42509557162614214,0.6869477105107035,0.3334060146423993,0.48927611883413036,-125.17357218857454,83.07411351211057,181.3810356262265,0.1982020499131448,1.2062155191996,0.08469902420154256,1.659955937132924,0.3759345950160308,0.5970475171943497,0.3501977295948218,0.6599378923818544,0.3151852579251194,0.5837912935393328,-176.19641798116965,24.507337889842162,25.878775032882128,1.9744038284404768,0.1759291343771502,1.516125323527027,1.4121714030314299,2.0718013252360112,1.5910368043448457,-0.20170158635813737,0.22649569108625778,-0.9480826338976177,0.07652017961342003,-102.84883133561756,68.77726781857176,54.80962008276972,1.1063252483856174,2.7159380123382393,0.8465849843036065,3.453841595047404,1.5337157595166202,1.5340665527226458,-0.1504198277602842,0.59950039404648,-0.4069325495626228,0.6576510017491101
0.61,-121.60610424244564,73.94546079219575,184.3799113255894,0.13740010619219234,1.5895285326584376,0.17337229938213722,1.7393060349667502,0.6155381805619544,0.8716238174924744,0.4081522530577015,0.6858349479783616,0.32151134423008476,0.5089399525104711,-125.12145996697453,83.87159583211815,179.80090943332308,0.1962046931933892,1.09252850863644,0.08131435999944002,1.406209320818936,0.34905882209525707,0.5791200492813413,0.3409557725810977,0.6603380681111487,0.3087365424204753,0.5936311730447761,-177.35949025152527,23.62669785036088,28.786335869431312,2.0021144051753357,0.15164937612862384,1.4104616084646893,1.251790968738818,1.9582670424700575,1.374990926788958,-0.19476475064914198,0.24851492995274505,-0.9444759037579239,0.07032233532957427,-101.7550979667024,69.78523395001704,59.410107971334426,1.0800291496070082,2.847326639573499,0.7531035655353906,3.521299628000265,1.5283345627514433,1.5914859306229923,-0.1247237274703639,0.6177378209612516,-0.3702140077521421,0.6641436498830968
0.62,-121.53642118093272,75.57789737183394,181.0885497784606,0.1250725133448492,1.563948487329617,0.18131885604343645,1.9334781284222942,0.6145598949572156,0.8392362510760434,0.3888167108386062,0.6858475103623155,0.30704077546867725,0.5286885539979159,-125.03177773899469,84.49370554695288,178.52946547424617,0.1922276436834698,0.9825004699508272,0.07658154219424988,1.1598607278397575,0.33255591031419224,0.5619405806553702,0.3337266701440362,0.6605446726811897,0.3037471467509361,0.601188361356084,-178.407657568149,22.755540068098615,31.61860919045068,1.9963984667945045,0.1410868351825895,1.2819015926635442,1.126060160573042,1.8394356977676185,1.1951265891057925,-0.18796991564819146,0.2701149613378804,-0.9404708353612259,0.06482943773686112,-100.90440209790759,70.22375910671552,64.4485952991989,1.0452929107487074,2.9491304121917032,0.6621414747527062,3.491046054518163,1.5058751462014606,1.6239627687245286,-0.09412596777936542,0.6353896134707955,-0.33508020724630916,0.6685856889455849
0.63,-121.50448246842683,77.09814044249332,177.49715243528482,0.1153144851572206,1.5217283155758687,0.18652576793891623,2.1051666744640896,0.6058280437547953,0.8182020717667833,0.3674580771895195,0.6869003717766404,0.29028415909822464,0.5481793211275857,-124.91341670571599,84.94734971265397,177.5735805838834,0.18668128996307018,0.8782345523281351,0.07095296376552623,0.9315746077392872,0.3269245462622773,0.5461933719707485,0.3285361796133976,0.6605549093274462,0.30022674685652423,0.6065451229982707,-179.3253890363656,21.937968614473693,34.33533169285188,1.959831076706166,0.14345947829564398,1.13718433920515,1.035228067140589,1.7205656354319645,1.0539551480943632,-0.18163548954522798,0.2909819537254058,-0.9361033640378251,0.060179310952732816,-100.32030276206066,70.0613493784356,69.81099908810634,1.004080340471691,3.0156394280269674,0.5799966899182945,3.366320458530364,1.467789500035186,1.630805494763905,-0.05931191845025428,0.6521740639842648,-0.30251694989538946,0.6707198932833944
0.64,-121.50459984624887,78.48873516708622,173.68602067363503,0.1088093239208805,1.4636213366533797,0.18875059519945117,2.241514076453632,0.5889056752795304,0.8105464235252503,0.34458656881805466,0.6888539598928235,0.2716847294217792,0.5670485032909897,-124.77483419111489,85.24372375354665,176.91795818093007,0.18009186065375893,0.781346161903979,0.064971076795437,0.7296749978277004,0.3317990315474101,0.5323031713509455,0.32528550796745415,0.6604054315413999,0.29806757367485964,0.6098765206061036,-180.101572819336,21.21350716375115,36.90514405426342,1.8969198221942891,0.15777712006973768,0.9839887312548757,0.9761945412154667,1.6048186182756101,0.9504440919110638,-0.1760351932195797,0.31085826260285393,-0.9314162369548178,0.056499984276557814,-100.01218957380807,69.29813723229293,75.35631744053812,0.9588398957382619,3.042559040691866,0.512160800113934,3.157590572441882,1.4159038527271723,1.613033996427787,-0.021243268568567914,0.6678288216371174,-0.2734205493050475,0.6703921260921506
0.65,-121.53016237805421,79.7358816773815,169.75460064683924,0.10604108934331627,1.391051680717603,0.18792598003947042,2.3311401202325306,0.5640875216150961,0.8174151676434206,0.3208308111938344,0.691523709737614,0.2518196937538293,0.5849313247052597,-124.62376283413157,85.39767338530791,176.52667152186262,0.17303510514938872,0.6929767291072336,0.059222657585773573,0.5598729465840039,0.34608841089592957,0.5203570803157107,0.3237585840764762,0.6601684591025183,0.2970544676008765,0.6114385953095652,-180.7296754420586,20.61546509748405,39.30714838744563,1.813708387726223,0.1828922584654115,0.8304256007395024,0.9433887112043865,1.493435755204315,0.880693404639231,-0.17138670558904565,0.3295570930345,-0.9264522184152962,0.05390534084140089,-99.9746828063646,67.96635586920816,80.92669974116106,0.9123221903950335,3.027293285952088,0.46283694587086727,2.881090748231276,1.3521651988037542,1.5732019270775333,0.018908027191481675,0.682127035186131,-0.24853192533278978,0.6675678168415055
0.66,-121.57393479596739,80.83007322343484,165.81571226414073,0.10725678259015624,1.3061092078916947,0.1841730015411155,2.365443079708317,0.5324043423799805,0.8389132547334491,0.2969023365280506,0.6946938506104249,0.2313665606376511,0.6014845034953924,-124.467098865523,85.42683917998636,176.3463384504023,0.16605682439441688,0.613844731677726,0.0542878103605225,0.42522546217739704,0.36817259481484743,0.5100973074251902,0.3236384432325256,0.6599449357353669,0.296883052019867,0.6115510199137519,-181.20762171013365,20.169842175910468,41.531697303017104,1.717239607796057,0.21751709953395376,0.6844438867931867,0.9298036426068603,1.3862408636433534,0.838791882593449,-0.1678445154479182,0.34697185525271174,-0.9212471649458787,0.05249116281602093,-100.18835412408339,66.12799530672181,86.35988053607069,0.8673597431204327,2.9691127769240673,0.4346063081892398,2.5568280946583175,1.2784503920330277,1.5150627012084679,0.059849636334241035,0.69489231824735,-0.22837927545390316,0.6623380199676702
0.67,-121.62834895040787,81.76650719472997,161.98791934699113,0.11244281683193647,1.2114598102463212,0.17779887022618404,2.339699179264166,0.4955408595148053,0.8740121130537675,0.27354939986700333,0.6981343645110077,0.21105699387674995,0.6164090820895014,-124.31094588877687,85.35063626625325,176.31053108072564,0.15959568275038594,0.5443210099167873,0.05068802909350077,0.32628916725607365,0.39611242673622693,0.5009966150632049,0.32453085652380814,0.65985553959072,0.29718369543369705,0.610575826848234,-181.5373888432908,19.894791514613978,43.580353010773294,1.6149459090410663,0.26022065016577633,0.5532180826915072,0.9280462613406941,1.2823226539931443,0.8177103696235244,-0.16549689107514676,0.3630792843416575,-0.915823858509224,0.052332204930304764,-100.62164709148199,63.8699830118266,91.50251812843031,0.8266173150366916,2.8692041214408426,0.42826933650151233,2.206427154539498,1.1964674867045089,1.4431169460863664,0.10027154070929432,0.7060111036391835,-0.21323541729854786,0.654913793405921
0.68,-121.68577851789783,82.54520140789313,158.38671148678603,0.12131539922257562,1.1101759146540056,0.16927829706425776,2.2537517121293034,0.4556635396722676,0.920546075596573,0.25150412067905226,0.7016195487681622,0.19162213894614105,0.6294711818849182,-124.16076752003875,85.18914273418561,176.3449757772445,0.1539231534117267,0.4845111001203351,0.04883822637071618,0.2614241103150775,0.4278382160908229,0.49240091057742746,0.32599281298545046,0.6600303600800241,0.29754886825229315,0.608893966713154,-181.72435402069317,19.80060615875064,45.465050998233316,1.5140408015950384,0.30942114314676683,0.44259765406975166,0.9312702035169836,1.1807458055609024,0.8101318871860634,-0.16436657687237904,0.3779361372467152,-0.9101873709324393,0.05348071031332682,-101.23378906386473,61.297488472169356,96.22280016312968,0.7923264686270847,2.7305988602111038,0.4428685612868254,1.8511123178055802,1.1077608640285852,1.3621176072436711,0.13894845866374483,0.7154410519184141,-0.20309511151779722,0.6456091589079507
0.69,-121.73879413791346,83.17078634307805,155.11547592836857,0.13332600885603718,1.0055135091753709,0.15921738566916566,2.1121560280152445,0.41517935371580206,0.9753165631299956,0.2314285643432947,0.7049461732916129,0.17373540763250997,0.6405182609866071,-124.02158915912015,84.9619835409732,176.3731005115322,0.14911090090429813,0.43432816610168906,0.04900759712684718,0.22720005575463076,0.461294317742362,0.48370377600518794,0.32756331395921306,0.660598039369508,0.29756168042276826,0.6068814448533484,-181.7764738376806,19.890153440522862,47.20658849473051,1.4209760218808516,0.3633888128639024,0.35668887987884523,0.9338938000704087,1.081165970868279,0.8091702467651909,-0.16441469089327804,0.3916700225379086,-0.90432247174183,0.055966457921214324,-101.97841597906091,58.52611691413605,100.42079045657981,0.7660337816494673,2.5579835268827367,0.4758814156831657,1.5100167008734244,1.0138114583871851,1.2766241975754336,0.17482931438561874,0.7232145482498263,-0.19767574465063495,0.6348146077615762
0.7,-121.78040587345305,83.65199431935885,152.25740709378204,0.14768501312362997,0.9006738572904857,0.1482999406701907,1.9237529617066353,0.37646683727340485,1.0343102519346337,0.21386617282010778,0.7079490124922692,0.15795989219045234,0.6494887907054414,-123.89818725591574,84.68729846031505,176.32151578582963,0.14502939494876196,0.3935462078314149,0.05129356361954123,0.21885989510742407,0.4945306051528694,0.4745123291270545,0.328794114916914,0.6616751684706603,0.29682365167298486,0.6048867000564729,-181.70339469416157,20.159659517939254,48.83261790783087,1.341010751576439,0.4202725715308311,0.2976166903364065,0.9320492634509108,0.9842582480444024,0.8089548244630137,-0.16554729009021274,0.4044655330708961,-0.8981932661842245,0.05979812712144971,-102.80756245181587,55.673823837972535,104.03533938348262,0.7484080797836113,2.3574017230958675,0.5235538373813358,1.1989162255723802,0.9161985043539034,1.190672225967021,0.20710360750126777,0.7294368097505288,-0.19644194358707498,0.6229645702552704
0.71,-121.80430273806502,84.00091138659604,149.86941992392195,0.16340690683770984,0.7985862376564051,0.1372204771883374,1.7007432400109042,0.3416272867774164,1.0930183488927805,0.1992044758986989,0.7105117473629178,0.1447072480352266,0.6564140459855758,-123.7952123529307,84.38087245429355,176.12505577677425,0.1413761327513092,0.36183110111183175,0.05561193113425534,0.23080248407835358,0.5257460776310162,0.4647694164677775,0.3292784008722152,0.6633567157766714,0.29498004547407763,0.6032107563938451,-181.51559383548812,20.5997422632247,50.375355008306855,1.2779193074720703,0.47815893789941355,0.26548880933532437,0.9237416111184549,0.8919051259893236,0.8050584014733634,-0.16762407685151348,0.41654726952276294,-0.8917449395813514,0.06496555130855083,-103.6756134244733,52.85333390752478,107.04689248015326,0.7391532750771963,2.1358724362345187,0.5813297329395455,0.9294299871139989,0.8167713500438933,1.1075740899770743,0.23523864685045248,0.7342786229948195,-0.1986515953078731,0.6105030537772959
0.72,-121.80509026396207,84.23208313251556,147.9787890901094,0.17937944779282555,0.7017372618073686,0.12661358293381839,1.4574086066975305,0.3122962817054254,1.1468248263254108,0.1876532252309644,0.7125719192542435,0.1342129035034688,0.6614118266566459,-123.71720663579647,84.05548814316892,175.73104990777725,0.13772885864752848,0.3387522749506789,0.061704794642589024,0.257055996742875,0.5533054212588376,0.45480649309340454,0.3286757406263704,0.6657082234413205,0.2917413773919374,0.6020914576170839,-181.2236350108532,21.196597473726857,51.86921256357335,1.233846237383115,0.5351617094879375,0.2585600775973724,0.908722835854684,0.8071267250287879,0.7947408784149503,-0.17046867515118713,0.42816151322323204,-0.8849072356537979,0.07144234871688539,-104.54279891531198,50.165689168787274,109.47611903286057,0.7370540957939361,1.9009611291961446,0.644318872306151,0.7086852954688401,0.7177786887070136,1.029825343279083,0.25898645642938883,0.7379642042882582,-0.20341804206505074,0.5978515678271819
0.73,-121.77851208240997,84.36156880328788,146.5827433187012,0.19445609369048947,0.6120604734800263,0.11699133520957865,1.2086696600668305,0.28953833763740905,1.1914157096950804,0.17923949384518975,0.7141196156312658,0.12652942084635502,0.6646731105156406,-123.66849462628701,83.72053834803341,175.10254165817986,0.13361733127555542,0.3237786672952163,0.0691657880414238,0.291718516140248,0.5757586100069901,0.44531289641121696,0.32673194104406056,0.6687603994935976,0.28689999452640047,0.6016927641611475,-180.83759590556176,21.933254512702355,53.34854610045301,1.209303404838855,0.5895306767765197,0.2735714796638881,0.8881251272359078,0.7337724280616829,0.7769915936913245,-0.1738798637003349,0.43955819933683127,-0.8775991391970523,0.07918847397125517,-105.3778592830743,47.69532520114088,111.37883189245049,0.7401508305412491,1.6603458033702714,0.707739670154964,0.5394078842603843,0.6219135879651276,0.9590769108735347,0.27836366437463345,0.7407551101225271,-0.20978146117289193,0.585382609424774
0.74,-121.72163047999541,84.40602513928518,145.65077003132197,0.20756582524571307,0.5308907873294142,0.10869790199466049,0.9686851376163058,0.27382784357909223,1.2231531396205024,0.17381867593753322,0.7151906106357805,0.12153677270999867,0.6664435683750195,-123.65294610881652,83.38191696869764,174.220228195364,0.1286047427492826,0.31626133279878255,0.07748024993898295,0.32934599230998346,0.5918883673005404,0.4372234969772952,0.3232926219528058,0.6725065392273302,0.28034090785512433,0.6020997100170749,-180.36669464823112,22.790827887606003,54.84565395138767,1.2032914902054965,0.6397624904131471,0.306217844186906,0.8639409550261521,0.6760275479921815,0.7523756913131681,-0.1776431818552818,0.4509744919632898,-0.8697341921817425,0.08815238094600154,-106.1596127680626,45.50684212542804,112.83808156851967,0.7460101510573234,1.4214169433734134,0.7672788650764583,0.42036805665020816,0.5322494077262766,0.8961469544836632,0.2936109070490859,0.7429315024189299,-0.21678186162763205,0.5734007269413992
0.75,-121.63294107095048,84.38188064585314,145.12905120290495,0.2178271089387464,0.45898051277926316,0.10188584760894155,0.7496756974373302,0.2651052468468427,1.2393618475902541,0.17109837128428923,0.7158555080358936,0.11896608315090826,0.6670023521588737,-123.673633609614,83.04219011645613,173.08297357305395,0.12236719380202114,0.31540592382467125,0.08607602391654628,0.3652727340539451,0.6007929144956999,0.4315459877190068,0.3183095440462116,0.6769029490202417,0.272046334316352,0.6033192415424458,-179.81911654022423,23.749699002034664,56.389117289262636,1.2135186926813428,0.6846973605112991,0.3516836168575494,0.8384645278793954,0.6378181781794073,0.7227149500920454,-0.18154238108412946,0.462620792745788,-0.861225953134585,0.09827264786028886,-106.87730248499004,43.64344921779315,113.9545333838489,0.7520408479185378,1.1909396356498068,0.8193290865315469,0.34709422255471994,0.45206454503711413,0.8410670399848005,0.3051397839051968,0.7447723611132511,-0.22352665552922987,0.5621319030397074
0.76,-121.51240896500897,84.30463961868054,144.94629082542383,0.22464679336423757,0.39656575526606425,0.09651506402896824,0.5610967151271716,0.2628910631984786,1.2384935122965377,0.17067110260897345,0.716206865178793,0.11843232817740482,0.666640590061013,-123.73243046892686,82.70103302490386,171.70686217024615,0.114759168350636,0.32024277478192853,0.09437900482573836,0.39585636766167154,0.601993726613397,0.42916354962501846,0.3118390955542848,0.681872269669283,0.26209371660826014,0.6052867712408171,-179.20202096969535,24.790570109544763,58.00251332278149,1.2366841385240162,0.7235888982360739,0.40518018159353414,0.813806053170354,0.622212892192967,0.6906526211383153,-0.18537020518677777,0.47466958195558545,-0.8519932699149138,0.10947904500033714,-107.52976335874806,42.126936339741015,114.83628146527917,0.7557984262381268,0.9747917269209904,0.8610928458763786,0.31275373657523575,0.3845798441139271,0.7931708899897633,0.31347528674532954,0.7465363825351119,-0.22924709929192838,0.5517209676634491
0.77,-121.36143317972784,84.1883374135431,145.02018138425808,0.2277842637938123,0.343465544076324,0.09237339486145132,0.4092065506290791,0.26643763839646367,1.2201613393768704,0.17205159744595805,0.7163462742275082,0.11947142893647214,0.6656416988970736,-123.82961347887351,82.35589739940704,170.12290852607276,0.10585651260095892,0.32960696020796926,0.1018664023923285,0.41864294105424354,0.595548469557949,0.4306532112810952,0.30403300057841326,0.6873093243483812,0.2506474298734564,0.6078778113904866,-178.52169069061807,25.895344704271626,59.70350231746181,1.268794109708983,0.756139037862041,0.4624216984145221,0.7915621541820255,0.630913014507181,0.6591630074115465,-0.188937953472813,0.48724720217819756,-0.8419651853647913,0.12169313513496396,-108.12360643579198,40.958955767139315,115.58915337734383,0.7552303015944353,0.7777780039852231,0.8905702997379223,0.3090955204886003,0.3326503634103455,0.7512349312095121,0.319200328038858,0.7484452521818771,-0.23333969613808175,0.5422360490213994
0.78,-121.18276415369279,84.0451555783475,145.26384504543782,0.2273674622650223,0.29919378294186333,0.08911673285931926,0.2970048868510678,0.27489558602547004,1.1850630118014616,0.17471472722286693,0.7163730376095861,0.12157775185918768,0.6642650929216107,-123.96353920541283,82.0028491179738,168.3737002363087,0.09597439714900514,0.3421408032675319,0.10811050064780545,0.43244554145457553,0.5821455767529328,0.4361564714659047,0.29512219997734146,0.6930888371308273,0.2379449776404277,0.6109235222474869,-177.78377217575263,27.047805404677604,61.50328105258753,1.3054850706609613,0.7824949147462343,0.5199878134837564,0.7726834233050336,0.6638977233656901,0.6310705643846106,-0.19208328415726683,0.5004285740405401,-0.831085351633478,0.1348286027468442,-108.67074427155707,40.123364693215876,116.30835857188941,0.7488307425580705,0.6035116672913666,0.9064719845292138,0.3273526153465958,0.29845700260745406,0.713669182973074,0.3229070432639463,0.7506707180714188,-0.23539061065276837,0.533678628786192
0.79,-120.9804075774354,83.88519642451428,145.59173026366878,0.22385806242411607,0.26306659457343706,0.08632437381059258,0.2244680486630669,0.2874689761104451,1.1348247767904904,0.17813090483769592,0.7163755480637451,0.12423894120870613,0.6627342520968319,-124.13045273991797,81.63749366608081,166.50937582147515,0.08566211400040508,0.35632677995913964,0.11280702811324672,0.43732532194620893,0.5631525781626124,0.44533032278906914,0.2853957088741316,0.6990741259887653,0.22427908620717826,0.6142285598746592,-176.993550060081,28.234077198319564,63.40640351594852,1.342335863389454,0.8032093117184143,0.5755375544445009,0.7575335434886806,0.719261453841867,0.6086402230758983,-0.19467579113612699,0.5142348613060066,-0.8193157737909944,0.14879158144094612,-109.18565413461795,39.589362987721856,117.07207526764662,0.7356966421671496,0.4543531047114116,0.9081101117558498,0.3590211051187962,0.2832388256405908,0.6787418506780818,0.3251574616550898,0.7533264518627351,-0.23518305642953322,0.5259974991931591
0.8,-120.75954041592738,83.71640882031686,145.92461040898667,0.2179742154778546,0.2342928353973449,0.08356254648473009,0.1889893749198167,0.30353345405408116,1.0718000067996547,0.1817966485702921,0.7164258839132017,0.12696602431700368,0.661229505070968,-124.3244652924514,81.25589296871304,164.58338921880477,0.07567689722175876,0.3705527834151895,0.11578533017144288,0.43446520908798536,0.5405863374695892,0.4573946702463951,0.27517677108242533,0.7051257842389606,0.20997750243214386,0.6175894150773324,-176.15620311510258,29.44287584230473,65.41098202418843,1.3751589237577904,0.8191701721767813,0.6278561501368725,0.7460927966511152,0.7932606881887136,0.5932886771987651,-0.1966200137524371,0.5286342191275771,-0.8066395813579179,0.16348123548741753,-109.68278098842819,39.315152991416205,117.937293781541,0.7154960313483689,0.331399899681808,0.8953172687115516,0.39646453679790666,0.287100674647449,0.6448100570668686,0.32645435675546836,0.756465155999264,-0.2326892895842994,0.5191048004111892
0.81,-120.52644135976108,83.54464829412126,146.193491125807,0.21058732873974081,0.21204078480648755,0.08044658431056549,0.18593725825868224,0.32269694223787854,0.9988487063550621,0.18525902876785258,0.7165775342818775,0.12931768924630754,0.6598853498130054,-124.53771033738028,80.85537616227708,162.6484802399969,0.06693690041154099,0.3832057385656634,0.11700146696103608,0.42593868513068206,0.5169795493810885,0.47127573221324615,0.26479869206153805,0.7111094920120096,0.19538235160442294,0.6208115732984196,-175.2770028188355,30.665546806747454,67.50928749068457,1.4002641937863223,0.831506985175965,0.6767350412398239,0.7382293794389463,0.8805738463171653,0.5854448400252852,-0.19785568449664862,0.5435458365756944,-0.7930624128100546,0.17879073717155677,-110.1744207891626,39.25184782183114,118.93797557808554,0.6883761281085269,0.234526567854045,0.8684203378458221,0.4333290611537571,0.30892301110587694,0.6105268508033985,0.32722184239690844,0.7600808612975547,-0.22805006022691637,0.5128923700802784
0.82,-120.2884067899363,83.37384570843363,146.342368146002,0.2026120752116774,0.19547803349699736,0.0766921009170928,0.20926055842921898,0.3447945389811672,0.9191187618501023,0.18813367517980395,0.7168656724702375,0.13091843133154216,0.6587917197152975,-124.76066425025893,80.43515971488907,160.7531832675699,0.060452854746642394,0.39278352931270394,0.11651836870441064,0.4143955266151789,0.4951405999302662,0.4858259020876162,0.25458244065082275,0.7169023792396051,0.18083068213384923,0.623724204695273,-174.3614347312474,31.89590157051743,69.68875602572108,1.4146887922387836,0.8414824036714637,0.7227065005052911,0.7339506741381914,0.974760797183548,0.58456082567801,-0.1983551957638731,0.558847379752252,-0.7786119774922148,0.1946086124098941,-110.6693143451334,39.347365355839834,120.0853723370935,0.6548438225142391,0.16247488206803568,0.828268810559115,0.46478143638641906,0.34638963613171225,0.5750016003535101,0.3277945804426388,0.7641159174304778,-0.2215449918353868,0.5072468576647415
0.83,-120.0536012317904,83.2062535340585,146.32987518354818,0.19490595590427828,0.1837852493136484,0.0721484932288005,0.25209017951915647,0.3698248887431905,0.8358461394776262,0.1901167197254454,0.7173091134990547,0.13147084064645462,0.657998324857003,-124.98260071261868,79.99671836133692,158.93910207795608,0.05724054168763384,0.3980105789520595,0.11447826911934979,0.40270364373917444,0.4778353749347591,0.5000826939255114,0.2448176480018618,0.7223976664067453,0.1666374855709015,0.6261915262060415,-173.4152431038223,33.12985894984018,71.93337311720437,1.416382015321258,0.8503776124647121,0.7666771723967304,0.7335582385161385,1.0688788854672986,0.589250799166985,-0.19811849870041276,0.5743856046818774,-0.7633355118859179,0.21082026231226,-111.17204847828063,39.55006805732756,121.3701887762195,0.6156489531993589,0.11299552414147865,0.7762909704270501,0.4875965116462579,0.39613531620103354,0.537903984782307,0.3284141899023008,0.7684717987267425,-0.21355741882005036,0.5020623868438799
0.84,-119.83079113990507,83.04273980464063,146.129920501077,0.1881883566019652,0.17614881625101564,0.0668125426597383,0.3073002194893077,0.3978477443514911,0.7521835549569186,0.190991364552396,0.7179130762935836,0.13076264560594522,0.6575210588719997,-125.19213985325622,79.54388373238913,157.2390811982452,0.05822016233465598,0.39794131991432014,0.11107248705661275,0.3935936267439886,0.4674429624903919,0.5135174314657722,0.23574812786174532,0.727507552511121,0.15308214836149356,0.6281203418939517,-172.44441664234762,34.364902981098425,74.2253475494328,1.4043314875684478,0.8593811850596444,0.80952430551283,0.7376635358579717,1.156174874932727,0.597520216196336,-0.19716591390918112,0.5899894230513913,-0.7472952070772425,0.22730934583249482,-111.68322853159131,39.8119420826352,122.76616426355984,0.5716919476769459,0.08303950637091749,0.7145364078592727,0.500126105811467,0.4540024218318739,0.49951222212713126,0.32923145165624706,0.7730225181172836,-0.2045369264665579,0.4972499394478021
0.85,-119.62893216601579,82.88310550865202,145.73143982840793,0.18298267518443154,0.17174170233681832,0.06082358624902607,0.36800053814412537,0.4288668271429767,0.6710536552238061,0.190629799500746,0.7186720581987438,0.12866927027855415,0.6573494496063657,-125.37785269647999,79.08268561191058,155.6763188643017,0.06411136889173712,0.39203825799342806,0.10651324042429451,0.38934956068412224,0.46564244052128684,0.5262222191455693,0.22756254064024314,0.7321644793818303,0.14039896426562973,0.62946357997777,-171.45514396820397,35.59937986180721,76.54692001996307,1.3786147821318928,0.8694924544256915,0.851727802736127,0.7470649669725118,1.230746061873323,0.607043642824968,-0.19552958516296667,0.6054842347508806,-0.7305621744200468,0.24395867290308632,-112.20027415817056,40.09115014745594,124.23458409453536,0.5239653576557968,0.06899340254943885,0.6456636458830777,0.5021798191319652,0.5153846420943047,0.46070693244882344,0.3303130574294876,0.777629202804351,-0.19496242834226624,0.4927430715387359
0.86,-119.45661229503695,82.72640726887303,145.13740709498626,0.1795812643930214,0.16970472397304429,0.054443885817775546,0.4279384035744137,0.46272048557456386,0.5950123967872833,0.18899113675417398,0.7195723963966072,0.1251526689838144,0.6574542250844736,-125.52888704857557,78.62098343849146,154.26438931612162,0.07533390210754864,0.38021565265022783,0.10101155281052478,0.3915793085921379,0.47317863430893686,0.5389925420384496,0.22039031904076586,0.7363209915532661,0.12877196370088254,0.6302199564452415,-170.4537666460155,36.83167828515449,78.88210199281416,1.3403636573197928,0.8814492685854448,0.8931057300144032,0.7625253511034237,1.2880687110755802,0.615453231114512,-0.1932445082884572,0.620706050571168,-0.7132099462070562,0.26065037211761705,-112.7186151306569,40.35384066912779,125.72920718231732,0.47352641160680503,0.06694646605735761,0.572847335327151,0.49484203753971917,0.5756264586498503,0.42290678741462395,0.3316518382671701,0.7821543087256921,-0.18530820346945853,0.48850002970954437
0.87,-119.32138626558785,82.57127097189502,144.36325458432987,0.17803181006598068,0.16914050650932377,0.04802875359087786,0.4817966640978646,0.4990003536596064,0.5261118121306977,0.186115985073626,0.720594343768082,0.1202571414853562,0.6577942381801539,-125.63558870446802,78.167955653491,153.00806959926243,0.09192468242042846,0.36284459357361293,0.09476399890698295,0.4010832498627732,0.489739284912643,0.5532799258090122,0.21430245581489024,0.7399484595744865,0.11833387344832454,0.6304301875800017,-169.446745046693,38.05936815701651,81.21813069188147,1.2916358937054013,0.895685785832386,0.9327002076206513,0.784512458541096,1.3253280086520434,0.6206087883076085,-0.19034018373134845,0.6355139010223348,-0.695308686681217,0.2772653738647847,-113.23303621822394,40.57515088688182,127.20111404770246,0.4214882160397975,0.07297158989845194,0.49960371519826036,0.4802407998737156,0.6304387122620678,0.38794004735261894,0.3331795477055895,0.7864740865508802,-0.17601490406693357,0.4845027335293664
0.88,-119.2290650140375,82.41618388211566,143.43486497892374,0.17814410090278726,0.16912949141469716,0.04199093392905612,0.5253908839016295,0.5370161788350125,0.46576883035738087,0.1821182679472459,0.7217136829048861,0.11410274540937158,0.6583222144294392,-125.6900972289258,77.73351748067446,151.90479943643928,0.11348302891762647,0.3407199097918987,0.08794908281290453,0.4178263105305187,0.5139595017536576,0.5710103931914766,0.20931626624387817,0.7430349750713517,0.10916854988677084,0.6301703862917138,-168.44063402610774,39.278401983376746,83.5464606258488,1.2352011289490425,0.9123206101948301,0.968829726400004,0.812969512724967,1.341529851718639,0.6208310803499592,-0.18683392558385162,0.649799256770849,-0.6769211499287177,0.29368258161454014,-113.73894024416873,40.73940325774677,128.60304141254957,0.36901375027891187,0.08339743318239495,0.4295551875948039,0.46127634468333234,0.6762822152592826,0.3578521971068937,0.3347813326992724,0.7904882413466792,-0.1674670737084735,0.4807533369619421
0.89,-119.18304362240416,82.25975448347843,142.38630756652648,0.17951672307472819,0.16877184018418917,0.036762853906044016,0.5557797483861641,0.5758185448385384,0.41466610204917514,0.1771749089702439,0.722903022504748,0.10687682238674301,0.6589890285663651,-125.68689546083944,77.32772517167696,150.94654883068924,0.1391553986480175,0.3149932523739792,0.08073193065900722,0.4410074082499676,0.5435538194777337,0.594286894868071,0.20540288951220073,0.7455827742725815,0.10131584572827945,0.6295433854753343,-167.4420514168674,40.48249764411608,85.86317848231879,1.1742593897119207,0.9311712893872042,0.9992913921747717,0.8471689484129622,1.337409569643114,0.6150883348592915,-0.18272669789282314,0.6634916034866856,-0.6581010390084486,0.3097783122967495,-114.23335472175275,40.83955897611513,129.89287667899677,0.3172999928332966,0.09504720014905767,0.36616744066232143,0.4413142175525119,0.7106652763748498,0.3346631001176378,0.3363110055078048,0.7941261662385629,-0.15997811110842808,0.477269148111042
0.9,-119.18375824309688,82.10093188750369,141.2574938509841,0.1815830726608092,0.16725266995689728,0.03275911437088701,0.5713031310611484,0.6142773742621603,0.37271787837568904,0.1715140504600623,0.7241329515755529,0.09882406598116282,0.6597464498411578,-125.62328615600542,76.96020465315237,150.12183854257907,0.16766879412731675,0.2870788717871929,0.07327423007166654,0.4692127293946164,0.5755616240791531,0.625015085130422,0.202496185263247,0.7476055727140231,0.09477769387480009,0.6286687633609745,-166.45762013748205,41.66281098590537,88.16880857400257,1.1121211980094532,0.9517887285035849,1.0216700408999047,0.8856786440216774,1.315170127101764,0.6031267654003868,-0.17800207941263038,0.6765598097579524,-0.6388939333809105,0.32542655635096684,-114.71558137335403,40.87605315670006,131.03612549798504,0.26754675721778554,0.10542140370052697,0.31249464032443885,0.4238529506456557,0.7323058748376838,0.3201021345393142,0.3376061914227903,0.7973495734705618,-0.15378285598857785,0.47407662295617287
0.91,-119.22835462125546,81.93917981856681,140.09191518084032,0.18367439128242355,0.16392230431237345,0.030340605561402306,0.5715529114910181,0.6511976278017851,0.33912511373039095,0.16540246167346356,0.7253731608296153,0.09023550798746396,0.6605485008188008,-125.49976042697843,76.6396254874297,149.41766359582155,0.19741754698525532,0.2585390010010944,0.06574555178602877,0.5006318787899116,0.6066766423165687,0.664508014492362,0.20050181664643876,0.7491261385222295,0.0895242691990879,0.6276723488476104,-165.49387494191683,42.8079701424959,90.46755389187905,1.051883579757928,0.9735039278816486,1.0336948930142174,0.9264461022566431,1.2780896628642253,0.5855290111483911,-0.17262861682002617,0.6890093974283542,-0.6193404948258104,0.3405003747535062,-115.18746090587408,40.85518420396587,132.00731608118338,0.22091227488220308,0.11280774136921497,0.27096286879878556,0.41218670983609357,0.7411325156580517,0.3153597193398681,0.3385024668484561,0.800151729629853,-0.14903716406834008,0.4712050388101122
0.92,-119.31062963229012,81.77460295092844,138.93458979052917,0.18509425458261547,0.15837868972688707,0.029781296597472875,0.5572750833161951,0.6854433881353549,0.3125263706622662,0.15913266821266123,0.7265934955419685,0.0814367634577443,0.6613517303448159,-125.32021523722135,76.37323386182187,148.82110950630783,0.22660147919975515,0.23095598626720018,0.058332778096028035,0.5333090426734988,0.6336169814259375,0.713132095306473,0.19930560974099792,0.7501742890582398,0.08549938227825833,0.6266760001729008,-164.557141555986,43.904488625660754,92.76608142716026,0.9961362762427638,0.9954791700519993,1.033580166376546,0.9669888608238217,1.2300470895230442,0.5636788581029452,-0.16656542089116283,0.7008762313935064,-0.5994813411426041,0.3548744453105689,-115.65328371132085,40.787257366348996,132.79043783616143,0.17846268232470455,0.11631005960591513,0.24321278777876373,0.40909160343440587,0.7381352094065456,0.32089446255987597,0.3388457709510917,0.8025538218836237,-0.14582316294935826,0.46868035358700666
0.93,-119.42127587597574,81.60802487559872,137.83029236618995,0.18519530619225116,0.1505363426225184,0.03123908890168425,0.5302071945907784,0.7160424210333386,0.2912332614681934,0.15301015331261728,0.7277647522878737,0.07277581413161921,0.6621147945901921,-125.09197602487644,76.16646024062794,148.3205138342843,0.2534046639587615,0.20579999756822182,0.051245956144671395,0.5653971883824503,0.6534841295893625,0.770053287295639,0.19878064430635847,0.750785346937156,0.08262467082581687,0.6257884857850192,-163.65341070652187,44.93751540180461,95.07200365526302,0.9467282876875385,1.0167564890996215,1.020294231617905,1.0046670712332029,1.175030814464463,0.5396192094705818,-0.1597704211338623,0.7122174953532784,-0.5793628366041329,0.3684285057295497,-116.11941349615347,40.684685764902625,133.37860717101745,0.1411244953911223,0.11579844481546532,0.23001221337843408,0.416566351337779,0.7251143127687263,0.3363277896345347,0.33850262541093795,0.8045992461451413,-0.14415846165570803,0.4665196714955458
0.94,-119.54842176024209,81.44101716544742,136.8220813532212,0.18344688782263818,0.14066635170056938,0.03473281506870161,0.4928682136658026,0.7422527246764459,0.27352367223517826,0.14734087292568424,0.7288589802256731,0.06461052476312142,0.6627977611754814,-124.82558911032326,76.02262234552904,147.90609747909514,0.27619438075492486,0.18430367568332165,0.04472029922496771,0.5953827154948634,0.6640623382866452,0.8331316515215491,0.19879286715284689,0.75099901653919,0.08080255871830976,0.6250982972086485,-162.7882354314038,45.891832224012866,97.39223001593375,0.904618200741384,1.0362981990760036,0.993720176320452,1.0370028374848728,1.1167099612382192,0.5158153902827975,-0.15221031358437928,0.7231010838297168,-0.5590430488478338,0.3810512816621531,-116.59370619980666,40.56023262788934,133.7731997235546,0.10964825816784081,0.11179183712085611,0.23123955518116002,0.43565507466614706,0.704393701043476,0.36044531641036565,0.33736794390747393,0.8063467719138931,-0.14400743512536293,0.46472665836577665
0.95,-119.67842176810043,81.2758788703027,135.9500945080558,0.17948310186051242,0.12939559658207703,0.04012804203712664,0.44832443884803824,0.7635830774073584,0.25795259610438687,0.14241932898341284,0.7298491503444553,0.05729600422027445,0.6633614955708254,-124.5343675209345,75.9427460850133,147.57006062288872,0.2937118865197783,0.16735656564081444,0.03901441063849429,0.6222509812881408,0.6640246394628939,0.8989953698576091,0.19920526037621464,0.7508586318759396,0.07991824929016672,0.6246690918625173,-161.96667475000672,46.75298012300411,99.7313650049184,0.86982331603919,1.0530171323373378,0.9546925518606276,1.0619999852943354,1.058140359764834,0.49486322786176856,-0.1438710082733211,0.7335946638215919,-0.5385971838803385,0.3926444683289508,-117.08480762599184,40.42554097907441,133.98268726228662,0.0845889039535552,0.10529162876093154,0.24593107563373656,0.46637353456610053,0.6785579521931451,0.3913087935053112,0.33537041215597946,0.8078635311925373,-0.14529280020096763,0.4632882036989466
0.96,-119.79682145252053,81.1155664956742,135.2505595434274,0.17312528703827154,0.11765950954695366,0.04713439001482418,0.3999490774103104,0.7797656485302573,0.2436317173470716,0.13851748651040743,0.7307082598477488,0.05117187807568405,0.6637673599118606,-124.23370084039864,75.92552289179872,147.30620213622296,0.3052231722524258,0.15543199087588544,0.034404353613476844,0.6455703633692197,0.6530321410011833,0.9633014426728475,0.19988074584829235,0.7504107175086068,0.07984117384298205,0.6245381449971678,-161.1932934894218,47.508387986189554,102.09031584105614,0.8414724780967219,1.0657973052699363,0.904913736270266,1.078408827828319,1.0016405203692886,0.47919228903850264,-0.13476732177952258,0.7437556195524327,-0.5181218853419988,0.40312642193152975,-117.60140654936916,40.29004837159305,134.0213780041603,0.06630486181400615,0.09758843569925439,0.27238031147414804,0.5077491069372446,0.6502467423458579,0.4264658186364532,0.3324755692115794,0.8092185872393111,-0.14790603538275615,0.4621726130318806
0.97,-119.88940532809231,80.96357627563765,134.75496279753003,0.16437989626017596,0.10661004447439036,0.05531637614589096,0.35118434958377065,0.7906821714549538,0.23043018705417112,0.1358748339109461,0.7314081375845092,0.04654957614326503,0.6639772837078333,-123.94017010632778,75.9674121429322,147.10917591271388,0.31060081714450477,0.14855730008667972,0.031172733477658275,0.6654825729195492,0.6317292158008985,1.0211618583389381,0.20068411227330257,0.7497047607847215,0.0804263520670388,0.6247177345040497,-160.47221254364175,48.148382218010596,104.46524499717115,0.8179556605608884,1.0735086036804995,0.846767458884426,1.0858775268717773,0.9488214980270786,0.4708051190613487,-0.12495072476307767,0.7536229153665197,-0.4977378685328282,0.4124353198099883,-118.15150955629748,40.16033181779547,133.90819476398218,0.054974065321033425,0.09006447829875029,0.30827737451625103,0.5579700020385395,0.6220086082547284,0.4632279189214086,0.32868680500917874,0.8104775490563648,-0.1517157517850321,0.4613295660639201
0.98,-119.94323549950566,80.82378262891987,134.48932888296562,0.1534198094536627,0.09748791409384235,0.06411838465439888,0.30531458137996953,0.7962529092265861,0.21906218979193784,0.13468985860744068,0.7319183387018943,0.0436998664820434,0.6639541369170506,-123.67053672218574,76.06288488539661,146.97354091729167,0.3103177363516454,0.14633449949713917,0.029591986059493296,0.682597155076796,0.6016450662001098,1.067685894373984,0.20148333689541686,0.7487930281528992,0.08151609572187457,0.6251989113038238,-159.80719053043802,48.66697548010751,106.8469645332562,0.797150699098584,1.0750218652883277,0.7830593696965213,1.084944465467362,0.9007170097204257,0.4710759055638743,-0.11451413688334393,0.7632116373650794,-0.47759046869120125,0.4205316167551834,-118.74179229275087,40.039878587245326,133.665553082458,0.05062141482126604,0.08401151286410298,0.3508769605039147,0.6146255711197299,0.5961944553257759,0.49897348653582063,0.32404447373934486,0.8116984456955217,-0.15657380759228692,0.46069192985470947
0.99,-119.94760248187495,80.70023872603574,134.47358132392353,0.14056116452506578,0.09147432388405884,0.0729025033769944,0.2652649606379872,0.7963131566651238,0.2110471891371896,0.13511312811942652,0.7322055453174166,0.042841025862891124,0.66366234371066,-123.44069368151159,76.20479337618393,146.89278917495264,0.3053491817406356,0.14801134641018956,0.029901668709894993,0.6977993748459754,0.5650164188524464,1.0985658245572076,0.202150727772883,0.7477302023330951,0.08294244956138248,0.6259567558629767,-159.20170925278413,49.06236376329152,109.22082586187419,0.7766971672135903,1.0692330443874605,0.7167248074144288,1.07686081842172,0.8579516151068619,0.4806195338779154,-0.1035930827590923,0.7725106443620688,-0.4578478273120871,0.4273996865034867,-119.37707100776919,39.929236843554264,133.3183391056809,0.05314959052108318,0.08048013909744285,0.3971839577668706,0.6750105367900634,0.5748657808013918,0.5314265934036023,0.3186232320871146,0.812928939284303,-0.16231958294442417,0.4601792975394508
1.0,-119.89483124672999,80.59694734416018,134.72097210194565,0.12624710252682242,0.08954113565641862,0.08099600002293353,0.23344390068233367,0.7905187761451421,0.20854850642012948,0.13724200869821637,0.7322338344324159,0.044128143387740786,0.6630688121137535,-123.26467378167484,76.38484152572856,146.85853862869743,0.2969984807295692,0.15259387051466602,0.0322806633773826,0.7119963895726587,0.524551383732283,1.1106203350225605,0.20256431153940777,0.7465726015375396,0.08453071689139663,0.6269560989241371,-158.65903274328133,49.33710007718293,111.56711689799288,0.7542830437165745,1.0551054658111307,0.650547592824448,1.0632797675264307,0.8208986397853059,0.49923555355180055,-0.09236294561994306,0.7814834086635335,-0.43869662051455555,0.43304861181643417,-120.05992786539124,39.8264686755074,132.89294957840292,0.062363672441273645,0.08017157216583044,0.44414465383261487,0.7364603044585951,0.5597028171563466,0.5588722771973231,0.3125276565449744,0.8142048983922641,-0.16878318517623586,0.45970291139393465
1.01,-119.78090685295219,80.51761253688913,135.23758361880465,0.11104501638135751,0.09231919781446461,0.08774378510367575,0.21164240172009877,0.7783265533980037,0.21411022043016548,0.1411168665009963,0.7319660508884724,0.04764407555124813,0.6621443740396693,-123.1538017946646,76.59412367443834,146.8600484611665,0.28667990895406154,0.15898293046758355,0.03681669822211939,0.7258456754999366,0.48316150371860617,1.1022133973340305,0.20260982247384215,0.7453767926397918,0.08610432315742765,0.6281568217824071,-158.18221198647012,49.49795167612548,113.86194167154271,0.7279122329461964,1.0317357403078287,0.5869280423845248,1.0458871256852007,0.7898011122719562,0.5259258572933738,-0.0810324779554328,0.7900717891116998,-0.4203354379576609,0.43751214781006553,-120.790511247064,39.727808048414936,132.41635087443507,0.07798038843700715,0.08337819598569261,0.4888312764049659,0.7966785127899112,0.5519152974394087,0.5802910242881995,0.30588626585657963,0.8155502775092224,-0.17578836764505645,0.45917147792603874
1.02,-119.60589772996816,80.465384569379,136.02192168871017,0.09565718742132001,0.10000267335781393,0.09256117423414349,0.20099374088595595,0.7590789100644034,0.23032083905825626,0.1467185142238146,0.7313663513913168,0.05339255092232445,0.6608658891549685,-123.11605777508656,76.82369282888531,146.88415704520853,0.2757022172667381,0.16611324448804604,0.04347722039434741,0.7395235887018292,0.4436945690348906,1.0734852958120165,0.2021835114665222,0.7441975438476811,0.08749108734609469,0.6295181639834632,-157.7740124782404,49.55547908830089,116.0785229047236,0.6961267706478954,0.9984416296867235,0.5277258408335561,1.02606085265441,0.7648485144939218,0.5589788653057883,-0.06983407086836727,0.7982021835654429,-0.4029661273121989,0.4408479132845607,-121.56651677240627,39.628418263609824,131.9151352702193,0.09961628801738535,0.08997452971118268,0.5286079465283459,0.8540099926609812,0.5521720846705325,0.5954174081952657,0.29884424143253085,0.8169781073709511,-0.18315573975282295,0.4584973001638247
1.03,-119.3741578537028,80.44261216645107,137.06463752739919,0.08093833686358284,0.11230285259103807,0.09498371269935221,0.20198618673725346,0.732191558049338,0.2594369278281598,0.15396680465695406,0.7304037883227151,0.06129394251506273,0.6592189677322872,-123.15569123859399,77.06511558246369,146.91567206177555,0.26509407468033364,0.17307461489144135,0.052086897702961446,0.752590013736551,0.40869861591333784,1.0263607894512397,0.20119580086807135,0.7430852665037875,0.08853069197530393,0.631001816283224,-157.43674997729744,49.52339595833385,118.18883160050478,0.6581633133818662,0.9548617500129083,0.4741880679351897,1.0046327750278283,0.7462153663014931,0.5961100159250049,-0.05901153971513047,0.8057932873470303,-0.3867836127193204,0.4431358748732055,-122.38333763132319,39.52314791506097,131.41458547399657,0.126755927582186,0.09945550735447424,0.5612666372622596,0.9076066848969002,0.5605682362275569,0.604737889165903,0.29155530601191193,0.8184922462988504,-0.190706581645126,0.45760213055355203
1.04,-119.09428567785386,80.45061818903983,138.34843984654574,0.06790913459164029,0.12845862222655247,0.0947123509112765,0.21451437152022595,0.6974090022943422,0.30300350944924,0.1627206032004538,0.729056605559659,0.07118430122765436,0.6572010254946236,-123.27309641897519,77.31097065657387,146.93817362257553,0.25549915407944107,0.17919997319632616,0.06231723495620992,0.7639837374764106,0.38023539814100515,0.9643356716244804,0.19957558815297327,0.7420833005203012,0.08908283097051839,0.6325738609475293,-157.17203497354615,49.417777388635784,120.16541019697681,0.6140295229916588,0.9010513016684172,0.42695719291956313,0.9817940928787199,0.7340734664009624,0.6346488807581087,-0.048806377079962195,0.8127645693866363,-0.37196489411687184,0.44447618516091403,-123.23435827254829,39.4072002139429,130.93778638495482,0.15870881369925513,0.11101414536964678,0.5851239739964833,0.9574411324140469,0.5766393419794548,0.609437988936285,0.2841733479854213,0.8200894780965481,-0.19826731695525912,0.45642218344449625
1.05,-118.77881774562609,80.48951777228802,139.8482736621662,0.05775277728063857,0.1473034071657268,0.09165199417857946,0.23795304805295525,0.6550652313214682,0.36151206542599845,0.1727797031713829,0.7273167526656816,0.0828182712642739,0.6548242055816869,-123.46493240256468,77.55525144460528,146.93513324033503,0.24715008796616705,0.18411085853758144,0.07369263227333746,0.7721516416350412,0.3597467883438,0.8920850336853072,0.1972747840430493,0.7412254968462808,0.08903528265606078,0.6342057919573427,-156.98045067780674,49.25618100567257,121.9832244194075,0.5644939748586673,0.8375568807621728,0.38614040707092845,0.9571478414811544,0.7285880992430891,0.6717627268779797,-0.03944356305088637,0.819044581595531,-0.35865816830792685,0.4449863976940006,-124.11135698743433,39.276655674281024,130.50483641835098,0.19456888780963102,0.1236461638199557,0.5990750885711,1.0041490211000876,0.5994194888648857,0.6112969389563704,0.276844463882323,0.821761616850247,-0.20567444564995765,0.45491184424772924
1.06,-118.44364861674357,80.55810100336123,141.531835294273,0.05178210226033766,0.1673811392700102,0.08593920155992672,0.2712386300445612,0.6062741835310853,0.43414012365547233,0.18388934053552167,0.725194021737616,0.0958763573369705,0.6521176479306267,-123.72445252523114,77.79363957979974,146.8912092131088,0.23991410765009047,0.18771689232204297,0.08561495753550781,0.7752881469113417,0.3479701429433102,0.8149685235670929,0.1942725055871165,0.7405344865920721,0.08831107558641756,0.635874887931621,-156.86121788590245,49.05673276549763,123.6213622182315,0.5109928378034134,0.7654563062907059,0.35141360984516423,0.9298778073060932,0.7298999049094952,0.7047001526929412,-0.031118112453495186,0.824578307378052,-0.3469732417623571,0.44479798646251906,-125.0049801811586,39.128818830713826,130.13220823552274,0.23319097570512576,0.136265933608642,0.6026074313988282,1.0487237226424866,0.627527777228504,0.6125199934188081,0.269700091151521,0.8234974303279137,-0.21277954287721376,0.4530457825973237
1.07,-118.10719855726373,80.65380365728976,143.3604598675239,0.05136712789129898,0.18709744426926128,0.07795273921211833,0.31294673745670376,0.5529863602125411,0.5186153327351108,0.19574771312138703,0.7227192047691615,0.10997664805954002,0.6491286669591325,-124.04199696612939,78.02362581140741,146.7935564021742,0.23339237425320208,0.1901716491459158,0.09740588349110546,0.7716458264678303,0.34490168603623206,0.7385130324453735,0.1905782827547648,0.7400208493551906,0.08687396573104698,0.6375641354965391,-156.81192185779275,48.837216141389206,125.06440255064642,0.4554656174736643,0.6863549446023653,0.32213401102017286,0.8989855534234478,0.7380828973492081,0.7310277679188734,-0.023983576942081166,0.8293328719092932,-0.3369744871182785,0.4440519858248048,-125.90525135852384,38.96239074422137,129.8322953288994,0.273195472419399,0.14781759012985513,0.5957818984565015,1.0921266777986667,0.6592625553069515,0.6155033757954399,0.26285175541430583,0.8252843066101353,-0.21945385669889886,0.45081941248036494
1.08,-117.78938732634958,80.77278699007846,145.2903712565458,0.05781874358182901,0.2048871229377752,0.0683014482924867,0.3613574348897131,0.4978843594136741,0.6112393996624863,0.2080164438943478,0.7199457685264888,0.12469060791015216,0.6459225714119785,-124.40560024581846,78.24446614573584,146.6329875285219,0.22704938960786097,0.19179325168466776,0.10836322054945358,0.7598682376649756,0.3498144499891688,0.6679360450304495,0.18623371245579912,0.7396832035394558,0.08473156033092763,0.6392617801326189,-156.82837970158775,48.61419765562777,126.30330620174573,0.40013943395993334,0.6023366298165123,0.2974446524187691,0.8635466798283129,0.7530666317339696,0.7488272873898872,-0.018143649664399537,0.8333010586496722,-0.3286773947984567,0.44289356101440747,-126.80207964226771,38.77749458556091,129.61316397359252,0.3130072991077694,0.15736823202815606,0.5791891400328455,1.1349010931210481,0.6926852994082571,0.6225451156153612,0.25638767497254195,0.8271096037183716,-0.22559208568539493,0.44824789122278547
1.09,-117.51050033495584,80.91013904362227,147.27424338267105,0.07223470291820631,0.21937569512542512,0.0577879992768103,0.4145048834166058,0.44413578631953754,0.7070936390988475,0.22033350569903426,0.7169497074554996,0.13956208676520984,0.6425810454406281,-124.80166821450392,78.45697581852468,146.40484371500324,0.22034715634381458,0.19296411526050214,0.11782460611591625,0.7392883944363152,0.36133990232465396,0.6077519108020959,0.18131218965685406,0.7395091047251603,0.08193558464960646,0.6409605194619898,-156.90470514129396,48.40222829113503,127.33573579948009,0.3472871205881988,0.5158730322757261,0.2763668643807952,0.8229441085771183,0.7745253949664894,0.7568310997726244,-0.013647755215643247,0.8365022442935731,-0.3220492851138722,0.44146552585782023,-127.68573720239809,38.575596527893175,129.4785154358025,0.35092951562659086,0.16417630821299842,0.5538865695483421,1.1768732271908908,0.7256891970756959,0.635538286902202,0.25037115744850036,0.828961583539612,-0.23111501349394054,0.44536402807923553
1.1,-117.29004017222798,81.06019521094079,149.26299784214353,0.09532645556591539,0.22951261692776023,0.047352426821579446,0.47021470208555555,0.3950565103344577,0.8004282014449419,0.23232791742123884,0.7138273889155003,0.1541284002996154,0.639199155904421,-125.2156836409707,78.66318149409807,146.1094718109208,0.21286104623048252,0.19402931040856305,0.12522990293869798,0.7101376271767785,0.37761551334577004,0.5614859909652508,0.17591659091952985,0.739476566431388,0.07857902572279842,0.6426564016053539,-157.03358377321723,48.213175053832245,128.1657864019027,0.29898939963230153,0.4296988951552638,0.2578852157117231,0.7770428490969817,0.8017627330889344,0.754499756288325,-0.01049103778226239,0.8389806197707455,-0.31701409591474944,0.43990122195091,-128.5472832217297,38.359366459836984,129.42785351989423,0.3852468551271009,0.1677353245399603,0.5213184201804426,1.2169991152409148,0.7560658799754514,0.6556980866543597,0.24484050689737497,0.830829839898274,-0.2359707712013299,0.44221553282957593
1.11,-117.14564265536357,81.21695791779145,151.20775592760154,0.12725416585870858,0.23465807729821553,0.038003074416624115,0.5261385143949773,0.3537492280116662,0.8852088406126789,0.24363551192762326,0.710691323122383,0.16794224802035113,0.6358811606117134,-125.63290388609012,78.86587104970174,145.7522594162975,0.20436075757577582,0.19521425252196728,0.13017338715585686,0.6736258910263646,0.3964873092364191,0.5315025055465551,0.1701750095966237,0.739555998073072,0.07479023436187851,0.644347590638864,-157.20671981570456,48.05574807263607,128.8031868035803,0.25693355480577434,0.34666207810510385,0.24103031988066348,0.7262814129551655,0.8336356336042321,0.7420659468433478,-0.008618591683937167,0.8408008973996236,-0.31346050881430104,0.43831760063586067,-129.37892131030227,38.132514531077035,129.45684693177157,0.4143497909586554,0.1677980834870018,0.483218724259759,1.2533779874646576,0.7815955434258808,0.6833732019511817,0.23981009001637274,0.8327052364793663,-0.24013460293175434,0.43886198603845467
1.12,-117.09211454336153,81.37457926816842,153.0618634716471,0.1674992961021595,0.2346138632549448,0.030743521576698674,0.5797990081491552,0.32277403083442563,0.9557578869008618,0.2539151221810312,0.7076639283711501,0.1805932751000968,0.6327353822019622,-126.03901853810379,79.06809578904576,145.34323536984036,0.1948484256694426,0.19657796056550558,0.13243856195249631,0.6318801110298952,0.41574332038427947,0.5189323982445668,0.164234819756852,0.7397123708114791,0.07072448331151653,0.6460332041018747,-157.41537571015934,47.935283460652094,129.26209590111748,0.22227651340922872,0.26955799346043074,0.22495993124216532,0.6716728671785768,0.8685537279721616,0.7205679028160219,-0.007933262249703225,0.8420420523555139,-0.3112521881187971,0.4368095784761446,-130.1742825224088,37.899625258259746,129.55787155330756,0.4368652100663639,0.1643881882665188,0.4414967539696926,1.2834187410334448,0.8001814202280645,0.7179777169627752,0.2352722744490867,0.8345795140528166,-0.24360714628540214,0.4353717887141261
1.13,-117.1406331147755,81.52786063399806,154.78290322816835,0.21480031087370288,0.22959965525626458,0.02650279508429296,0.6286606339001289,0.3038894946504933,1.0073903885569673,0.2628644949266118,0.704869572654878,0.19172812328579056,0.6298684910629537,-126.42074020944948,79.2726873326512,144.8962919725488,0.18455403422440675,0.19800909761450677,0.1320116438239564,0.5877505425115286,0.4333460446459257,0.5236792333531548,0.15825548175727888,0.7399074576989981,0.06655383374517092,0.6477123620209307,-157.6509149122835,47.853815229661585,129.5596544055496,0.19558749779311377,0.20095911027814473,0.20903178788670945,0.6147262835959919,0.9045586976174466,0.6918718819132589,-0.008305995725235448,0.8427899232360254,-0.31023872085021775,0.435446602785822,-130.9286246659976,37.66599676035395,129.72071037859325,0.4517761375441497,0.15780365305580993,0.3981074863596518,1.3041199441457023,0.8100300441456199,0.7580595827635743,0.23120008796811742,0.8364447983439199,-0.2464113827331147,0.4318191999735231
1.14,-117.29814073959501,81.67272059076377,156.33459551318705,0.2671695260314587,0.220186141569818,0.026073833374428562,0.6702406245364183,0.297884443599074,1.0369334703336748,0.2702350741013077,0.7024254313025657,0.20106780516323283,0.6273796152364414,-126.76630820684181,79.48184862498435,144.42811703662858,0.17389417844036903,0.19926178238320974,0.12907350020524494,0.5445119683574042,0.4476326081496478,0.544487506205238,0.15240058241254914,0.7401020364383697,0.062456313501751994,0.6493834645768392,-157.9052762128829,47.810426068778604,129.71445941871923,0.17686789861599075,0.14305218901968259,0.19285579403416017,0.5573100446243725,0.9394582868348784,0.6586561680382252,-0.009587574162982886,0.8431296303886174,-0.3102660036562038,0.43427188155990293,-131.6389331040977,37.43748311226349,129.93337587435,0.45851220030804124,0.14861353620117157,0.3549152995266865,1.3124119275022887,0.809855178273005,0.8014998826738913,0.22755055616893383,0.8382931866918787,-0.24858851855840736,0.4282814780491467
1.15,-117.56696621637927,81.80658554989176,157.6884639265822,0.3219987958575868,0.20720241780527315,0.03006268357164549,0.7022686559361047,0.3045067369269287,1.0430418447927214,0.27584456198378515,0.7004319517342379,0.20842121983760153,0.6253547588228646,-127.0658917887933,79.6968663354481,143.95693725773165,0.16340383452446922,0.20001991415829168,0.12397316827283224,0.5054998226013874,0.45745947368540085,0.5790684741094857,0.1468296046477864,0.7402579804098827,0.058605320574178936,0.6510436436432138,-158.17134000314948,47.80182017207591,129.7451176741428,0.16563031530220768,0.09749746481238583,0.17631212766182322,0.5014840773544442,0.9709777880565678,0.6243161460733966,-0.011620596107530575,0.8431387439624414,-0.3111852069546305,0.4333041000279202,-132.30390510698234,37.22033442886242,130.18300236170703,0.45699614491236684,0.13764434984271406,0.3135646465367098,1.3055117069974338,0.7990686747948214,0.8458144124665724,0.2242686780332714,0.8401164640092551,-0.2501931085606228,0.4248361541305206
1.16,-117.94470104119782,81.92866339967496,158.82511794969946,0.37624886643741684,0.19163567946842697,0.03884878403984248,0.7228892655572636,0.32248655508148455,1.0262759743558352,0.2795860129076678,0.6989639259469279,0.2136936832078126,0.6238620417063548,-127.3118860453476,79.91797336957177,143.5011739981825,0.15365250976751213,0.1999742831554049,0.11718820988701473,0.47373259176650295,0.4622790558446532,0.6242833076095463,0.14168986430582958,0.740340188892896,0.05515991619854221,0.6526883679638675,-158.44317452387807,47.82302707100045,129.66901231330468,0.1610102310314073,0.06532284979867002,0.1595286624845716,0.4493313810764314,0.996901303386648,0.5927591871442754,-0.01425067087016094,0.8428819766595609,-0.31285984422250623,0.4325409281168865,-132.9238054689551,37.02103107833154,130.45674001373257,0.447639298940308,0.12595030003352062,0.2753743493371887,1.281252039711297,0.7779203334615516,0.8885082839103822,0.22129190075788294,0.8419059034932658,-0.2512877687575411,0.42155854397346987
1.17,-118.42434663167698,82.0400680700644,159.73499575787162,0.42670328081006065,0.17453710646416304,0.05255517543489925,0.7308845080719977,0.34964579884706276,0.9889635282907724,0.2814322993256966,0.6980632882973942,0.2168895356217832,0.6229482489248526,-127.49909793035354,80.14436917405821,143.07810650135124,0.1451568627002291,0.1988965054229767,0.10927760986386312,0.4515767844455255,0.46214328993592774,0.6763800056247374,0.13710899441099558,0.7403183168005961,0.052256404165014286,0.6543112679928184,-158.71616292064164,47.86813424079127,129.50139168216114,0.16188407306478533,0.046861852129766964,0.1428235857639378,0.4028163351980956,1.0151929120597656,0.5680844343190352,-0.017335909740250358,0.842407934982105,-0.31517071668542956,0.431963421069221,-133.50019808923108,36.84611283021443,130.7425734131013,0.4312880255950166,0.11476146878279743,0.24127094502715205,1.2383585973079265,0.7475573727209078,0.9274242614901772,0.21855482682993033,0.8436521013960857,-0.2519378789541313,0.4185196380286362
1.18,-118.99472672507443,82.14377230992596,160.418436819333,0.47025600174949317,0.1569419582250834,0.07102683607374086,0.7258823375452736,0.383080794021367,0.9348966511630125,0.2814351794829583,0.6977346912642866,0.2181082484657371,0.6226370646442012,-127.62482208540422,80.37438574928446,142.70263302406278,0.13830243584906501,0.196696880542537,0.10083213215718563,0.44050298711472335,0.4576346949521677,0.7312728656974083,0.13318834290619713,0.7401682577056579,0.050001434343600375,0.6559042784121368,-158.98701118298544,47.93095892887152,129.254856347301,0.1669743719683343,0.04173841518700052,0.12663001515099684,0.36368474844477716,1.0241052456580757,0.5541743004425337,-0.02075391349048509,0.8417481794894005,-0.3180185679830468,0.43154057205121954,-134.035582068026,36.702008017633645,131.02999055795823,0.409131108454403,0.10540733980155167,0.2117705375358966,1.1766597720717422,0.7099872330082396,0.961030968731194,0.21599376897819955,0.8453448281964902,-0.2522067303510823,0.41578445401178565
1.19,-119.64113234882515,82.24437831331743,160.88502323485585,0.5041959752198958,0.1398071623516758,0.09381599889583492,0.7085101462195176,0.4194030328717153,0.868924901231625,0.2797188352799682,0.6979445982426153,0.21753399673227938,0.6229291419428405,-127.6888062849634,80.60577112596671,142.38621894653787,0.13328703049516832,0.19345766331557893,0.09242599371690138,0.44095995321646947,0.4497330408237367,0.7848468830782157,0.12999767486786723,0.73987331507703,0.04846685866328013,0.6574581238562623,-159.25363208587575,48.00559822623423,128.93928079610876,0.17493323518391038,0.04889760030291251,0.11142263629379912,0.33340339609624303,1.0222962886394895,0.5542505926685893,-0.02440563417904804,0.8409185539342389,-0.3213242721287172,0.43123364124335856,-134.53298166135068,36.594869951441794,131.31044402093852,0.3825829791832305,0.09921878095215332,0.18700890378742652,1.0972182198641935,0.6679410488805009,0.988608721280809,0.21355067730601868,0.8469728701643914,-0.25215156973689357,0.41341082868667955
